
Integration time [ms]:   0.300
Averaging Nr. [scans]: 1
Smoothing Nr. [pixels]: 0
Data measured with spectrometer [name]: UV1
Wave   ;Sample   ;Dark     ;Reference
[nm]   ;[counts] ;[counts] ;[counts] 

236.381;  139.700;  149.925;    0.000
236.451;  194.700;  206.925;    0.000
236.520;  182.700;  212.925;    0.000
236.590;  198.700;  189.925;    0.000
236.660;  178.700;  184.925;    0.000
236.730;  186.700;  186.925;    0.000
236.799;  216.700;  191.925;    0.000
236.869;  164.700;  184.925;    0.000
236.939;  178.700;  176.925;    0.000
237.009;  180.700;  184.925;    0.000
237.078;  154.700;  189.925;    0.000
237.148;  139.700;  217.925;    0.000
237.218;  203.700;  192.925;    0.000
237.287;  180.700;  182.925;    0.000
237.357;  195.700;  196.925;    0.000
237.427;  192.700;  144.925;    0.000
237.496;  664.700;  224.925;    0.000
237.566;  638.700;  210.925;    0.000
237.636;  621.700;  165.925;    0.000
237.705;  672.700;  214.925;    0.000
237.775;  635.700;  194.925;    0.000
237.845;  629.700;  214.925;    0.000
237.914;  616.700;  191.925;    0.000
237.984;  697.700;  218.925;    0.000
238.054;  601.700;  187.925;    0.000
238.123;  644.700;  179.925;    0.000
238.193;  641.700;  177.925;    0.000
238.263;  649.700;  225.925;    0.000
238.332;  583.700;  197.925;    0.000
238.402;  643.700;  183.925;    0.000
238.471;  609.700;  181.925;    0.000
238.541;  625.700;  200.925;    0.000
238.611;  631.700;  170.925;    0.000
238.680;  580.700;  170.925;    0.000
238.750;  654.700;  175.925;    0.000
238.819;  583.700;  180.925;    0.000
238.889;  641.700;  190.925;    0.000
238.958;  614.700;  207.925;    0.000
239.028;  613.700;  201.925;    0.000
239.097;  620.700;  181.925;    0.000
239.167;  648.700;  222.925;    0.000
239.237;  645.700;  221.925;    0.000
239.306;  592.700;  147.925;    0.000
239.376;  649.700;  188.925;    0.000
239.445;  669.700;  198.925;    0.000
239.515;  611.700;  191.925;    0.000
239.584;  625.700;  178.925;    0.000
239.654;  581.700;  147.925;    0.000
239.723;  661.700;  212.925;    0.000
239.793;  593.700;  185.925;    0.000
239.862;  610.700;  157.925;    0.000
239.932;  623.700;  181.925;    0.000
240.001;  605.700;  163.925;    0.000
240.070;  659.700;  194.925;    0.000
240.140;  605.700;  202.925;    0.000
240.209;  624.700;  180.925;    0.000
240.279;  578.700;  188.925;    0.000
240.348;  605.700;  189.925;    0.000
240.418;  592.700;  143.925;    0.000
240.487;  641.700;  195.925;    0.000
240.556;  627.700;  170.925;    0.000
240.626;  648.700;  172.925;    0.000
240.695;  619.700;  202.925;    0.000
240.765;  625.700;  191.925;    0.000
240.834;  613.700;  177.925;    0.000
240.903;  616.700;  189.925;    0.000
240.973;  533.700;  196.925;    0.000
241.042;  558.700;  183.925;    0.000
241.112;  621.700;  189.925;    0.000
241.181;  633.700;  186.925;    0.000
241.250;  563.700;  168.925;    0.000
241.320;  557.700;  200.925;    0.000
241.389;  538.700;  185.925;    0.000
241.458;  559.700;  194.925;    0.000
241.528;  593.700;  165.925;    0.000
241.597;  572.700;  200.925;    0.000
241.666;  575.700;  184.925;    0.000
241.736;  600.700;  176.925;    0.000
241.805;  612.700;  165.925;    0.000
241.874;  573.700;  200.925;    0.000
241.943;  629.700;  184.925;    0.000
242.013;  638.700;  212.925;    0.000
242.082;  535.700;  200.925;    0.000
242.151;  585.700;  196.925;    0.000
242.221;  531.700;  182.925;    0.000
242.290;  571.700;  222.925;    0.000
242.359;  544.700;  142.925;    0.000
242.428;  582.700;  180.925;    0.000
242.498;  537.700;  180.925;    0.000
242.567;  618.700;  181.925;    0.000
242.636;  576.700;  203.925;    0.000
242.705;  561.700;  209.925;    0.000
242.774;  548.700;  172.925;    0.000
242.844;  537.700;  218.925;    0.000
242.913;  538.700;  188.925;    0.000
242.982;  617.700;  193.925;    0.000
243.051;  589.700;  202.925;    0.000
243.120;  579.700;  174.925;    0.000
243.190;  537.700;  165.925;    0.000
243.259;  584.700;  206.925;    0.000
243.328;  565.700;  166.925;    0.000
243.397;  591.700;  167.925;    0.000
243.466;  556.700;  163.925;    0.000
243.535;  543.700;  162.925;    0.000
243.605;  527.700;  159.925;    0.000
243.674;  565.700;  171.925;    0.000
243.743;  592.700;  189.925;    0.000
243.812;  485.700;  169.925;    0.000
243.881;  584.700;  145.925;    0.000
243.950;  544.700;  197.925;    0.000
244.019;  571.700;  189.925;    0.000
244.088;  543.700;  200.925;    0.000
244.158;  575.700;  208.925;    0.000
244.227;  545.700;  154.925;    0.000
244.296;  531.700;  142.925;    0.000
244.365;  524.700;  198.925;    0.000
244.434;  550.700;  162.925;    0.000
244.503;  548.700;  186.925;    0.000
244.572;  565.700;  143.925;    0.000
244.641;  532.700;  145.925;    0.000
244.710;  557.700;  159.925;    0.000
244.779;  544.700;  175.925;    0.000
244.848;  495.700;  163.925;    0.000
244.917;  523.700;  157.925;    0.000
244.986;  549.700;  166.925;    0.000
245.055;  575.700;  211.925;    0.000
245.124;  557.700;  155.925;    0.000
245.193;  528.700;  187.925;    0.000
245.262;  506.700;  152.925;    0.000
245.331;  495.700;  177.925;    0.000
245.400;  476.700;  157.925;    0.000
245.469;  553.700;  195.925;    0.000
245.538;  531.700;  199.925;    0.000
245.607;  586.700;  194.925;    0.000
245.676;  502.700;  170.925;    0.000
245.745;  519.700;  208.925;    0.000
245.814;  513.700;  185.925;    0.000
245.883;  530.700;  165.925;    0.000
245.952;  566.700;  151.925;    0.000
246.021;  522.700;  171.925;    0.000
246.090;  572.700;  174.925;    0.000
246.159;  539.700;  192.925;    0.000
246.227;  516.700;  178.925;    0.000
246.296;  528.700;  159.925;    0.000
246.365;  562.700;  189.925;    0.000
246.434;  523.700;  205.925;    0.000
246.503;  492.700;  174.925;    0.000
246.572;  597.700;  203.925;    0.000
246.641;  495.700;  169.925;    0.000
246.710;  568.700;  186.925;    0.000
246.779;  512.700;  196.925;    0.000
246.847;  531.700;  209.925;    0.000
246.916;  517.700;  177.925;    0.000
246.985;  506.700;  188.925;    0.000
247.054;  501.700;  189.925;    0.000
247.123;  459.700;  196.925;    0.000
247.192;  550.700;  210.925;    0.000
247.260;  537.700;  164.925;    0.000
247.329;  514.700;  204.925;    0.000
247.398;  521.700;  204.925;    0.000
247.467;  488.700;  160.925;    0.000
247.536;  566.700;  193.925;    0.000
247.604;  519.700;  208.925;    0.000
247.673;  512.700;  168.925;    0.000
247.742;  499.700;  182.925;    0.000
247.811;  485.700;  186.925;    0.000
247.879;  528.700;  166.925;    0.000
247.948;  538.700;  192.925;    0.000
248.017;  449.700;  178.925;    0.000
248.086;  538.700;  193.925;    0.000
248.154;  509.700;  191.925;    0.000
248.223;  493.700;  207.925;    0.000
248.292;  496.700;  168.925;    0.000
248.361;  505.700;  211.925;    0.000
248.429;  508.700;  196.925;    0.000
248.498;  479.700;  163.925;    0.000
248.567;  491.700;  159.925;    0.000
248.635;  567.700;  194.925;    0.000
248.704;  473.700;  205.925;    0.000
248.773;  505.700;  190.925;    0.000
248.841;  580.700;  179.925;    0.000
248.910;  518.700;  193.925;    0.000
248.979;  448.700;  167.925;    0.000
249.047;  493.700;  166.925;    0.000
249.116;  511.700;  191.925;    0.000
249.185;  513.700;  203.925;    0.000
249.253;  464.700;  140.925;    0.000
249.322;  503.700;  173.925;    0.000
249.390;  493.700;  165.925;    0.000
249.459;  556.700;  173.925;    0.000
249.528;  497.700;  203.925;    0.000
249.596;  507.700;  204.925;    0.000
249.665;  474.700;  176.925;    0.000
249.733;  509.700;  178.925;    0.000
249.802;  519.700;  190.925;    0.000
249.871;  517.700;  171.925;    0.000
249.939;  480.700;  160.925;    0.000
250.008;  518.700;  220.925;    0.000
250.076;  491.700;  211.925;    0.000
250.145;  490.700;  145.925;    0.000
250.213;  475.700;  177.925;    0.000
250.282;  471.700;  186.925;    0.000
250.350;  422.700;  170.925;    0.000
250.419;  470.700;  195.925;    0.000
250.487;  484.700;  194.925;    0.000
250.556;  488.700;  178.925;    0.000
250.624;  492.700;  193.925;    0.000
250.693;  440.700;  167.925;    0.000
250.761;  496.700;  253.925;    0.000
250.830;  477.700;  241.925;    0.000
250.898;  449.700;  161.925;    0.000
250.967;  485.700;  178.925;    0.000
251.035;  475.700;  189.925;    0.000
251.104;  487.700;  166.925;    0.000
251.172;  475.700;  178.925;    0.000
251.241;  397.700;  174.925;    0.000
251.309;  489.700;  197.925;    0.000
251.378;  434.700;  172.925;    0.000
251.446;  432.700;  157.925;    0.000
251.514;  468.700;  197.925;    0.000
251.583;  483.700;  191.925;    0.000
251.651;  455.700;  154.925;    0.000
251.720;  476.700;  198.925;    0.000
251.788;  469.700;  226.925;    0.000
251.856;  437.700;  164.925;    0.000
251.925;  408.700;  181.925;    0.000
251.993;  438.700;  203.925;    0.000
252.062;  475.700;  211.925;    0.000
252.130;  459.700;  185.925;    0.000
252.198;  469.700;  190.925;    0.000
252.267;  449.700;  176.925;    0.000
252.335;  508.700;  179.925;    0.000
252.403;  428.700;  173.925;    0.000
252.472;  436.700;  172.925;    0.000
252.540;  435.700;  187.925;    0.000
252.608;  451.700;  204.925;    0.000
252.677;  431.700;  179.925;    0.000
252.745;  511.700;  192.925;    0.000
252.813;  427.700;  168.925;    0.000
252.881;  388.700;  157.925;    0.000
252.950;  412.700;  188.925;    0.000
253.018;  428.700;  191.925;    0.000
253.086;  468.700;  164.925;    0.000
253.155;  426.700;  172.925;    0.000
253.223;  429.700;  168.925;    0.000
253.291;  415.700;  190.925;    0.000
253.359;  415.700;  205.925;    0.000
253.428;  473.700;  228.925;    0.000
253.496;  382.700;  170.925;    0.000
253.564;  407.700;  164.925;    0.000
253.632;  418.700;  159.925;    0.000
253.700;  418.700;  166.925;    0.000
253.769;  431.700;  172.925;    0.000
253.837;  402.700;  157.925;    0.000
253.905;  412.700;  168.925;    0.000
253.973;  448.700;  179.925;    0.000
254.041;  406.700;  187.925;    0.000
254.110;  418.700;  186.925;    0.000
254.178;  438.700;  156.925;    0.000
254.246;  421.700;  132.925;    0.000
254.314;  429.700;  191.925;    0.000
254.382;  406.700;  189.925;    0.000
254.450;  422.700;  163.925;    0.000
254.518;  446.700;  172.925;    0.000
254.587;  385.700;  162.925;    0.000
254.655;  479.700;  191.925;    0.000
254.723;  420.700;  184.925;    0.000
254.791;  466.700;  169.925;    0.000
254.859;  452.700;  186.925;    0.000
254.927;  489.700;  207.925;    0.000
254.995;  412.700;  143.925;    0.000
255.063;  457.700;  198.925;    0.000
255.131;  426.700;  168.925;    0.000
255.199;  429.700;  183.925;    0.000
255.267;  469.700;  159.925;    0.000
255.336;  493.700;  197.925;    0.000
255.404;  419.700;  177.925;    0.000
255.472;  450.700;  204.925;    0.000
255.540;  457.700;  169.925;    0.000
255.608;  427.700;  141.925;    0.000
255.676;  471.700;  176.925;    0.000
255.744;  458.700;  184.925;    0.000
255.812;  478.700;  158.925;    0.000
255.880;  513.700;  202.925;    0.000
255.948;  482.700;  184.925;    0.000
256.016;  502.700;  192.925;    0.000
256.084;  490.700;  204.925;    0.000
256.152;  508.700;  191.925;    0.000
256.220;  539.700;  187.925;    0.000
256.288;  466.700;  176.925;    0.000
256.356;  474.700;  146.925;    0.000
256.424;  488.700;  164.925;    0.000
256.491;  471.700;  161.925;    0.000
256.559;  532.700;  167.925;    0.000
256.627;  486.700;  180.925;    0.000
256.695;  472.700;  159.925;    0.000
256.763;  517.700;  166.925;    0.000
256.831;  498.700;  166.925;    0.000
256.899;  539.700;  161.925;    0.000
256.967;  478.700;  116.925;    0.000
257.035;  533.700;  195.925;    0.000
257.103;  541.700;  227.925;    0.000
257.171;  524.700;  147.925;    0.000
257.238;  530.700;  158.925;    0.000
257.306;  492.700;  188.925;    0.000
257.374;  523.700;  153.925;    0.000
257.442;  513.700;  159.925;    0.000
257.510;  561.700;  201.925;    0.000
257.578;  578.700;  137.925;    0.000
257.646;  539.700;  172.925;    0.000
257.713;  540.700;  164.925;    0.000
257.781;  569.700;  163.925;    0.000
257.849;  587.700;  174.925;    0.000
257.917;  574.700;  164.925;    0.000
257.985;  584.700;  126.925;    0.000
258.052;  587.700;  158.925;    0.000
258.120;  607.700;  151.925;    0.000
258.188;  650.700;  169.925;    0.000
258.256;  596.700;  110.925;    0.000
258.324;  705.700;  193.925;    0.000
258.391;  582.700;  157.925;    0.000
258.459;  658.700;  193.925;    0.000
258.527;  694.700;  150.925;    0.000
258.595;  611.700;  173.925;    0.000
258.662;  595.700;  168.925;    0.000
258.730;  614.700;  190.925;    0.000
258.798;  688.700;  164.925;    0.000
258.865;  702.700;  165.925;    0.000
258.933;  710.700;  162.925;    0.000
259.001;  704.700;  174.925;    0.000
259.069;  676.700;  139.925;    0.000
259.136;  771.700;  160.925;    0.000
259.204;  768.700;  174.925;    0.000
259.272;  742.700;  161.925;    0.000
259.339;  749.700;  157.925;    0.000
259.407;  819.700;  159.925;    0.000
259.475;  740.700;  134.925;    0.000
259.542;  745.700;  179.925;    0.000
259.610;  796.700;  172.925;    0.000
259.677;  799.700;  152.925;    0.000
259.745;  750.700;  131.925;    0.000
259.813;  815.700;  185.925;    0.000
259.880;  837.700;  183.925;    0.000
259.948;  807.700;  168.925;    0.000
260.016;  782.700;  160.925;    0.000
260.083;  880.700;  163.925;    0.000
260.151;  848.700;  162.925;    0.000
260.218;  861.700;  171.925;    0.000
260.286;  918.700;  154.925;    0.000
260.353;  860.700;  182.925;    0.000
260.421;  921.700;  187.925;    0.000
260.489;  905.700;  185.925;    0.000
260.556;  875.700;  165.925;    0.000
260.624;  932.700;  185.925;    0.000
260.691;  953.700;  175.925;    0.000
260.759;  991.700;  201.925;    0.000
260.826;  923.700;  150.925;    0.000
260.894;  906.700;  142.925;    0.000
260.961;  955.700;  156.925;    0.000
261.029;  945.700;  161.925;    0.000
261.096;  966.700;  172.925;    0.000
261.164;  962.700;  149.925;    0.000
261.231;  994.700;  191.925;    0.000
261.299; 1022.700;  182.925;    0.000
261.366; 1007.700;  156.925;    0.000
261.434;  956.700;  188.925;    0.000
261.501;  992.700;  170.925;    0.000
261.568; 1088.700;  167.925;    0.000
261.636; 1058.700;  169.925;    0.000
261.703; 1034.700;  200.925;    0.000
261.771; 1059.700;  170.925;    0.000
261.838; 1073.700;  175.925;    0.000
261.906; 1005.700;  135.925;    0.000
261.973; 1090.700;  184.925;    0.000
262.040; 1150.700;  176.925;    0.000
262.108; 1120.700;  201.925;    0.000
262.175; 1085.700;  141.925;    0.000
262.243; 1137.700;  175.925;    0.000
262.310; 1070.700;  112.925;    0.000
262.377; 1154.700;  158.925;    0.000
262.445; 1137.700;  162.925;    0.000
262.512; 1123.700;  184.925;    0.000
262.579; 1153.700;  185.925;    0.000
262.647; 1200.700;  158.925;    0.000
262.714; 1274.700;  197.925;    0.000
262.781; 1205.700;  133.925;    0.000
262.849; 1180.700;  146.925;    0.000
262.916; 1243.700;  204.925;    0.000
262.983; 1279.700;  191.925;    0.000
263.051; 1186.700;  140.925;    0.000
263.118; 1195.700;  154.925;    0.000
263.185; 1199.700;  169.925;    0.000
263.252; 1250.700;  150.925;    0.000
263.320; 1150.700;  145.925;    0.000
263.387; 1226.700;  144.925;    0.000
263.454; 1236.700;  193.925;    0.000
263.522; 1258.700;  160.925;    0.000
263.589; 1264.700;  153.925;    0.000
263.656; 1310.700;  178.925;    0.000
263.723; 1274.700;  136.925;    0.000
263.790; 1271.700;  162.925;    0.000
263.858; 1238.700;  164.925;    0.000
263.925; 1313.700;  146.925;    0.000
263.992; 1320.700;  191.925;    0.000
264.059; 1410.700;  180.925;    0.000
264.126; 1328.700;  183.925;    0.000
264.194; 1452.700;  174.925;    0.000
264.261; 1421.700;  187.925;    0.000
264.328; 1321.700;  179.925;    0.000
264.395; 1432.700;  166.925;    0.000
264.462; 1379.700;  197.925;    0.000
264.529; 1351.700;  209.925;    0.000
264.597; 1429.700;  173.925;    0.000
264.664; 1437.700;  193.925;    0.000
264.731; 1401.700;  165.925;    0.000
264.798; 1388.700;  148.925;    0.000
264.865; 1496.700;  186.925;    0.000
264.932; 1439.700;  152.925;    0.000
264.999; 1493.700;  166.925;    0.000
265.066; 1515.700;  186.925;    0.000
265.133; 1519.700;  172.925;    0.000
265.201; 1509.700;  159.925;    0.000
265.268; 1426.700;  164.925;    0.000
265.335; 1477.700;  161.925;    0.000
265.402; 1422.700;  157.925;    0.000
265.469; 1482.700;  134.925;    0.000
265.536; 1457.700;  191.925;    0.000
265.603; 1612.700;  170.925;    0.000
265.670; 1521.700;  162.925;    0.000
265.737; 1550.700;  172.925;    0.000
265.804; 1548.700;  151.925;    0.000
265.871; 1573.700;  191.925;    0.000
265.938; 1575.700;  173.925;    0.000
266.005; 1587.700;  201.925;    0.000
266.072; 1532.700;  156.925;    0.000
266.139; 1535.700;  191.925;    0.000
266.206; 1575.700;  151.925;    0.000
266.273; 1588.700;  194.925;    0.000
266.340; 1520.700;  120.925;    0.000
266.407; 1503.700;  130.925;    0.000
266.474; 1504.700;  137.925;    0.000
266.541; 1558.700;  139.925;    0.000
266.608; 1609.700;  139.925;    0.000
266.675; 1533.700;  198.925;    0.000
266.742; 1640.700;  165.925;    0.000
266.808; 1575.700;  174.925;    0.000
266.875; 1622.700;  169.925;    0.000
266.942; 1677.700;  137.925;    0.000
267.009; 1645.700;  181.925;    0.000
267.076; 1687.700;  204.925;    0.000
267.143; 1662.700;  179.925;    0.000
267.210; 1610.700;  160.925;    0.000
267.277; 1645.700;  154.925;    0.000
267.344; 1617.700;  178.925;    0.000
267.410; 1628.700;  190.925;    0.000
267.477; 1662.700;  193.925;    0.000
267.544; 1688.700;  168.925;    0.000
267.611; 1705.700;  177.925;    0.000
267.678; 1637.700;  205.925;    0.000
267.745; 1741.700;  205.925;    0.000
267.811; 1606.700;  164.925;    0.000
267.878; 1685.700;  166.925;    0.000
267.945; 1773.700;  160.925;    0.000
268.012; 1663.700;  172.925;    0.000
268.079; 1727.700;  186.925;    0.000
268.145; 1636.700;  188.925;    0.000
268.212; 1635.700;  181.925;    0.000
268.279; 1711.700;  158.925;    0.000
268.346; 1686.700;  192.925;    0.000
268.412; 1736.700;  159.925;    0.000
268.479; 1711.700;  176.925;    0.000
268.546; 1720.700;  170.925;    0.000
268.613; 1754.700;  133.925;    0.000
268.679; 1638.700;  170.925;    0.000
268.746; 1703.700;  185.925;    0.000
268.813; 1698.700;  170.925;    0.000
268.879; 1631.700;  149.925;    0.000
268.946; 1706.700;  176.925;    0.000
269.013; 1796.700;  153.925;    0.000
269.079; 1696.700;  156.925;    0.000
269.146; 1618.700;  143.925;    0.000
269.213; 1692.700;  170.925;    0.000
269.280; 1634.700;  202.925;    0.000
269.346; 1713.700;  180.925;    0.000
269.413; 1593.700;  162.925;    0.000
269.479; 1724.700;  175.925;    0.000
269.546; 1703.700;  151.925;    0.000
269.613; 1572.700;  159.925;    0.000
269.679; 1717.700;  190.925;    0.000
269.746; 1661.700;  159.925;    0.000
269.813; 1631.700;  151.925;    0.000
269.879; 1626.700;  169.925;    0.000
269.946; 1725.700;  169.925;    0.000
270.012; 1671.700;  185.925;    0.000
270.079; 1635.700;  133.925;    0.000
270.145; 1664.700;  161.925;    0.000
270.212; 1662.700;  156.925;    0.000
270.279; 1593.700;  176.925;    0.000
270.345; 1692.700;  140.925;    0.000
270.412; 1660.700;  162.925;    0.000
270.478; 1631.700;  148.925;    0.000
270.545; 1690.700;  146.925;    0.000
270.611; 1689.700;  168.925;    0.000
270.678; 1661.700;  164.925;    0.000
270.744; 1635.700;  117.925;    0.000
270.811; 1642.700;  196.925;    0.000
270.877; 1576.700;  151.925;    0.000
270.944; 1587.700;  174.925;    0.000
271.010; 1607.700;  180.925;    0.000
271.077; 1640.700;  162.925;    0.000
271.143; 1600.700;  178.925;    0.000
271.210; 1635.700;  159.925;    0.000
271.276; 1602.700;  143.925;    0.000
271.342; 1506.700;  196.925;    0.000
271.409; 1653.700;  161.925;    0.000
271.475; 1645.700;  153.925;    0.000
271.542; 1612.700;  147.925;    0.000
271.608; 1584.700;  175.925;    0.000
271.675; 1516.700;  134.925;    0.000
271.741; 1583.700;  182.925;    0.000
271.807; 1529.700;  174.925;    0.000
271.874; 1703.700;  169.925;    0.000
271.940; 1639.700;  179.925;    0.000
272.007; 1647.700;  173.925;    0.000
272.073; 1620.700;  133.925;    0.000
272.139; 1555.700;  191.925;    0.000
272.206; 1580.700;  168.925;    0.000
272.272; 1582.700;  179.925;    0.000
272.338; 1660.700;  224.925;    0.000
272.405; 1641.700;  156.925;    0.000
272.471; 1584.700;  175.925;    0.000
272.537; 1601.700;  190.925;    0.000
272.604; 1546.700;  199.925;    0.000
272.670; 1613.700;  156.925;    0.000
272.736; 1523.700;  198.925;    0.000
272.802; 1639.700;  169.925;    0.000
272.869; 1567.700;  141.925;    0.000
272.935; 1590.700;  145.925;    0.000
273.001; 1503.700;  156.925;    0.000
273.068; 1568.700;  157.925;    0.000
273.134; 1576.700;  184.925;    0.000
273.200; 1646.700;  158.925;    0.000
273.266; 1584.700;  150.925;    0.000
273.333; 1622.700;  176.925;    0.000
273.399; 1573.700;  118.925;    0.000
273.465; 1607.700;  184.925;    0.000
273.531; 1594.700;  179.925;    0.000
273.597; 1681.700;  167.925;    0.000
273.664; 1606.700;  186.925;    0.000
273.730; 1603.700;  137.925;    0.000
273.796; 1578.700;  148.925;    0.000
273.862; 1540.700;  183.925;    0.000
273.928; 1603.700;  179.925;    0.000
273.995; 1624.700;  189.925;    0.000
274.061; 1582.700;  188.925;    0.000
274.127; 1620.700;  132.925;    0.000
274.193; 1559.700;  135.925;    0.000
274.259; 1664.700;  177.925;    0.000
274.325; 1535.700;  178.925;    0.000
274.391; 1568.700;  140.925;    0.000
274.457; 1625.700;  158.925;    0.000
274.524; 1578.700;  175.925;    0.000
274.590; 1587.700;  182.925;    0.000
274.656; 1668.700;  165.925;    0.000
274.722; 1633.700;  152.925;    0.000
274.788; 1591.700;  159.925;    0.000
274.854; 1582.700;  143.925;    0.000
274.920; 1594.700;  117.925;    0.000
274.986; 1665.700;  140.925;    0.000
275.052; 1561.700;  174.925;    0.000
275.118; 1644.700;  129.925;    0.000
275.184; 1660.700;  173.925;    0.000
275.250; 1722.700;  196.925;    0.000
275.316; 1647.700;  142.925;    0.000
275.382; 1617.700;  149.925;    0.000
275.448; 1699.700;  178.925;    0.000
275.514; 1691.700;  136.925;    0.000
275.580; 1654.700;  140.925;    0.000
275.646; 1694.700;  133.925;    0.000
275.712; 1699.700;  162.925;    0.000
275.778; 1606.700;  129.925;    0.000
275.844; 1678.700;  156.925;    0.000
275.910; 1760.700;  172.925;    0.000
275.976; 1660.700;  158.925;    0.000
276.042; 1702.700;  141.925;    0.000
276.108; 1728.700;  212.925;    0.000
276.174; 1690.700;  148.925;    0.000
276.240; 1745.700;  134.925;    0.000
276.306; 1687.700;  149.925;    0.000
276.372; 1734.700;  126.925;    0.000
276.437; 1747.700;  168.925;    0.000
276.503; 1754.700;  158.925;    0.000
276.569; 1835.700;  191.925;    0.000
276.635; 1792.700;  130.925;    0.000
276.701; 1770.700;  161.925;    0.000
276.767; 1818.700;  148.925;    0.000
276.833; 1816.700;  147.925;    0.000
276.899; 1772.700;  149.925;    0.000
276.964; 1865.700;  181.925;    0.000
277.030; 1842.700;  186.925;    0.000
277.096; 1908.700;  132.925;    0.000
277.162; 1853.700;  181.925;    0.000
277.228; 1817.700;  166.925;    0.000
277.293; 1877.700;  154.925;    0.000
277.359; 1946.700;  181.925;    0.000
277.425; 1931.700;  184.925;    0.000
277.491; 1965.700;  150.925;    0.000
277.557; 2105.700;  159.925;    0.000
277.622; 2307.700;  129.925;    0.000
277.688; 2474.700;  184.925;    0.000
277.754; 2310.700;  182.925;    0.000
277.820; 2593.700;  149.925;    0.000
277.885; 2795.700;  185.925;    0.000
277.951; 3288.700;  164.925;    0.000
278.017; 2928.700;  162.925;    0.000
278.083; 2774.700;  189.925;    0.000
278.148; 2633.700;  184.925;    0.000
278.214; 2596.700;  188.925;    0.000
278.280; 2733.700;  206.925;    0.000
278.345; 2499.700;  187.925;    0.000
278.411; 2482.700;  174.925;    0.000
278.477; 2483.700;  190.925;    0.000
278.542; 2493.700;  154.925;    0.000
278.608; 2613.700;  191.925;    0.000
278.674; 2786.700;  243.925;    0.000
278.739; 2824.700;  141.925;    0.000
278.805; 3062.700;  171.925;    0.000
278.871; 3351.700;  181.925;    0.000
278.936; 3733.700;  191.925;    0.000
279.002; 4798.700;  201.925;    0.000
279.067; 6085.700;  174.925;    0.000
279.133; 6322.700;  165.925;    0.000
279.199; 5930.700;  122.925;    0.000
279.264; 6663.700;  159.925;    0.000
279.330; 8184.700;  170.925;    0.000
279.395;11763.700;  173.925;    0.000
279.461;20588.699;  200.925;    0.000
279.527;26764.699;  199.925;    0.000
279.592;21768.699;  203.925;    0.000
279.658;13773.700;  209.925;    0.000
279.723;11690.700;  188.925;    0.000
279.789;11791.700;  180.925;    0.000
279.854;10323.700;  137.925;    0.000
279.920; 8591.700;  223.925;    0.000
279.985; 7783.700;  186.925;    0.000
280.051; 8038.700;  198.925;    0.000
280.116;10172.700;  178.925;    0.000
280.182;17380.699;  176.925;    0.000
280.247;22226.699;  195.925;    0.000
280.313;16508.699;  165.925;    0.000
280.378; 9264.700;  153.925;    0.000
280.444; 6609.700;  181.925;    0.000
280.509; 5423.700;  188.925;    0.000
280.574; 4614.700;  149.925;    0.000
280.640; 4105.700;  164.925;    0.000
280.705; 3835.700;  166.925;    0.000
280.771; 3607.700;  188.925;    0.000
280.836; 3528.700;  188.925;    0.000
280.902; 3306.700;  168.925;    0.000
280.967; 3229.700;  202.925;    0.000
281.032; 3062.700;  197.925;    0.000
281.098; 3016.700;  138.925;    0.000
281.163; 2971.700;  160.925;    0.000
281.229; 2946.700;  212.925;    0.000
281.294; 2943.700;  227.925;    0.000
281.359; 2844.700;  200.925;    0.000
281.425; 2821.700;  189.925;    0.000
281.490; 2752.700;  176.925;    0.000
281.555; 2778.700;  182.925;    0.000
281.621; 2606.700;  169.925;    0.000
281.686; 2573.700;  182.925;    0.000
281.751; 2625.700;  208.925;    0.000
281.816; 2577.700;  166.925;    0.000
281.882; 2566.700;  181.925;    0.000
281.947; 2482.700;  178.925;    0.000
282.012; 2543.700;  167.925;    0.000
282.078; 2597.700;  170.925;    0.000
282.143; 2445.700;  157.925;    0.000
282.208; 2532.700;  158.925;    0.000
282.273; 2496.700;  187.925;    0.000
282.339; 2436.700;  185.925;    0.000
282.404; 2491.700;  201.925;    0.000
282.469; 2595.700;  202.925;    0.000
282.534; 2407.700;  185.925;    0.000
282.600; 2423.700;  125.925;    0.000
282.665; 2361.700;  162.925;    0.000
282.730; 2430.700;  174.925;    0.000
282.795; 2538.700;  179.925;    0.000
282.860; 2530.700;  190.925;    0.000
282.926; 2458.700;  200.925;    0.000
282.991; 2467.700;  161.925;    0.000
283.056; 2394.700;  175.925;    0.000
283.121; 2396.700;  181.925;    0.000
283.186; 2522.700;  221.925;    0.000
283.251; 2558.700;  168.925;    0.000
283.316; 2382.700;  156.925;    0.000
283.382; 2410.700;  197.925;    0.000
283.447; 2443.700;  210.925;    0.000
283.512; 2386.700;  164.925;    0.000
283.577; 2458.700;  212.925;    0.000
283.642; 2438.700;  186.925;    0.000
283.707; 2452.700;  182.925;    0.000
283.772; 2452.700;  127.925;    0.000
283.837; 2350.700;  160.925;    0.000
283.902; 2422.700;  162.925;    0.000
283.967; 2378.700;  151.925;    0.000
284.032; 2421.700;  175.925;    0.000
284.097; 2535.700;  235.925;    0.000
284.163; 2452.700;  136.925;    0.000
284.228; 2500.700;  209.925;    0.000
284.293; 2430.700;  163.925;    0.000
284.358; 2497.700;  169.925;    0.000
284.423; 2452.700;  145.925;    0.000
284.488; 2401.700;  134.925;    0.000
284.553; 2555.700;  158.925;    0.000
284.618; 2564.700;  163.925;    0.000
284.683; 2549.700;  168.925;    0.000
284.748; 2611.700;  170.925;    0.000
284.812; 2721.700;  151.925;    0.000
284.877; 2720.700;  169.925;    0.000
284.942; 2953.700;  179.925;    0.000
285.007; 3193.700;  202.925;    0.000
285.072; 4044.700;  171.925;    0.000
285.137; 5995.700;  173.925;    0.000
285.202; 7531.700;  196.925;    0.000
285.267; 6449.700;  193.925;    0.000
285.332; 4599.700;  151.925;    0.000
285.397; 3623.700;  183.925;    0.000
285.462; 3270.700;  168.925;    0.000
285.527; 3024.700;  166.925;    0.000
285.591; 2831.700;  124.925;    0.000
285.656; 2792.700;  145.925;    0.000
285.721; 2728.700;  155.925;    0.000
285.786; 2624.700;  170.925;    0.000
285.851; 2557.700;  175.925;    0.000
285.916; 2626.700;  186.925;    0.000
285.981; 2643.700;  204.925;    0.000
286.045; 2577.700;  237.925;    0.000
286.110; 2521.700;  197.925;    0.000
286.175; 2601.700;  143.925;    0.000
286.240; 2564.700;  167.925;    0.000
286.305; 2580.700;  202.925;    0.000
286.369; 2667.700;  214.925;    0.000
286.434; 2537.700;  206.925;    0.000
286.499; 2517.700;  177.925;    0.000
286.564; 2487.700;  201.925;    0.000
286.628; 2535.700;  153.925;    0.000
286.693; 2556.700;  161.925;    0.000
286.758; 2529.700;  181.925;    0.000
286.823; 2569.700;  176.925;    0.000
286.887; 2586.700;  158.925;    0.000
286.952; 2526.700;  198.925;    0.000
287.017; 2621.700;  196.925;    0.000
287.082; 2567.700;  154.925;    0.000
287.146; 2489.700;  178.925;    0.000
287.211; 2578.700;  165.925;    0.000
287.276; 2608.700;  165.925;    0.000
287.340; 2507.700;  178.925;    0.000
287.405; 2558.700;  177.925;    0.000
287.470; 2457.700;  141.925;    0.000
287.534; 2582.700;  224.925;    0.000
287.599; 2535.700;  184.925;    0.000
287.663; 2592.700;  177.925;    0.000
287.728; 2460.700;  144.925;    0.000
287.793; 2571.700;  210.925;    0.000
287.857; 2492.700;  198.925;    0.000
287.922; 2520.700;  168.925;    0.000
287.987; 2533.700;  168.925;    0.000
288.051; 2559.700;  200.925;    0.000
288.116; 2556.700;  199.925;    0.000
288.180; 2531.700;  211.925;    0.000
288.245; 2535.700;  182.925;    0.000
288.309; 2687.700;  180.925;    0.000
288.374; 2574.700;  196.925;    0.000
288.439; 2537.700;  187.925;    0.000
288.503; 2540.700;  159.925;    0.000
288.568; 2630.700;  207.925;    0.000
288.632; 2494.700;  210.925;    0.000
288.697; 2618.700;  196.925;    0.000
288.761; 2543.700;  175.925;    0.000
288.826; 2425.700;  159.925;    0.000
288.890; 2516.700;  183.925;    0.000
288.955; 2520.700;  149.925;    0.000
289.019; 2532.700;  194.925;    0.000
289.084; 2548.700;  171.925;    0.000
289.148; 2531.700;  191.925;    0.000
289.212; 2501.700;  217.925;    0.000
289.277; 2561.700;  196.925;    0.000
289.341; 2489.700;  211.925;    0.000
289.406; 2491.700;  165.925;    0.000
289.470; 2502.700;  197.925;    0.000
289.535; 2577.700;  208.925;    0.000
289.599; 2531.700;  192.925;    0.000
289.663; 2557.700;  169.925;    0.000
289.728; 2494.700;  168.925;    0.000
289.792; 2500.700;  192.925;    0.000
289.857; 2503.700;  202.925;    0.000
289.921; 2498.700;  176.925;    0.000
289.985; 2453.700;  164.925;    0.000
290.050; 2550.700;  166.925;    0.000
290.114; 2483.700;  192.925;    0.000
290.178; 2520.700;  155.925;    0.000
290.243; 2490.700;  158.925;    0.000
290.307; 2463.700;  192.925;    0.000
290.371; 2574.700;  161.925;    0.000
290.436; 2576.700;  182.925;    0.000
290.500; 2549.700;  147.925;    0.000
290.564; 2602.700;  209.925;    0.000
290.629; 2544.700;  172.925;    0.000
290.693; 2580.700;  192.925;    0.000
290.757; 2595.700;  147.925;    0.000
290.821; 2559.700;  139.925;    0.000
290.886; 2562.700;  186.925;    0.000
290.950; 2485.700;  196.925;    0.000
291.014; 2513.700;  166.925;    0.000
291.078; 2546.700;  143.925;    0.000
291.143; 2546.700;  171.925;    0.000
291.207; 2562.700;  187.925;    0.000
291.271; 2559.700;  208.925;    0.000
291.335; 2565.700;  195.925;    0.000
291.399; 2472.700;  139.925;    0.000
291.464; 2552.700;  139.925;    0.000
291.528; 2568.700;  183.925;    0.000
291.592; 2460.700;  152.925;    0.000
291.656; 2657.700;  155.925;    0.000
291.720; 2653.700;  191.925;    0.000
291.784; 2531.700;  185.925;    0.000
291.849; 2551.700;  175.925;    0.000
291.913; 2507.700;  152.925;    0.000
291.977; 2585.700;  203.925;    0.000
292.041; 2573.700;  181.925;    0.000
292.105; 2596.700;  168.925;    0.000
292.169; 2604.700;  133.925;    0.000
292.233; 2674.700;  156.925;    0.000
292.297; 2619.700;  173.925;    0.000
292.361; 2607.700;  124.925;    0.000
292.425; 2547.700;  138.925;    0.000
292.490; 2625.700;  110.925;    0.000
292.554; 2594.700;  180.925;    0.000
292.618; 2570.700;  178.925;    0.000
292.682; 2760.700;  156.925;    0.000
292.746; 2682.700;  151.925;    0.000
292.810; 2815.700;  183.925;    0.000
292.874; 2870.700;  156.925;    0.000
292.938; 2996.700;  195.925;    0.000
293.002; 2853.700;  200.925;    0.000
293.066; 2748.700;  171.925;    0.000
293.130; 2752.700;  163.925;    0.000
293.194; 2774.700;  174.925;    0.000
293.258; 2631.700;  167.925;    0.000
293.322; 2691.700;  212.925;    0.000
293.386; 2795.700;  189.925;    0.000
293.450; 2827.700;  169.925;    0.000
293.514; 2914.700;  175.925;    0.000
293.577; 3000.700;  169.925;    0.000
293.641; 3254.700;  186.925;    0.000
293.705; 3398.700;  222.925;    0.000
293.769; 3114.700;  150.925;    0.000
293.833; 3076.700;  165.925;    0.000
293.897; 2995.700;  152.925;    0.000
293.961; 2824.700;  179.925;    0.000
294.025; 3020.700;  159.925;    0.000
294.089; 2816.700;  181.925;    0.000
294.152; 2825.700;  188.925;    0.000
294.216; 2724.700;  170.925;    0.000
294.280; 2679.700;  167.925;    0.000
294.344; 2747.700;  151.925;    0.000
294.408; 2647.700;  180.925;    0.000
294.472; 2643.700;  144.925;    0.000
294.536; 2757.700;  171.925;    0.000
294.599; 2626.700;  157.925;    0.000
294.663; 2558.700;  139.925;    0.000
294.727; 2582.700;  208.925;    0.000
294.791; 2528.700;  152.925;    0.000
294.855; 2613.700;  181.925;    0.000
294.918; 2552.700;  136.925;    0.000
294.982; 2594.700;  155.925;    0.000
295.046; 2536.700;  200.925;    0.000
295.110; 2525.700;  190.925;    0.000
295.173; 2507.700;  156.925;    0.000
295.237; 2535.700;  160.925;    0.000
295.301; 2516.700;  145.925;    0.000
295.364; 2539.700;  166.925;    0.000
295.428; 2465.700;  125.925;    0.000
295.492; 2502.700;  154.925;    0.000
295.556; 2568.700;  172.925;    0.000
295.619; 2593.700;  210.925;    0.000
295.683; 2582.700;  181.925;    0.000
295.747; 2559.700;  176.925;    0.000
295.810; 2506.700;  181.925;    0.000
295.874; 2577.700;  160.925;    0.000
295.938; 2495.700;  119.925;    0.000
296.001; 2400.700;  206.925;    0.000
296.065; 2492.700;  136.925;    0.000
296.128; 2446.700;  156.925;    0.000
296.192; 2475.700;  174.925;    0.000
296.256; 2538.700;  145.925;    0.000
296.319; 2455.700;  167.925;    0.000
296.383; 2475.700;  168.925;    0.000
296.447; 2468.700;  190.925;    0.000
296.510; 2448.700;  165.925;    0.000
296.574; 2388.700;  184.925;    0.000
296.637; 2490.700;  155.925;    0.000
296.701; 2488.700;  168.925;    0.000
296.764; 2373.700;  161.925;    0.000
296.828; 2467.700;  218.925;    0.000
296.891; 2427.700;  176.925;    0.000
296.955; 2418.700;  169.925;    0.000
297.018; 2389.700;  168.925;    0.000
297.082; 2501.700;  176.925;    0.000
297.145; 2414.700;  171.925;    0.000
297.209; 2390.700;  196.925;    0.000
297.272; 2386.700;  170.925;    0.000
297.336; 2437.700;  156.925;    0.000
297.399; 2423.700;  168.925;    0.000
297.463; 2308.700;  203.925;    0.000
297.526; 2416.700;  164.925;    0.000
297.590; 2426.700;  175.925;    0.000
297.653; 2463.700;  170.925;    0.000
297.717; 2304.700;  156.925;    0.000
297.780; 2445.700;  149.925;    0.000
297.843; 2371.700;  156.925;    0.000
297.907; 2382.700;  129.925;    0.000
297.970; 2450.700;  163.925;    0.000
298.034; 2411.700;  162.925;    0.000
298.097; 2429.700;  182.925;    0.000
298.160; 2300.700;  194.925;    0.000
298.224; 2304.700;  178.925;    0.000
298.287; 2282.700;  147.925;    0.000
298.350; 2286.700;  187.925;    0.000
298.414; 2287.700;  193.925;    0.000
298.477; 2359.700;  127.925;    0.000
298.540; 2257.700;  181.925;    0.000
298.604; 2354.700;  163.925;    0.000
298.667; 2274.700;  177.925;    0.000
298.730; 2318.700;  192.925;    0.000
298.794; 2388.700;  183.925;    0.000
298.857; 2295.700;  194.925;    0.000
298.920; 2292.700;  147.925;    0.000
298.984; 2292.700;  184.925;    0.000
299.047; 2314.700;  218.925;    0.000
299.110; 2177.700;  171.925;    0.000
299.173; 2274.700;  177.925;    0.000
299.237; 2253.700;  181.925;    0.000
299.300; 2239.700;  170.925;    0.000
299.363; 2314.700;  185.925;    0.000
299.426; 2261.700;  193.925;    0.000
299.489; 2266.700;  184.925;    0.000
299.553; 2279.700;  194.925;    0.000
299.616; 2230.700;  171.925;    0.000
299.679; 2250.700;  182.925;    0.000
299.742; 2243.700;  138.925;    0.000
299.805; 2218.700;  172.925;    0.000
299.868; 2168.700;  191.925;    0.000
299.932; 2186.700;  193.925;    0.000
299.995; 2280.700;  201.925;    0.000
300.058; 2172.700;  177.925;    0.000
300.121; 2218.700;  178.925;    0.000
300.184; 2215.700;  171.925;    0.000
300.247; 2204.700;  184.925;    0.000
300.310; 2159.700;  200.925;    0.000
300.374; 2157.700;  172.925;    0.000
300.437; 2140.700;  187.925;    0.000
300.500; 2172.700;  211.925;    0.000
300.563; 2147.700;  190.925;    0.000
300.626; 2098.700;  196.925;    0.000
300.689; 2131.700;  162.925;    0.000
300.752; 2161.700;  163.925;    0.000
300.815; 2137.700;  207.925;    0.000
300.878; 2140.700;  221.925;    0.000
300.941; 2160.700;  176.925;    0.000
301.004; 2190.700;  193.925;    0.000
301.067; 2137.700;  165.925;    0.000
301.130; 2209.700;  179.925;    0.000
301.193; 2189.700;  196.925;    0.000
301.256; 2115.700;  210.925;    0.000
301.319; 2184.700;  196.925;    0.000
301.382; 2087.700;  162.925;    0.000
301.445; 2245.700;  233.925;    0.000
301.508; 2125.700;  176.925;    0.000
301.571; 2038.700;  185.925;    0.000
301.634; 2197.700;  202.925;    0.000
301.697; 2112.700;  189.925;    0.000
301.760; 2099.700;  224.925;    0.000
301.823; 2049.700;  212.925;    0.000
301.885; 2154.700;  196.925;    0.000
301.948; 2067.700;  169.925;    0.000
302.011; 2155.700;  160.925;    0.000
302.074; 2082.700;  202.925;    0.000
302.137; 2087.700;  130.925;    0.000
302.200; 2102.700;  188.925;    0.000
302.263; 2158.700;  196.925;    0.000
302.326; 2088.700;  172.925;    0.000
302.388; 2154.700;  197.925;    0.000
302.451; 2032.700;  203.925;    0.000
302.514; 2124.700;  164.925;    0.000
302.577; 2154.700;  170.925;    0.000
302.640; 2063.700;  156.925;    0.000
302.703; 2088.700;  188.925;    0.000
302.765; 2075.700;  213.925;    0.000
302.828; 2115.700;  212.925;    0.000
302.891; 2192.700;  203.925;    0.000
302.954; 2088.700;  148.925;    0.000
303.016; 2037.700;  168.925;    0.000
303.079; 2044.700;  206.925;    0.000
303.142; 2092.700;  210.925;    0.000
303.205; 2053.700;  189.925;    0.000
303.267; 2087.700;  174.925;    0.000
303.330; 2105.700;  198.925;    0.000
303.393; 2127.700;  207.925;    0.000
303.456; 2069.700;  177.925;    0.000
303.518; 2029.700;  192.925;    0.000
303.581; 2108.700;  171.925;    0.000
303.644; 2073.700;  193.925;    0.000
303.706; 2090.700;  185.925;    0.000
303.769; 2105.700;  198.925;    0.000
303.832; 2023.700;  192.925;    0.000
303.894; 2081.700;  199.925;    0.000
303.957; 2141.700;  160.925;    0.000
304.020; 2154.700;  184.925;    0.000
304.082; 2053.700;  191.925;    0.000
304.145; 2156.700;  216.925;    0.000
304.207; 2133.700;  175.925;    0.000
304.270; 2081.700;  192.925;    0.000
304.333; 2066.700;  218.925;    0.000
304.395; 2135.700;  195.925;    0.000
304.458; 2073.700;  206.925;    0.000
304.520; 2077.700;  229.925;    0.000
304.583; 2141.700;  202.925;    0.000
304.646; 2074.700;  159.925;    0.000
304.708; 2032.700;  167.925;    0.000
304.771; 2151.700;  141.925;    0.000
304.833; 2167.700;  184.925;    0.000
304.896; 2141.700;  197.925;    0.000
304.958; 2094.700;  179.925;    0.000
305.021; 2129.700;  175.925;    0.000
305.083; 2074.700;  182.925;    0.000
305.146; 2248.700;  182.925;    0.000
305.208; 2239.700;  174.925;    0.000
305.271; 2090.700;  157.925;    0.000
305.333; 2209.700;  185.925;    0.000
305.396; 2212.700;  199.925;    0.000
305.458; 2133.700;  203.925;    0.000
305.520; 2092.700;  195.925;    0.000
305.583; 2114.700;  152.925;    0.000
305.645; 2205.700;  200.925;    0.000
305.708; 2131.700;  149.925;    0.000
305.770; 2183.700;  211.925;    0.000
305.833; 2177.700;  189.925;    0.000
305.895; 2158.700;  200.925;    0.000
305.957; 2127.700;  166.925;    0.000
306.020; 2126.700;  186.925;    0.000
306.082; 2176.700;  197.925;    0.000
306.144; 2223.700;  200.925;    0.000
306.207; 2168.700;  180.925;    0.000
306.269; 2160.700;  209.925;    0.000
306.331; 2136.700;  205.925;    0.000
306.394; 2127.700;  176.925;    0.000
306.456; 2142.700;  184.925;    0.000
306.518; 2131.700;  210.925;    0.000
306.581; 2167.700;  162.925;    0.000
306.643; 2177.700;  196.925;    0.000
306.705; 2168.700;  204.925;    0.000
306.768; 2190.700;  158.925;    0.000
306.830; 2242.700;  205.925;    0.000
306.892; 2252.700;  189.925;    0.000
306.954; 2303.700;  188.925;    0.000
307.017; 2221.700;  180.925;    0.000
307.079; 2178.700;  197.925;    0.000
307.141; 2252.700;  184.925;    0.000
307.203; 2213.700;  182.925;    0.000
307.266; 2188.700;  166.925;    0.000
307.328; 2281.700;  186.925;    0.000
307.390; 2206.700;  176.925;    0.000
307.452; 2295.700;  194.925;    0.000
307.514; 2273.700;  225.925;    0.000
307.577; 2271.700;  209.925;    0.000
307.639; 2213.700;  203.925;    0.000
307.701; 2226.700;  214.925;    0.000
307.763; 2326.700;  203.925;    0.000
307.825; 2275.700;  202.925;    0.000
307.887; 2254.700;  244.925;    0.000
307.949; 2241.700;  173.925;    0.000
308.012; 2254.700;  219.925;    0.000
308.074; 2226.700;  157.925;    0.000
308.136; 2324.700;  215.925;    0.000
308.198; 2270.700;  186.925;    0.000
308.260; 2281.700;  186.925;    0.000
308.322; 2380.700;  201.925;    0.000
308.384; 2298.700;  218.925;    0.000
308.446; 2267.700;  159.925;    0.000
308.508; 2322.700;  191.925;    0.000
308.570; 2289.700;  185.925;    0.000
308.632; 2303.700;  208.925;    0.000
308.694; 2284.700;  161.925;    0.000
308.756; 2346.700;  169.925;    0.000
308.818; 2438.700;  187.925;    0.000
308.880; 2337.700;  192.925;    0.000
308.942; 2436.700;  194.925;    0.000
309.004; 2415.700;  206.925;    0.000
309.066; 2458.700;  204.925;    0.000
309.128; 2376.700;  181.925;    0.000
309.190; 2375.700;  166.925;    0.000
309.252; 2461.700;  213.925;    0.000
309.314; 2466.700;  249.925;    0.000
309.376; 2464.700;  238.925;    0.000
309.438; 2449.700;  206.925;    0.000
309.500; 2444.700;  185.925;    0.000
309.562; 2485.700;  214.925;    0.000
309.624; 2386.700;  216.925;    0.000
309.686; 2441.700;  197.925;    0.000
309.747; 2353.700;  171.925;    0.000
309.809; 2383.700;  198.925;    0.000
309.871; 2363.700;  185.925;    0.000
309.933; 2306.700;  172.925;    0.000
309.995; 2425.700;  168.925;    0.000
310.057; 2299.700;  177.925;    0.000
310.119; 2270.700;  207.925;    0.000
310.180; 2376.700;  180.925;    0.000
310.242; 2380.700;  202.925;    0.000
310.304; 2375.700;  200.925;    0.000
310.366; 2332.700;  222.925;    0.000
310.428; 2282.700;  179.925;    0.000
310.489; 2345.700;  196.925;    0.000
310.551; 2345.700;  203.925;    0.000
310.613; 2370.700;  198.925;    0.000
310.675; 2339.700;  203.925;    0.000
310.737; 2370.700;  195.925;    0.000
310.798; 2337.700;  204.925;    0.000
310.860; 2351.700;  195.925;    0.000
310.922; 2340.700;  195.925;    0.000
310.983; 2402.700;  225.925;    0.000
311.045; 2432.700;  203.925;    0.000
311.107; 2369.700;  194.925;    0.000
311.169; 2212.700;  185.925;    0.000
311.230; 2315.700;  175.925;    0.000
311.292; 2342.700;  220.925;    0.000
311.354; 2227.700;  189.925;    0.000
311.415; 2297.700;  187.925;    0.000
311.477; 2445.700;  180.925;    0.000
311.539; 2296.700;  175.925;    0.000
311.600; 2362.700;  192.925;    0.000
311.662; 2336.700;  212.925;    0.000
311.724; 2361.700;  217.925;    0.000
311.785; 2351.700;  218.925;    0.000
311.847; 2331.700;  219.925;    0.000
311.908; 2356.700;  202.925;    0.000
311.970; 2413.700;  186.925;    0.000
312.032; 2375.700;  212.925;    0.000
312.093; 2414.700;  203.925;    0.000
312.155; 2314.700;  165.925;    0.000
312.216; 2317.700;  183.925;    0.000
312.278; 2383.700;  167.925;    0.000
312.339; 2290.700;  190.925;    0.000
312.401; 2406.700;  219.925;    0.000
312.462; 2348.700;  190.925;    0.000
312.524; 2407.700;  203.925;    0.000
312.585; 2338.700;  191.925;    0.000
312.647; 2442.700;  197.925;    0.000
312.708; 2446.700;  203.925;    0.000
312.770; 2431.700;  203.925;    0.000
312.831; 2426.700;  155.925;    0.000
312.893; 2482.700;  189.925;    0.000
312.954; 2394.700;  212.925;    0.000
313.016; 2468.700;  179.925;    0.000
313.077; 2408.700;  209.925;    0.000
313.139; 2480.700;  185.925;    0.000
313.200; 2550.700;  180.925;    0.000
313.261; 2400.700;  220.925;    0.000
313.323; 2439.700;  171.925;    0.000
313.384; 2413.700;  180.925;    0.000
313.446; 2415.700;  202.925;    0.000
313.507; 2350.700;  172.925;    0.000
313.568; 2451.700;  192.925;    0.000
313.630; 2424.700;  191.925;    0.000
313.691; 2397.700;  176.925;    0.000
313.752; 2398.700;  175.925;    0.000
313.814; 2458.700;  202.925;    0.000
313.875; 2352.700;  186.925;    0.000
313.936; 2457.700;  199.925;    0.000
313.998; 2379.700;  164.925;    0.000
314.059; 2500.700;  159.925;    0.000
314.120; 2420.700;  175.925;    0.000
314.182; 2477.700;  181.925;    0.000
314.243; 2361.700;  157.925;    0.000
314.304; 2464.700;  168.925;    0.000
314.365; 2603.700;  203.925;    0.000
314.427; 2411.700;  151.925;    0.000
314.488; 2387.700;  174.925;    0.000
314.549; 2451.700;  184.925;    0.000
314.610; 2517.700;  198.925;    0.000
314.672; 2478.700;  193.925;    0.000
314.733; 2446.700;  171.925;    0.000
314.794; 2374.700;  141.925;    0.000
314.855; 2460.700;  184.925;    0.000
314.917; 2431.700;  175.925;    0.000
314.978; 2358.700;  190.925;    0.000
315.039; 2490.700;  183.925;    0.000
315.100; 2460.700;  204.925;    0.000
315.161; 2475.700;  202.925;    0.000
315.222; 2552.700;  177.925;    0.000
315.283; 2486.700;  191.925;    0.000
315.345; 2464.700;  185.925;    0.000
315.406; 2437.700;  194.925;    0.000
315.467; 2432.700;  167.925;    0.000
315.528; 2447.700;  174.925;    0.000
315.589; 2356.700;  197.925;    0.000
315.650; 2469.700;  192.925;    0.000
315.711; 2475.700;  181.925;    0.000
315.772; 2415.700;  157.925;    0.000
315.833; 2386.700;  189.925;    0.000
315.894; 2397.700;  184.925;    0.000
315.955; 2379.700;  202.925;    0.000
316.016; 2400.700;  220.925;    0.000
316.078; 2428.700;  180.925;    0.000
316.139; 2474.700;  240.925;    0.000
316.200; 2443.700;  190.925;    0.000
316.261; 2340.700;  179.925;    0.000
316.322; 2489.700;  176.925;    0.000
316.383; 2411.700;  188.925;    0.000
316.444; 2514.700;  228.925;    0.000
316.504; 2376.700;  199.925;    0.000
316.565; 2343.700;  221.925;    0.000
316.626; 2379.700;  204.925;    0.000
316.687; 2454.700;  192.925;    0.000
316.748; 2372.700;  220.925;    0.000
316.809; 2427.700;  175.925;    0.000
316.870; 2490.700;  164.925;    0.000
316.931; 2476.700;  208.925;    0.000
316.992; 2432.700;  224.925;    0.000
317.053; 2369.700;  204.925;    0.000
317.114; 2398.700;  199.925;    0.000
317.175; 2502.700;  230.925;    0.000
317.235; 2503.700;  186.925;    0.000
317.296; 2481.700;  224.925;    0.000
317.357; 2459.700;  154.925;    0.000
317.418; 2436.700;  219.925;    0.000
317.479; 2448.700;  229.925;    0.000
317.540; 2378.700;  201.925;    0.000
317.601; 2485.700;  180.925;    0.000
317.661; 2338.700;  179.925;    0.000
317.722; 2441.700;  193.925;    0.000
317.783; 2371.700;  164.925;    0.000
317.844; 2476.700;  232.925;    0.000
317.904; 2405.700;  222.925;    0.000
317.965; 2432.700;  199.925;    0.000
318.026; 2471.700;  200.925;    0.000
318.087; 2406.700;  182.925;    0.000
318.148; 2433.700;  216.925;    0.000
318.208; 2421.700;  239.925;    0.000
318.269; 2481.700;  163.925;    0.000
318.330; 2474.700;  204.925;    0.000
318.390; 2490.700;  191.925;    0.000
318.451; 2419.700;  200.925;    0.000
318.512; 2483.700;  181.925;    0.000
318.572; 2431.700;  233.925;    0.000
318.633; 2514.700;  220.925;    0.000
318.694; 2468.700;  179.925;    0.000
318.754; 2506.700;  214.925;    0.000
318.815; 2416.700;  214.925;    0.000
318.876; 2440.700;  220.925;    0.000
318.936; 2496.700;  212.925;    0.000
318.997; 2427.700;  201.925;    0.000
319.058; 2434.700;  215.925;    0.000
319.118; 2551.700;  251.925;    0.000
319.179; 2423.700;  240.925;    0.000
319.239; 2457.700;  240.925;    0.000
319.300; 2418.700;  232.925;    0.000
319.361; 2434.700;  211.925;    0.000
319.421; 2338.700;  219.925;    0.000
319.482; 2436.700;  228.925;    0.000
319.542; 2391.700;  216.925;    0.000
319.603; 2434.700;  190.925;    0.000
319.663; 2334.700;  227.925;    0.000
319.724; 2402.700;  191.925;    0.000
319.784; 2407.700;  196.925;    0.000
319.845; 2500.700;  190.925;    0.000
319.905; 2444.700;  221.925;    0.000
319.966; 2400.700;  219.925;    0.000
320.026; 2502.700;  233.925;    0.000
320.087; 2440.700;  204.925;    0.000
320.147; 2347.700;  189.925;    0.000
320.208; 2433.700;  200.925;    0.000
320.268; 2359.700;  217.925;    0.000
320.329; 2438.700;  216.925;    0.000
320.389; 2443.700;  228.925;    0.000
320.449; 2438.700;  236.925;    0.000
320.510; 2405.700;  234.925;    0.000
320.570; 2402.700;  176.925;    0.000
320.631; 2408.700;  228.925;    0.000
320.691; 2472.700;  228.925;    0.000
320.751; 2386.700;  188.925;    0.000
320.812; 2463.700;  223.925;    0.000
320.872; 2524.700;  268.925;    0.000
320.932; 2497.700;  226.925;    0.000
320.993; 2455.700;  216.925;    0.000
321.053; 2452.700;  236.925;    0.000
321.113; 2364.700;  197.925;    0.000
321.174; 2399.700;  218.925;    0.000
321.234; 2523.700;  229.925;    0.000
321.294; 2490.700;  208.925;    0.000
321.355; 2451.700;  248.925;    0.000
321.415; 2381.700;  218.925;    0.000
321.475; 2394.700;  173.925;    0.000
321.535; 2390.700;  234.925;    0.000
321.596; 2338.700;  202.925;    0.000
321.656; 2412.700;  246.925;    0.000
321.716; 2427.700;  235.925;    0.000
321.776; 2416.700;  210.925;    0.000
321.837; 2394.700;  217.925;    0.000
321.897; 2384.700;  215.925;    0.000
321.957; 2451.700;  239.925;    0.000
322.017; 2392.700;  173.925;    0.000
322.077; 2497.700;  263.925;    0.000
322.138; 2502.700;  232.925;    0.000
322.198; 2445.700;  211.925;    0.000
322.258; 2438.700;  213.925;    0.000
322.318; 2389.700;  168.925;    0.000
322.378; 2377.700;  251.925;    0.000
322.438; 2428.700;  212.925;    0.000
322.499; 2369.700;  265.925;    0.000
322.559; 2326.700;  210.925;    0.000
322.619; 2379.700;  242.925;    0.000
322.679; 2385.700;  229.925;    0.000
322.739; 2407.700;  216.925;    0.000
322.799; 2397.700;  238.925;    0.000
322.859; 2368.700;  249.925;    0.000
322.919; 2394.700;  211.925;    0.000
322.979; 2431.700;  244.925;    0.000
323.039; 2376.700;  226.925;    0.000
323.099; 2367.700;  223.925;    0.000
323.159; 2339.700;  232.925;    0.000
323.219; 2394.700;  203.925;    0.000
323.279; 2350.700;  218.925;    0.000
323.339; 2423.700;  231.925;    0.000
323.399; 2508.700;  255.925;    0.000
323.459; 2388.700;  244.925;    0.000
323.519; 2420.700;  213.925;    0.000
323.579; 2442.700;  193.925;    0.000
323.639; 2374.700;  191.925;    0.000
323.699; 2381.700;  199.925;    0.000
323.759; 2387.700;  246.925;    0.000
323.819; 2397.700;  206.925;    0.000
323.879; 2342.700;  238.925;    0.000
323.939; 2366.700;  229.925;    0.000
323.999; 2461.700;  219.925;    0.000
324.059; 2288.700;  177.925;    0.000
324.119; 2399.700;  235.925;    0.000
324.178; 2360.700;  211.925;    0.000
324.238; 2236.700;  168.925;    0.000
324.298; 2419.700;  205.925;    0.000
324.358; 2285.700;  224.925;    0.000
324.418; 2336.700;  235.925;    0.000
324.478; 2429.700;  187.925;    0.000
324.538; 2319.700;  230.925;    0.000
324.597; 2384.700;  206.925;    0.000
324.657; 2345.700;  180.925;    0.000
324.717; 2383.700;  175.925;    0.000
324.777; 2287.700;  169.925;    0.000
324.837; 2330.700;  165.925;    0.000
324.896; 2447.700;  205.925;    0.000
324.956; 2375.700;  216.925;    0.000
325.016; 2444.700;  197.925;    0.000
325.076; 2404.700;  220.925;    0.000
325.135; 2390.700;  242.925;    0.000
325.195; 2306.700;  186.925;    0.000
325.255; 2364.700;  160.925;    0.000
325.315; 2465.700;  198.925;    0.000
325.374; 2439.700;  208.925;    0.000
325.434; 2372.700;  209.925;    0.000
325.494; 2264.700;  191.925;    0.000
325.553; 2329.700;  190.925;    0.000
325.613; 2409.700;  229.925;    0.000
325.673; 2396.700;  172.925;    0.000
325.732; 2329.700;  160.925;    0.000
325.792; 2327.700;  177.925;    0.000
325.852; 2339.700;  201.925;    0.000
325.911; 2329.700;  226.925;    0.000
325.971; 2369.700;  224.925;    0.000
326.031; 2253.700;  202.925;    0.000
326.090; 2342.700;  232.925;    0.000
326.150; 2394.700;  230.925;    0.000
326.209; 2345.700;  201.925;    0.000
326.269; 2373.700;  202.925;    0.000
326.328; 2379.700;  203.925;    0.000
326.388; 2342.700;  194.925;    0.000
326.448; 2408.700;  233.925;    0.000
326.507; 2371.700;  192.925;    0.000
326.567; 2377.700;  163.925;    0.000
326.626; 2334.700;  227.925;    0.000
326.686; 2248.700;  177.925;    0.000
326.745; 2445.700;  210.925;    0.000
326.805; 2276.700;  198.925;    0.000
326.864; 2403.700;  185.925;    0.000
326.924; 2328.700;  255.925;    0.000
326.983; 2309.700;  208.925;    0.000
327.043; 2357.700;  241.925;    0.000
327.102; 2295.700;  183.925;    0.000
327.161; 2318.700;  210.925;    0.000
327.221; 2361.700;  213.925;    0.000
327.280; 2315.700;  194.925;    0.000
327.340; 2215.700;  212.925;    0.000
327.399; 2362.700;  209.925;    0.000
327.459; 2258.700;  229.925;    0.000
327.518; 2341.700;  196.925;    0.000
327.577; 2290.700;  197.925;    0.000
327.637; 2268.700;  210.925;    0.000
327.696; 2318.700;  196.925;    0.000
327.755; 2296.700;  216.925;    0.000
327.815; 2433.700;  240.925;    0.000
327.874; 2326.700;  250.925;    0.000
327.933; 2303.700;  229.925;    0.000
327.993; 2314.700;  202.925;    0.000
328.052; 2321.700;  178.925;    0.000
328.111; 2375.700;  230.925;    0.000
328.171; 2302.700;  207.925;    0.000
328.230; 2240.700;  170.925;    0.000
328.289; 2388.700;  205.925;    0.000
328.349; 2303.700;  235.925;    0.000
328.408; 2394.700;  231.925;    0.000
328.467; 2398.700;  217.925;    0.000
328.526; 2293.700;  239.925;    0.000
328.586; 2345.700;  214.925;    0.000
328.645; 2344.700;  205.925;    0.000
328.704; 2410.700;  211.925;    0.000
328.763; 2416.700;  208.925;    0.000
328.822; 2271.700;  251.925;    0.000
328.882; 2357.700;  211.925;    0.000
328.941; 2299.700;  232.925;    0.000
329.000; 2438.700;  235.925;    0.000
329.059; 2387.700;  222.925;    0.000
329.118; 2356.700;  265.925;    0.000
329.177; 2297.700;  237.925;    0.000
329.237; 2502.700;  258.925;    0.000
329.296; 2418.700;  225.925;    0.000
329.355; 2482.700;  227.925;    0.000
329.414; 2429.700;  212.925;    0.000
329.473; 2457.700;  250.925;    0.000
329.532; 2556.700;  263.925;    0.000
329.591; 2578.700;  212.925;    0.000
329.650; 2616.700;  219.925;    0.000
329.709; 2675.700;  218.925;    0.000
329.768; 2683.700;  195.925;    0.000
329.827; 2819.700;  223.925;    0.000
329.886; 2806.700;  230.925;    0.000
329.945; 2967.700;  211.925;    0.000
330.004; 3154.700;  247.925;    0.000
330.063; 3292.700;  193.925;    0.000
330.122; 3706.700;  229.925;    0.000
330.181; 3986.700;  223.925;    0.000
330.240; 3922.700;  199.925;    0.000
330.299; 3636.700;  211.925;    0.000
330.358; 3251.700;  198.925;    0.000
330.417; 2926.700;  190.925;    0.000
330.476; 2862.700;  237.925;    0.000
330.535; 2656.700;  239.925;    0.000
330.594; 2659.700;  207.925;    0.000
330.653; 2554.700;  193.925;    0.000
330.712; 2598.700;  225.925;    0.000
330.771; 2494.700;  236.925;    0.000
330.830; 2455.700;  219.925;    0.000
330.889; 2462.700;  211.925;    0.000
330.948; 2336.700;  194.925;    0.000
331.006; 2334.700;  190.925;    0.000
331.065; 2396.700;  192.925;    0.000
331.124; 2386.700;  195.925;    0.000
331.183; 2348.700;  191.925;    0.000
331.242; 2333.700;  203.925;    0.000
331.301; 2264.700;  183.925;    0.000
331.359; 2267.700;  196.925;    0.000
331.418; 2372.700;  209.925;    0.000
331.477; 2313.700;  255.925;    0.000
331.536; 2215.700;  237.925;    0.000
331.595; 2227.700;  217.925;    0.000
331.653; 2240.700;  198.925;    0.000
331.712; 2201.700;  194.925;    0.000
331.771; 2167.700;  229.925;    0.000
331.830; 2234.700;  254.925;    0.000
331.888; 2232.700;  218.925;    0.000
331.947; 2237.700;  211.925;    0.000
332.006; 2203.700;  261.925;    0.000
332.065; 2132.700;  204.925;    0.000
332.123; 2192.700;  225.925;    0.000
332.182; 2289.700;  193.925;    0.000
332.241; 2183.700;  201.925;    0.000
332.299; 2236.700;  182.925;    0.000
332.358; 2247.700;  244.925;    0.000
332.417; 2239.700;  218.925;    0.000
332.475; 2171.700;  218.925;    0.000
332.534; 2272.700;  228.925;    0.000
332.592; 2171.700;  199.925;    0.000
332.651; 2190.700;  204.925;    0.000
332.710; 2224.700;  217.925;    0.000
332.768; 2136.700;  195.925;    0.000
332.827; 2157.700;  182.925;    0.000
332.885; 2214.700;  247.925;    0.000
332.944; 2164.700;  170.925;    0.000
333.003; 2155.700;  200.925;    0.000
333.061; 2205.700;  243.925;    0.000
333.120; 2127.700;  235.925;    0.000
333.178; 2200.700;  195.925;    0.000
333.237; 2215.700;  217.925;    0.000
333.295; 2276.700;  252.925;    0.000
333.354; 2285.700;  201.925;    0.000
333.412; 2248.700;  181.925;    0.000
333.471; 2287.700;  239.925;    0.000
333.529; 2270.700;  214.925;    0.000
333.588; 2269.700;  232.925;    0.000
333.646; 2287.700;  202.925;    0.000
333.705; 2281.700;  232.925;    0.000
333.763; 2234.700;  215.925;    0.000
333.822; 2266.700;  187.925;    0.000
333.880; 2265.700;  186.925;    0.000
333.938; 2252.700;  185.925;    0.000
333.997; 2205.700;  234.925;    0.000
334.055; 2262.700;  255.925;    0.000
334.114; 2254.700;  225.925;    0.000
334.172; 2111.700;  209.925;    0.000
334.230; 2217.700;  194.925;    0.000
334.289; 2295.700;  213.925;    0.000
334.347; 2354.700;  235.925;    0.000
334.405; 2270.700;  242.925;    0.000
334.464; 2246.700;  208.925;    0.000
334.522; 2203.700;  197.925;    0.000
334.580; 2206.700;  204.925;    0.000
334.639; 2192.700;  217.925;    0.000
334.697; 2178.700;  183.925;    0.000
334.755; 2182.700;  196.925;    0.000
334.814; 2238.700;  216.925;    0.000
334.872; 2124.700;  190.925;    0.000
334.930; 2309.700;  162.925;    0.000
334.988; 2166.700;  261.925;    0.000
335.047; 2186.700;  220.925;    0.000
335.105; 2136.700;  190.925;    0.000
335.163; 2237.700;  201.925;    0.000
335.221; 2231.700;  213.925;    0.000
335.280; 2194.700;  202.925;    0.000
335.338; 2198.700;  210.925;    0.000
335.396; 2135.700;  255.925;    0.000
335.454; 2255.700;  216.925;    0.000
335.512; 2186.700;  242.925;    0.000
335.570; 2260.700;  227.925;    0.000
335.629; 2236.700;  225.925;    0.000
335.687; 2334.700;  227.925;    0.000
335.745; 2288.700;  194.925;    0.000
335.803; 2272.700;  221.925;    0.000
335.861; 2181.700;  217.925;    0.000
335.919; 2279.700;  214.925;    0.000
335.977; 2304.700;  209.925;    0.000
336.035; 2237.700;  215.925;    0.000
336.094; 2283.700;  198.925;    0.000
336.152; 2203.700;  222.925;    0.000
336.210; 2322.700;  225.925;    0.000
336.268; 2261.700;  234.925;    0.000
336.326; 2319.700;  209.925;    0.000
336.384; 2228.700;  271.925;    0.000
336.442; 2202.700;  207.925;    0.000
336.500; 2260.700;  226.925;    0.000
336.558; 2179.700;  219.925;    0.000
336.616; 2230.700;  260.925;    0.000
336.674; 2161.700;  205.925;    0.000
336.732; 2216.700;  225.925;    0.000
336.790; 2265.700;  191.925;    0.000
336.848; 2186.700;  219.925;    0.000
336.906; 2214.700;  230.925;    0.000
336.964; 2309.700;  226.925;    0.000
337.022; 2221.700;  266.925;    0.000
337.080; 2265.700;  231.925;    0.000
337.138; 2222.700;  249.925;    0.000
337.195; 2262.700;  207.925;    0.000
337.253; 2145.700;  207.925;    0.000
337.311; 2273.700;  225.925;    0.000
337.369; 2161.700;  211.925;    0.000
337.427; 2190.700;  196.925;    0.000
337.485; 2166.700;  269.925;    0.000
337.543; 2167.700;  227.925;    0.000
337.601; 2233.700;  260.925;    0.000
337.658; 2163.700;  237.925;    0.000
337.716; 2170.700;  222.925;    0.000
337.774; 2086.700;  256.925;    0.000
337.832; 2202.700;  223.925;    0.000
337.890; 2153.700;  188.925;    0.000
337.947; 2148.700;  212.925;    0.000
338.005; 2154.700;  217.925;    0.000
338.063; 2162.700;  200.925;    0.000
338.121; 2138.700;  217.925;    0.000
338.178; 2163.700;  236.925;    0.000
338.236; 2205.700;  218.925;    0.000
338.294; 2218.700;  238.925;    0.000
338.352; 2202.700;  266.925;    0.000
338.409; 2158.700;  240.925;    0.000
338.467; 2094.700;  210.925;    0.000
338.525; 2129.700;  255.925;    0.000
338.583; 2166.700;  239.925;    0.000
338.640; 2162.700;  243.925;    0.000
338.698; 2150.700;  204.925;    0.000
338.756; 2162.700;  219.925;    0.000
338.813; 2219.700;  227.925;    0.000
338.871; 2318.700;  227.925;    0.000
338.928; 2156.700;  211.925;    0.000
338.986; 2264.700;  254.925;    0.000
339.044; 2230.700;  207.925;    0.000
339.101; 2240.700;  229.925;    0.000
339.159; 2246.700;  237.925;    0.000
339.216; 2187.700;  231.925;    0.000
339.274; 2213.700;  301.925;    0.000
339.332; 2182.700;  259.925;    0.000
339.389; 2219.700;  258.925;    0.000
339.447; 2116.700;  226.925;    0.000
339.504; 2110.700;  229.925;    0.000
339.562; 2217.700;  244.925;    0.000
339.619; 2236.700;  265.925;    0.000
339.677; 2226.700;  253.925;    0.000
339.734; 2241.700;  191.925;    0.000
339.792; 2246.700;  238.925;    0.000
339.849; 2161.700;  236.925;    0.000
339.907; 2201.700;  254.925;    0.000
339.964; 2166.700;  196.925;    0.000
340.022; 2217.700;  247.925;    0.000
340.079; 2192.700;  275.925;    0.000
340.137; 2193.700;  248.925;    0.000
340.194; 2107.700;  263.925;    0.000
340.252; 2174.700;  266.925;    0.000
340.309; 2173.700;  211.925;    0.000
340.366; 2209.700;  237.925;    0.000
340.424; 2175.700;  260.925;    0.000
340.481; 2184.700;  255.925;    0.000
340.538; 2148.700;  235.925;    0.000
340.596; 2153.700;  225.925;    0.000
340.653; 2225.700;  230.925;    0.000
340.711; 2212.700;  272.925;    0.000
340.768; 2237.700;  253.925;    0.000
340.825; 2147.700;  201.925;    0.000
340.883; 2261.700;  232.925;    0.000
340.940; 2189.700;  247.925;    0.000
340.997; 2281.700;  244.925;    0.000
341.054; 2191.700;  244.925;    0.000
341.112; 2198.700;  258.925;    0.000
341.169; 2197.700;  238.925;    0.000
341.226; 2201.700;  213.925;    0.000
341.284; 2221.700;  240.925;    0.000
341.341; 2180.700;  194.925;    0.000
341.398; 2278.700;  191.925;    0.000
341.455; 2179.700;  227.925;    0.000
341.512; 2215.700;  238.925;    0.000
341.570; 2149.700;  236.925;    0.000
341.627; 2183.700;  241.925;    0.000
341.684; 2184.700;  225.925;    0.000
341.741; 2272.700;  299.925;    0.000
341.798; 2236.700;  265.925;    0.000
341.856; 2135.700;  230.925;    0.000
341.913; 2264.700;  234.925;    0.000
341.970; 2141.700;  260.925;    0.000
342.027; 2065.700;  255.925;    0.000
342.084; 2119.700;  260.925;    0.000
342.141; 2232.700;  263.925;    0.000
342.198; 2309.700;  245.925;    0.000
342.255; 2219.700;  210.925;    0.000
342.313; 2347.700;  251.925;    0.000
342.370; 2278.700;  234.925;    0.000
342.427; 2241.700;  249.925;    0.000
342.484; 2191.700;  254.925;    0.000
342.541; 2134.700;  229.925;    0.000
342.598; 2212.700;  255.925;    0.000
342.655; 2170.700;  225.925;    0.000
342.712; 2151.700;  224.925;    0.000
342.769; 2194.700;  215.925;    0.000
342.826; 2210.700;  240.925;    0.000
342.883; 2181.700;  233.925;    0.000
342.940; 2130.700;  212.925;    0.000
342.997; 2152.700;  236.925;    0.000
343.054; 2198.700;  255.925;    0.000
343.111; 2194.700;  228.925;    0.000
343.168; 2189.700;  230.925;    0.000
343.225; 2296.700;  258.925;    0.000
343.282; 2307.700;  202.925;    0.000
343.339; 2322.700;  253.925;    0.000
343.395; 2260.700;  232.925;    0.000
343.452; 2293.700;  253.925;    0.000
343.509; 2209.700;  213.925;    0.000
343.566; 2278.700;  259.925;    0.000
343.623; 2270.700;  244.925;    0.000
343.680; 2251.700;  232.925;    0.000
343.737; 2289.700;  222.925;    0.000
343.794; 2257.700;  204.925;    0.000
343.850; 2232.700;  249.925;    0.000
343.907; 2268.700;  212.925;    0.000
343.964; 2360.700;  226.925;    0.000
344.021; 2391.700;  251.925;    0.000
344.078; 2381.700;  246.925;    0.000
344.134; 2319.700;  218.925;    0.000
344.191; 2237.700;  244.925;    0.000
344.248; 2331.700;  211.925;    0.000
344.305; 2374.700;  221.925;    0.000
344.361; 2293.700;  247.925;    0.000
344.418; 2364.700;  265.925;    0.000
344.475; 2295.700;  254.925;    0.000
344.532; 2296.700;  233.925;    0.000
344.588; 2350.700;  236.925;    0.000
344.645; 2309.700;  249.925;    0.000
344.702; 2327.700;  220.925;    0.000
344.758; 2370.700;  255.925;    0.000
344.815; 2299.700;  236.925;    0.000
344.872; 2294.700;  218.925;    0.000
344.928; 2367.700;  230.925;    0.000
344.985; 2442.700;  222.925;    0.000
345.042; 2402.700;  199.925;    0.000
345.098; 2314.700;  226.925;    0.000
345.155; 2292.700;  245.925;    0.000
345.212; 2292.700;  225.925;    0.000
345.268; 2398.700;  237.925;    0.000
345.325; 2304.700;  213.925;    0.000
345.381; 2306.700;  267.925;    0.000
345.438; 2367.700;  240.925;    0.000
345.495; 2391.700;  254.925;    0.000
345.551; 2324.700;  248.925;    0.000
345.608; 2293.700;  196.925;    0.000
345.664; 2294.700;  245.925;    0.000
345.721; 2256.700;  252.925;    0.000
345.777; 2344.700;  245.925;    0.000
345.834; 2211.700;  210.925;    0.000
345.890; 2231.700;  244.925;    0.000
345.947; 2366.700;  238.925;    0.000
346.003; 2317.700;  224.925;    0.000
346.060; 2331.700;  206.925;    0.000
346.116; 2304.700;  237.925;    0.000
346.173; 2332.700;  242.925;    0.000
346.229; 2356.700;  269.925;    0.000
346.285; 2385.700;  262.925;    0.000
346.342; 2396.700;  263.925;    0.000
346.398; 2335.700;  224.925;    0.000
346.455; 2315.700;  237.925;    0.000
346.511; 2445.700;  216.925;    0.000
346.567; 2333.700;  211.925;    0.000
346.624; 2407.700;  225.925;    0.000
346.680; 2348.700;  242.925;    0.000
346.737; 2366.700;  244.925;    0.000
346.793; 2355.700;  260.925;    0.000
346.849; 2395.700;  251.925;    0.000
346.906; 2404.700;  260.925;    0.000
346.962; 2441.700;  267.925;    0.000
347.018; 2412.700;  246.925;    0.000
347.074; 2416.700;  272.925;    0.000
347.131; 2406.700;  211.925;    0.000
347.187; 2407.700;  240.925;    0.000
347.243; 2403.700;  233.925;    0.000
347.300; 2425.700;  225.925;    0.000
347.356; 2491.700;  236.925;    0.000
347.412; 2316.700;  237.925;    0.000
347.468; 2430.700;  284.925;    0.000
347.524; 2388.700;  252.925;    0.000
347.581; 2301.700;  278.925;    0.000
347.637; 2406.700;  262.925;    0.000
347.693; 2419.700;  268.925;    0.000
347.749; 2376.700;  260.925;    0.000
347.805; 2335.700;  224.925;    0.000
347.862; 2353.700;  243.925;    0.000
347.918; 2400.700;  257.925;    0.000
347.974; 2426.700;  248.925;    0.000
348.030; 2361.700;  242.925;    0.000
348.086; 2430.700;  234.925;    0.000
348.142; 2451.700;  239.925;    0.000
348.198; 2379.700;  260.925;    0.000
348.254; 2446.700;  262.925;    0.000
348.311; 2377.700;  263.925;    0.000
348.367; 2306.700;  235.925;    0.000
348.423; 2290.700;  205.925;    0.000
348.479; 2410.700;  234.925;    0.000
348.535; 2438.700;  257.925;    0.000
348.591; 2397.700;  267.925;    0.000
348.647; 2374.700;  243.925;    0.000
348.703; 2426.700;  278.925;    0.000
348.759; 2398.700;  259.925;    0.000
348.815; 2404.700;  288.925;    0.000
348.871; 2393.700;  269.925;    0.000
348.927; 2382.700;  239.925;    0.000
348.983; 2420.700;  289.925;    0.000
349.039; 2384.700;  221.925;    0.000
349.095; 2399.700;  252.925;    0.000
349.151; 2377.700;  226.925;    0.000
349.207; 2364.700;  263.925;    0.000
349.263; 2405.700;  194.925;    0.000
349.319; 2419.700;  212.925;    0.000
349.374; 2384.700;  236.925;    0.000
349.430; 2439.700;  229.925;    0.000
349.486; 2477.700;  247.925;    0.000
349.542; 2467.700;  263.925;    0.000
349.598; 2504.700;  248.925;    0.000
349.654; 2461.700;  252.925;    0.000
349.710; 2462.700;  230.925;    0.000
349.766; 2425.700;  201.925;    0.000
349.821; 2434.700;  229.925;    0.000
349.877; 2473.700;  282.925;    0.000
349.933; 2429.700;  240.925;    0.000
349.989; 2486.700;  251.925;    0.000
350.045; 2443.700;  240.925;    0.000
350.100; 2382.700;  256.925;    0.000
350.156; 2509.700;  243.925;    0.000
350.212; 2449.700;  250.925;    0.000
350.268; 2424.700;  251.925;    0.000
350.323; 2408.700;  208.925;    0.000
350.379; 2444.700;  244.925;    0.000
350.435; 2545.700;  237.925;    0.000
350.491; 2459.700;  201.925;    0.000
350.546; 2519.700;  225.925;    0.000
350.602; 2373.700;  260.925;    0.000
350.658; 2435.700;  224.925;    0.000
350.713; 2467.700;  264.925;    0.000
350.769; 2310.700;  196.925;    0.000
350.825; 2390.700;  202.925;    0.000
350.880; 2441.700;  232.925;    0.000
350.936; 2448.700;  242.925;    0.000
350.992; 2388.700;  238.925;    0.000
351.047; 2482.700;  242.925;    0.000
351.103; 2454.700;  199.925;    0.000
351.158; 2505.700;  242.925;    0.000
351.214; 2405.700;  225.925;    0.000
351.270; 2491.700;  197.925;    0.000
351.325; 2458.700;  231.925;    0.000
351.381; 2482.700;  215.925;    0.000
351.436; 2543.700;  233.925;    0.000
351.492; 2459.700;  216.925;    0.000
351.547; 2524.700;  244.925;    0.000
351.603; 2436.700;  249.925;    0.000
351.658; 2508.700;  249.925;    0.000
351.714; 2506.700;  222.925;    0.000
351.769; 2574.700;  222.925;    0.000
351.825; 2509.700;  226.925;    0.000
351.880; 2501.700;  238.925;    0.000
351.936; 2561.700;  230.925;    0.000
351.991; 2458.700;  243.925;    0.000
352.047; 2500.700;  201.925;    0.000
352.102; 2511.700;  243.925;    0.000
352.158; 2403.700;  193.925;    0.000
352.213; 2371.700;  219.925;    0.000
352.268; 2530.700;  205.925;    0.000
352.324; 2539.700;  246.925;    0.000
352.379; 2536.700;  247.925;    0.000
352.434; 2586.700;  252.925;    0.000
352.490; 2536.700;  205.925;    0.000
352.545; 2618.700;  262.925;    0.000
352.601; 2518.700;  229.925;    0.000
352.656; 2505.700;  207.925;    0.000
352.711; 2456.700;  228.925;    0.000
352.767; 2427.700;  216.925;    0.000
352.822; 2518.700;  219.925;    0.000
352.877; 2514.700;  234.925;    0.000
352.932; 2519.700;  249.925;    0.000
352.988; 2531.700;  196.925;    0.000
353.043; 2468.700;  228.925;    0.000
353.098; 2562.700;  231.925;    0.000
353.153; 2522.700;  235.925;    0.000
353.209; 2566.700;  250.925;    0.000
353.264; 2516.700;  212.925;    0.000
353.319; 2519.700;  234.925;    0.000
353.374; 2516.700;  245.925;    0.000
353.430; 2454.700;  261.925;    0.000
353.485; 2520.700;  249.925;    0.000
353.540; 2513.700;  260.925;    0.000
353.595; 2482.700;  219.925;    0.000
353.650; 2565.700;  242.925;    0.000
353.705; 2486.700;  244.925;    0.000
353.761; 2515.700;  242.925;    0.000
353.816; 2525.700;  214.925;    0.000
353.871; 2496.700;  237.925;    0.000
353.926; 2519.700;  233.925;    0.000
353.981; 2588.700;  250.925;    0.000
354.036; 2522.700;  239.925;    0.000
354.091; 2495.700;  289.925;    0.000
354.146; 2497.700;  282.925;    0.000
354.201; 2524.700;  244.925;    0.000
354.256; 2503.700;  257.925;    0.000
354.311; 2480.700;  305.925;    0.000
354.367; 2436.700;  220.925;    0.000
354.422; 2511.700;  261.925;    0.000
354.477; 2511.700;  212.925;    0.000
354.532; 2520.700;  254.925;    0.000
354.587; 2595.700;  252.925;    0.000
354.642; 2467.700;  210.925;    0.000
354.697; 2490.700;  232.925;    0.000
354.751; 2544.700;  254.925;    0.000
354.806; 2477.700;  233.925;    0.000
354.861; 2508.700;  244.925;    0.000
354.916; 2518.700;  235.925;    0.000
354.971; 2612.700;  258.925;    0.000
355.026; 2541.700;  251.925;    0.000
355.081; 2515.700;  254.925;    0.000
355.136; 2549.700;  212.925;    0.000
355.191; 2448.700;  211.925;    0.000
355.246; 2543.700;  237.925;    0.000
355.301; 2561.700;  255.925;    0.000
355.355; 2556.700;  231.925;    0.000
355.410; 2547.700;  224.925;    0.000
355.465; 2537.700;  235.925;    0.000
355.520; 2560.700;  244.925;    0.000
355.575; 2517.700;  267.925;    0.000
355.630; 2453.700;  255.925;    0.000
355.684; 2518.700;  254.925;    0.000
355.739; 2537.700;  217.925;    0.000
355.794; 2529.700;  206.925;    0.000
355.849; 2565.700;  221.925;    0.000
355.904; 2503.700;  257.925;    0.000
355.958; 2486.700;  221.925;    0.000
356.013; 2587.700;  192.925;    0.000
356.068; 2527.700;  267.925;    0.000
356.123; 2431.700;  218.925;    0.000
356.177; 2556.700;  236.925;    0.000
356.232; 2488.700;  236.925;    0.000
356.287; 2592.700;  246.925;    0.000
356.341; 2480.700;  241.925;    0.000
356.396; 2528.700;  219.925;    0.000
356.451; 2493.700;  244.925;    0.000
356.505; 2593.700;  248.925;    0.000
356.560; 2505.700;  267.925;    0.000
356.615; 2577.700;  258.925;    0.000
356.669; 2533.700;  291.925;    0.000
356.724; 2549.700;  272.925;    0.000
356.778; 2515.700;  244.925;    0.000
356.833; 2477.700;  223.925;    0.000
356.888; 2427.700;  245.925;    0.000
356.942; 2553.700;  221.925;    0.000
356.997; 2553.700;  254.925;    0.000
357.051; 2530.700;  244.925;    0.000
357.106; 2583.700;  227.925;    0.000
357.160; 2498.700;  176.925;    0.000
357.215; 2475.700;  234.925;    0.000
357.269; 2497.700;  233.925;    0.000
357.324; 2488.700;  232.925;    0.000
357.378; 2502.700;  211.925;    0.000
357.433; 2482.700;  252.925;    0.000
357.487; 2518.700;  227.925;    0.000
357.542; 2517.700;  246.925;    0.000
357.596; 2465.700;  260.925;    0.000
357.651; 2552.700;  301.925;    0.000
357.705; 2516.700;  230.925;    0.000
357.760; 2520.700;  211.925;    0.000
357.814; 2481.700;  265.925;    0.000
357.868; 2565.700;  220.925;    0.000
357.923; 2501.700;  220.925;    0.000
357.977; 2547.700;  245.925;    0.000
358.032; 2501.700;  247.925;    0.000
358.086; 2531.700;  242.925;    0.000
358.140; 2487.700;  270.925;    0.000
358.195; 2493.700;  242.925;    0.000
358.249; 2488.700;  238.925;    0.000
358.303; 2527.700;  285.925;    0.000
358.358; 2506.700;  265.925;    0.000
358.412; 2480.700;  265.925;    0.000
358.466; 2467.700;  257.925;    0.000
358.521; 2463.700;  251.925;    0.000
358.575; 2472.700;  254.925;    0.000
358.629; 2470.700;  278.925;    0.000
358.683; 2455.700;  288.925;    0.000
358.738; 2542.700;  302.925;    0.000
358.792; 2438.700;  239.925;    0.000
358.846; 2591.700;  293.925;    0.000
358.900; 2524.700;  271.925;    0.000
358.954; 2636.700;  300.925;    0.000
359.009; 2508.700;  279.925;    0.000
359.063; 2532.700;  249.925;    0.000
359.117; 2568.700;  264.925;    0.000
359.171; 2543.700;  279.925;    0.000
359.225; 2553.700;  276.925;    0.000
359.280; 2543.700;  237.925;    0.000
359.334; 2533.700;  280.925;    0.000
359.388; 2541.700;  282.925;    0.000
359.442; 2530.700;  243.925;    0.000
359.496; 2353.700;  204.925;    0.000
359.550; 2578.700;  308.925;    0.000
359.604; 2525.700;  264.925;    0.000
359.658; 2585.700;  247.925;    0.000
359.712; 2464.700;  273.925;    0.000
359.766; 2537.700;  212.925;    0.000
359.820; 2516.700;  228.925;    0.000
359.875; 2557.700;  248.925;    0.000
359.929; 2515.700;  271.925;    0.000
359.983; 2497.700;  274.925;    0.000
360.037; 2569.700;  262.925;    0.000
360.091; 2511.700;  302.925;    0.000
360.145; 2479.700;  244.925;    0.000
360.199; 2482.700;  253.925;    0.000
360.253; 2453.700;  285.925;    0.000
360.306; 2401.700;  287.925;    0.000
360.360; 2538.700;  267.925;    0.000
360.414; 2540.700;  250.925;    0.000
360.468; 2566.700;  270.925;    0.000
360.522; 2527.700;  276.925;    0.000
360.576; 2589.700;  269.925;    0.000
360.630; 2684.700;  281.925;    0.000
360.684; 2549.700;  291.925;    0.000
360.738; 2558.700;  325.925;    0.000
360.792; 2522.700;  320.925;    0.000
360.846; 2537.700;  276.925;    0.000
360.899; 2587.700;  314.925;    0.000
360.953; 2485.700;  275.925;    0.000
361.007; 2580.700;  292.925;    0.000
361.061; 2476.700;  278.925;    0.000
361.115; 2559.700;  264.925;    0.000
361.168; 2548.700;  317.925;    0.000
361.222; 2441.700;  277.925;    0.000
361.276; 2597.700;  274.925;    0.000
361.330; 2483.700;  269.925;    0.000
361.384; 2454.700;  280.925;    0.000
361.437; 2607.700;  304.925;    0.000
361.491; 2447.700;  256.925;    0.000
361.545; 2465.700;  293.925;    0.000
361.599; 2568.700;  284.925;    0.000
361.652; 2538.700;  274.925;    0.000
361.706; 2472.700;  284.925;    0.000
361.760; 2540.700;  260.925;    0.000
361.813; 2539.700;  272.925;    0.000
361.867; 2507.700;  300.925;    0.000
361.921; 2542.700;  275.925;    0.000
361.974; 2471.700;  258.925;    0.000
362.028; 2569.700;  248.925;    0.000
362.082; 2508.700;  252.925;    0.000
362.135; 2502.700;  240.925;    0.000
362.189; 2476.700;  259.925;    0.000
362.242; 2566.700;  267.925;    0.000
362.296; 2547.700;  280.925;    0.000
362.350; 2517.700;  282.925;    0.000
362.403; 2488.700;  288.925;    0.000
362.457; 2543.700;  253.925;    0.000
362.510; 2446.700;  323.925;    0.000
362.564; 2510.700;  286.925;    0.000
362.617; 2459.700;  317.925;    0.000
362.671; 2493.700;  286.925;    0.000
362.724; 2454.700;  274.925;    0.000
362.778; 2490.700;  295.925;    0.000
362.831; 2532.700;  289.925;    0.000
362.885; 2588.700;  318.925;    0.000
362.938; 2529.700;  271.925;    0.000
362.992;  332.700;  285.925;    0.000
363.045;  274.700;  291.925;    0.000
363.099;  291.700;  276.925;    0.000
363.152;  297.700;  309.925;    0.000
363.205;  295.700;  263.925;    0.000
363.259;  299.700;  288.925;    0.000
363.312;  304.700;  333.925;    0.000
363.366;  304.700;  328.925;    0.000
363.419;  275.700;  328.925;    0.000
363.472;  308.700;  295.925;    0.000
363.526;  284.700;  334.925;    0.000
363.579;  287.700;  312.925;    0.000
363.632;  289.700;  274.925;    0.000
363.686;  286.700;  282.925;    0.000
363.739;  235.700;  289.925;    0.000
363.792;  265.700;  287.925;    0.000

