
Integration time [ms]:   0.300
Averaging Nr. [scans]: 1
Smoothing Nr. [pixels]: 0
Data measured with spectrometer [name]: UV2
Wave   ;Sample   ;Dark     ;Reference
[nm]   ;[counts] ;[counts] ;[counts] 

353.533;  226.500;  235.675;    0.000
353.597;  220.500;  239.675;    0.000
353.660;  207.500;  203.675;    0.000
353.723;  216.500;  225.675;    0.000
353.786;  155.500;  178.675;    0.000
353.850;  222.500;  199.675;    0.000
353.913;  197.500;  179.675;    0.000
353.976;  206.500;  209.675;    0.000
354.039;  179.500;  188.675;    0.000
354.102;  230.500;  219.675;    0.000
354.166;  236.500;  237.675;    0.000
354.229;  227.500;  179.675;    0.000
354.292;  202.500;  210.675;    0.000
354.355;  214.500;  214.675;    0.000
354.418;  188.500;  173.675;    0.000
354.481;  199.500;  170.675;    0.000
354.545;  552.500;  229.675;    0.000
354.608;  554.500;  233.675;    0.000
354.671;  544.500;  183.675;    0.000
354.734;  595.500;  208.675;    0.000
354.797;  568.500;  263.675;    0.000
354.860;  551.500;  208.675;    0.000
354.923;  606.500;  202.675;    0.000
354.986;  579.500;  207.675;    0.000
355.050;  618.500;  180.675;    0.000
355.113;  587.500;  189.675;    0.000
355.176;  622.500;  214.675;    0.000
355.239;  624.500;  199.675;    0.000
355.302;  608.500;  229.675;    0.000
355.365;  696.500;  220.675;    0.000
355.428;  640.500;  196.675;    0.000
355.491;  658.500;  243.675;    0.000
355.554;  623.500;  191.675;    0.000
355.617;  669.500;  200.675;    0.000
355.680;  641.500;  190.675;    0.000
355.743;  671.500;  236.675;    0.000
355.806;  682.500;  193.675;    0.000
355.869;  744.500;  223.675;    0.000
355.932;  687.500;  208.675;    0.000
355.995;  747.500;  231.675;    0.000
356.058;  694.500;  202.675;    0.000
356.121;  766.500;  198.675;    0.000
356.184;  759.500;  209.675;    0.000
356.247;  778.500;  224.675;    0.000
356.310;  672.500;  149.675;    0.000
356.373;  718.500;  211.675;    0.000
356.436;  740.500;  195.675;    0.000
356.498;  676.500;  176.675;    0.000
356.561;  660.500;  186.675;    0.000
356.624;  735.500;  184.675;    0.000
356.687;  726.500;  179.675;    0.000
356.750;  755.500;  213.675;    0.000
356.813;  717.500;  172.675;    0.000
356.876;  807.500;  189.675;    0.000
356.939;  754.500;  204.675;    0.000
357.001;  768.500;  195.675;    0.000
357.064;  758.500;  202.675;    0.000
357.127;  749.500;  176.675;    0.000
357.190;  750.500;  186.675;    0.000
357.253;  816.500;  178.675;    0.000
357.316;  721.500;  187.675;    0.000
357.378;  756.500;  181.675;    0.000
357.441;  787.500;  142.675;    0.000
357.504;  784.500;  161.675;    0.000
357.567;  709.500;  113.675;    0.000
357.629;  805.500;  193.675;    0.000
357.692;  735.500;  144.675;    0.000
357.755;  764.500;  177.675;    0.000
357.818;  755.500;  144.675;    0.000
357.880;  773.500;  182.675;    0.000
357.943;  727.500;  166.675;    0.000
358.006;  786.500;  184.675;    0.000
358.069;  767.500;  200.675;    0.000
358.131;  774.500;  148.675;    0.000
358.194;  787.500;  155.675;    0.000
358.257;  808.500;  173.675;    0.000
358.319;  760.500;  178.675;    0.000
358.382;  804.500;  184.675;    0.000
358.445;  776.500;  156.675;    0.000
358.507;  754.500;  199.675;    0.000
358.570;  783.500;  182.675;    0.000
358.633;  807.500;  167.675;    0.000
358.695;  777.500;  124.675;    0.000
358.758;  759.500;  164.675;    0.000
358.821;  782.500;  147.675;    0.000
358.883;  792.500;  153.675;    0.000
358.946;  784.500;  171.675;    0.000
359.008;  755.500;  196.675;    0.000
359.071;  842.500;  178.675;    0.000
359.134;  808.500;  123.675;    0.000
359.196;  767.500;  166.675;    0.000
359.259;  799.500;  173.675;    0.000
359.321;  782.500;  164.675;    0.000
359.384;  808.500;  155.675;    0.000
359.446;  763.500;  157.675;    0.000
359.509;  788.500;  153.675;    0.000
359.571;  808.500;  184.675;    0.000
359.634;  786.500;  138.675;    0.000
359.696;  787.500;  169.675;    0.000
359.759;  798.500;  152.675;    0.000
359.821;  809.500;  150.675;    0.000
359.884;  879.500;  166.675;    0.000
359.946;  834.500;  165.675;    0.000
360.009;  834.500;  176.675;    0.000
360.071;  822.500;  148.675;    0.000
360.134;  813.500;  193.675;    0.000
360.196;  788.500;  151.675;    0.000
360.259;  824.500;  182.675;    0.000
360.321;  798.500;  168.675;    0.000
360.384;  816.500;  176.675;    0.000
360.446;  803.500;  156.675;    0.000
360.508;  821.500;  183.675;    0.000
360.571;  849.500;  193.675;    0.000
360.633;  792.500;  184.675;    0.000
360.696;  783.500;  136.675;    0.000
360.758;  894.500;  186.675;    0.000
360.820;  881.500;  127.675;    0.000
360.883;  803.500;  146.675;    0.000
360.945;  841.500;  144.675;    0.000
361.007;  828.500;  160.675;    0.000
361.070;  870.500;  175.675;    0.000
361.132;  899.500;  195.675;    0.000
361.194;  850.500;  167.675;    0.000
361.257;  809.500;  140.675;    0.000
361.319;  809.500;  154.675;    0.000
361.381;  894.500;  181.675;    0.000
361.443;  872.500;  137.675;    0.000
361.506;  850.500;  159.675;    0.000
361.568;  859.500;  144.675;    0.000
361.630;  875.500;  189.675;    0.000
361.693;  862.500;  162.675;    0.000
361.755;  917.500;  156.675;    0.000
361.817;  870.500;  225.675;    0.000
361.879;  866.500;  172.675;    0.000
361.941;  872.500;  138.675;    0.000
362.004;  926.500;  163.675;    0.000
362.066;  891.500;  164.675;    0.000
362.128;  922.500;  160.675;    0.000
362.190;  896.500;  168.675;    0.000
362.252;  897.500;  177.675;    0.000
362.315;  854.500;  169.675;    0.000
362.377;  888.500;  188.675;    0.000
362.439;  840.500;  158.675;    0.000
362.501;  923.500;  168.675;    0.000
362.563;  927.500;  168.675;    0.000
362.625;  894.500;  188.675;    0.000
362.688;  843.500;  162.675;    0.000
362.750;  961.500;  209.675;    0.000
362.812;  896.500;  154.675;    0.000
362.874;  862.500;  190.675;    0.000
362.936;  936.500;  190.675;    0.000
362.998;  874.500;  143.675;    0.000
363.060;  917.500;  186.675;    0.000
363.122;  943.500;  167.675;    0.000
363.184;  916.500;  163.675;    0.000
363.246;  933.500;  169.675;    0.000
363.308;  932.500;  165.675;    0.000
363.370;  909.500;  177.675;    0.000
363.432;  896.500;  139.675;    0.000
363.494;  931.500;  177.675;    0.000
363.556;  979.500;  164.675;    0.000
363.618;  875.500;  170.675;    0.000
363.680;  953.500;  146.675;    0.000
363.742;  929.500;  179.675;    0.000
363.804;  948.500;  188.675;    0.000
363.866;  956.500;  186.675;    0.000
363.928;  886.500;  147.675;    0.000
363.990;  927.500;  185.675;    0.000
364.052;  949.500;  197.675;    0.000
364.114;  971.500;  150.675;    0.000
364.176;  931.500;  217.675;    0.000
364.238;  968.500;  159.675;    0.000
364.300;  956.500;  192.675;    0.000
364.362;  951.500;  130.675;    0.000
364.424;  910.500;  131.675;    0.000
364.486;  986.500;  178.675;    0.000
364.548;  995.500;  203.675;    0.000
364.609;  921.500;  192.675;    0.000
364.671;  974.500;  169.675;    0.000
364.733;  952.500;  169.675;    0.000
364.795;  976.500;  157.675;    0.000
364.857;  998.500;  171.675;    0.000
364.919;  899.500;  134.675;    0.000
364.981; 1010.500;  162.675;    0.000
365.042; 1019.500;  136.675;    0.000
365.104;  947.500;  152.675;    0.000
365.166;  938.500;  149.675;    0.000
365.228;  932.500;  195.675;    0.000
365.290;  914.500;  147.675;    0.000
365.351;  954.500;  138.675;    0.000
365.413;  940.500;  168.675;    0.000
365.475;  996.500;  150.675;    0.000
365.537;  977.500;  179.675;    0.000
365.598; 1004.500;  177.675;    0.000
365.660;  938.500;  149.675;    0.000
365.722;  985.500;  160.675;    0.000
365.784;  951.500;  175.675;    0.000
365.845;  963.500;  149.675;    0.000
365.907;  921.500;  154.675;    0.000
365.969;  982.500;  128.675;    0.000
366.030; 1013.500;  176.675;    0.000
366.092;  998.500;  181.675;    0.000
366.154;  956.500;  194.675;    0.000
366.215;  989.500;  149.675;    0.000
366.277;  930.500;  144.675;    0.000
366.339;  991.500;  160.675;    0.000
366.400;  932.500;  144.675;    0.000
366.462; 1065.500;  145.675;    0.000
366.524;  989.500;  148.675;    0.000
366.585;  958.500;  128.675;    0.000
366.647; 1000.500;  156.675;    0.000
366.708;  949.500;  128.675;    0.000
366.770; 1061.500;  188.675;    0.000
366.832;  959.500;  170.675;    0.000
366.893; 1070.500;  158.675;    0.000
366.955;  921.500;  150.675;    0.000
367.016;  931.500;  160.675;    0.000
367.078;  953.500;  144.675;    0.000
367.139; 1018.500;  109.675;    0.000
367.201; 1008.500;  155.675;    0.000
367.262;  989.500;  165.675;    0.000
367.324;  980.500;  180.675;    0.000
367.385;  951.500;  150.675;    0.000
367.447;  978.500;  164.675;    0.000
367.508;  975.500;  137.675;    0.000
367.570;  937.500;  174.675;    0.000
367.631; 1001.500;  126.675;    0.000
367.693; 1006.500;  153.675;    0.000
367.754;  996.500;  194.675;    0.000
367.816; 1074.500;  154.675;    0.000
367.877; 1027.500;  183.675;    0.000
367.939; 1047.500;  179.675;    0.000
368.000; 1000.500;  142.675;    0.000
368.062; 1053.500;  147.675;    0.000
368.123;  982.500;  155.675;    0.000
368.184; 1066.500;  169.675;    0.000
368.246; 1054.500;  145.675;    0.000
368.307; 1005.500;  165.675;    0.000
368.369;  997.500;  177.675;    0.000
368.430; 1002.500;  161.675;    0.000
368.491;  954.500;  156.675;    0.000
368.553; 1046.500;  156.675;    0.000
368.614; 1025.500;  186.675;    0.000
368.675;  975.500;  154.675;    0.000
368.737;  990.500;  162.675;    0.000
368.798;  966.500;  202.675;    0.000
368.859; 1022.500;  162.675;    0.000
368.921;  963.500;  171.675;    0.000
368.982; 1046.500;  193.675;    0.000
369.043; 1044.500;  207.675;    0.000
369.104; 1028.500;  143.675;    0.000
369.166; 1070.500;  203.675;    0.000
369.227; 1028.500;  125.675;    0.000
369.288; 1022.500;  154.675;    0.000
369.349;  991.500;  187.675;    0.000
369.411; 1055.500;  191.675;    0.000
369.472; 1036.500;  175.675;    0.000
369.533; 1039.500;  180.675;    0.000
369.594; 1014.500;  161.675;    0.000
369.656; 1066.500;  169.675;    0.000
369.717; 1030.500;  103.675;    0.000
369.778; 1025.500;  159.675;    0.000
369.839; 1050.500;  146.675;    0.000
369.900; 1054.500;  218.675;    0.000
369.961; 1034.500;  200.675;    0.000
370.023; 1076.500;  177.675;    0.000
370.084; 1065.500;  149.675;    0.000
370.145; 1002.500;  179.675;    0.000
370.206; 1040.500;  179.675;    0.000
370.267; 1072.500;  166.675;    0.000
370.328; 1029.500;  164.675;    0.000
370.389; 1091.500;  162.675;    0.000
370.451; 1054.500;  179.675;    0.000
370.512; 1057.500;  181.675;    0.000
370.573; 1061.500;  173.675;    0.000
370.634; 1011.500;  162.675;    0.000
370.695;  992.500;  167.675;    0.000
370.756; 1094.500;  177.675;    0.000
370.817; 1079.500;  178.675;    0.000
370.878; 1069.500;  152.675;    0.000
370.939; 1032.500;  185.675;    0.000
371.000; 1063.500;  173.675;    0.000
371.061; 1104.500;  176.675;    0.000
371.122; 1074.500;  169.675;    0.000
371.183; 1061.500;  116.675;    0.000
371.244; 1053.500;  174.675;    0.000
371.305; 1102.500;  152.675;    0.000
371.366; 1031.500;  168.675;    0.000
371.427; 1054.500;  188.675;    0.000
371.488; 1093.500;  180.675;    0.000
371.549; 1101.500;  145.675;    0.000
371.610; 1080.500;  160.675;    0.000
371.671; 1046.500;  164.675;    0.000
371.732; 1090.500;  158.675;    0.000
371.793; 1087.500;  162.675;    0.000
371.853; 1021.500;  130.675;    0.000
371.914; 1031.500;  172.675;    0.000
371.975; 1060.500;   98.675;    0.000
372.036; 1096.500;  161.675;    0.000
372.097; 1070.500;  143.675;    0.000
372.158; 1053.500;  175.675;    0.000
372.219; 1080.500;  196.675;    0.000
372.280; 1119.500;  175.675;    0.000
372.340; 1133.500;  160.675;    0.000
372.401; 1072.500;  163.675;    0.000
372.462; 1119.500;  147.675;    0.000
372.523; 1059.500;  146.675;    0.000
372.584; 1076.500;  173.675;    0.000
372.645; 1085.500;  126.675;    0.000
372.705; 1103.500;  179.675;    0.000
372.766; 1154.500;  173.675;    0.000
372.827; 1102.500;  171.675;    0.000
372.888; 1075.500;  134.675;    0.000
372.948; 1091.500;  167.675;    0.000
373.009; 1034.500;  167.675;    0.000
373.070; 1054.500;  152.675;    0.000
373.131; 1034.500;  177.675;    0.000
373.191; 1118.500;  225.675;    0.000
373.252; 1076.500;  165.675;    0.000
373.313; 1138.500;  171.675;    0.000
373.373; 1124.500;  160.675;    0.000
373.434; 1084.500;  172.675;    0.000
373.495; 1096.500;  150.675;    0.000
373.555; 1125.500;  130.675;    0.000
373.616; 1020.500;  155.675;    0.000
373.677; 1093.500;  212.675;    0.000
373.737; 1101.500;  188.675;    0.000
373.798; 1057.500;  203.675;    0.000
373.859; 1095.500;  169.675;    0.000
373.919; 1161.500;  197.675;    0.000
373.980; 1059.500;  134.675;    0.000
374.041; 1093.500;  186.675;    0.000
374.101; 1043.500;  207.675;    0.000
374.162; 1154.500;  190.675;    0.000
374.222; 1081.500;  182.675;    0.000
374.283; 1184.500;  213.675;    0.000
374.343; 1121.500;  191.675;    0.000
374.404; 1100.500;  181.675;    0.000
374.465; 1060.500;  193.675;    0.000
374.525; 1081.500;  153.675;    0.000
374.586; 1147.500;  190.675;    0.000
374.646; 1057.500;  173.675;    0.000
374.707; 1115.500;  210.675;    0.000
374.767; 1129.500;  218.675;    0.000
374.828; 1091.500;  174.675;    0.000
374.888; 1184.500;  197.675;    0.000
374.949; 1137.500;  196.675;    0.000
375.009; 1120.500;  169.675;    0.000
375.070; 1101.500;  157.675;    0.000
375.130; 1136.500;  203.675;    0.000
375.190; 1107.500;  174.675;    0.000
375.251; 1229.500;  230.675;    0.000
375.311; 1055.500;  198.675;    0.000
375.372; 1167.500;  160.675;    0.000
375.432; 1139.500;  169.675;    0.000
375.493; 1136.500;  159.675;    0.000
375.553; 1109.500;  179.675;    0.000
375.613; 1046.500;  157.675;    0.000
375.674; 1050.500;  174.675;    0.000
375.734; 1092.500;  180.675;    0.000
375.794; 1177.500;  175.675;    0.000
375.855; 1077.500;  193.675;    0.000
375.915; 1086.500;  148.675;    0.000
375.975; 1084.500;  183.675;    0.000
376.036; 1103.500;  144.675;    0.000
376.096; 1035.500;  195.675;    0.000
376.156; 1083.500;  200.675;    0.000
376.217; 1110.500;  160.675;    0.000
376.277; 1089.500;  193.675;    0.000
376.337; 1130.500;  168.675;    0.000
376.398; 1124.500;  183.675;    0.000
376.458; 1168.500;  168.675;    0.000
376.518; 1102.500;  184.675;    0.000
376.578; 1089.500;  176.675;    0.000
376.639; 1114.500;  158.675;    0.000
376.699; 1065.500;  157.675;    0.000
376.759; 1131.500;  184.675;    0.000
376.819; 1090.500;  166.675;    0.000
376.880; 1083.500;  220.675;    0.000
376.940; 1116.500;  195.675;    0.000
377.000; 1095.500;  178.675;    0.000
377.060; 1192.500;  212.675;    0.000
377.120; 1118.500;  161.675;    0.000
377.180; 1130.500;  168.675;    0.000
377.241; 1083.500;  167.675;    0.000
377.301; 1168.500;  171.675;    0.000
377.361; 1087.500;  174.675;    0.000
377.421; 1156.500;  216.675;    0.000
377.481; 1078.500;  164.675;    0.000
377.541; 1072.500;  163.675;    0.000
377.601; 1103.500;  197.675;    0.000
377.661; 1124.500;  175.675;    0.000
377.722; 1155.500;  196.675;    0.000
377.782; 1064.500;  162.675;    0.000
377.842; 1189.500;  179.675;    0.000
377.902; 1096.500;  140.675;    0.000
377.962; 1131.500;  121.675;    0.000
378.022; 1082.500;  174.675;    0.000
378.082; 1163.500;  167.675;    0.000
378.142; 1093.500;  151.675;    0.000
378.202; 1179.500;  174.675;    0.000
378.262; 1154.500;  168.675;    0.000
378.322; 1156.500;  183.675;    0.000
378.382; 1102.500;  159.675;    0.000
378.442; 1139.500;  177.675;    0.000
378.502; 1124.500;  137.675;    0.000
378.562; 1102.500;  140.675;    0.000
378.622; 1131.500;  197.675;    0.000
378.682; 1164.500;  205.675;    0.000
378.742; 1142.500;  160.675;    0.000
378.802; 1103.500;  132.675;    0.000
378.862; 1126.500;  222.675;    0.000
378.921; 1158.500;  178.675;    0.000
378.981; 1139.500;  160.675;    0.000
379.041; 1106.500;  136.675;    0.000
379.101; 1154.500;  184.675;    0.000
379.161; 1176.500;  147.675;    0.000
379.221; 1098.500;  139.675;    0.000
379.281; 1154.500;  204.675;    0.000
379.341; 1142.500;  142.675;    0.000
379.401; 1102.500;  136.675;    0.000
379.460; 1135.500;  161.675;    0.000
379.520; 1164.500;  171.675;    0.000
379.580; 1144.500;  168.675;    0.000
379.640; 1140.500;  183.675;    0.000
379.700; 1204.500;  182.675;    0.000
379.759; 1204.500;  190.675;    0.000
379.819; 1109.500;  149.675;    0.000
379.879; 1169.500;  140.675;    0.000
379.939; 1117.500;  155.675;    0.000
379.999; 1105.500;  199.675;    0.000
380.058; 1193.500;  163.675;    0.000
380.118; 1213.500;  190.675;    0.000
380.178; 1247.500;  220.675;    0.000
380.237; 1185.500;  181.675;    0.000
380.297; 1149.500;  187.675;    0.000
380.357; 1149.500;  193.675;    0.000
380.417; 1201.500;  157.675;    0.000
380.476; 1198.500;  176.675;    0.000
380.536; 1193.500;  180.675;    0.000
380.596; 1173.500;  191.675;    0.000
380.655; 1215.500;  190.675;    0.000
380.715; 1213.500;  180.675;    0.000
380.775; 1188.500;  202.675;    0.000
380.834; 1215.500;  190.675;    0.000
380.894; 1163.500;  163.675;    0.000
380.954; 1186.500;  181.675;    0.000
381.013; 1185.500;  218.675;    0.000
381.073; 1189.500;  181.675;    0.000
381.132; 1204.500;  193.675;    0.000
381.192; 1196.500;  209.675;    0.000
381.252; 1212.500;  206.675;    0.000
381.311; 1189.500;  173.675;    0.000
381.371; 1233.500;  188.675;    0.000
381.430; 1245.500;  162.675;    0.000
381.490; 1235.500;  168.675;    0.000
381.549; 1241.500;  213.675;    0.000
381.609; 1221.500;  194.675;    0.000
381.668; 1195.500;  190.675;    0.000
381.728; 1237.500;  183.675;    0.000
381.787; 1306.500;  172.675;    0.000
381.847; 1225.500;  198.675;    0.000
381.906; 1129.500;  197.675;    0.000
381.966; 1228.500;  201.675;    0.000
382.025; 1297.500;  219.675;    0.000
382.085; 1248.500;  194.675;    0.000
382.144; 1313.500;  187.675;    0.000
382.204; 1291.500;  196.675;    0.000
382.263; 1279.500;  168.675;    0.000
382.323; 1239.500;  135.675;    0.000
382.382; 1259.500;  173.675;    0.000
382.441; 1287.500;  155.675;    0.000
382.501; 1284.500;  168.675;    0.000
382.560; 1292.500;  200.675;    0.000
382.619; 1276.500;  155.675;    0.000
382.679; 1320.500;  198.675;    0.000
382.738; 1348.500;  211.675;    0.000
382.798; 1379.500;  214.675;    0.000
382.857; 1357.500;  146.675;    0.000
382.916; 1397.500;  183.675;    0.000
382.976; 1465.500;  173.675;    0.000
383.035; 1453.500;  165.675;    0.000
383.094; 1386.500;  173.675;    0.000
383.154; 1495.500;  143.675;    0.000
383.213; 1509.500;  173.675;    0.000
383.272; 1491.500;  166.675;    0.000
383.331; 1385.500;  154.675;    0.000
383.391; 1420.500;  232.675;    0.000
383.450; 1404.500;  185.675;    0.000
383.509; 1371.500;  204.675;    0.000
383.568; 1434.500;  197.675;    0.000
383.628; 1503.500;  171.675;    0.000
383.687; 1473.500;  202.675;    0.000
383.746; 1457.500;  116.675;    0.000
383.805; 1610.500;  156.675;    0.000
383.864; 1554.500;  150.675;    0.000
383.924; 1510.500;  195.675;    0.000
383.983; 1437.500;  157.675;    0.000
384.042; 1393.500;  184.675;    0.000
384.101; 1394.500;  210.675;    0.000
384.160; 1324.500;  123.675;    0.000
384.219; 1372.500;  191.675;    0.000
384.279; 1315.500;  184.675;    0.000
384.338; 1301.500;  172.675;    0.000
384.397; 1322.500;  153.675;    0.000
384.456; 1271.500;  181.675;    0.000
384.515; 1313.500;  171.675;    0.000
384.574; 1372.500;  172.675;    0.000
384.633; 1275.500;  174.675;    0.000
384.692; 1304.500;  178.675;    0.000
384.751; 1250.500;  180.675;    0.000
384.810; 1275.500;  161.675;    0.000
384.869; 1315.500;  162.675;    0.000
384.929; 1298.500;  157.675;    0.000
384.988; 1307.500;  153.675;    0.000
385.047; 1254.500;  178.675;    0.000
385.106; 1300.500;  164.675;    0.000
385.165; 1314.500;  127.675;    0.000
385.224; 1290.500;  156.675;    0.000
385.283; 1378.500;  178.675;    0.000
385.342; 1274.500;  177.675;    0.000
385.401; 1313.500;  178.675;    0.000
385.459; 1308.500;  177.675;    0.000
385.518; 1304.500;  152.675;    0.000
385.577; 1248.500;  133.675;    0.000
385.636; 1308.500;  204.675;    0.000
385.695; 1239.500;  161.675;    0.000
385.754; 1285.500;  190.675;    0.000
385.813; 1309.500;  160.675;    0.000
385.872; 1295.500;  138.675;    0.000
385.931; 1277.500;  192.675;    0.000
385.990; 1292.500;  158.675;    0.000
386.049; 1327.500;  187.675;    0.000
386.107; 1301.500;  140.675;    0.000
386.166; 1294.500;  139.675;    0.000
386.225; 1321.500;  182.675;    0.000
386.284; 1345.500;  123.675;    0.000
386.343; 1344.500;  207.675;    0.000
386.402; 1299.500;  150.675;    0.000
386.460; 1336.500;  185.675;    0.000
386.519; 1277.500;  145.675;    0.000
386.578; 1315.500;  153.675;    0.000
386.637; 1317.500;  153.675;    0.000
386.696; 1370.500;  189.675;    0.000
386.754; 1367.500;  128.675;    0.000
386.813; 1299.500;  202.675;    0.000
386.872; 1328.500;  152.675;    0.000
386.931; 1345.500;  166.675;    0.000
386.989; 1366.500;  194.675;    0.000
387.048; 1316.500;  176.675;    0.000
387.107; 1384.500;  203.675;    0.000
387.165; 1293.500;  136.675;    0.000
387.224; 1301.500;  193.675;    0.000
387.283; 1272.500;  157.675;    0.000
387.342; 1357.500;  194.675;    0.000
387.400; 1337.500;  191.675;    0.000
387.459; 1379.500;  142.675;    0.000
387.517; 1343.500;  202.675;    0.000
387.576; 1329.500;  164.675;    0.000
387.635; 1299.500;  147.675;    0.000
387.693; 1335.500;  199.675;    0.000
387.752; 1388.500;  181.675;    0.000
387.811; 1372.500;  161.675;    0.000
387.869; 1377.500;  184.675;    0.000
387.928; 1348.500;  175.675;    0.000
387.986; 1354.500;  143.675;    0.000
388.045; 1269.500;  146.675;    0.000
388.103; 1311.500;  164.675;    0.000
388.162; 1335.500;  170.675;    0.000
388.221; 1295.500;  169.675;    0.000
388.279; 1320.500;  151.675;    0.000
388.338; 1381.500;  175.675;    0.000
388.396; 1356.500;  170.675;    0.000
388.455; 1394.500;  193.675;    0.000
388.513; 1324.500;  134.675;    0.000
388.572; 1393.500;  201.675;    0.000
388.630; 1313.500;  181.675;    0.000
388.689; 1309.500;  165.675;    0.000
388.747; 1310.500;  164.675;    0.000
388.806; 1343.500;  155.675;    0.000
388.864; 1301.500;  172.675;    0.000
388.922; 1417.500;  190.675;    0.000
388.981; 1413.500;  170.675;    0.000
389.039; 1392.500;  142.675;    0.000
389.098; 1346.500;  177.675;    0.000
389.156; 1363.500;  184.675;    0.000
389.214; 1401.500;  197.675;    0.000
389.273; 1395.500;  141.675;    0.000
389.331; 1417.500;  145.675;    0.000
389.390; 1370.500;  160.675;    0.000
389.448; 1296.500;  142.675;    0.000
389.506; 1283.500;  192.675;    0.000
389.565; 1386.500;  176.675;    0.000
389.623; 1367.500;  174.675;    0.000
389.681; 1410.500;  184.675;    0.000
389.740; 1387.500;  193.675;    0.000
389.798; 1428.500;  130.675;    0.000
389.856; 1428.500;  224.675;    0.000
389.914; 1382.500;  223.675;    0.000
389.973; 1356.500;  164.675;    0.000
390.031; 1350.500;  198.675;    0.000
390.089; 1407.500;  177.675;    0.000
390.147; 1413.500;  158.675;    0.000
390.206; 1394.500;  213.675;    0.000
390.264; 1407.500;  178.675;    0.000
390.322; 1396.500;  181.675;    0.000
390.380; 1474.500;  148.675;    0.000
390.439; 1411.500;  185.675;    0.000
390.497; 1456.500;  208.675;    0.000
390.555; 1472.500;  175.675;    0.000
390.613; 1415.500;  178.675;    0.000
390.671; 1470.500;  190.675;    0.000
390.729; 1390.500;  172.675;    0.000
390.788; 1487.500;  194.675;    0.000
390.846; 1441.500;  187.675;    0.000
390.904; 1474.500;  207.675;    0.000
390.962; 1456.500;  211.675;    0.000
391.020; 1484.500;  218.675;    0.000
391.078; 1426.500;  179.675;    0.000
391.136; 1463.500;  223.675;    0.000
391.194; 1488.500;  209.675;    0.000
391.253; 1493.500;  217.675;    0.000
391.311; 1467.500;  217.675;    0.000
391.369; 1440.500;  217.675;    0.000
391.427; 1476.500;  253.675;    0.000
391.485; 1453.500;  176.675;    0.000
391.543; 1481.500;  252.675;    0.000
391.601; 1500.500;  168.675;    0.000
391.659; 1457.500;  206.675;    0.000
391.717; 1457.500;  172.675;    0.000
391.775; 1545.500;  170.675;    0.000
391.833; 1431.500;  196.675;    0.000
391.891; 1477.500;  180.675;    0.000
391.949; 1451.500;  201.675;    0.000
392.007; 1591.500;  196.675;    0.000
392.065; 1553.500;  191.675;    0.000
392.123; 1466.500;  158.675;    0.000
392.180; 1517.500;  192.675;    0.000
392.238; 1534.500;  186.675;    0.000
392.296; 1596.500;  150.675;    0.000
392.354; 1517.500;  175.675;    0.000
392.412; 1538.500;  219.675;    0.000
392.470; 1521.500;  200.675;    0.000
392.528; 1554.500;  177.675;    0.000
392.586; 1461.500;  169.675;    0.000
392.644; 1485.500;  155.675;    0.000
392.701; 1548.500;  215.675;    0.000
392.759; 1551.500;  218.675;    0.000
392.817; 1488.500;  178.675;    0.000
392.875; 1525.500;  190.675;    0.000
392.933; 1589.500;  197.675;    0.000
392.991; 1561.500;  179.675;    0.000
393.048; 1552.500;  205.675;    0.000
393.106; 1567.500;  229.675;    0.000
393.164; 1545.500;  167.675;    0.000
393.222; 1523.500;  156.675;    0.000
393.279; 1585.500;  203.675;    0.000
393.337; 1673.500;  216.675;    0.000
393.395; 1676.500;  180.675;    0.000
393.453; 1619.500;  163.675;    0.000
393.510; 1618.500;  194.675;    0.000
393.568; 1523.500;  207.675;    0.000
393.626; 1593.500;  200.675;    0.000
393.684; 1561.500;  234.675;    0.000
393.741; 1524.500;  197.675;    0.000
393.799; 1594.500;  201.675;    0.000
393.857; 1550.500;  185.675;    0.000
393.914; 1617.500;  200.675;    0.000
393.972; 1539.500;  181.675;    0.000
394.030; 1535.500;  188.675;    0.000
394.087; 1568.500;  202.675;    0.000
394.145; 1596.500;  214.675;    0.000
394.202; 1603.500;  204.675;    0.000
394.260; 1612.500;  178.675;    0.000
394.318; 1596.500;  208.675;    0.000
394.375; 1567.500;  183.675;    0.000
394.433; 1517.500;  175.675;    0.000
394.490; 1582.500;  170.675;    0.000
394.548; 1551.500;  161.675;    0.000
394.605; 1589.500;  196.675;    0.000
394.663; 1602.500;  191.675;    0.000
394.720; 1595.500;  179.675;    0.000
394.778; 1610.500;  193.675;    0.000
394.836; 1562.500;  160.675;    0.000
394.893; 1571.500;  152.675;    0.000
394.951; 1606.500;  179.675;    0.000
395.008; 1614.500;  185.675;    0.000
395.065; 1626.500;  154.675;    0.000
395.123; 1642.500;  176.675;    0.000
395.180; 1628.500;  202.675;    0.000
395.238; 1624.500;  135.675;    0.000
395.295; 1640.500;  178.675;    0.000
395.353; 1592.500;  181.675;    0.000
395.410; 1602.500;  160.675;    0.000
395.468; 1573.500;  179.675;    0.000
395.525; 1641.500;  187.675;    0.000
395.582; 1645.500;  221.675;    0.000
395.640; 1689.500;  220.675;    0.000
395.697; 1676.500;  174.675;    0.000
395.754; 1607.500;  177.675;    0.000
395.812; 1701.500;  193.675;    0.000
395.869; 1641.500;  220.675;    0.000
395.927; 1681.500;  206.675;    0.000
395.984; 1705.500;  213.675;    0.000
396.041; 1686.500;  194.675;    0.000
396.098; 1633.500;  144.675;    0.000
396.156; 1637.500;  168.675;    0.000
396.213; 1745.500;  181.675;    0.000
396.270; 1637.500;  186.675;    0.000
396.328; 1628.500;  165.675;    0.000
396.385; 1649.500;  192.675;    0.000
396.442; 1623.500;  196.675;    0.000
396.499; 1647.500;  162.675;    0.000
396.557; 1659.500;  177.675;    0.000
396.614; 1649.500;  184.675;    0.000
396.671; 1743.500;  180.675;    0.000
396.728; 1720.500;  194.675;    0.000
396.785; 1744.500;  173.675;    0.000
396.843; 1678.500;  154.675;    0.000
396.900; 1721.500;  200.675;    0.000
396.957; 1736.500;  158.675;    0.000
397.014; 1763.500;  203.675;    0.000
397.071; 1681.500;  178.675;    0.000
397.128; 1696.500;  201.675;    0.000
397.186; 1723.500;  200.675;    0.000
397.243; 1769.500;  187.675;    0.000
397.300; 1726.500;  173.675;    0.000
397.357; 1721.500;  189.675;    0.000
397.414; 1761.500;  202.675;    0.000
397.471; 1638.500;  156.675;    0.000
397.528; 1709.500;  197.675;    0.000
397.585; 1744.500;  174.675;    0.000
397.642; 1705.500;  202.675;    0.000
397.699; 1639.500;  197.675;    0.000
397.756; 1714.500;  188.675;    0.000
397.814; 1767.500;  210.675;    0.000
397.871; 1719.500;  203.675;    0.000
397.928; 1813.500;  189.675;    0.000
397.985; 1770.500;  192.675;    0.000
398.042; 1792.500;  198.675;    0.000
398.099; 1712.500;  181.675;    0.000
398.156; 1744.500;  201.675;    0.000
398.212; 1849.500;  216.675;    0.000
398.269; 1824.500;  206.675;    0.000
398.326; 1785.500;  213.675;    0.000
398.383; 1829.500;  168.675;    0.000
398.440; 1769.500;  184.675;    0.000
398.497; 1833.500;  194.675;    0.000
398.554; 1803.500;  219.675;    0.000
398.611; 1815.500;  190.675;    0.000
398.668; 1713.500;  138.675;    0.000
398.725; 1805.500;  170.675;    0.000
398.782; 1837.500;  223.675;    0.000
398.839; 1828.500;  211.675;    0.000
398.895; 1854.500;  173.675;    0.000
398.952; 1807.500;  207.675;    0.000
399.009; 1855.500;  173.675;    0.000
399.066; 1887.500;  171.675;    0.000
399.123; 1853.500;  189.675;    0.000
399.180; 1870.500;  170.675;    0.000
399.236; 1876.500;  193.675;    0.000
399.293; 1870.500;  222.675;    0.000
399.350; 1932.500;  195.675;    0.000
399.407; 1927.500;  214.675;    0.000
399.463; 1888.500;  181.675;    0.000
399.520; 1945.500;  168.675;    0.000
399.577; 1988.500;  231.675;    0.000
399.634; 1965.500;  215.675;    0.000
399.690; 1936.500;  177.675;    0.000
399.747; 1965.500;  212.675;    0.000
399.804; 1951.500;  208.675;    0.000
399.861; 2023.500;  225.675;    0.000
399.917; 2017.500;  191.675;    0.000
399.974; 1987.500;  182.675;    0.000
400.031; 1979.500;  218.675;    0.000
400.087; 1976.500;  202.675;    0.000
400.144; 1850.500;  192.675;    0.000
400.201; 2031.500;  187.675;    0.000
400.257; 2002.500;  193.675;    0.000
400.314; 1992.500;  185.675;    0.000
400.370; 2011.500;  201.675;    0.000
400.427; 1880.500;  208.675;    0.000
400.484; 1890.500;  201.675;    0.000
400.540; 2010.500;  204.675;    0.000
400.597; 1943.500;  210.675;    0.000
400.653; 1898.500;  224.675;    0.000
400.710; 1879.500;  196.675;    0.000
400.766; 1956.500;  224.675;    0.000
400.823; 1978.500;  210.675;    0.000
400.879; 1980.500;  213.675;    0.000
400.936; 1836.500;  182.675;    0.000
400.993; 1864.500;  184.675;    0.000
401.049; 1927.500;  216.675;    0.000
401.105; 1914.500;  235.675;    0.000
401.162; 1913.500;  196.675;    0.000
401.218; 1977.500;  221.675;    0.000
401.275; 1897.500;  216.675;    0.000
401.331; 1912.500;  198.675;    0.000
401.388; 1940.500;  205.675;    0.000
401.444; 1965.500;  154.675;    0.000
401.501; 1927.500;  208.675;    0.000
401.557; 1923.500;  162.675;    0.000
401.614; 1917.500;  157.675;    0.000
401.670; 1939.500;  198.675;    0.000
401.726; 1851.500;  195.675;    0.000
401.783; 1900.500;  186.675;    0.000
401.839; 1914.500;  205.675;    0.000
401.895; 1917.500;  202.675;    0.000
401.952; 1952.500;  143.675;    0.000
402.008; 1966.500;  177.675;    0.000
402.064; 1805.500;  177.675;    0.000
402.121; 1930.500;  194.675;    0.000
402.177; 1917.500;  181.675;    0.000
402.233; 1879.500;  205.675;    0.000
402.290; 1922.500;  190.675;    0.000
402.346; 1935.500;  190.675;    0.000
402.402; 1888.500;  151.675;    0.000
402.458; 1991.500;  194.675;    0.000
402.515; 1946.500;  212.675;    0.000
402.571; 1912.500;  209.675;    0.000
402.627; 2008.500;  199.675;    0.000
402.683; 1957.500;  213.675;    0.000
402.740; 1894.500;  165.675;    0.000
402.796; 1978.500;  168.675;    0.000
402.852; 1977.500;  200.675;    0.000
402.908; 1977.500;  193.675;    0.000
402.964; 1981.500;  166.675;    0.000
403.021; 2032.500;  196.675;    0.000
403.077; 1912.500;  212.675;    0.000
403.133; 1843.500;  186.675;    0.000
403.189; 2017.500;  206.675;    0.000
403.245; 2001.500;  207.675;    0.000
403.301; 2001.500;  204.675;    0.000
403.357; 1939.500;  246.675;    0.000
403.414; 1998.500;  227.675;    0.000
403.470; 2003.500;  207.675;    0.000
403.526; 1965.500;  171.675;    0.000
403.582; 1939.500;  200.675;    0.000
403.638; 1966.500;  213.675;    0.000
403.694; 1956.500;  239.675;    0.000
403.750; 1932.500;  221.675;    0.000
403.806; 2009.500;  197.675;    0.000
403.862; 2102.500;  222.675;    0.000
403.918; 1994.500;  174.675;    0.000
403.974; 1963.500;  183.675;    0.000
404.030; 1927.500;  184.675;    0.000
404.086; 1989.500;  170.675;    0.000
404.142; 1990.500;  215.675;    0.000
404.198; 1982.500;  189.675;    0.000
404.254; 1988.500;  195.675;    0.000
404.310; 2000.500;  206.675;    0.000
404.366; 1983.500;  179.675;    0.000
404.422; 1988.500;  197.675;    0.000
404.478; 2020.500;  176.675;    0.000
404.534; 1955.500;  165.675;    0.000
404.590; 2055.500;  203.675;    0.000
404.646; 2018.500;  195.675;    0.000
404.701; 2023.500;  180.675;    0.000
404.757; 2107.500;  218.675;    0.000
404.813; 2060.500;  160.675;    0.000
404.869; 2028.500;  213.675;    0.000
404.925; 2004.500;  171.675;    0.000
404.981; 2074.500;  194.675;    0.000
405.037; 2018.500;  211.675;    0.000
405.092; 2067.500;  158.675;    0.000
405.148; 2063.500;  140.675;    0.000
405.204; 2043.500;  161.675;    0.000
405.260; 2052.500;  161.675;    0.000
405.316; 1998.500;  155.675;    0.000
405.371; 2044.500;  151.675;    0.000
405.427; 2020.500;  186.675;    0.000
405.483; 2044.500;  206.675;    0.000
405.539; 2063.500;  162.675;    0.000
405.594; 2096.500;  205.675;    0.000
405.650; 2017.500;  153.675;    0.000
405.706; 2077.500;  185.675;    0.000
405.761; 2089.500;  205.675;    0.000
405.817; 2042.500;  185.675;    0.000
405.873; 2019.500;  160.675;    0.000
405.928; 2141.500;  182.675;    0.000
405.984; 2173.500;  206.675;    0.000
406.040; 2063.500;  200.675;    0.000
406.095; 2106.500;  138.675;    0.000
406.151; 2106.500;  178.675;    0.000
406.207; 2071.500;  225.675;    0.000
406.262; 2111.500;  161.675;    0.000
406.318; 2022.500;  186.675;    0.000
406.374; 1972.500;  173.675;    0.000
406.429; 2168.500;  197.675;    0.000
406.485; 2170.500;  260.675;    0.000
406.540; 2108.500;  184.675;    0.000
406.596; 2162.500;  193.675;    0.000
406.651; 2145.500;  176.675;    0.000
406.707; 2059.500;  158.675;    0.000
406.763; 2082.500;  174.675;    0.000
406.818; 2161.500;  188.675;    0.000
406.874; 2136.500;  176.675;    0.000
406.929; 2207.500;  220.675;    0.000
406.985; 2248.500;  167.675;    0.000
407.040; 2158.500;  191.675;    0.000
407.095; 2219.500;  190.675;    0.000
407.151; 2237.500;  196.675;    0.000
407.206; 2226.500;  184.675;    0.000
407.262; 2217.500;  167.675;    0.000
407.317; 2198.500;  199.675;    0.000
407.373; 2366.500;  211.675;    0.000
407.428; 2289.500;  202.675;    0.000
407.484; 2348.500;  172.675;    0.000
407.539; 2293.500;  171.675;    0.000
407.594; 2346.500;  219.675;    0.000
407.650; 2258.500;  179.675;    0.000
407.705; 2353.500;  141.675;    0.000
407.760; 2185.500;  182.675;    0.000
407.816; 2299.500;  203.675;    0.000
407.871; 2294.500;  219.675;    0.000
407.926; 2294.500;  197.675;    0.000
407.982; 2245.500;  176.675;    0.000
408.037; 2245.500;  187.675;    0.000
408.092; 2298.500;  161.675;    0.000
408.148; 2200.500;  185.675;    0.000
408.203; 2260.500;  196.675;    0.000
408.258; 2235.500;  188.675;    0.000
408.314; 2293.500;  225.675;    0.000
408.369; 2236.500;  172.675;    0.000
408.424; 2297.500;  204.675;    0.000
408.479; 2291.500;  182.675;    0.000
408.534; 2258.500;  220.675;    0.000
408.590; 2253.500;  196.675;    0.000
408.645; 2225.500;  170.675;    0.000
408.700; 2207.500;  204.675;    0.000
408.755; 2306.500;  219.675;    0.000
408.810; 2210.500;  174.675;    0.000
408.866; 2251.500;  212.675;    0.000
408.921; 2229.500;  233.675;    0.000
408.976; 2230.500;  198.675;    0.000
409.031; 2248.500;  179.675;    0.000
409.086; 2222.500;  181.675;    0.000
409.141; 2242.500;  192.675;    0.000
409.196; 2295.500;  172.675;    0.000
409.252; 2218.500;  199.675;    0.000
409.307; 2201.500;  159.675;    0.000
409.362; 2208.500;  158.675;    0.000
409.417; 2228.500;  164.675;    0.000
409.472; 2264.500;  186.675;    0.000
409.527; 2356.500;  215.675;    0.000
409.582; 2205.500;  227.675;    0.000
409.637; 2187.500;  211.675;    0.000
409.692; 2267.500;  224.675;    0.000
409.747; 2187.500;  147.675;    0.000
409.802; 2205.500;  203.675;    0.000
409.857; 2235.500;  203.675;    0.000
409.912; 2284.500;  219.675;    0.000
409.967; 2158.500;  200.675;    0.000
410.022; 2274.500;  199.675;    0.000
410.077; 2189.500;  171.675;    0.000
410.132; 2154.500;  193.675;    0.000
410.187; 2161.500;  167.675;    0.000
410.242; 2310.500;  188.675;    0.000
410.297; 2210.500;  195.675;    0.000
410.351; 2281.500;  225.675;    0.000
410.406; 2198.500;  188.675;    0.000
410.461; 2285.500;  197.675;    0.000
410.516; 2270.500;  212.675;    0.000
410.571; 2258.500;  173.675;    0.000
410.626; 2267.500;  180.675;    0.000
410.681; 2296.500;  198.675;    0.000
410.736; 2221.500;  190.675;    0.000
410.790; 2212.500;  204.675;    0.000
410.845; 2258.500;  214.675;    0.000
410.900; 2214.500;  184.675;    0.000
410.955; 2295.500;  231.675;    0.000
411.010; 2175.500;  211.675;    0.000
411.064; 2265.500;  204.675;    0.000
411.119; 2238.500;  219.675;    0.000
411.174; 2258.500;  208.675;    0.000
411.229; 2284.500;  207.675;    0.000
411.283; 2184.500;  199.675;    0.000
411.338; 2305.500;  198.675;    0.000
411.393; 2326.500;  155.675;    0.000
411.447; 2222.500;  200.675;    0.000
411.502; 2289.500;  229.675;    0.000
411.557; 2245.500;  197.675;    0.000
411.612; 2245.500;  171.675;    0.000
411.666; 2334.500;  201.675;    0.000
411.721; 2270.500;  174.675;    0.000
411.776; 2221.500;  222.675;    0.000
411.830; 2259.500;  150.675;    0.000
411.885; 2267.500;  169.675;    0.000
411.939; 2310.500;  216.675;    0.000
411.994; 2206.500;  215.675;    0.000
412.049; 2271.500;  219.675;    0.000
412.103; 2350.500;  225.675;    0.000
412.158; 2270.500;  216.675;    0.000
412.212; 2324.500;  218.675;    0.000
412.267; 2214.500;  219.675;    0.000
412.322; 2396.500;  235.675;    0.000
412.376; 2232.500;  208.675;    0.000
412.431; 2264.500;  232.675;    0.000
412.485; 2327.500;  223.675;    0.000
412.540; 2298.500;  217.675;    0.000
412.594; 2307.500;  195.675;    0.000
412.649; 2399.500;  236.675;    0.000
412.703; 2261.500;  216.675;    0.000
412.758; 2254.500;  201.675;    0.000
412.812; 2182.500;  176.675;    0.000
412.866; 2134.500;  179.675;    0.000
412.921; 2350.500;  196.675;    0.000
412.975; 2261.500;  238.675;    0.000
413.030; 2276.500;  272.675;    0.000
413.084; 2176.500;  208.675;    0.000
413.139; 2306.500;  201.675;    0.000
413.193; 2148.500;  198.675;    0.000
413.247; 2281.500;  213.675;    0.000
413.302; 2341.500;  202.675;    0.000
413.356; 2273.500;  184.675;    0.000
413.410; 2226.500;  202.675;    0.000
413.465; 2237.500;  145.675;    0.000
413.519; 2279.500;  200.675;    0.000
413.573; 2257.500;  197.675;    0.000
413.628; 2259.500;  224.675;    0.000
413.682; 2362.500;  211.675;    0.000
413.736; 2367.500;  202.675;    0.000
413.791; 2222.500;  228.675;    0.000
413.845; 2245.500;  184.675;    0.000
413.899; 2274.500;  226.675;    0.000
413.953; 2272.500;  213.675;    0.000
414.008; 2160.500;  175.675;    0.000
414.062; 2234.500;  216.675;    0.000
414.116; 2273.500;  206.675;    0.000
414.170; 2238.500;  229.675;    0.000
414.225; 2299.500;  196.675;    0.000
414.279; 2363.500;  199.675;    0.000
414.333; 2354.500;  220.675;    0.000
414.387; 2165.500;  217.675;    0.000
414.441; 2256.500;  206.675;    0.000
414.496; 2330.500;  264.675;    0.000
414.550; 2280.500;  217.675;    0.000
414.604; 2282.500;  224.675;    0.000
414.658; 2269.500;  156.675;    0.000
414.712; 2279.500;  203.675;    0.000
414.766; 2270.500;  216.675;    0.000
414.820; 2259.500;  218.675;    0.000
414.874; 2312.500;  240.675;    0.000
414.928; 2271.500;  204.675;    0.000
414.982; 2276.500;  195.675;    0.000
415.037; 2322.500;  212.675;    0.000
415.091; 2408.500;  211.675;    0.000
415.145; 2275.500;  230.675;    0.000
415.199; 2224.500;  208.675;    0.000
415.253; 2321.500;  213.675;    0.000
415.307; 2336.500;  208.675;    0.000
415.361; 2311.500;  193.675;    0.000
415.415; 2412.500;  207.675;    0.000
415.469; 2315.500;  214.675;    0.000
415.523; 2373.500;  226.675;    0.000
415.577; 2315.500;  194.675;    0.000
415.631; 2350.500;  258.675;    0.000
415.684; 2333.500;  239.675;    0.000
415.738; 2300.500;  191.675;    0.000
415.792; 2319.500;  185.675;    0.000
415.846; 2306.500;  239.675;    0.000
415.900; 2286.500;  209.675;    0.000
415.954; 2397.500;  215.675;    0.000
416.008; 2303.500;  229.675;    0.000
416.062; 2282.500;  200.675;    0.000
416.116; 2312.500;  195.675;    0.000
416.169; 2338.500;  238.675;    0.000
416.223; 2299.500;  271.675;    0.000
416.277; 2294.500;  232.675;    0.000
416.331; 2318.500;  226.675;    0.000
416.385; 2247.500;  207.675;    0.000
416.439; 2348.500;  221.675;    0.000
416.492; 2274.500;  269.675;    0.000
416.546; 2282.500;  254.675;    0.000
416.600; 2308.500;  225.675;    0.000
416.654; 2366.500;  269.675;    0.000
416.707; 2263.500;  232.675;    0.000
416.761; 2310.500;  226.675;    0.000
416.815; 2308.500;  219.675;    0.000
416.869; 2293.500;  234.675;    0.000
416.922; 2254.500;  230.675;    0.000
416.976; 2292.500;  216.675;    0.000
417.030; 2262.500;  271.675;    0.000
417.083; 2247.500;  229.675;    0.000
417.137; 2219.500;  249.675;    0.000
417.191; 2224.500;  241.675;    0.000
417.244; 2289.500;  230.675;    0.000
417.298; 2228.500;  215.675;    0.000
417.352; 2280.500;  188.675;    0.000
417.405; 2348.500;  248.675;    0.000
417.459; 2375.500;  256.675;    0.000
417.512; 2265.500;  263.675;    0.000
417.566; 2269.500;  227.675;    0.000
417.620; 2271.500;  270.675;    0.000
417.673; 2273.500;  216.675;    0.000
417.727; 2200.500;  234.675;    0.000
417.780; 2241.500;  215.675;    0.000
417.834; 2313.500;  203.675;    0.000
417.887; 2332.500;  257.675;    0.000
417.941; 2383.500;  216.675;    0.000
417.994; 2235.500;  245.675;    0.000
418.048; 2271.500;  209.675;    0.000
418.101; 2193.500;  207.675;    0.000
418.155; 2313.500;  204.675;    0.000
418.208; 2362.500;  270.675;    0.000
418.262; 2220.500;  228.675;    0.000
418.315; 2266.500;  254.675;    0.000
418.369; 2303.500;  245.675;    0.000
418.422; 2311.500;  224.675;    0.000
418.476; 2306.500;  221.675;    0.000
418.529; 2237.500;  234.675;    0.000
418.582; 2180.500;  249.675;    0.000
418.636; 2210.500;  224.675;    0.000
418.689; 2244.500;  228.675;    0.000
418.743; 2300.500;  240.675;    0.000
418.796; 2229.500;  197.675;    0.000
418.849; 2273.500;  220.675;    0.000
418.903; 2272.500;  246.675;    0.000
418.956; 2355.500;  250.675;    0.000
419.009; 2233.500;  276.675;    0.000
419.063; 2241.500;  232.675;    0.000
419.116; 2251.500;  228.675;    0.000
419.169; 2271.500;  249.675;    0.000
419.222; 2222.500;  215.675;    0.000
419.276; 2303.500;  228.675;    0.000
419.329; 2255.500;  246.675;    0.000
419.382; 2224.500;  188.675;    0.000
419.435; 2208.500;  240.675;    0.000
419.489; 2210.500;  261.675;    0.000
419.542; 2208.500;  224.675;    0.000
419.595; 2258.500;  251.675;    0.000
419.648; 2245.500;  236.675;    0.000
419.701; 2295.500;  244.675;    0.000
419.755; 2210.500;  242.675;    0.000
419.808; 2253.500;  242.675;    0.000
419.861; 2224.500;  189.675;    0.000
419.914; 2193.500;  258.675;    0.000
419.967; 2186.500;  230.675;    0.000
420.020; 2296.500;  223.675;    0.000
420.073; 2245.500;  221.675;    0.000
420.127; 2227.500;  252.675;    0.000
420.180; 2233.500;  219.675;    0.000
420.233; 2192.500;  201.675;    0.000
420.286; 2241.500;  221.675;    0.000
420.339; 2203.500;  250.675;    0.000
420.392; 2202.500;  268.675;    0.000
420.445; 2221.500;  223.675;    0.000
420.498; 2145.500;  240.675;    0.000
420.551; 2107.500;  220.675;    0.000
420.604; 2202.500;  231.675;    0.000
420.657; 2212.500;  228.675;    0.000
420.710; 2213.500;  219.675;    0.000
420.763; 2183.500;  280.675;    0.000
420.816; 2182.500;  202.675;    0.000
420.869; 2158.500;  219.675;    0.000
420.922; 2073.500;  218.675;    0.000
420.975; 2253.500;  237.675;    0.000
421.028; 2138.500;  242.675;    0.000
421.081; 2174.500;  247.675;    0.000
421.134; 2162.500;  239.675;    0.000
421.187; 2121.500;  229.675;    0.000
421.239; 2157.500;  200.675;    0.000
421.292; 2228.500;  205.675;    0.000
421.345; 2068.500;  219.675;    0.000
421.398; 2140.500;  187.675;    0.000
421.451; 2151.500;  226.675;    0.000
421.504; 2227.500;  206.675;    0.000
421.557; 2119.500;  226.675;    0.000
421.609; 2189.500;  209.675;    0.000
421.662; 2155.500;  229.675;    0.000
421.715; 2148.500;  231.675;    0.000
421.768; 2102.500;  215.675;    0.000
421.821; 2196.500;  211.675;    0.000
421.873; 2183.500;  220.675;    0.000
421.926; 2108.500;  212.675;    0.000
421.979; 2183.500;  209.675;    0.000
422.032; 2142.500;  203.675;    0.000
422.084; 2135.500;  213.675;    0.000
422.137; 2074.500;  196.675;    0.000
422.190; 2113.500;  246.675;    0.000
422.243; 2066.500;  194.675;    0.000
422.295; 2094.500;  225.675;    0.000
422.348; 2150.500;  248.675;    0.000
422.401; 2130.500;  252.675;    0.000
422.453; 2131.500;  249.675;    0.000
422.506; 2164.500;  233.675;    0.000
422.559; 2160.500;  228.675;    0.000
422.611; 2110.500;  224.675;    0.000
422.664; 2134.500;  226.675;    0.000
422.716; 2194.500;  226.675;    0.000
422.769; 2051.500;  216.675;    0.000
422.822; 2181.500;  256.675;    0.000
422.874; 2106.500;  206.675;    0.000
422.927; 2162.500;  257.675;    0.000
422.979; 2102.500;  209.675;    0.000
423.032; 2198.500;  244.675;    0.000
423.084; 2135.500;  244.675;    0.000
423.137; 2134.500;  213.675;    0.000
423.189; 2084.500;  208.675;    0.000
423.242; 2134.500;  226.675;    0.000
423.294; 2056.500;  250.675;    0.000
423.347; 2030.500;  206.675;    0.000
423.399; 2144.500;  268.675;    0.000
423.452; 2153.500;  262.675;    0.000
423.504; 2146.500;  237.675;    0.000
423.557; 2037.500;  245.675;    0.000
423.609; 2032.500;  211.675;    0.000
423.662; 2087.500;  222.675;    0.000
423.714; 2147.500;  219.675;    0.000
423.766; 2148.500;  250.675;    0.000
423.819; 2079.500;  220.675;    0.000
423.871; 2071.500;  229.675;    0.000
423.923; 2060.500;  219.675;    0.000
423.976; 2058.500;  221.675;    0.000
424.028; 2053.500;  211.675;    0.000
424.081; 2116.500;  254.675;    0.000
424.133; 2142.500;  230.675;    0.000
424.185; 2005.500;  241.675;    0.000
424.238; 2136.500;  182.675;    0.000
424.290; 2069.500;  215.675;    0.000
424.342; 2055.500;  235.675;    0.000
424.394; 1968.500;  225.675;    0.000
424.447; 2103.500;  264.675;    0.000
424.499; 2175.500;  225.675;    0.000
424.551; 2119.500;  237.675;    0.000
424.603; 2012.500;  219.675;    0.000
424.656; 1997.500;  240.675;    0.000
424.708; 2056.500;  266.675;    0.000
424.760; 2100.500;  230.675;    0.000
424.812; 2056.500;  284.675;    0.000
424.864; 1983.500;  189.675;    0.000
424.917; 2081.500;  226.675;    0.000
424.969; 2021.500;  253.675;    0.000
425.021; 2049.500;  233.675;    0.000
425.073; 2001.500;  246.675;    0.000
425.125; 1996.500;  238.675;    0.000
425.177; 2015.500;  253.675;    0.000
425.229; 2101.500;  254.675;    0.000
425.282; 2013.500;  252.675;    0.000
425.334; 2101.500;  261.675;    0.000
425.386; 2013.500;  227.675;    0.000
425.438; 1994.500;  246.675;    0.000
425.490; 2083.500;  249.675;    0.000
425.542; 2009.500;  236.675;    0.000
425.594; 2083.500;  236.675;    0.000
425.646; 2049.500;  237.675;    0.000
425.698; 1966.500;  271.675;    0.000
425.750; 1950.500;  240.675;    0.000
425.802; 2031.500;  238.675;    0.000
425.854; 2066.500;  256.675;    0.000
425.906; 2053.500;  230.675;    0.000
425.958; 1988.500;  231.675;    0.000
426.010; 1982.500;  268.675;    0.000
426.062; 2008.500;  227.675;    0.000
426.114; 2004.500;  234.675;    0.000
426.166; 2003.500;  239.675;    0.000
426.218; 2021.500;  255.675;    0.000
426.270; 2012.500;  196.675;    0.000
426.321; 1975.500;  231.675;    0.000
426.373; 1949.500;  199.675;    0.000
426.425; 2024.500;  245.675;    0.000
426.477; 1939.500;  259.675;    0.000
426.529; 1989.500;  274.675;    0.000
426.581; 1946.500;  221.675;    0.000
426.633; 1927.500;  231.675;    0.000
426.684; 1973.500;  248.675;    0.000
426.736; 1976.500;  237.675;    0.000
426.788; 2019.500;  191.675;    0.000
426.840; 1878.500;  180.675;    0.000
426.892; 1944.500;  259.675;    0.000
426.943; 1991.500;  256.675;    0.000
426.995; 1985.500;  212.675;    0.000
427.047; 1986.500;  233.675;    0.000
427.099; 1970.500;  222.675;    0.000
427.150; 1925.500;  203.675;    0.000
427.202; 1960.500;  218.675;    0.000
427.254; 1937.500;  198.675;    0.000
427.306; 1920.500;  248.675;    0.000
427.357; 1952.500;  239.675;    0.000
427.409; 1965.500;  193.675;    0.000
427.461; 1925.500;  215.675;    0.000
427.512; 1921.500;  251.675;    0.000
427.564; 1985.500;  210.675;    0.000
427.616; 1965.500;  251.675;    0.000
427.667; 1869.500;  246.675;    0.000
427.719; 1943.500;  227.675;    0.000
427.770; 1937.500;  247.675;    0.000
427.822; 1961.500;  261.675;    0.000
427.874; 1883.500;  231.675;    0.000
427.925; 1957.500;  231.675;    0.000
427.977; 1950.500;  243.675;    0.000
428.028; 1957.500;  249.675;    0.000
428.080; 1937.500;  224.675;    0.000
428.131; 1946.500;  247.675;    0.000
428.183; 1891.500;  213.675;    0.000
428.234; 1940.500;  213.675;    0.000
428.286; 1949.500;  224.675;    0.000
428.337; 1891.500;  212.675;    0.000
428.389; 1938.500;  231.675;    0.000
428.440; 2016.500;  248.675;    0.000
428.492; 1957.500;  242.675;    0.000
428.543; 1901.500;  220.675;    0.000
428.595; 1896.500;  212.675;    0.000
428.646; 1836.500;  231.675;    0.000
428.697; 1925.500;  232.675;    0.000
428.749; 1865.500;  231.675;    0.000
428.800; 1957.500;  270.675;    0.000
428.852; 1903.500;  266.675;    0.000
428.903; 1957.500;  215.675;    0.000
428.954; 1917.500;  200.675;    0.000
429.006; 1861.500;  247.675;    0.000
429.057; 1869.500;  247.675;    0.000
429.108; 1922.500;  193.675;    0.000
429.160; 1971.500;  249.675;    0.000
429.211; 1861.500;  228.675;    0.000
429.262; 1761.500;  243.675;    0.000
429.314; 1907.500;  227.675;    0.000
429.365; 1876.500;  242.675;    0.000
429.416; 1818.500;  240.675;    0.000
429.467; 1881.500;  222.675;    0.000
429.519; 1939.500;  233.675;    0.000
429.570; 1884.500;  223.675;    0.000
429.621; 1959.500;  257.675;    0.000
429.672; 1938.500;  220.675;    0.000
429.724; 1869.500;  203.675;    0.000
429.775; 1928.500;  242.675;    0.000
429.826; 1881.500;  195.675;    0.000
429.877; 1836.500;  248.675;    0.000
429.928; 1944.500;  226.675;    0.000
429.980; 1763.500;  189.675;    0.000
430.031; 1845.500;  223.675;    0.000
430.082; 1869.500;  217.675;    0.000
430.133; 1871.500;  210.675;    0.000
430.184; 1893.500;  271.675;    0.000
430.235; 1866.500;  190.675;    0.000
430.286; 1863.500;  233.675;    0.000
430.337; 1833.500;  232.675;    0.000
430.388; 1846.500;  221.675;    0.000
430.439; 1837.500;  221.675;    0.000
430.490; 1824.500;  229.675;    0.000
430.542; 1862.500;  196.675;    0.000
430.593; 1843.500;  214.675;    0.000
430.644; 1846.500;  224.675;    0.000
430.695; 1807.500;  216.675;    0.000
430.746; 1867.500;  228.675;    0.000
430.797; 1876.500;  190.675;    0.000
430.848; 1836.500;  231.675;    0.000
430.898; 1830.500;  232.675;    0.000
430.949; 1834.500;  224.675;    0.000
431.000; 1824.500;  236.675;    0.000
431.051; 1861.500;  251.675;    0.000
431.102; 1799.500;  205.675;    0.000
431.153; 1836.500;  212.675;    0.000
431.204; 1804.500;  200.675;    0.000
431.255; 1873.500;  220.675;    0.000
431.306; 1861.500;  223.675;    0.000
431.357; 1894.500;  240.675;    0.000
431.408; 1789.500;  232.675;    0.000
431.458; 1821.500;  204.675;    0.000
431.509; 1765.500;  196.675;    0.000
431.560; 1927.500;  243.675;    0.000
431.611; 1832.500;  222.675;    0.000
431.662; 1845.500;  246.675;    0.000
431.713; 1751.500;  188.675;    0.000
431.763; 1815.500;  226.675;    0.000
431.814; 1924.500;  239.675;    0.000
431.865; 1873.500;  245.675;    0.000
431.916; 1799.500;  173.675;    0.000
431.966; 1874.500;  220.675;    0.000
432.017; 1856.500;  247.675;    0.000
432.068; 1891.500;  241.675;    0.000
432.118; 1881.500;  220.675;    0.000
432.169; 1850.500;  244.675;    0.000
432.220; 1808.500;  246.675;    0.000
432.271; 1777.500;  203.675;    0.000
432.321; 1744.500;  244.675;    0.000
432.372; 1875.500;  254.675;    0.000
432.423; 1808.500;  224.675;    0.000
432.473; 1835.500;  211.675;    0.000
432.524; 1853.500;  227.675;    0.000
432.574; 1829.500;  228.675;    0.000
432.625; 1834.500;  223.675;    0.000
432.676; 1863.500;  220.675;    0.000
432.726; 1912.500;  257.675;    0.000
432.777; 1813.500;  257.675;    0.000
432.827; 1821.500;  240.675;    0.000
432.878; 1818.500;  219.675;    0.000
432.928; 1780.500;  234.675;    0.000
432.979; 1883.500;  226.675;    0.000
433.029; 1829.500;  216.675;    0.000
433.080; 1819.500;  232.675;    0.000
433.130; 1788.500;  257.675;    0.000
433.181; 1885.500;  243.675;    0.000
433.231; 1814.500;  239.675;    0.000
433.282; 1819.500;  232.675;    0.000
433.332; 1894.500;  256.675;    0.000
433.383; 1857.500;  268.675;    0.000
433.433; 1879.500;  291.675;    0.000
433.484; 1822.500;  263.675;    0.000
433.534; 1832.500;  248.675;    0.000
433.585; 1898.500;  244.675;    0.000
433.635; 1803.500;  242.675;    0.000
433.685; 1868.500;  243.675;    0.000
433.736; 1824.500;  283.675;    0.000
433.786; 1775.500;  264.675;    0.000
433.836; 1840.500;  282.675;    0.000
433.887; 1794.500;  265.675;    0.000
433.937; 1823.500;  255.675;    0.000
433.987; 1783.500;  245.675;    0.000
434.038; 1852.500;  276.675;    0.000
434.088; 1747.500;  249.675;    0.000
434.138; 1806.500;  260.675;    0.000
434.189; 1778.500;  241.675;    0.000
434.239; 1850.500;  232.675;    0.000
434.289; 1845.500;  272.675;    0.000
434.339; 1860.500;  288.675;    0.000
434.389; 1802.500;  258.675;    0.000
434.440; 1874.500;  244.675;    0.000
434.490; 1894.500;  288.675;    0.000
434.540; 1869.500;  252.675;    0.000
434.590; 1813.500;  256.675;    0.000
434.640; 1844.500;  259.675;    0.000
434.691; 1824.500;  220.675;    0.000
434.741; 1872.500;  238.675;    0.000
434.791; 1849.500;  276.675;    0.000
434.841; 1879.500;  256.675;    0.000
434.891; 1865.500;  297.675;    0.000
434.941; 1829.500;  290.675;    0.000
434.991; 1803.500;  261.675;    0.000
435.042; 1865.500;  300.675;    0.000
435.092; 1854.500;  248.675;    0.000
435.142; 1799.500;  246.675;    0.000
435.192; 1857.500;  201.675;    0.000
435.242; 1824.500;  234.675;    0.000
435.292; 1839.500;  266.675;    0.000
435.342; 1700.500;  250.675;    0.000
435.392; 1770.500;  279.675;    0.000
435.442; 1783.500;  242.675;    0.000
435.492; 1781.500;  265.675;    0.000
435.542; 1750.500;  243.675;    0.000
435.592; 1791.500;  243.675;    0.000
435.642; 1806.500;  241.675;    0.000
435.692; 1714.500;  263.675;    0.000
435.742; 1787.500;  264.675;    0.000
435.792; 1752.500;  291.675;    0.000
435.842; 1780.500;  257.675;    0.000
435.891; 1748.500;  224.675;    0.000
435.941; 1794.500;  243.675;    0.000
435.991; 1752.500;  300.675;    0.000
436.041; 1769.500;  197.675;    0.000
436.091; 1741.500;  238.675;    0.000
436.141; 1765.500;  222.675;    0.000
436.191; 1642.500;  249.675;    0.000
436.241; 1757.500;  208.675;    0.000
436.290; 1777.500;  282.675;    0.000
436.340; 1667.500;  233.675;    0.000
436.390; 1717.500;  223.675;    0.000
436.440; 1760.500;  252.675;    0.000
436.490; 1715.500;  254.675;    0.000
436.539; 1709.500;  271.675;    0.000
436.589; 1688.500;  248.675;    0.000
436.639; 1773.500;  235.675;    0.000
436.689; 1713.500;  238.675;    0.000
436.738; 1698.500;  267.675;    0.000
436.788; 1665.500;  239.675;    0.000
436.838; 1677.500;  244.675;    0.000
436.887; 1703.500;  265.675;    0.000
436.937; 1711.500;  261.675;    0.000
436.987; 1710.500;  235.675;    0.000
437.036; 1743.500;  267.675;    0.000
437.086; 1797.500;  258.675;    0.000
437.136; 1716.500;  250.675;    0.000
437.185; 1686.500;  214.675;    0.000
437.235; 1752.500;  257.675;    0.000
437.285; 1726.500;  259.675;    0.000
437.334; 1701.500;  241.675;    0.000
437.384; 1693.500;  231.675;    0.000
437.433; 1688.500;  239.675;    0.000
437.483; 1733.500;  260.675;    0.000
437.532; 1656.500;  277.675;    0.000
437.582; 1689.500;  268.675;    0.000
437.631; 1685.500;  239.675;    0.000
437.681; 1745.500;  251.675;    0.000
437.730; 1651.500;  246.675;    0.000
437.780; 1645.500;  226.675;    0.000
437.829; 1679.500;  256.675;    0.000
437.879; 1717.500;  239.675;    0.000
437.928; 1661.500;  253.675;    0.000
437.978; 1712.500;  245.675;    0.000
438.027; 1695.500;  277.675;    0.000
438.077; 1654.500;  248.675;    0.000
438.126; 1673.500;  201.675;    0.000
438.176; 1651.500;  220.675;    0.000
438.225; 1711.500;  250.675;    0.000
438.274; 1688.500;  234.675;    0.000
438.324; 1640.500;  276.675;    0.000
438.373; 1595.500;  226.675;    0.000
438.422; 1654.500;  228.675;    0.000
438.472; 1624.500;  225.675;    0.000
438.521; 1603.500;  227.675;    0.000
438.570; 1689.500;  242.675;    0.000
438.620; 1660.500;  277.675;    0.000
438.669; 1656.500;  256.675;    0.000
438.718; 1673.500;  248.675;    0.000
438.768; 1684.500;  225.675;    0.000
438.817; 1615.500;  229.675;    0.000
438.866; 1693.500;  218.675;    0.000
438.915; 1687.500;  256.675;    0.000
438.965; 1587.500;  242.675;    0.000
439.014; 1585.500;  260.675;    0.000
439.063; 1698.500;  238.675;    0.000
439.112; 1635.500;  209.675;    0.000
439.162; 1690.500;  258.675;    0.000
439.211; 1704.500;  275.675;    0.000
439.260; 1661.500;  238.675;    0.000
439.309; 1620.500;  237.675;    0.000
439.358; 1652.500;  252.675;    0.000
439.407; 1670.500;  239.675;    0.000
439.456; 1653.500;  211.675;    0.000
439.506; 1603.500;  261.675;    0.000
439.555; 1629.500;  274.675;    0.000
439.604; 1657.500;  262.675;    0.000
439.653; 1662.500;  245.675;    0.000
439.702; 1653.500;  247.675;    0.000
439.751; 1630.500;  228.675;    0.000
439.800; 1589.500;  253.675;    0.000
439.849; 1593.500;  219.675;    0.000
439.898; 1618.500;  246.675;    0.000
439.947; 1593.500;  229.675;    0.000
439.996; 1650.500;  274.675;    0.000
440.045; 1621.500;  224.675;    0.000
440.094; 1617.500;  225.675;    0.000
440.143; 1696.500;  277.675;    0.000
440.192; 1721.500;  252.675;    0.000
440.241; 1658.500;  253.675;    0.000
440.290; 1615.500;  242.675;    0.000
440.339; 1619.500;  220.675;    0.000
440.388; 1667.500;  244.675;    0.000
440.437; 1625.500;  268.675;    0.000
440.486; 1662.500;  242.675;    0.000
440.535; 1664.500;  269.675;    0.000
440.583; 1674.500;  258.675;    0.000
440.632; 1674.500;  286.675;    0.000
440.681; 1645.500;  238.675;    0.000
440.730; 1684.500;  271.675;    0.000
440.779; 1649.500;  226.675;    0.000
440.828; 1570.500;  213.675;    0.000
440.876; 1614.500;  207.675;    0.000
440.925; 1629.500;  247.675;    0.000
440.974; 1621.500;  229.675;    0.000
441.023; 1633.500;  227.675;    0.000
441.072; 1662.500;  222.675;    0.000
441.120; 1698.500;  273.675;    0.000
441.169; 1673.500;  263.675;    0.000
441.218; 1651.500;  264.675;    0.000
441.267; 1641.500;  287.675;    0.000
441.315; 1702.500;  251.675;    0.000
441.364; 1666.500;  252.675;    0.000
441.413; 1699.500;  227.675;    0.000
441.461; 1620.500;  198.675;    0.000
441.510; 1743.500;  273.675;    0.000
441.559; 1688.500;  245.675;    0.000
441.607; 1674.500;  218.675;    0.000
441.656; 1646.500;  261.675;    0.000
441.705; 1697.500;  259.675;    0.000
441.753; 1676.500;  272.675;    0.000
441.802; 1679.500;  246.675;    0.000
441.850; 1646.500;  255.675;    0.000
441.899; 1674.500;  236.675;    0.000
441.948; 1751.500;  267.675;    0.000
441.996; 1637.500;  246.675;    0.000
442.045; 1674.500;  279.675;    0.000
442.093; 1674.500;  251.675;    0.000
442.142; 1662.500;  274.675;    0.000
442.190; 1650.500;  279.675;    0.000
442.239; 1709.500;  295.675;    0.000
442.287; 1692.500;  229.675;    0.000
442.336; 1758.500;  265.675;    0.000
442.384; 1670.500;  219.675;    0.000
442.433; 1704.500;  287.675;    0.000
442.481; 1643.500;  271.675;    0.000
442.529; 1651.500;  262.675;    0.000
442.578; 1632.500;  282.675;    0.000
442.626; 1602.500;  245.675;    0.000
442.675; 1639.500;  283.675;    0.000
442.723; 1600.500;  247.675;    0.000
442.771; 1624.500;  221.675;    0.000
442.820; 1647.500;  253.675;    0.000
442.868; 1628.500;  204.675;    0.000
442.917; 1622.500;  263.675;    0.000
442.965; 1651.500;  255.675;    0.000
443.013; 1625.500;  282.675;    0.000
443.062; 1682.500;  258.675;    0.000
443.110; 1621.500;  268.675;    0.000
443.158; 1664.500;  247.675;    0.000
443.206; 1638.500;  243.675;    0.000
443.255; 1693.500;  271.675;    0.000
443.303; 1618.500;  279.675;    0.000
443.351; 1571.500;  264.675;    0.000
443.399; 1633.500;  245.675;    0.000
443.448; 1586.500;  259.675;    0.000
443.496; 1669.500;  281.675;    0.000
443.544; 1616.500;  213.675;    0.000
443.592; 1752.500;  290.675;    0.000
443.640; 1681.500;  270.675;    0.000
443.689; 1608.500;  229.675;    0.000
443.737; 1701.500;  254.675;    0.000
443.785; 1693.500;  234.675;    0.000
443.833; 1683.500;  287.675;    0.000
443.881; 1633.500;  229.675;    0.000
443.929; 1733.500;  260.675;    0.000
443.977; 1699.500;  265.675;    0.000
444.025; 1633.500;  257.675;    0.000
444.074; 1704.500;  245.675;    0.000
444.122; 1741.500;  282.675;    0.000
444.170; 1627.500;  240.675;    0.000
444.218; 1692.500;  270.675;    0.000
444.266; 1693.500;  254.675;    0.000
444.314; 1709.500;  264.675;    0.000
444.362; 1731.500;  287.675;    0.000
444.410; 1708.500;  236.675;    0.000
444.458; 1733.500;  273.675;    0.000
444.506; 1709.500;  235.675;    0.000
444.554; 1723.500;  242.675;    0.000
444.602; 1716.500;  283.675;    0.000
444.650; 1723.500;  266.675;    0.000
444.698; 1693.500;  248.675;    0.000
444.746; 1621.500;  247.675;    0.000
444.793; 1640.500;  211.675;    0.000
444.841; 1725.500;  259.675;    0.000
444.889; 1690.500;  253.675;    0.000
444.937; 1741.500;  248.675;    0.000
444.985; 1629.500;  233.675;    0.000
445.033; 1589.500;  245.675;    0.000
445.081; 1685.500;  243.675;    0.000
445.129; 1620.500;  238.675;    0.000
445.176; 1587.500;  204.675;    0.000
445.224; 1631.500;  262.675;    0.000
445.272; 1693.500;  256.675;    0.000
445.320; 1693.500;  235.675;    0.000
445.368; 1707.500;  251.675;    0.000
445.415; 1758.500;  250.675;    0.000
445.463; 1660.500;  225.675;    0.000
445.511; 1733.500;  226.675;    0.000
445.559; 1667.500;  251.675;    0.000
445.606; 1634.500;  213.675;    0.000
445.654; 1696.500;  261.675;    0.000
445.702; 1563.500;  222.675;    0.000
445.749; 1659.500;  257.675;    0.000
445.797; 1608.500;  263.675;    0.000
445.845; 1678.500;  218.675;    0.000
445.892; 1629.500;  228.675;    0.000
445.940; 1666.500;  249.675;    0.000
445.988; 1608.500;  276.675;    0.000
446.035; 1625.500;  229.675;    0.000
446.083; 1670.500;  255.675;    0.000
446.130; 1677.500;  200.675;    0.000
446.178; 1640.500;  256.675;    0.000
446.226; 1683.500;  238.675;    0.000
446.273; 1615.500;  250.675;    0.000
446.321; 1616.500;  233.675;    0.000
446.368; 1575.500;  244.675;    0.000
446.416; 1549.500;  214.675;    0.000
446.463; 1622.500;  225.675;    0.000
446.511; 1564.500;  253.675;    0.000
446.558; 1623.500;  246.675;    0.000
446.606; 1644.500;  238.675;    0.000
446.653; 1603.500;  215.675;    0.000
446.701; 1632.500;  248.675;    0.000
446.748; 1689.500;  258.675;    0.000
446.796; 1600.500;  259.675;    0.000
446.843; 1709.500;  269.675;    0.000
446.891; 1608.500;  259.675;    0.000
446.938; 1595.500;  226.675;    0.000
446.985; 1699.500;  225.675;    0.000
447.033; 1603.500;  269.675;    0.000
447.080; 1577.500;  258.675;    0.000
447.128; 1605.500;  225.675;    0.000
447.175; 1592.500;  259.675;    0.000
447.222; 1656.500;  238.675;    0.000
447.270; 1704.500;  250.675;    0.000
447.317; 1535.500;  217.675;    0.000
447.364; 1633.500;  262.675;    0.000
447.411; 1645.500;  269.675;    0.000
447.459; 1631.500;  251.675;    0.000
447.506; 1623.500;  227.675;    0.000
447.553; 1682.500;  250.675;    0.000
447.601; 1707.500;  251.675;    0.000
447.648; 1743.500;  276.675;    0.000
447.695; 1610.500;  229.675;    0.000
447.742; 1574.500;  245.675;    0.000
447.789; 1656.500;  243.675;    0.000
447.837; 1678.500;  267.675;    0.000
447.884; 1644.500;  246.675;    0.000
447.931; 1632.500;  266.675;    0.000
447.978; 1710.500;  242.675;    0.000
448.025; 1655.500;  267.675;    0.000
448.072; 1654.500;  257.675;    0.000
448.120; 1747.500;  279.675;    0.000
448.167; 1643.500;  275.675;    0.000
448.214; 1622.500;  241.675;    0.000
448.261; 1728.500;  271.675;    0.000
448.308; 1672.500;  256.675;    0.000
448.355; 1638.500;  253.675;    0.000
448.402; 1636.500;  267.675;    0.000
448.449; 1628.500;  252.675;    0.000
448.496; 1677.500;  241.675;    0.000
448.543; 1599.500;  250.675;    0.000
448.590; 1598.500;  288.675;    0.000
448.637; 1641.500;  255.675;    0.000
448.684; 1633.500;  284.675;    0.000
448.731; 1645.500;  244.675;    0.000
448.778; 1660.500;  257.675;    0.000
448.825; 1654.500;  252.675;    0.000
448.872; 1605.500;  205.675;    0.000
448.919; 1655.500;  244.675;    0.000
448.966; 1609.500;  278.675;    0.000
449.013; 1681.500;  262.675;    0.000
449.060; 1602.500;  278.675;    0.000
449.107; 1551.500;  248.675;    0.000
449.154; 1552.500;  230.675;    0.000
449.200; 1693.500;  211.675;    0.000
449.247; 1653.500;  283.675;    0.000
449.294; 1606.500;  251.675;    0.000
449.341; 1566.500;  280.675;    0.000
449.388; 1561.500;  247.675;    0.000
449.435; 1581.500;  267.675;    0.000
449.481; 1597.500;  303.675;    0.000
449.528; 1722.500;  279.675;    0.000
449.575; 1586.500;  226.675;    0.000
449.622; 1603.500;  263.675;    0.000
449.668; 1649.500;  249.675;    0.000
449.715; 1599.500;  257.675;    0.000
449.762; 1570.500;  251.675;    0.000
449.809; 1628.500;  289.675;    0.000
449.855; 1606.500;  239.675;    0.000
449.902; 1585.500;  262.675;    0.000
449.949; 1714.500;  262.675;    0.000
449.995; 1602.500;  265.675;    0.000
450.042; 1601.500;  280.675;    0.000
450.089; 1616.500;  277.675;    0.000
450.135; 1579.500;  285.675;    0.000
450.182; 1600.500;  275.675;    0.000
450.229; 1606.500;  278.675;    0.000
450.275; 1579.500;  288.675;    0.000
450.322; 1603.500;  238.675;    0.000
450.368; 1554.500;  276.675;    0.000
450.415; 1585.500;  295.675;    0.000
450.462; 1590.500;  283.675;    0.000
450.508; 1674.500;  264.675;    0.000
450.555; 1690.500;  275.675;    0.000
450.601; 1626.500;  278.675;    0.000
450.648; 1611.500;  251.675;    0.000
450.694; 1586.500;  237.675;    0.000
450.741; 1548.500;  280.675;    0.000
450.787; 1560.500;  279.675;    0.000
450.834; 1600.500;  287.675;    0.000
450.880; 1624.500;  265.675;    0.000
450.927; 1594.500;  270.675;    0.000
450.973; 1631.500;  308.675;    0.000
451.019; 1533.500;  253.675;    0.000
451.066; 1533.500;  261.675;    0.000
451.112; 1643.500;  276.675;    0.000
451.159; 1516.500;  235.675;    0.000
451.205; 1568.500;  284.675;    0.000
451.251; 1579.500;  264.675;    0.000
451.298; 1569.500;  262.675;    0.000
451.344; 1642.500;  278.675;    0.000
451.390; 1621.500;  273.675;    0.000
451.437; 1643.500;  272.675;    0.000
451.483; 1652.500;  302.675;    0.000
451.529; 1593.500;  255.675;    0.000
451.576; 1590.500;  287.675;    0.000
451.622; 1593.500;  254.675;    0.000
451.668; 1668.500;  260.675;    0.000
451.714; 1689.500;  289.675;    0.000
451.761; 1595.500;  273.675;    0.000
451.807; 1606.500;  307.675;    0.000
451.853; 1611.500;  281.675;    0.000
451.899; 1557.500;  246.675;    0.000
451.945; 1651.500;  258.675;    0.000
451.992; 1614.500;  276.675;    0.000
452.038; 1600.500;  287.675;    0.000
452.084; 1590.500;  288.675;    0.000
452.130; 1597.500;  259.675;    0.000
452.176; 1528.500;  265.675;    0.000
452.222; 1540.500;  222.675;    0.000
452.268; 1617.500;  271.675;    0.000
452.315; 1576.500;  258.675;    0.000
452.361; 1575.500;  233.675;    0.000
452.407; 1599.500;  270.675;    0.000
452.453; 1539.500;  261.675;    0.000
452.499; 1575.500;  279.675;    0.000
452.545; 1489.500;  269.675;    0.000
452.591; 1588.500;  288.675;    0.000
452.637; 1524.500;  279.675;    0.000
452.683; 1572.500;  232.675;    0.000
452.729; 1626.500;  285.675;    0.000
452.775; 1575.500;  280.675;    0.000
452.821; 1575.500;  260.675;    0.000
452.867; 1567.500;  239.675;    0.000
452.913; 1555.500;  240.675;    0.000
452.959; 1580.500;  214.675;    0.000
453.005; 1600.500;  266.675;    0.000
453.051; 1532.500;  258.675;    0.000
453.097; 1600.500;  253.675;    0.000
453.142; 1606.500;  244.675;    0.000
453.188; 1561.500;  241.675;    0.000
453.234; 1543.500;  257.675;    0.000
453.280; 1541.500;  231.675;    0.000
453.326; 1541.500;  240.675;    0.000
453.372; 1494.500;  208.675;    0.000
453.418; 1519.500;  266.675;    0.000
453.463; 1550.500;  232.675;    0.000
453.509; 1553.500;  221.675;    0.000
453.555; 1547.500;  268.675;    0.000
453.601; 1546.500;  242.675;    0.000
453.647; 1614.500;  283.675;    0.000
453.692; 1592.500;  242.675;    0.000
453.738; 1563.500;  294.675;    0.000
453.784; 1506.500;  256.675;    0.000
453.829; 1590.500;  267.675;    0.000
453.875; 1588.500;  233.675;    0.000
453.921; 1581.500;  247.675;    0.000
453.967; 1622.500;  249.675;    0.000
454.012; 1602.500;  274.675;    0.000
454.058; 1558.500;  249.675;    0.000
454.104; 1573.500;  272.675;    0.000
454.149; 1591.500;  277.675;    0.000
454.195; 1540.500;  256.675;    0.000
454.240; 1566.500;  263.675;    0.000
454.286; 1566.500;  276.675;    0.000
454.332; 1557.500;  290.675;    0.000
454.377; 1568.500;  274.675;    0.000
454.423; 1547.500;  282.675;    0.000
454.468; 1574.500;  275.675;    0.000
454.514; 1554.500;  270.675;    0.000
454.559; 1597.500;  249.675;    0.000
454.605; 1469.500;  241.675;    0.000
454.650; 1562.500;  269.675;    0.000
454.696; 1590.500;  253.675;    0.000
454.741; 1576.500;  279.675;    0.000
454.787; 1541.500;  252.675;    0.000
454.832; 1591.500;  246.675;    0.000
454.878; 1646.500;  264.675;    0.000
454.923; 1610.500;  268.675;    0.000
454.969; 1529.500;  253.675;    0.000
455.014; 1619.500;  264.675;    0.000
455.060; 1546.500;  265.675;    0.000
455.105; 1574.500;  270.675;    0.000
455.150; 1632.500;  284.675;    0.000
455.196; 1631.500;  278.675;    0.000
455.241; 1642.500;  248.675;    0.000
455.286; 1572.500;  274.675;    0.000
455.332; 1596.500;  269.675;    0.000
455.377; 1535.500;  218.675;    0.000
455.422; 1548.500;  261.675;    0.000
455.468; 1554.500;  278.675;    0.000
455.513; 1627.500;  235.675;    0.000
455.558; 1563.500;  232.675;    0.000
455.604; 1638.500;  285.675;    0.000
455.649; 1561.500;  264.675;    0.000
455.694; 1582.500;  235.675;    0.000
455.739; 1608.500;  265.675;    0.000
455.785; 1594.500;  266.675;    0.000
455.830; 1584.500;  272.675;    0.000
455.875; 1571.500;  256.675;    0.000
455.920; 1562.500;  191.675;    0.000
455.965; 1647.500;  280.675;    0.000
456.010; 1612.500;  267.675;    0.000
456.056; 1569.500;  270.675;    0.000
456.101; 1546.500;  248.675;    0.000
456.146; 1566.500;  287.675;    0.000
456.191; 1636.500;  280.675;    0.000
456.236; 1581.500;  229.675;    0.000
456.281; 1589.500;  241.675;    0.000
456.326; 1598.500;  248.675;    0.000
456.371; 1576.500;  233.675;    0.000
456.416; 1593.500;  284.675;    0.000
456.461; 1603.500;  256.675;    0.000
456.507; 1529.500;  250.675;    0.000
456.552; 1526.500;  290.675;    0.000
456.597; 1609.500;  260.675;    0.000
456.642; 1627.500;  252.675;    0.000
456.687; 1612.500;  272.675;    0.000
456.732; 1627.500;  303.675;    0.000
456.776; 1578.500;  269.675;    0.000
456.821; 1519.500;  256.675;    0.000
456.866; 1562.500;  278.675;    0.000
456.911; 1601.500;  230.675;    0.000
456.956; 1590.500;  275.675;    0.000
457.001; 1586.500;  248.675;    0.000
457.046; 1586.500;  222.675;    0.000
457.091; 1568.500;  251.675;    0.000
457.136; 1563.500;  231.675;    0.000
457.181; 1640.500;  245.675;    0.000
457.225; 1594.500;  262.675;    0.000
457.270; 1582.500;  277.675;    0.000
457.315; 1583.500;  235.675;    0.000
457.360; 1644.500;  231.675;    0.000
457.405; 1549.500;  214.675;    0.000
457.450; 1636.500;  255.675;    0.000
457.494; 1592.500;  220.675;    0.000
457.539; 1538.500;  257.675;    0.000
457.584; 1615.500;  279.675;    0.000
457.629; 1559.500;  249.675;    0.000
457.673; 1599.500;  237.675;    0.000
457.718; 1635.500;  232.675;    0.000
457.763; 1624.500;  278.675;    0.000
457.807; 1642.500;  279.675;    0.000
457.852; 1560.500;  246.675;    0.000
457.897; 1614.500;  284.675;    0.000
457.941; 1648.500;  272.675;    0.000
457.986; 1657.500;  285.675;    0.000
458.031; 1622.500;  235.675;    0.000
458.075; 1651.500;  299.675;    0.000
458.120; 1664.500;  284.675;    0.000
458.165; 1539.500;  212.675;    0.000
458.209; 1683.500;  254.675;    0.000
458.254; 1624.500;  257.675;    0.000
458.298; 1634.500;  265.675;    0.000
458.343; 1627.500;  278.675;    0.000
458.387; 1638.500;  316.675;    0.000
458.432; 1658.500;  279.675;    0.000
458.476; 1681.500;  272.675;    0.000
458.521; 1642.500;  240.675;    0.000
458.565; 1638.500;  307.675;    0.000
458.610; 1614.500;  246.675;    0.000
458.654; 1648.500;  275.675;    0.000
458.699; 1693.500;  288.675;    0.000
458.743; 1706.500;  244.675;    0.000
458.788; 1688.500;  245.675;    0.000
458.832; 1714.500;  277.675;    0.000
458.877; 1655.500;  285.675;    0.000
458.921; 1623.500;  216.675;    0.000
458.965; 1624.500;  260.675;    0.000
459.010; 1749.500;  284.675;    0.000
459.054; 1714.500;  272.675;    0.000
459.099; 1652.500;  262.675;    0.000
459.143; 1752.500;  276.675;    0.000
459.187; 1689.500;  258.675;    0.000
459.231; 1689.500;  278.675;    0.000
459.276; 1716.500;  262.675;    0.000
459.320; 1777.500;  291.675;    0.000
459.364; 1731.500;  294.675;    0.000
459.409; 1701.500;  269.675;    0.000
459.453; 1619.500;  257.675;    0.000
459.497; 1681.500;  283.675;    0.000
459.541; 1725.500;  275.675;    0.000
459.586; 1694.500;  261.675;    0.000
459.630; 1711.500;  284.675;    0.000
459.674; 1710.500;  244.675;    0.000
459.718; 1661.500;  309.675;    0.000
459.762; 1701.500;  281.675;    0.000
459.807; 1774.500;  250.675;    0.000
459.851; 1844.500;  286.675;    0.000
459.895; 1734.500;  230.675;    0.000
459.939; 1791.500;  262.675;    0.000
459.983; 1719.500;  250.675;    0.000
460.027; 1744.500;  275.675;    0.000
460.071; 1749.500;  301.675;    0.000
460.115; 1708.500;  279.675;    0.000
460.159; 1746.500;  301.675;    0.000
460.204; 1736.500;  287.675;    0.000
460.248; 1785.500;  293.675;    0.000
460.292; 1693.500;  310.675;    0.000
460.336; 1679.500;  263.675;    0.000
460.380; 1764.500;  268.675;    0.000
460.424; 1775.500;  281.675;    0.000
460.468; 1791.500;  310.675;    0.000
460.512; 1757.500;  273.675;    0.000
460.556; 1740.500;  291.675;    0.000
460.599; 1751.500;  240.675;    0.000
460.643; 1826.500;  260.675;    0.000
460.687; 1802.500;  283.675;    0.000
460.731; 1795.500;  254.675;    0.000
460.775; 1745.500;  265.675;    0.000
460.819; 1784.500;  280.675;    0.000
460.863; 1854.500;  316.675;    0.000
460.907; 1768.500;  231.675;    0.000
460.951; 1870.500;  275.675;    0.000
460.995; 1803.500;  290.675;    0.000
461.038; 1755.500;  284.675;    0.000
461.082; 1770.500;  278.675;    0.000
461.126; 1815.500;  321.675;    0.000
461.170; 1812.500;  273.675;    0.000
461.214; 1732.500;  289.675;    0.000
461.257; 1866.500;  296.675;    0.000
461.301; 1834.500;  287.675;    0.000
461.345; 1804.500;  290.675;    0.000
461.389; 1811.500;  260.675;    0.000
461.432; 1841.500;  262.675;    0.000
461.476; 1816.500;  254.675;    0.000
461.520; 1738.500;  305.675;    0.000
461.563; 1753.500;  289.675;    0.000
461.607; 1774.500;  286.675;    0.000
461.651; 1767.500;  271.675;    0.000
461.694; 1797.500;  245.675;    0.000
461.738; 1730.500;  278.675;    0.000
461.782; 1835.500;  284.675;    0.000
461.825; 1828.500;  305.675;    0.000
461.869; 1848.500;  293.675;    0.000
461.913; 1743.500;  280.675;    0.000
461.956; 1792.500;  237.675;    0.000
462.000; 1846.500;  288.675;    0.000
462.043; 1877.500;  282.675;    0.000
462.087; 1777.500;  268.675;    0.000
462.130; 1818.500;  286.675;    0.000
462.174; 1839.500;  312.675;    0.000
462.217; 1804.500;  270.675;    0.000
462.261; 1831.500;  281.675;    0.000
462.304; 1845.500;  248.675;    0.000
462.348; 1884.500;  267.675;    0.000
462.391; 1842.500;  270.675;    0.000
462.435; 1877.500;  287.675;    0.000
462.478; 1800.500;  290.675;    0.000
462.522; 1833.500;  296.675;    0.000
462.565; 1895.500;  275.675;    0.000
462.608; 1924.500;  325.675;    0.000
462.652; 1953.500;  303.675;    0.000
462.695; 1981.500;  355.675;    0.000
462.739; 1905.500;  272.675;    0.000
462.782; 1956.500;  295.675;    0.000
462.825; 1911.500;  300.675;    0.000
462.869; 1893.500;  319.675;    0.000
462.912; 1981.500;  363.675;    0.000
462.955; 1939.500;  298.675;    0.000
462.998; 1967.500;  321.675;    0.000
463.042; 1980.500;  310.675;    0.000
463.085; 1901.500;  305.675;    0.000
463.128; 1947.500;  345.675;    0.000
463.172; 1892.500;  341.675;    0.000
463.215;  372.500;  300.675;    0.000
463.258;  311.500;  287.675;    0.000
463.301;  305.500;  290.675;    0.000
463.344;  316.500;  320.675;    0.000
463.388;  301.500;  340.675;    0.000
463.431;  289.500;  278.675;    0.000
463.474;  330.500;  353.675;    0.000
463.517;  303.500;  295.675;    0.000
463.560;  317.500;  328.675;    0.000
463.603;  301.500;  316.675;    0.000
463.646;  311.500;  295.675;    0.000
463.690;  312.500;  334.675;    0.000
463.733;  328.500;  343.675;    0.000
463.776;  279.500;  300.675;    0.000
463.819;  349.500;  368.675;    0.000
463.862;  332.500;  327.675;    0.000

