
Integration time [ms]:   1.000
Averaging Nr. [scans]: 1
Smoothing Nr. [pixels]: 0
Data measured with spectrometer [name]: NIR
Wave   ;Sample   ;Dark     ;Reference
[nm]   ;[counts] ;[counts] ;[counts] 

691.496;   37.700;    0.000;    0.000
691.696;   78.700;    0.000;    0.000
691.896;   37.700;    0.000;    0.000
692.096;   75.700;    0.000;    0.000
692.296;   37.700;    0.000;    0.000
692.496;   90.700;    0.000;    0.000
692.695;   15.700;    0.000;    0.000
692.895;   92.700;    0.000;    0.000
693.095;   53.700;    0.000;    0.000
693.295;   58.700;    0.000;    0.000
693.495;   71.700;    0.000;    0.000
693.695;   45.700;    0.000;    0.000
693.894;   40.700;    0.000;    0.000
694.094;   72.700;    0.000;    0.000
694.294;   11.700;    0.000;    0.000
694.494;  259.700;    0.000;    0.000
694.693; 2232.700;    0.000;    0.000
694.893; 2526.700;    0.000;    0.000
695.093; 2448.700;    0.000;    0.000
695.293; 2535.700;    0.000;    0.000
695.492; 2539.700;    0.000;    0.000
695.692; 2460.700;    0.000;    0.000
695.891; 2593.700;    0.000;    0.000
696.091; 2662.700;    0.000;    0.000
696.291; 2617.700;    0.000;    0.000
696.490; 2581.700;    0.000;    0.000
696.690; 2656.700;    0.000;    0.000
696.889; 2692.700;    0.000;    0.000
697.089; 2519.700;    0.000;    0.000
697.288; 2662.700;    0.000;    0.000
697.488; 2588.700;    0.000;    0.000
697.687; 2662.700;    0.000;    0.000
697.887; 2668.700;    0.000;    0.000
698.086; 2687.700;    0.000;    0.000
698.286; 2641.700;    0.000;    0.000
698.485; 2600.700;    0.000;    0.000
698.684; 2621.700;    0.000;    0.000
698.884; 2676.700;    0.000;    0.000
699.083; 2695.700;    0.000;    0.000
699.282; 2682.700;    0.000;    0.000
699.482; 2648.700;    0.000;    0.000
699.681; 2800.700;    0.000;    0.000
699.880; 2802.700;    0.000;    0.000
700.080; 2767.700;    0.000;    0.000
700.279; 2685.700;    0.000;    0.000
700.478; 2830.700;    0.000;    0.000
700.677; 2754.700;    0.000;    0.000
700.877; 2791.700;    0.000;    0.000
701.076; 2729.700;    0.000;    0.000
701.275; 2678.700;    0.000;    0.000
701.474; 2725.700;    0.000;    0.000
701.673; 2673.700;    0.000;    0.000
701.872; 2775.700;    0.000;    0.000
702.071; 2786.700;    0.000;    0.000
702.271; 2877.700;    0.000;    0.000
702.470; 2756.700;    0.000;    0.000
702.669; 2804.700;    0.000;    0.000
702.868; 2863.700;    0.000;    0.000
703.067; 2845.700;    0.000;    0.000
703.266; 2818.700;    0.000;    0.000
703.465; 2876.700;    0.000;    0.000
703.664; 2816.700;    0.000;    0.000
703.863; 2875.700;    0.000;    0.000
704.062; 2780.700;    0.000;    0.000
704.260; 2939.700;    0.000;    0.000
704.459; 2924.700;    0.000;    0.000
704.658; 2890.700;    0.000;    0.000
704.857; 2951.700;    0.000;    0.000
705.056; 2894.700;    0.000;    0.000
705.255; 2905.700;    0.000;    0.000
705.454; 2948.700;    0.000;    0.000
705.652; 2871.700;    0.000;    0.000
705.851; 2865.700;    0.000;    0.000
706.050; 2943.700;    0.000;    0.000
706.249; 2954.700;    0.000;    0.000
706.447; 2940.700;    0.000;    0.000
706.646; 3007.700;    0.000;    0.000
706.845; 3004.700;    0.000;    0.000
707.043; 3089.700;    0.000;    0.000
707.242; 3025.700;    0.000;    0.000
707.441; 3002.700;    0.000;    0.000
707.639; 3029.700;    0.000;    0.000
707.838; 2940.700;    0.000;    0.000
708.037; 3026.700;    0.000;    0.000
708.235; 3022.700;    0.000;    0.000
708.434; 2967.700;    0.000;    0.000
708.632; 2996.700;    0.000;    0.000
708.831; 3044.700;    0.000;    0.000
709.029; 3093.700;    0.000;    0.000
709.228; 3039.700;    0.000;    0.000
709.426; 3081.700;    0.000;    0.000
709.625; 3140.700;    0.000;    0.000
709.823; 3112.700;    0.000;    0.000
710.022; 3094.700;    0.000;    0.000
710.220; 3203.700;    0.000;    0.000
710.418; 3196.700;    0.000;    0.000
710.617; 3038.700;    0.000;    0.000
710.815; 3198.700;    0.000;    0.000
711.013; 3199.700;    0.000;    0.000
711.212; 3209.700;    0.000;    0.000
711.410; 3106.700;    0.000;    0.000
711.608; 3225.700;    0.000;    0.000
711.807; 3161.700;    0.000;    0.000
712.005; 3175.700;    0.000;    0.000
712.203; 3214.700;    0.000;    0.000
712.401; 3183.700;    0.000;    0.000
712.599; 3268.700;    0.000;    0.000
712.798; 3248.700;    0.000;    0.000
712.996; 3225.700;    0.000;    0.000
713.194; 3373.700;    0.000;    0.000
713.392; 3293.700;    0.000;    0.000
713.590; 3356.700;    0.000;    0.000
713.788; 3354.700;    0.000;    0.000
713.986; 3378.700;    0.000;    0.000
714.184; 3428.700;    0.000;    0.000
714.382; 3384.700;    0.000;    0.000
714.580; 3492.700;    0.000;    0.000
714.778; 3551.700;    0.000;    0.000
714.976; 3507.700;    0.000;    0.000
715.174; 3534.700;    0.000;    0.000
715.372; 3736.700;    0.000;    0.000
715.570; 3788.700;    0.000;    0.000
715.768; 4015.700;    0.000;    0.000
715.966; 4017.700;    0.000;    0.000
716.164; 3983.700;    0.000;    0.000
716.362; 3958.700;    0.000;    0.000
716.560; 3876.700;    0.000;    0.000
716.758; 3769.700;    0.000;    0.000
716.955; 3680.700;    0.000;    0.000
717.153; 3713.700;    0.000;    0.000
717.351; 3813.700;    0.000;    0.000
717.549; 3738.700;    0.000;    0.000
717.746; 3786.700;    0.000;    0.000
717.944; 3706.700;    0.000;    0.000
718.142; 3708.700;    0.000;    0.000
718.340; 3708.700;    0.000;    0.000
718.537; 3635.700;    0.000;    0.000
718.735; 3725.700;    0.000;    0.000
718.933; 3713.700;    0.000;    0.000
719.130; 3672.700;    0.000;    0.000
719.328; 3664.700;    0.000;    0.000
719.525; 3605.700;    0.000;    0.000
719.723; 3660.700;    0.000;    0.000
719.920; 3708.700;    0.000;    0.000
720.118; 3634.700;    0.000;    0.000
720.316; 3598.700;    0.000;    0.000
720.513; 3568.700;    0.000;    0.000
720.711; 3690.700;    0.000;    0.000
720.908; 3738.700;    0.000;    0.000
721.105; 3701.700;    0.000;    0.000
721.303; 3757.700;    0.000;    0.000
721.500; 3642.700;    0.000;    0.000
721.698; 3631.700;    0.000;    0.000
721.895; 3697.700;    0.000;    0.000
722.092; 3740.700;    0.000;    0.000
722.290; 3684.700;    0.000;    0.000
722.487; 3657.700;    0.000;    0.000
722.684; 3757.700;    0.000;    0.000
722.882; 3730.700;    0.000;    0.000
723.079; 3834.700;    0.000;    0.000
723.276; 3642.700;    0.000;    0.000
723.473; 3728.700;    0.000;    0.000
723.671; 3734.700;    0.000;    0.000
723.868; 3787.700;    0.000;    0.000
724.065; 3791.700;    0.000;    0.000
724.262; 3755.700;    0.000;    0.000
724.459; 3808.700;    0.000;    0.000
724.656; 3745.700;    0.000;    0.000
724.854; 3795.700;    0.000;    0.000
725.051; 3799.700;    0.000;    0.000
725.248; 3779.700;    0.000;    0.000
725.445; 3822.700;    0.000;    0.000
725.642; 3804.700;    0.000;    0.000
725.839; 3863.700;    0.000;    0.000
726.036; 3741.700;    0.000;    0.000
726.233; 3799.700;    0.000;    0.000
726.430; 3905.700;    0.000;    0.000
726.627; 3808.700;    0.000;    0.000
726.824; 3799.700;    0.000;    0.000
727.021; 4006.700;    0.000;    0.000
727.218; 3889.700;    0.000;    0.000
727.414; 3996.700;    0.000;    0.000
727.611; 3888.700;    0.000;    0.000
727.808; 3989.700;    0.000;    0.000
728.005; 3967.700;    0.000;    0.000
728.202; 3962.700;    0.000;    0.000
728.399; 3908.700;    0.000;    0.000
728.595; 3862.700;    0.000;    0.000
728.792; 3896.700;    0.000;    0.000
728.989; 3933.700;    0.000;    0.000
729.186; 3883.700;    0.000;    0.000
729.382; 4020.700;    0.000;    0.000
729.579; 3989.700;    0.000;    0.000
729.776; 3986.700;    0.000;    0.000
729.972; 3996.700;    0.000;    0.000
730.169; 3959.700;    0.000;    0.000
730.366; 3964.700;    0.000;    0.000
730.562; 3992.700;    0.000;    0.000
730.759; 4029.700;    0.000;    0.000
730.955; 4062.700;    0.000;    0.000
731.152; 4019.700;    0.000;    0.000
731.348; 4084.700;    0.000;    0.000
731.545; 3986.700;    0.000;    0.000
731.741; 4152.700;    0.000;    0.000
731.938; 4101.700;    0.000;    0.000
732.134; 4107.700;    0.000;    0.000
732.331; 4072.700;    0.000;    0.000
732.527; 4229.700;    0.000;    0.000
732.724; 4138.700;    0.000;    0.000
732.920; 4194.700;    0.000;    0.000
733.116; 4025.700;    0.000;    0.000
733.313; 4222.700;    0.000;    0.000
733.509; 4174.700;    0.000;    0.000
733.705; 4239.700;    0.000;    0.000
733.902; 4175.700;    0.000;    0.000
734.098; 4102.700;    0.000;    0.000
734.294; 4203.700;    0.000;    0.000
734.490; 4333.700;    0.000;    0.000
734.687; 4225.700;    0.000;    0.000
734.883; 4163.700;    0.000;    0.000
735.079; 4325.700;    0.000;    0.000
735.275; 4201.700;    0.000;    0.000
735.471; 4296.700;    0.000;    0.000
735.667; 4294.700;    0.000;    0.000
735.863; 4403.700;    0.000;    0.000
736.060; 4364.700;    0.000;    0.000
736.256; 4354.700;    0.000;    0.000
736.452; 4434.700;    0.000;    0.000
736.648; 4379.700;    0.000;    0.000
736.844; 4451.700;    0.000;    0.000
737.040; 4450.700;    0.000;    0.000
737.236; 4529.700;    0.000;    0.000
737.432; 4443.700;    0.000;    0.000
737.628; 4515.700;    0.000;    0.000
737.824; 4467.700;    0.000;    0.000
738.019; 4457.700;    0.000;    0.000
738.215; 4522.700;    0.000;    0.000
738.411; 4595.700;    0.000;    0.000
738.607; 4615.700;    0.000;    0.000
738.803; 4569.700;    0.000;    0.000
738.999; 4576.700;    0.000;    0.000
739.195; 4623.700;    0.000;    0.000
739.390; 4575.700;    0.000;    0.000
739.586; 4647.700;    0.000;    0.000
739.782; 4760.700;    0.000;    0.000
739.978; 4720.700;    0.000;    0.000
740.173; 4641.700;    0.000;    0.000
740.369; 4695.700;    0.000;    0.000
740.565; 4663.700;    0.000;    0.000
740.760; 4834.700;    0.000;    0.000
740.956; 4728.700;    0.000;    0.000
741.152; 4866.700;    0.000;    0.000
741.347; 4995.700;    0.000;    0.000
741.543; 5037.700;    0.000;    0.000
741.738; 5035.700;    0.000;    0.000
741.934; 5154.700;    0.000;    0.000
742.129; 5433.700;    0.000;    0.000
742.325; 5997.700;    0.000;    0.000
742.520; 6270.700;    0.000;    0.000
742.716; 5987.700;    0.000;    0.000
742.911; 5741.700;    0.000;    0.000
743.107; 5844.700;    0.000;    0.000
743.302; 5656.700;    0.000;    0.000
743.498; 5643.700;    0.000;    0.000
743.693; 5877.700;    0.000;    0.000
743.888; 6072.700;    0.000;    0.000
744.084; 6872.700;    0.000;    0.000
744.279; 7744.700;    0.000;    0.000
744.474; 7861.700;    0.000;    0.000
744.670; 7336.700;    0.000;    0.000
744.865; 6912.700;    0.000;    0.000
745.060; 6540.700;    0.000;    0.000
745.255; 6428.700;    0.000;    0.000
745.451; 6362.700;    0.000;    0.000
745.646; 6358.700;    0.000;    0.000
745.841; 6330.700;    0.000;    0.000
746.036; 6378.700;    0.000;    0.000
746.231; 6458.700;    0.000;    0.000
746.426; 6743.700;    0.000;    0.000
746.622; 7785.700;    0.000;    0.000
746.817; 9367.700;    0.000;    0.000
747.012;10009.700;    0.000;    0.000
747.207; 9135.700;    0.000;    0.000
747.402; 8501.700;    0.000;    0.000
747.597; 7924.700;    0.000;    0.000
747.792; 7669.700;    0.000;    0.000
747.987; 7434.700;    0.000;    0.000
748.182; 7323.700;    0.000;    0.000
748.377; 6812.700;    0.000;    0.000
748.572; 6838.700;    0.000;    0.000
748.767; 6562.700;    0.000;    0.000
748.961; 6411.700;    0.000;    0.000
749.156; 6311.700;    0.000;    0.000
749.351; 6262.700;    0.000;    0.000
749.546; 6151.700;    0.000;    0.000
749.741; 6101.700;    0.000;    0.000
749.936; 6065.700;    0.000;    0.000
750.130; 6057.700;    0.000;    0.000
750.325; 5895.700;    0.000;    0.000
750.520; 5903.700;    0.000;    0.000
750.715; 5802.700;    0.000;    0.000
750.909; 5848.700;    0.000;    0.000
751.104; 5766.700;    0.000;    0.000
751.299; 5857.700;    0.000;    0.000
751.493; 5701.700;    0.000;    0.000
751.688; 5789.700;    0.000;    0.000
751.882; 5666.700;    0.000;    0.000
752.077; 5681.700;    0.000;    0.000
752.272; 5772.700;    0.000;    0.000
752.466; 5632.700;    0.000;    0.000
752.661; 5614.700;    0.000;    0.000
752.855; 5531.700;    0.000;    0.000
753.050; 5638.700;    0.000;    0.000
753.244; 5556.700;    0.000;    0.000
753.439; 5446.700;    0.000;    0.000
753.633; 5455.700;    0.000;    0.000
753.828; 5639.700;    0.000;    0.000
754.022; 5473.700;    0.000;    0.000
754.216; 5480.700;    0.000;    0.000
754.411; 5505.700;    0.000;    0.000
754.605; 5593.700;    0.000;    0.000
754.799; 5537.700;    0.000;    0.000
754.994; 5472.700;    0.000;    0.000
755.188; 5552.700;    0.000;    0.000
755.382; 5454.700;    0.000;    0.000
755.576; 5604.700;    0.000;    0.000
755.771; 5534.700;    0.000;    0.000
755.965; 5560.700;    0.000;    0.000
756.159; 5428.700;    0.000;    0.000
756.353; 5647.700;    0.000;    0.000
756.547; 5422.700;    0.000;    0.000
756.742; 5581.700;    0.000;    0.000
756.936; 5564.700;    0.000;    0.000
757.130; 5596.700;    0.000;    0.000
757.324; 5509.700;    0.000;    0.000
757.518; 5581.700;    0.000;    0.000
757.712; 5474.700;    0.000;    0.000
757.906; 5446.700;    0.000;    0.000
758.100; 5580.700;    0.000;    0.000
758.294; 5504.700;    0.000;    0.000
758.488; 5552.700;    0.000;    0.000
758.682; 5549.700;    0.000;    0.000
758.876; 5591.700;    0.000;    0.000
759.070; 5530.700;    0.000;    0.000
759.264; 5670.700;    0.000;    0.000
759.458; 5490.700;    0.000;    0.000
759.651; 5708.700;    0.000;    0.000
759.845; 5471.700;    0.000;    0.000
760.039; 5489.700;    0.000;    0.000
760.233; 5545.700;    0.000;    0.000
760.427; 5603.700;    0.000;    0.000
760.620; 5570.700;    0.000;    0.000
760.814; 5433.700;    0.000;    0.000
761.008; 5614.700;    0.000;    0.000
761.202; 5756.700;    0.000;    0.000
761.395; 5685.700;    0.000;    0.000
761.589; 5543.700;    0.000;    0.000
761.783; 5658.700;    0.000;    0.000
761.976; 5637.700;    0.000;    0.000
762.170; 5692.700;    0.000;    0.000
762.363; 5590.700;    0.000;    0.000
762.557; 5729.700;    0.000;    0.000
762.750; 5709.700;    0.000;    0.000
762.944; 5710.700;    0.000;    0.000
763.138; 5700.700;    0.000;    0.000
763.331; 5633.700;    0.000;    0.000
763.524; 5940.700;    0.000;    0.000
763.718; 5850.700;    0.000;    0.000
763.911; 5829.700;    0.000;    0.000
764.105; 5818.700;    0.000;    0.000
764.298; 5840.700;    0.000;    0.000
764.492; 5778.700;    0.000;    0.000
764.685; 5783.700;    0.000;    0.000
764.878; 5888.700;    0.000;    0.000
765.072; 5843.700;    0.000;    0.000
765.265; 5906.700;    0.000;    0.000
765.458; 5789.700;    0.000;    0.000
765.651; 6003.700;    0.000;    0.000
765.845; 6074.700;    0.000;    0.000
766.038; 6197.700;    0.000;    0.000
766.231; 8035.700;    0.000;    0.000
766.424;10812.700;    0.000;    0.000
766.617; 9927.700;    0.000;    0.000
766.811; 6827.700;    0.000;    0.000
767.004; 6226.700;    0.000;    0.000
767.197; 6143.700;    0.000;    0.000
767.390; 6082.700;    0.000;    0.000
767.583; 6071.700;    0.000;    0.000
767.776; 6125.700;    0.000;    0.000
767.969; 6049.700;    0.000;    0.000
768.162; 5995.700;    0.000;    0.000
768.355; 6169.700;    0.000;    0.000
768.548; 6201.700;    0.000;    0.000
768.741; 6280.700;    0.000;    0.000
768.934; 6226.700;    0.000;    0.000
769.127; 6375.700;    0.000;    0.000
769.320; 6410.700;    0.000;    0.000
769.513; 6754.700;    0.000;    0.000
769.706; 8510.700;    0.000;    0.000
769.898; 9851.700;    0.000;    0.000
770.091; 8287.700;    0.000;    0.000
770.284; 6471.700;    0.000;    0.000
770.477; 6563.700;    0.000;    0.000
770.670; 6593.700;    0.000;    0.000
770.862; 6549.700;    0.000;    0.000
771.055; 6587.700;    0.000;    0.000
771.248; 6641.700;    0.000;    0.000
771.441; 6619.700;    0.000;    0.000
771.633; 6862.700;    0.000;    0.000
771.826; 6842.700;    0.000;    0.000
772.018; 6785.700;    0.000;    0.000
772.211; 6936.700;    0.000;    0.000
772.404; 6959.700;    0.000;    0.000
772.596; 7135.700;    0.000;    0.000
772.789; 7147.700;    0.000;    0.000
772.981; 7192.700;    0.000;    0.000
773.174; 7212.700;    0.000;    0.000
773.366; 7317.700;    0.000;    0.000
773.559; 7461.700;    0.000;    0.000
773.751; 7551.700;    0.000;    0.000
773.944; 7630.700;    0.000;    0.000
774.136; 7842.700;    0.000;    0.000
774.329; 7942.700;    0.000;    0.000
774.521; 8082.700;    0.000;    0.000
774.713; 8399.700;    0.000;    0.000
774.906; 8817.700;    0.000;    0.000
775.098; 8937.700;    0.000;    0.000
775.290; 9367.700;    0.000;    0.000
775.483; 9719.700;    0.000;    0.000
775.675;10345.700;    0.000;    0.000
775.867;11074.700;    0.000;    0.000
776.059;11892.700;    0.000;    0.000
776.251;12865.700;    0.000;    0.000
776.444;14833.700;    0.000;    0.000
776.636;16998.699;    0.000;    0.000
776.828;21373.699;    0.000;    0.000
777.020;30020.699;    0.000;    0.000
777.212;39756.699;    0.000;    0.000
777.404;42696.699;    0.000;    0.000
777.596;38297.699;    0.000;    0.000
777.788;29902.699;    0.000;    0.000
777.980;23444.699;    0.000;    0.000
778.172;19704.699;    0.000;    0.000
778.364;17016.699;    0.000;    0.000
778.556;15486.700;    0.000;    0.000
778.748;13927.700;    0.000;    0.000
778.940;13050.700;    0.000;    0.000
779.132;12024.700;    0.000;    0.000
779.324;11108.700;    0.000;    0.000
779.516;10487.700;    0.000;    0.000
779.708;10117.700;    0.000;    0.000
779.900; 9571.700;    0.000;    0.000
780.091; 9330.700;    0.000;    0.000
780.283; 8928.700;    0.000;    0.000
780.475; 8807.700;    0.000;    0.000
780.667; 8556.700;    0.000;    0.000
780.859; 8465.700;    0.000;    0.000
781.050; 8175.700;    0.000;    0.000
781.242; 8030.700;    0.000;    0.000
781.434; 7785.700;    0.000;    0.000
781.625; 7726.700;    0.000;    0.000
781.817; 7506.700;    0.000;    0.000
782.008; 7397.700;    0.000;    0.000
782.200; 7379.700;    0.000;    0.000
782.392; 7178.700;    0.000;    0.000
782.583; 7129.700;    0.000;    0.000
782.775; 7149.700;    0.000;    0.000
782.966; 6956.700;    0.000;    0.000
783.158; 6941.700;    0.000;    0.000
783.349; 6905.700;    0.000;    0.000
783.541; 6808.700;    0.000;    0.000
783.732; 6858.700;    0.000;    0.000
783.924; 6754.700;    0.000;    0.000
784.115; 6736.700;    0.000;    0.000
784.306; 6750.700;    0.000;    0.000
784.498; 6510.700;    0.000;    0.000
784.689; 6547.700;    0.000;    0.000
784.880; 6409.700;    0.000;    0.000
785.072; 6502.700;    0.000;    0.000
785.263; 6463.700;    0.000;    0.000
785.454; 6453.700;    0.000;    0.000
785.645; 6391.700;    0.000;    0.000
785.837; 6466.700;    0.000;    0.000
786.028; 6503.700;    0.000;    0.000
786.219; 6323.700;    0.000;    0.000
786.410; 6410.700;    0.000;    0.000
786.601; 6311.700;    0.000;    0.000
786.792; 6439.700;    0.000;    0.000
786.984; 6373.700;    0.000;    0.000
787.175; 6345.700;    0.000;    0.000
787.366; 6319.700;    0.000;    0.000
787.557; 6507.700;    0.000;    0.000
787.748; 6375.700;    0.000;    0.000
787.939; 6360.700;    0.000;    0.000
788.130; 6428.700;    0.000;    0.000
788.321; 6415.700;    0.000;    0.000
788.512; 6415.700;    0.000;    0.000
788.703; 6595.700;    0.000;    0.000
788.894; 6396.700;    0.000;    0.000
789.084; 6448.700;    0.000;    0.000
789.275; 6571.700;    0.000;    0.000
789.466; 6547.700;    0.000;    0.000
789.657; 6643.700;    0.000;    0.000
789.848; 6610.700;    0.000;    0.000
790.039; 6534.700;    0.000;    0.000
790.229; 6541.700;    0.000;    0.000
790.420; 6559.700;    0.000;    0.000
790.611; 6607.700;    0.000;    0.000
790.801; 6579.700;    0.000;    0.000
790.992; 6491.700;    0.000;    0.000
791.183; 6608.700;    0.000;    0.000
791.373; 6541.700;    0.000;    0.000
791.564; 6491.700;    0.000;    0.000
791.755; 6433.700;    0.000;    0.000
791.945; 6513.700;    0.000;    0.000
792.136; 6468.700;    0.000;    0.000
792.326; 6484.700;    0.000;    0.000
792.517; 6507.700;    0.000;    0.000
792.707; 6504.700;    0.000;    0.000
792.898; 6504.700;    0.000;    0.000
793.088; 6540.700;    0.000;    0.000
793.279; 6684.700;    0.000;    0.000
793.469; 6775.700;    0.000;    0.000
793.660; 6872.700;    0.000;    0.000
793.850; 6892.700;    0.000;    0.000
794.040; 7218.700;    0.000;    0.000
794.231; 7430.700;    0.000;    0.000
794.421; 8017.700;    0.000;    0.000
794.611; 8742.700;    0.000;    0.000
794.802; 9614.700;    0.000;    0.000
794.992;10061.700;    0.000;    0.000
795.182; 9999.700;    0.000;    0.000
795.372; 9484.700;    0.000;    0.000
795.563; 8929.700;    0.000;    0.000
795.753; 8247.700;    0.000;    0.000
795.943; 7890.700;    0.000;    0.000
796.133; 7323.700;    0.000;    0.000
796.323; 7192.700;    0.000;    0.000
796.513; 7022.700;    0.000;    0.000
796.703; 6917.700;    0.000;    0.000
796.893; 6719.700;    0.000;    0.000
797.083; 6731.700;    0.000;    0.000
797.273; 6632.700;    0.000;    0.000
797.463; 6695.700;    0.000;    0.000
797.653; 6436.700;    0.000;    0.000
797.843; 6495.700;    0.000;    0.000
798.033; 6227.700;    0.000;    0.000
798.223; 6174.700;    0.000;    0.000
798.413; 6117.700;    0.000;    0.000
798.603; 6094.700;    0.000;    0.000
798.793; 5859.700;    0.000;    0.000
798.983; 5907.700;    0.000;    0.000
799.172; 5835.700;    0.000;    0.000
799.362; 5826.700;    0.000;    0.000
799.552; 5625.700;    0.000;    0.000
799.742; 5667.700;    0.000;    0.000
799.932; 5607.700;    0.000;    0.000
800.121; 5665.700;    0.000;    0.000
800.311; 5681.700;    0.000;    0.000
800.501; 5560.700;    0.000;    0.000
800.690; 5643.700;    0.000;    0.000
800.880; 5489.700;    0.000;    0.000
801.070; 5488.700;    0.000;    0.000
801.259; 5486.700;    0.000;    0.000
801.449; 5474.700;    0.000;    0.000
801.638; 5535.700;    0.000;    0.000
801.828; 5312.700;    0.000;    0.000
802.017; 5468.700;    0.000;    0.000
802.207; 5351.700;    0.000;    0.000
802.396; 5457.700;    0.000;    0.000
802.586; 5241.700;    0.000;    0.000
802.775; 5426.700;    0.000;    0.000
802.965; 5366.700;    0.000;    0.000
803.154; 5385.700;    0.000;    0.000
803.343; 5402.700;    0.000;    0.000
803.533; 5334.700;    0.000;    0.000
803.722; 5265.700;    0.000;    0.000
803.911; 5303.700;    0.000;    0.000
804.101; 5246.700;    0.000;    0.000
804.290; 5223.700;    0.000;    0.000
804.479; 5285.700;    0.000;    0.000
804.668; 5292.700;    0.000;    0.000
804.857; 5285.700;    0.000;    0.000
805.047; 5299.700;    0.000;    0.000
805.236; 5259.700;    0.000;    0.000
805.425; 5246.700;    0.000;    0.000
805.614; 5232.700;    0.000;    0.000
805.803; 5388.700;    0.000;    0.000
805.992; 5105.700;    0.000;    0.000
806.181; 5137.700;    0.000;    0.000
806.370; 5143.700;    0.000;    0.000
806.559; 5062.700;    0.000;    0.000
806.748; 5134.700;    0.000;    0.000
806.937; 5246.700;    0.000;    0.000
807.126; 5188.700;    0.000;    0.000
807.315; 5127.700;    0.000;    0.000
807.504; 5059.700;    0.000;    0.000
807.693; 5191.700;    0.000;    0.000
807.882; 5167.700;    0.000;    0.000
808.071; 5198.700;    0.000;    0.000
808.260; 5143.700;    0.000;    0.000
808.448; 5177.700;    0.000;    0.000
808.637; 5181.700;    0.000;    0.000
808.826; 5181.700;    0.000;    0.000
809.015; 5265.700;    0.000;    0.000
809.203; 5293.700;    0.000;    0.000
809.392; 5168.700;    0.000;    0.000
809.581; 5344.700;    0.000;    0.000
809.770; 5104.700;    0.000;    0.000
809.958; 5364.700;    0.000;    0.000
810.147; 5336.700;    0.000;    0.000
810.335; 5366.700;    0.000;    0.000
810.524; 5284.700;    0.000;    0.000
810.713; 5320.700;    0.000;    0.000
810.901; 5400.700;    0.000;    0.000
811.090; 5522.700;    0.000;    0.000
811.278; 5349.700;    0.000;    0.000
811.467; 5438.700;    0.000;    0.000
811.655; 5646.700;    0.000;    0.000
811.844; 5544.700;    0.000;    0.000
812.032; 5455.700;    0.000;    0.000
812.220; 5494.700;    0.000;    0.000
812.409; 5611.700;    0.000;    0.000
812.597; 5629.700;    0.000;    0.000
812.785; 5724.700;    0.000;    0.000
812.974; 5653.700;    0.000;    0.000
813.162; 5667.700;    0.000;    0.000
813.350; 5591.700;    0.000;    0.000
813.539; 5714.700;    0.000;    0.000
813.727; 5690.700;    0.000;    0.000
813.915; 5806.700;    0.000;    0.000
814.103; 5767.700;    0.000;    0.000
814.291; 5971.700;    0.000;    0.000
814.479; 5865.700;    0.000;    0.000
814.668; 6015.700;    0.000;    0.000
814.856; 6083.700;    0.000;    0.000
815.044; 6109.700;    0.000;    0.000
815.232; 6173.700;    0.000;    0.000
815.420; 6366.700;    0.000;    0.000
815.608; 6349.700;    0.000;    0.000
815.796; 6507.700;    0.000;    0.000
815.984; 6598.700;    0.000;    0.000
816.172; 6834.700;    0.000;    0.000
816.360; 7023.700;    0.000;    0.000
816.548; 7108.700;    0.000;    0.000
816.736; 7469.700;    0.000;    0.000
816.924; 7841.700;    0.000;    0.000
817.111; 8101.700;    0.000;    0.000
817.299; 8741.700;    0.000;    0.000
817.487; 9196.700;    0.000;    0.000
817.675;10256.700;    0.000;    0.000
817.863;11826.700;    0.000;    0.000
818.050;16830.699;    0.000;    0.000
818.238;26822.699;    0.000;    0.000
818.426;29434.699;    0.000;    0.000
818.613;23956.699;    0.000;    0.000
818.801;20555.699;    0.000;    0.000
818.989;20343.699;    0.000;    0.000
819.176;23051.699;    0.000;    0.000
819.364;32709.699;    0.000;    0.000
819.552;35982.699;    0.000;    0.000
819.739;28783.699;    0.000;    0.000
819.927;22121.699;    0.000;    0.000
820.114;19019.699;    0.000;    0.000
820.302;17268.699;    0.000;    0.000
820.489;15863.700;    0.000;    0.000
820.677;14757.700;    0.000;    0.000
820.864;14428.700;    0.000;    0.000
821.052;14777.700;    0.000;    0.000
821.239;14834.700;    0.000;    0.000
821.426;15651.700;    0.000;    0.000
821.614;17546.699;    0.000;    0.000
821.801;17454.699;    0.000;    0.000
821.988;16140.700;    0.000;    0.000
822.176;15833.700;    0.000;    0.000
822.363;15565.700;    0.000;    0.000
822.550;14439.700;    0.000;    0.000
822.737;13193.700;    0.000;    0.000
822.924;12338.700;    0.000;    0.000
823.112;11698.700;    0.000;    0.000
823.299;11280.700;    0.000;    0.000
823.486;10821.700;    0.000;    0.000
823.673;10234.700;    0.000;    0.000
823.860;10095.700;    0.000;    0.000
824.047;10407.700;    0.000;    0.000
824.234;11094.700;    0.000;    0.000
824.421;10716.700;    0.000;    0.000
824.608; 9829.700;    0.000;    0.000
824.795; 9177.700;    0.000;    0.000
824.982; 8695.700;    0.000;    0.000
825.169; 8085.700;    0.000;    0.000
825.356; 7928.700;    0.000;    0.000
825.543; 7620.700;    0.000;    0.000
825.730; 7328.700;    0.000;    0.000
825.917; 7207.700;    0.000;    0.000
826.104; 7060.700;    0.000;    0.000
826.290; 6788.700;    0.000;    0.000
826.477; 6676.700;    0.000;    0.000
826.664; 6468.700;    0.000;    0.000
826.851; 6263.700;    0.000;    0.000
827.038; 6272.700;    0.000;    0.000
827.224; 6190.700;    0.000;    0.000
827.411; 5978.700;    0.000;    0.000
827.598; 5964.700;    0.000;    0.000
827.784; 5947.700;    0.000;    0.000
827.971; 5804.700;    0.000;    0.000
828.157; 5669.700;    0.000;    0.000
828.344; 5575.700;    0.000;    0.000
828.531; 5552.700;    0.000;    0.000
828.717; 5573.700;    0.000;    0.000
828.904; 5332.700;    0.000;    0.000
829.090; 5444.700;    0.000;    0.000
829.277; 5411.700;    0.000;    0.000
829.463; 5246.700;    0.000;    0.000
829.650; 5268.700;    0.000;    0.000
829.836; 5066.700;    0.000;    0.000
830.022; 5088.700;    0.000;    0.000
830.209; 5107.700;    0.000;    0.000
830.395; 5023.700;    0.000;    0.000
830.581; 4980.700;    0.000;    0.000
830.768; 4923.700;    0.000;    0.000
830.954; 4908.700;    0.000;    0.000
831.140; 4723.700;    0.000;    0.000
831.327; 4685.700;    0.000;    0.000
831.513; 4758.700;    0.000;    0.000
831.699; 4607.700;    0.000;    0.000
831.885; 4766.700;    0.000;    0.000
832.071; 4701.700;    0.000;    0.000
832.257; 4654.700;    0.000;    0.000
832.444; 4627.700;    0.000;    0.000
832.630; 4531.700;    0.000;    0.000
832.816; 4623.700;    0.000;    0.000
833.002; 4480.700;    0.000;    0.000
833.188; 4579.700;    0.000;    0.000
833.374; 4525.700;    0.000;    0.000
833.560; 4601.700;    0.000;    0.000
833.746; 4407.700;    0.000;    0.000
833.932; 4330.700;    0.000;    0.000
834.118; 4413.700;    0.000;    0.000
834.303; 4380.700;    0.000;    0.000
834.489; 4322.700;    0.000;    0.000
834.675; 4339.700;    0.000;    0.000
834.861; 4247.700;    0.000;    0.000
835.047; 4268.700;    0.000;    0.000
835.233; 4184.700;    0.000;    0.000
835.418; 4277.700;    0.000;    0.000
835.604; 4217.700;    0.000;    0.000
835.790; 4231.700;    0.000;    0.000
835.976; 4176.700;    0.000;    0.000
836.161; 4320.700;    0.000;    0.000
836.347; 4206.700;    0.000;    0.000
836.533; 4230.700;    0.000;    0.000
836.718; 4161.700;    0.000;    0.000
836.904; 4202.700;    0.000;    0.000
837.089; 4260.700;    0.000;    0.000
837.275; 4111.700;    0.000;    0.000
837.460; 4117.700;    0.000;    0.000
837.646; 4178.700;    0.000;    0.000
837.831; 4119.700;    0.000;    0.000
838.017; 4128.700;    0.000;    0.000
838.202; 4179.700;    0.000;    0.000
838.388; 4144.700;    0.000;    0.000
838.573; 4135.700;    0.000;    0.000
838.759; 4173.700;    0.000;    0.000
838.944; 4140.700;    0.000;    0.000
839.129; 4077.700;    0.000;    0.000
839.315; 4144.700;    0.000;    0.000
839.500; 4189.700;    0.000;    0.000
839.685; 4106.700;    0.000;    0.000
839.870; 4176.700;    0.000;    0.000
840.056; 4026.700;    0.000;    0.000
840.241; 4142.700;    0.000;    0.000
840.426; 4246.700;    0.000;    0.000
840.611; 4233.700;    0.000;    0.000
840.796; 4174.700;    0.000;    0.000
840.981; 4231.700;    0.000;    0.000
841.166; 4317.700;    0.000;    0.000
841.352; 4309.700;    0.000;    0.000
841.537; 4328.700;    0.000;    0.000
841.722; 4361.700;    0.000;    0.000
841.907; 4311.700;    0.000;    0.000
842.092; 4422.700;    0.000;    0.000
842.277; 4482.700;    0.000;    0.000
842.461; 4600.700;    0.000;    0.000
842.646; 4732.700;    0.000;    0.000
842.831; 4717.700;    0.000;    0.000
843.016; 4879.700;    0.000;    0.000
843.201; 4901.700;    0.000;    0.000
843.386; 5098.700;    0.000;    0.000
843.571; 5318.700;    0.000;    0.000
843.755; 5628.700;    0.000;    0.000
843.940; 6031.700;    0.000;    0.000
844.125; 6776.700;    0.000;    0.000
844.310; 7991.700;    0.000;    0.000
844.494;10549.700;    0.000;    0.000
844.679;12620.700;    0.000;    0.000
844.864;12019.700;    0.000;    0.000
845.048;10154.700;    0.000;    0.000
845.233; 8703.700;    0.000;    0.000
845.418; 7668.700;    0.000;    0.000
845.602; 7136.700;    0.000;    0.000
845.787; 6443.700;    0.000;    0.000
845.971; 5985.700;    0.000;    0.000
846.156; 5633.700;    0.000;    0.000
846.340; 5548.700;    0.000;    0.000
846.525; 5252.700;    0.000;    0.000
846.709; 5041.700;    0.000;    0.000
846.893; 4932.700;    0.000;    0.000
847.078; 4680.700;    0.000;    0.000
847.262; 4650.700;    0.000;    0.000
847.447; 4504.700;    0.000;    0.000
847.631; 4518.700;    0.000;    0.000
847.815; 4262.700;    0.000;    0.000
848.000; 4266.700;    0.000;    0.000
848.184; 4165.700;    0.000;    0.000
848.368; 4104.700;    0.000;    0.000
848.552; 4161.700;    0.000;    0.000
848.736; 4059.700;    0.000;    0.000
848.921; 4039.700;    0.000;    0.000
849.105; 4004.700;    0.000;    0.000
849.289; 3848.700;    0.000;    0.000
849.473; 3924.700;    0.000;    0.000
849.657; 3817.700;    0.000;    0.000
849.841; 3831.700;    0.000;    0.000
850.025; 3854.700;    0.000;    0.000
850.209; 3830.700;    0.000;    0.000
850.393; 3752.700;    0.000;    0.000
850.577; 3626.700;    0.000;    0.000
850.761; 3675.700;    0.000;    0.000
850.945; 3631.700;    0.000;    0.000
851.129; 3719.700;    0.000;    0.000
851.313; 3728.700;    0.000;    0.000
851.497; 3683.700;    0.000;    0.000
851.680; 3649.700;    0.000;    0.000
851.864; 3655.700;    0.000;    0.000
852.048; 3605.700;    0.000;    0.000
852.232; 3676.700;    0.000;    0.000
852.416; 3725.700;    0.000;    0.000
852.599; 3520.700;    0.000;    0.000
852.783; 3549.700;    0.000;    0.000
852.967; 3560.700;    0.000;    0.000
853.150; 3502.700;    0.000;    0.000
853.334; 3516.700;    0.000;    0.000
853.518; 3612.700;    0.000;    0.000
853.701; 3510.700;    0.000;    0.000
853.885; 3544.700;    0.000;    0.000
854.068; 3537.700;    0.000;    0.000
854.252; 3404.700;    0.000;    0.000
854.435; 3464.700;    0.000;    0.000
854.619; 3419.700;    0.000;    0.000
854.802; 3514.700;    0.000;    0.000
854.986; 3524.700;    0.000;    0.000
855.169; 3458.700;    0.000;    0.000
855.353; 3532.700;    0.000;    0.000
855.536; 3499.700;    0.000;    0.000
855.719; 3561.700;    0.000;    0.000
855.903; 3584.700;    0.000;    0.000
856.086; 3437.700;    0.000;    0.000
856.269; 3558.700;    0.000;    0.000
856.452; 3633.700;    0.000;    0.000
856.636; 3662.700;    0.000;    0.000
856.819; 3842.700;    0.000;    0.000
857.002; 3934.700;    0.000;    0.000
857.185; 3869.700;    0.000;    0.000
857.368; 3750.700;    0.000;    0.000
857.552; 3599.700;    0.000;    0.000
857.735; 3675.700;    0.000;    0.000
857.918; 3703.700;    0.000;    0.000
858.101; 3690.700;    0.000;    0.000
858.284; 3673.700;    0.000;    0.000
858.467; 3843.700;    0.000;    0.000
858.650; 3741.700;    0.000;    0.000
858.833; 3809.700;    0.000;    0.000
859.016; 3899.700;    0.000;    0.000
859.199; 4034.700;    0.000;    0.000
859.382; 4353.700;    0.000;    0.000
859.564; 4580.700;    0.000;    0.000
859.747; 4380.700;    0.000;    0.000
859.930; 4211.700;    0.000;    0.000
860.113; 4089.700;    0.000;    0.000
860.296; 4052.700;    0.000;    0.000
860.478; 4062.700;    0.000;    0.000
860.661; 3984.700;    0.000;    0.000
860.844; 3955.700;    0.000;    0.000
861.027; 3916.700;    0.000;    0.000
861.209; 3944.700;    0.000;    0.000
861.392; 3867.700;    0.000;    0.000
861.575; 4014.700;    0.000;    0.000
861.757; 3949.700;    0.000;    0.000
861.940; 4134.700;    0.000;    0.000
862.122; 4130.700;    0.000;    0.000
862.305; 4145.700;    0.000;    0.000
862.487; 4443.700;    0.000;    0.000
862.670; 4672.700;    0.000;    0.000
862.852; 5395.700;    0.000;    0.000
863.035; 5919.700;    0.000;    0.000
863.217; 5916.700;    0.000;    0.000
863.400; 5379.700;    0.000;    0.000
863.582; 5028.700;    0.000;    0.000
863.764; 4945.700;    0.000;    0.000
863.947; 4793.700;    0.000;    0.000
864.129; 4578.700;    0.000;    0.000
864.311; 4643.700;    0.000;    0.000
864.493; 4558.700;    0.000;    0.000
864.676; 4482.700;    0.000;    0.000
864.858; 4492.700;    0.000;    0.000
865.040; 4421.700;    0.000;    0.000
865.222; 4507.700;    0.000;    0.000
865.404; 4563.700;    0.000;    0.000
865.587; 4773.700;    0.000;    0.000
865.769; 4810.700;    0.000;    0.000
865.951; 4782.700;    0.000;    0.000
866.133; 4755.700;    0.000;    0.000
866.315; 4823.700;    0.000;    0.000
866.497; 4918.700;    0.000;    0.000
866.679; 4945.700;    0.000;    0.000
866.861; 5193.700;    0.000;    0.000
867.043; 5347.700;    0.000;    0.000
867.225; 5803.700;    0.000;    0.000
867.407; 6259.700;    0.000;    0.000
867.589; 6988.700;    0.000;    0.000
867.770; 8854.700;    0.000;    0.000
867.952;11653.700;    0.000;    0.000
868.134;13513.700;    0.000;    0.000
868.316;13409.700;    0.000;    0.000
868.498;12744.700;    0.000;    0.000
868.679;11107.700;    0.000;    0.000
868.861; 9436.700;    0.000;    0.000
869.043; 8164.700;    0.000;    0.000
869.224; 7314.700;    0.000;    0.000
869.406; 6952.700;    0.000;    0.000
869.588; 6567.700;    0.000;    0.000
869.769; 6158.700;    0.000;    0.000
869.951; 6286.700;    0.000;    0.000
870.132; 6245.700;    0.000;    0.000
870.314; 6690.700;    0.000;    0.000
870.495; 6643.700;    0.000;    0.000
870.677; 6313.700;    0.000;    0.000
870.858; 6189.700;    0.000;    0.000
871.040; 6602.700;    0.000;    0.000
871.221; 6885.700;    0.000;    0.000
871.403; 6485.700;    0.000;    0.000
871.584; 6200.700;    0.000;    0.000
871.765; 6350.700;    0.000;    0.000
871.947; 6321.700;    0.000;    0.000
872.128; 5886.700;    0.000;    0.000
872.309; 5476.700;    0.000;    0.000
872.491; 4942.700;    0.000;    0.000
872.672; 4761.700;    0.000;    0.000
872.853; 4718.700;    0.000;    0.000
873.034; 4467.700;    0.000;    0.000
873.215; 4438.700;    0.000;    0.000
873.396; 4155.700;    0.000;    0.000
873.578; 4084.700;    0.000;    0.000
873.759; 3907.700;    0.000;    0.000
873.940; 3969.700;    0.000;    0.000
874.121; 3733.700;    0.000;    0.000
874.302; 3775.700;    0.000;    0.000
874.483; 3638.700;    0.000;    0.000
874.664; 3771.700;    0.000;    0.000
874.845; 3696.700;    0.000;    0.000
875.026; 3618.700;    0.000;    0.000
875.207; 3483.700;    0.000;    0.000
875.388; 3531.700;    0.000;    0.000
875.568; 3405.700;    0.000;    0.000
875.749; 3356.700;    0.000;    0.000
875.930; 3359.700;    0.000;    0.000
876.111; 3253.700;    0.000;    0.000
876.292; 3393.700;    0.000;    0.000
876.472; 3324.700;    0.000;    0.000
876.653; 3304.700;    0.000;    0.000
876.834; 3241.700;    0.000;    0.000
877.015; 3186.700;    0.000;    0.000
877.195; 3256.700;    0.000;    0.000
877.376; 3046.700;    0.000;    0.000
877.556; 3152.700;    0.000;    0.000
877.737; 3026.700;    0.000;    0.000
877.918; 3109.700;    0.000;    0.000
878.098; 2958.700;    0.000;    0.000
878.279; 3083.700;    0.000;    0.000
878.459; 2976.700;    0.000;    0.000
878.640; 3077.700;    0.000;    0.000
878.820; 3036.700;    0.000;    0.000
879.000; 2999.700;    0.000;    0.000
879.181; 3091.700;    0.000;    0.000
879.361; 3048.700;    0.000;    0.000
879.542; 3088.700;    0.000;    0.000
879.722; 3036.700;    0.000;    0.000
879.902; 3139.700;    0.000;    0.000
880.083; 3135.700;    0.000;    0.000
880.263; 3162.700;    0.000;    0.000
880.443; 3588.700;    0.000;    0.000
880.623; 4150.700;    0.000;    0.000
880.803; 4147.700;    0.000;    0.000
880.984; 3845.700;    0.000;    0.000
881.164; 3435.700;    0.000;    0.000
881.344; 3368.700;    0.000;    0.000
881.524; 3369.700;    0.000;    0.000
881.704; 3337.700;    0.000;    0.000
881.884; 3388.700;    0.000;    0.000
882.064; 3477.700;    0.000;    0.000
882.244; 3518.700;    0.000;    0.000
882.424; 3314.700;    0.000;    0.000
882.604; 3252.700;    0.000;    0.000
882.784; 3236.700;    0.000;    0.000
882.964; 3084.700;    0.000;    0.000
883.144; 3065.700;    0.000;    0.000
883.324; 3119.700;    0.000;    0.000
883.504; 3120.700;    0.000;    0.000
883.683; 3060.700;    0.000;    0.000
883.863; 2928.700;    0.000;    0.000
884.043; 2916.700;    0.000;    0.000
884.223; 2897.700;    0.000;    0.000
884.402; 2964.700;    0.000;    0.000
884.582; 2838.700;    0.000;    0.000
884.762; 2934.700;    0.000;    0.000
884.941; 2854.700;    0.000;    0.000
885.121; 2870.700;    0.000;    0.000
885.301; 2916.700;    0.000;    0.000
885.480; 2847.700;    0.000;    0.000
885.660; 2833.700;    0.000;    0.000
885.839; 2855.700;    0.000;    0.000
886.019; 2867.700;    0.000;    0.000
886.198; 2728.700;    0.000;    0.000
886.378; 2697.700;    0.000;    0.000
886.557; 2794.700;    0.000;    0.000
886.737; 2737.700;    0.000;    0.000
886.916; 2737.700;    0.000;    0.000
887.095; 2786.700;    0.000;    0.000
887.275; 2856.700;    0.000;    0.000
887.454; 2723.700;    0.000;    0.000
887.633; 2778.700;    0.000;    0.000
887.813; 2704.700;    0.000;    0.000
887.992; 2799.700;    0.000;    0.000
888.171; 2726.700;    0.000;    0.000
888.350; 2775.700;    0.000;    0.000
888.530; 2741.700;    0.000;    0.000
888.709; 2672.700;    0.000;    0.000
888.888; 2773.700;    0.000;    0.000
889.067; 2715.700;    0.000;    0.000
889.246; 2813.700;    0.000;    0.000
889.425; 2814.700;    0.000;    0.000
889.604; 2752.700;    0.000;    0.000
889.783; 2708.700;    0.000;    0.000
889.962; 2699.700;    0.000;    0.000
890.141; 2678.700;    0.000;    0.000
890.320; 2749.700;    0.000;    0.000
890.499; 2654.700;    0.000;    0.000
890.678; 2762.700;    0.000;    0.000
890.857; 2667.700;    0.000;    0.000
891.036; 2587.700;    0.000;    0.000
891.214; 2622.700;    0.000;    0.000
891.393; 2709.700;    0.000;    0.000
891.572; 2671.700;    0.000;    0.000
891.751; 2775.700;    0.000;    0.000
891.930; 2663.700;    0.000;    0.000
892.108; 2659.700;    0.000;    0.000
892.287; 2656.700;    0.000;    0.000
892.466; 2705.700;    0.000;    0.000
892.644; 2621.700;    0.000;    0.000
892.823; 2689.700;    0.000;    0.000
893.001; 2641.700;    0.000;    0.000
893.180; 2662.700;    0.000;    0.000
893.359; 2596.700;    0.000;    0.000
893.537; 2612.700;    0.000;    0.000
893.716; 2650.700;    0.000;    0.000
893.894; 2630.700;    0.000;    0.000
894.073; 2693.700;    0.000;    0.000
894.251; 2630.700;    0.000;    0.000
894.429; 2590.700;    0.000;    0.000
894.608; 2563.700;    0.000;    0.000
894.786; 2561.700;    0.000;    0.000
894.964; 2598.700;    0.000;    0.000
895.143; 2627.700;    0.000;    0.000
895.321; 2689.700;    0.000;    0.000
895.499; 2587.700;    0.000;    0.000
895.677; 2578.700;    0.000;    0.000
895.856; 2685.700;    0.000;    0.000
896.034; 2615.700;    0.000;    0.000
896.212; 2660.700;    0.000;    0.000
896.390; 2681.700;    0.000;    0.000
896.568; 2585.700;    0.000;    0.000
896.746; 2666.700;    0.000;    0.000
896.924; 2663.700;    0.000;    0.000
897.102; 2664.700;    0.000;    0.000
897.280; 2674.700;    0.000;    0.000
897.458; 2566.700;    0.000;    0.000
897.636; 2571.700;    0.000;    0.000
897.814; 2657.700;    0.000;    0.000
897.992; 2718.700;    0.000;    0.000
898.170; 2699.700;    0.000;    0.000
898.348; 2707.700;    0.000;    0.000
898.526; 2657.700;    0.000;    0.000
898.704; 2720.700;    0.000;    0.000
898.882; 2747.700;    0.000;    0.000
899.059; 2679.700;    0.000;    0.000
899.237; 2699.700;    0.000;    0.000
899.415; 2698.700;    0.000;    0.000
899.593; 2770.700;    0.000;    0.000
899.770; 2727.700;    0.000;    0.000
899.948; 2763.700;    0.000;    0.000
900.125; 2737.700;    0.000;    0.000
900.303; 2831.700;    0.000;    0.000
900.481; 2777.700;    0.000;    0.000
900.658; 2773.700;    0.000;    0.000
900.836; 2709.700;    0.000;    0.000
901.013; 2786.700;    0.000;    0.000
901.191; 2863.700;    0.000;    0.000
901.368; 2858.700;    0.000;    0.000
901.546; 2952.700;    0.000;    0.000
901.723; 2960.700;    0.000;    0.000
901.901; 2995.700;    0.000;    0.000
902.078; 3063.700;    0.000;    0.000
902.255; 3009.700;    0.000;    0.000
902.433; 3060.700;    0.000;    0.000
902.610; 3112.700;    0.000;    0.000
902.787; 3063.700;    0.000;    0.000
902.964; 3153.700;    0.000;    0.000
903.142; 3140.700;    0.000;    0.000
903.319; 3290.700;    0.000;    0.000
903.496; 3262.700;    0.000;    0.000
903.673; 3311.700;    0.000;    0.000
903.850; 3306.700;    0.000;    0.000
904.027; 3444.700;    0.000;    0.000
904.204; 3527.700;    0.000;    0.000
904.381; 3901.700;    0.000;    0.000
904.558; 4295.700;    0.000;    0.000
904.735; 4545.700;    0.000;    0.000
904.912; 4732.700;    0.000;    0.000
905.089; 4549.700;    0.000;    0.000
905.266; 4316.700;    0.000;    0.000
905.443; 4009.700;    0.000;    0.000
905.620; 3876.700;    0.000;    0.000
905.797; 3774.700;    0.000;    0.000
905.974; 3712.700;    0.000;    0.000
906.151; 3518.700;    0.000;    0.000
906.327; 3580.700;    0.000;    0.000
906.504; 3536.700;    0.000;    0.000
906.681; 3501.700;    0.000;    0.000
906.858; 3430.700;    0.000;    0.000
907.034; 3347.700;    0.000;    0.000
907.211; 3242.700;    0.000;    0.000
907.388; 3248.700;    0.000;    0.000
907.564; 3120.700;    0.000;    0.000
907.741; 3159.700;    0.000;    0.000
907.917; 3093.700;    0.000;    0.000
908.094; 3115.700;    0.000;    0.000
908.271; 3000.700;    0.000;    0.000
908.447; 2972.700;    0.000;    0.000
908.623; 2985.700;    0.000;    0.000
908.800; 3018.700;    0.000;    0.000
908.976; 2997.700;    0.000;    0.000
909.153; 2914.700;    0.000;    0.000
909.329; 2866.700;    0.000;    0.000
909.505; 2942.700;    0.000;    0.000
909.682; 2957.700;    0.000;    0.000
909.858; 2770.700;    0.000;    0.000
910.034; 2941.700;    0.000;    0.000
910.211; 2857.700;    0.000;    0.000
910.387; 2851.700;    0.000;    0.000
910.563; 2892.700;    0.000;    0.000
910.739; 2849.700;    0.000;    0.000
910.915; 2824.700;    0.000;    0.000
911.091; 2860.700;    0.000;    0.000
911.268; 2829.700;    0.000;    0.000
911.444; 2832.700;    0.000;    0.000
911.620; 2910.700;    0.000;    0.000
911.796; 2814.700;    0.000;    0.000
911.972; 2840.700;    0.000;    0.000
912.148; 2780.700;    0.000;    0.000
912.324; 2710.700;    0.000;    0.000
912.500; 2801.700;    0.000;    0.000
912.676; 2769.700;    0.000;    0.000
912.851; 2758.700;    0.000;    0.000
913.027; 2772.700;    0.000;    0.000
913.203; 2827.700;    0.000;    0.000
913.379; 2816.700;    0.000;    0.000
913.555; 2756.700;    0.000;    0.000
913.730; 2751.700;    0.000;    0.000
913.906; 2740.700;    0.000;    0.000
914.082; 2723.700;    0.000;    0.000
914.258; 2822.700;    0.000;    0.000
914.433; 2810.700;    0.000;    0.000
914.609; 2771.700;    0.000;    0.000
914.784; 2748.700;    0.000;    0.000
914.960; 2755.700;    0.000;    0.000
915.136; 2775.700;    0.000;    0.000
915.311; 2795.700;    0.000;    0.000
915.487; 2749.700;    0.000;    0.000
915.662; 2880.700;    0.000;    0.000
915.838; 2763.700;    0.000;    0.000
916.013; 2821.700;    0.000;    0.000
916.189; 2791.700;    0.000;    0.000
916.364; 2842.700;    0.000;    0.000
916.539; 2814.700;    0.000;    0.000
916.715; 2755.700;    0.000;    0.000
916.890; 2798.700;    0.000;    0.000
917.065; 2817.700;    0.000;    0.000
917.240; 2821.700;    0.000;    0.000
917.416; 2871.700;    0.000;    0.000
917.591; 2795.700;    0.000;    0.000
917.766; 2863.700;    0.000;    0.000
917.941; 2800.700;    0.000;    0.000
918.116; 2858.700;    0.000;    0.000
918.292; 2869.700;    0.000;    0.000
918.467; 2871.700;    0.000;    0.000
918.642; 2809.700;    0.000;    0.000
918.817; 2850.700;    0.000;    0.000
918.992; 2815.700;    0.000;    0.000
919.167; 2936.700;    0.000;    0.000
919.342; 2845.700;    0.000;    0.000
919.517; 2904.700;    0.000;    0.000
919.692; 2919.700;    0.000;    0.000
919.867; 2991.700;    0.000;    0.000
920.041; 3040.700;    0.000;    0.000
920.216; 3062.700;    0.000;    0.000
920.391; 3112.700;    0.000;    0.000
920.566; 3123.700;    0.000;    0.000
920.741; 3195.700;    0.000;    0.000
920.915; 3452.700;    0.000;    0.000
921.090; 3709.700;    0.000;    0.000
921.265; 4182.700;    0.000;    0.000
921.439; 4405.700;    0.000;    0.000
921.614; 4061.700;    0.000;    0.000
921.789; 3780.700;    0.000;    0.000
921.963; 3630.700;    0.000;    0.000
922.138; 3617.700;    0.000;    0.000
922.312; 3492.700;    0.000;    0.000
922.487; 3592.700;    0.000;    0.000
922.661; 3740.700;    0.000;    0.000
922.836; 3979.700;    0.000;    0.000
923.010; 3906.700;    0.000;    0.000
923.185; 3688.700;    0.000;    0.000
923.359; 3576.700;    0.000;    0.000
923.534; 3664.700;    0.000;    0.000
923.708; 3697.700;    0.000;    0.000
923.882; 3739.700;    0.000;    0.000
924.057; 3662.700;    0.000;    0.000
924.231; 3548.700;    0.000;    0.000
924.405; 3568.700;    0.000;    0.000
924.579; 3442.700;    0.000;    0.000
924.753; 3383.700;    0.000;    0.000
924.928; 3441.700;    0.000;    0.000
925.102; 3466.700;    0.000;    0.000
925.276; 3430.700;    0.000;    0.000
925.450; 3319.700;    0.000;    0.000
925.624; 3445.700;    0.000;    0.000
925.798; 3576.700;    0.000;    0.000
925.972; 3611.700;    0.000;    0.000
926.146; 3811.700;    0.000;    0.000
926.320; 3881.700;    0.000;    0.000
926.494; 4274.700;    0.000;    0.000
926.668; 4304.700;    0.000;    0.000
926.842; 4401.700;    0.000;    0.000
927.016; 4447.700;    0.000;    0.000
927.190; 4428.700;    0.000;    0.000
927.363; 4193.700;    0.000;    0.000
927.537; 4110.700;    0.000;    0.000
927.711; 4156.700;    0.000;    0.000
927.885; 3997.700;    0.000;    0.000
928.058; 3862.700;    0.000;    0.000
928.232; 3888.700;    0.000;    0.000
928.406; 3859.700;    0.000;    0.000
928.579; 3700.700;    0.000;    0.000
928.753; 3590.700;    0.000;    0.000
928.927; 3691.700;    0.000;    0.000
929.100; 3594.700;    0.000;    0.000
929.274; 3469.700;    0.000;    0.000
929.447; 3344.700;    0.000;    0.000
929.621; 3373.700;    0.000;    0.000
929.794; 3307.700;    0.000;    0.000
929.968; 3317.700;    0.000;    0.000
930.141; 3290.700;    0.000;    0.000
930.315; 3166.700;    0.000;    0.000
930.488; 3232.700;    0.000;    0.000
930.661; 3179.700;    0.000;    0.000
930.835; 3186.700;    0.000;    0.000
931.008; 3107.700;    0.000;    0.000
931.181; 3087.700;    0.000;    0.000
931.354; 2994.700;    0.000;    0.000
931.528; 2983.700;    0.000;    0.000
931.701; 2943.700;    0.000;    0.000
931.874; 2963.700;    0.000;    0.000
932.047; 2979.700;    0.000;    0.000
932.220; 2985.700;    0.000;    0.000
932.393; 2809.700;    0.000;    0.000
932.566; 2741.700;    0.000;    0.000
932.739; 2879.700;    0.000;    0.000
932.912; 2841.700;    0.000;    0.000
933.085; 2852.700;    0.000;    0.000
933.258; 2804.700;    0.000;    0.000
933.431; 2756.700;    0.000;    0.000
933.604; 2797.700;    0.000;    0.000
933.777; 2734.700;    0.000;    0.000
933.950; 2788.700;    0.000;    0.000
934.123; 2810.700;    0.000;    0.000
934.296; 2750.700;    0.000;    0.000
934.468; 2722.700;    0.000;    0.000
934.641; 2679.700;    0.000;    0.000
934.814; 2656.700;    0.000;    0.000
934.987; 2611.700;    0.000;    0.000
935.159; 2607.700;    0.000;    0.000
935.332; 2575.700;    0.000;    0.000
935.505; 2551.700;    0.000;    0.000
935.677; 2578.700;    0.000;    0.000
935.850; 2551.700;    0.000;    0.000
936.022; 2605.700;    0.000;    0.000
936.195; 2585.700;    0.000;    0.000
936.367; 2625.700;    0.000;    0.000
936.540; 2629.700;    0.000;    0.000
936.712; 2631.700;    0.000;    0.000
936.885; 2638.700;    0.000;    0.000
937.057; 2660.700;    0.000;    0.000
937.229; 2650.700;    0.000;    0.000
937.402; 2630.700;    0.000;    0.000
937.574; 2697.700;    0.000;    0.000
937.746; 2663.700;    0.000;    0.000
937.919; 2804.700;    0.000;    0.000
938.091; 2907.700;    0.000;    0.000
938.263; 2977.700;    0.000;    0.000
938.435; 3178.700;    0.000;    0.000
938.608; 3629.700;    0.000;    0.000
938.780; 3914.700;    0.000;    0.000
938.952; 3843.700;    0.000;    0.000
939.124; 3936.700;    0.000;    0.000
939.296; 4255.700;    0.000;    0.000
939.468; 4242.700;    0.000;    0.000
939.640; 3847.700;    0.000;    0.000
939.812; 3693.700;    0.000;    0.000
939.984; 3396.700;    0.000;    0.000
940.156; 3193.700;    0.000;    0.000
940.328; 3095.700;    0.000;    0.000
940.500; 2917.700;    0.000;    0.000
940.672; 2832.700;    0.000;    0.000
940.843; 2766.700;    0.000;    0.000
941.015; 2802.700;    0.000;    0.000
941.187; 2723.700;    0.000;    0.000
941.359; 2674.700;    0.000;    0.000
941.531; 2586.700;    0.000;    0.000
941.702; 2689.700;    0.000;    0.000
941.874; 2633.700;    0.000;    0.000
942.046; 2537.700;    0.000;    0.000
942.217; 2473.700;    0.000;    0.000
942.389; 2509.700;    0.000;    0.000
942.560; 2444.700;    0.000;    0.000
942.732; 2470.700;    0.000;    0.000
942.904; 2430.700;    0.000;    0.000
943.075; 2250.700;    0.000;    0.000
943.247; 2390.700;    0.000;    0.000
943.418; 2336.700;    0.000;    0.000
943.589; 2281.700;    0.000;    0.000
943.761; 2285.700;    0.000;    0.000
943.932; 2261.700;    0.000;    0.000
944.104; 2325.700;    0.000;    0.000
944.275; 2322.700;    0.000;    0.000
944.446; 2266.700;    0.000;    0.000
944.617; 2282.700;    0.000;    0.000
944.789; 2284.700;    0.000;    0.000
944.960; 2204.700;    0.000;    0.000
945.131; 2335.700;    0.000;    0.000
945.302; 2267.700;    0.000;    0.000
945.473; 2169.700;    0.000;    0.000
945.645; 2300.700;    0.000;    0.000
945.816; 2228.700;    0.000;    0.000
945.987; 2335.700;    0.000;    0.000
946.158; 2343.700;    0.000;    0.000
946.329; 2346.700;    0.000;    0.000
946.500; 2324.700;    0.000;    0.000
946.671; 2280.700;    0.000;    0.000
946.842; 2273.700;    0.000;    0.000
947.013; 2295.700;    0.000;    0.000
947.183; 2297.700;    0.000;    0.000
947.354; 2316.700;    0.000;    0.000
947.525; 2240.700;    0.000;    0.000
947.696; 2190.700;    0.000;    0.000
947.867; 2215.700;    0.000;    0.000
948.037; 2248.700;    0.000;    0.000
948.208; 2320.700;    0.000;    0.000
948.379; 2212.700;    0.000;    0.000
948.550; 2205.700;    0.000;    0.000
948.720; 2189.700;    0.000;    0.000
948.891; 2246.700;    0.000;    0.000
949.061; 2192.700;    0.000;    0.000
949.232; 2134.700;    0.000;    0.000
949.403; 2200.700;    0.000;    0.000
949.573; 2128.700;    0.000;    0.000
949.744; 2193.700;    0.000;    0.000
949.914; 2132.700;    0.000;    0.000
950.085; 2257.700;    0.000;    0.000
950.255; 2176.700;    0.000;    0.000
950.425; 2196.700;    0.000;    0.000
950.596; 2288.700;    0.000;    0.000
950.766; 2192.700;    0.000;    0.000
950.936; 2254.700;    0.000;    0.000
951.107; 2190.700;    0.000;    0.000
951.277; 2160.700;    0.000;    0.000
951.447; 2184.700;    0.000;    0.000
951.617; 2204.700;    0.000;    0.000
951.788; 2251.700;    0.000;    0.000
951.958; 2097.700;    0.000;    0.000
952.128; 2192.700;    0.000;    0.000
952.298; 2194.700;    0.000;    0.000
952.468; 2230.700;    0.000;    0.000
952.638; 2185.700;    0.000;    0.000
952.808; 2194.700;    0.000;    0.000
952.978; 2168.700;    0.000;    0.000
953.148; 2181.700;    0.000;    0.000
953.318; 2143.700;    0.000;    0.000
953.488; 2136.700;    0.000;    0.000
953.658; 2199.700;    0.000;    0.000
953.828; 2162.700;    0.000;    0.000
953.998; 2114.700;    0.000;    0.000
954.167; 2191.700;    0.000;    0.000
954.337; 2146.700;    0.000;    0.000
954.507; 2167.700;    0.000;    0.000
954.677; 2149.700;    0.000;    0.000
954.846; 2157.700;    0.000;    0.000
955.016; 2159.700;    0.000;    0.000
955.186; 2225.700;    0.000;    0.000
955.355; 2161.700;    0.000;    0.000
955.525; 2168.700;    0.000;    0.000
955.695; 2102.700;    0.000;    0.000
955.864; 2175.700;    0.000;    0.000
956.034; 2150.700;    0.000;    0.000
956.203; 2180.700;    0.000;    0.000
956.373; 2102.700;    0.000;    0.000
956.542; 2043.700;    0.000;    0.000
956.711; 2169.700;    0.000;    0.000
956.881; 2131.700;    0.000;    0.000
957.050; 2190.700;    0.000;    0.000
957.220; 2171.700;    0.000;    0.000
957.389; 2101.700;    0.000;    0.000
957.558; 2094.700;    0.000;    0.000
957.727; 2181.700;    0.000;    0.000
957.897; 2147.700;    0.000;    0.000
958.066; 2087.700;    0.000;    0.000
958.235; 2134.700;    0.000;    0.000
958.404; 2109.700;    0.000;    0.000
958.573; 2104.700;    0.000;    0.000
958.743; 2047.700;    0.000;    0.000
958.912; 2135.700;    0.000;    0.000
959.081; 2147.700;    0.000;    0.000
959.250; 2140.700;    0.000;    0.000
959.419; 2140.700;    0.000;    0.000
959.588; 2177.700;    0.000;    0.000
959.757; 2021.700;    0.000;    0.000
959.926; 2201.700;    0.000;    0.000
960.094; 2070.700;    0.000;    0.000
960.263; 2110.700;    0.000;    0.000
960.432; 2066.700;    0.000;    0.000
960.601; 2050.700;    0.000;    0.000
960.770; 2042.700;    0.000;    0.000
960.939; 2077.700;    0.000;    0.000
961.107; 2009.700;    0.000;    0.000
961.276; 2067.700;    0.000;    0.000
961.445; 2149.700;    0.000;    0.000
961.613; 2113.700;    0.000;    0.000
961.782; 2082.700;    0.000;    0.000
961.951; 2132.700;    0.000;    0.000
962.119; 2093.700;    0.000;    0.000
962.288; 2040.700;    0.000;    0.000
962.456; 2002.700;    0.000;    0.000
962.625; 2053.700;    0.000;    0.000
962.793; 2044.700;    0.000;    0.000
962.962; 2020.700;    0.000;    0.000
963.130; 2020.700;    0.000;    0.000
963.298; 2021.700;    0.000;    0.000
963.467; 2062.700;    0.000;    0.000
963.635; 2018.700;    0.000;    0.000
963.803; 2076.700;    0.000;    0.000
963.972; 2048.700;    0.000;    0.000
964.140; 2056.700;    0.000;    0.000
964.308; 2067.700;    0.000;    0.000
964.477; 2123.700;    0.000;    0.000
964.645; 2084.700;    0.000;    0.000
964.813; 2116.700;    0.000;    0.000
964.981; 2118.700;    0.000;    0.000
965.149; 2159.700;    0.000;    0.000
965.317; 2187.700;    0.000;    0.000
965.485; 2050.700;    0.000;    0.000
965.653; 2130.700;    0.000;    0.000
965.821; 2063.700;    0.000;    0.000
965.989; 2049.700;    0.000;    0.000
966.157; 2069.700;    0.000;    0.000
966.325; 2183.700;    0.000;    0.000
966.493; 2087.700;    0.000;    0.000
966.661; 2085.700;    0.000;    0.000
966.829; 2034.700;    0.000;    0.000
966.996; 2078.700;    0.000;    0.000
967.164; 2121.700;    0.000;    0.000
967.332; 2145.700;    0.000;    0.000
967.500; 2094.700;    0.000;    0.000
967.667; 2045.700;    0.000;    0.000
967.835; 2089.700;    0.000;    0.000
968.003; 2048.700;    0.000;    0.000
968.170; 2044.700;    0.000;    0.000
968.338; 2079.700;    0.000;    0.000
968.505; 2044.700;    0.000;    0.000
968.673; 2122.700;    0.000;    0.000
968.841; 1936.700;    0.000;    0.000
969.008; 2044.700;    0.000;    0.000
969.175; 2027.700;    0.000;    0.000
969.343; 2086.700;    0.000;    0.000
969.510; 1999.700;    0.000;    0.000
969.678; 2028.700;    0.000;    0.000
969.845; 2052.700;    0.000;    0.000
970.012; 2079.700;    0.000;    0.000
970.180; 2005.700;    0.000;    0.000
970.347; 2047.700;    0.000;    0.000
970.514; 2098.700;    0.000;    0.000
970.681; 2002.700;    0.000;    0.000
970.849; 2071.700;    0.000;    0.000
971.016; 2148.700;    0.000;    0.000
971.183; 2059.700;    0.000;    0.000
971.350; 2035.700;    0.000;    0.000
971.517; 2131.700;    0.000;    0.000
971.684; 2141.700;    0.000;    0.000
971.851; 2138.700;    0.000;    0.000
972.018; 2069.700;    0.000;    0.000
972.185; 2159.700;    0.000;    0.000
972.352; 2073.700;    0.000;    0.000
972.519; 2176.700;    0.000;    0.000
972.686; 2083.700;    0.000;    0.000
972.853; 2046.700;    0.000;    0.000
973.020; 2061.700;    0.000;    0.000
973.186; 2144.700;    0.000;    0.000
973.353; 2080.700;    0.000;    0.000
973.520; 1977.700;    0.000;    0.000
973.687; 2039.700;    0.000;    0.000
973.853; 2078.700;    0.000;    0.000
974.020; 2144.700;    0.000;    0.000
974.187; 2062.700;    0.000;    0.000
974.353; 2112.700;    0.000;    0.000
974.520; 1975.700;    0.000;    0.000
974.687; 2041.700;    0.000;    0.000
974.853; 2034.700;    0.000;    0.000
975.020; 2039.700;    0.000;    0.000
975.186; 2048.700;    0.000;    0.000
975.353; 2025.700;    0.000;    0.000
975.519; 2046.700;    0.000;    0.000
975.685; 2073.700;    0.000;    0.000
975.852; 2109.700;    0.000;    0.000
976.018; 2044.700;    0.000;    0.000
976.184; 2086.700;    0.000;    0.000
976.351; 2051.700;    0.000;    0.000
976.517; 2012.700;    0.000;    0.000
976.683; 1978.700;    0.000;    0.000
976.849; 2100.700;    0.000;    0.000
977.016; 1969.700;    0.000;    0.000
977.182; 1959.700;    0.000;    0.000
977.348; 1956.700;    0.000;    0.000
977.514; 1993.700;    0.000;    0.000
977.680; 1958.700;    0.000;    0.000
977.846; 2030.700;    0.000;    0.000
978.012; 1981.700;    0.000;    0.000
978.178; 2060.700;    0.000;    0.000
978.344; 2016.700;    0.000;    0.000
978.510; 1993.700;    0.000;    0.000
978.676; 1947.700;    0.000;    0.000
978.842; 2062.700;    0.000;    0.000
979.008; 1960.700;    0.000;    0.000
979.174; 1970.700;    0.000;    0.000
979.340; 1974.700;    0.000;    0.000
979.505; 2043.700;    0.000;    0.000
979.671; 1965.700;    0.000;    0.000
979.837; 1984.700;    0.000;    0.000
980.003; 2021.700;    0.000;    0.000
980.168; 1983.700;    0.000;    0.000
980.334; 1995.700;    0.000;    0.000
980.499; 1972.700;    0.000;    0.000
980.665; 2014.700;    0.000;    0.000
980.831; 2018.700;    0.000;    0.000
980.996; 2035.700;    0.000;    0.000
981.162; 2139.700;    0.000;    0.000
981.327; 2062.700;    0.000;    0.000
981.493; 2041.700;    0.000;    0.000
981.658; 2019.700;    0.000;    0.000
981.823; 2013.700;    0.000;    0.000
981.989; 2065.700;    0.000;    0.000
982.154; 2091.700;    0.000;    0.000
982.319; 2044.700;    0.000;    0.000
982.485; 2017.700;    0.000;    0.000
982.650; 2098.700;    0.000;    0.000
982.815; 2026.700;    0.000;    0.000
982.980; 2063.700;    0.000;    0.000
983.146; 2092.700;    0.000;    0.000
983.311; 1952.700;    0.000;    0.000
983.476; 2029.700;    0.000;    0.000
983.641; 2005.700;    0.000;    0.000
983.806; 2041.700;    0.000;    0.000
983.971; 2052.700;    0.000;    0.000
984.136; 1958.700;    0.000;    0.000
984.301; 1986.700;    0.000;    0.000
984.466; 2010.700;    0.000;    0.000
984.631; 2068.700;    0.000;    0.000
984.796; 2046.700;    0.000;    0.000
984.961; 2063.700;    0.000;    0.000
985.126; 2049.700;    0.000;    0.000
985.291; 1967.700;    0.000;    0.000
985.455; 2056.700;    0.000;    0.000
985.620; 1927.700;    0.000;    0.000
985.785; 2079.700;    0.000;    0.000
985.950; 2062.700;    0.000;    0.000
986.114; 2027.700;    0.000;    0.000
986.279; 2054.700;    0.000;    0.000
986.444; 2037.700;    0.000;    0.000
986.608; 2001.700;    0.000;    0.000
986.773; 2073.700;    0.000;    0.000
986.937; 2081.700;    0.000;    0.000
987.102; 2153.700;    0.000;    0.000
987.266; 2074.700;    0.000;    0.000
987.431; 2046.700;    0.000;    0.000
987.595; 2106.700;    0.000;    0.000
987.760; 2068.700;    0.000;    0.000
987.924; 2160.700;    0.000;    0.000
988.088; 2109.700;    0.000;    0.000
988.253; 2113.700;    0.000;    0.000
988.417; 2071.700;    0.000;    0.000
988.581; 2066.700;    0.000;    0.000
988.746; 2038.700;    0.000;    0.000
988.910; 2074.700;    0.000;    0.000
989.074; 2032.700;    0.000;    0.000
989.238; 2153.700;    0.000;    0.000
989.402; 2059.700;    0.000;    0.000
989.566; 2049.700;    0.000;    0.000
989.731; 1995.700;    0.000;    0.000
989.895; 1974.700;    0.000;    0.000
990.059; 1996.700;    0.000;    0.000
990.223; 2021.700;    0.000;    0.000
990.387; 2080.700;    0.000;    0.000
990.551; 1971.700;    0.000;    0.000
990.714; 1975.700;    0.000;    0.000
990.878; 2068.700;    0.000;    0.000
991.042; 1980.700;    0.000;    0.000
991.206; 2064.700;    0.000;    0.000
991.370; 2045.700;    0.000;    0.000
991.534; 1941.700;    0.000;    0.000
991.697; 2064.700;    0.000;    0.000
991.861; 1970.700;    0.000;    0.000
992.025; 1984.700;    0.000;    0.000
992.188; 2000.700;    0.000;    0.000
992.352; 1960.700;    0.000;    0.000
992.516; 1990.700;    0.000;    0.000
992.679; 2057.700;    0.000;    0.000
992.843; 1948.700;    0.000;    0.000
993.006; 2054.700;    0.000;    0.000
993.170; 1998.700;    0.000;    0.000
993.333; 1965.700;    0.000;    0.000
993.497; 2010.700;    0.000;    0.000
993.660; 1994.700;    0.000;    0.000
993.824; 1965.700;    0.000;    0.000
993.987; 1997.700;    0.000;    0.000
994.150; 1968.700;    0.000;    0.000
994.314; 2017.700;    0.000;    0.000
994.477; 1983.700;    0.000;    0.000
994.640; 1988.700;    0.000;    0.000
994.803; 1960.700;    0.000;    0.000
994.967; 2094.700;    0.000;    0.000
995.130; 1906.700;    0.000;    0.000
995.293; 1927.700;    0.000;    0.000
995.456; 1972.700;    0.000;    0.000
995.619; 2030.700;    0.000;    0.000
995.782; 2003.700;    0.000;    0.000
995.945; 1973.700;    0.000;    0.000
996.108; 1981.700;    0.000;    0.000
996.271; 1978.700;    0.000;    0.000
996.434; 1987.700;    0.000;    0.000
996.597; 1887.700;    0.000;    0.000
996.760; 1968.700;    0.000;    0.000
996.923; 1962.700;    0.000;    0.000
997.086; 1987.700;    0.000;    0.000
997.248; 2019.700;    0.000;    0.000
997.411; 1939.700;    0.000;    0.000
997.574; 1864.700;    0.000;    0.000
997.737; 1945.700;    0.000;    0.000
997.899; 1867.700;    0.000;    0.000
998.062; 1969.700;    0.000;    0.000
998.225; 1943.700;    0.000;    0.000
998.387; 1958.700;    0.000;    0.000
998.550; 1954.700;    0.000;    0.000
998.712; 1953.700;    0.000;    0.000
998.875; 1948.700;    0.000;    0.000
999.037; 1989.700;    0.000;    0.000
999.200; 2003.700;    0.000;    0.000
999.362; 1967.700;    0.000;    0.000
999.525; 2002.700;    0.000;    0.000
999.687; 1960.700;    0.000;    0.000
999.849; 2074.700;    0.000;    0.000
1000.012; 1985.700;    0.000;    0.000
1000.174; 1997.700;    0.000;    0.000
1000.336; 1969.700;    0.000;    0.000
1000.499; 2006.700;    0.000;    0.000
1000.661; 2019.700;    0.000;    0.000
1000.823; 2040.700;    0.000;    0.000
1000.985; 2030.700;    0.000;    0.000
1001.147; 2020.700;    0.000;    0.000
1001.309; 2017.700;    0.000;    0.000
1001.471; 2075.700;    0.000;    0.000
1001.633; 2018.700;    0.000;    0.000
1001.796; 2053.700;    0.000;    0.000
1001.958; 2094.700;    0.000;    0.000
1002.119; 2064.700;    0.000;    0.000
1002.281; 2113.700;    0.000;    0.000
1002.443; 2153.700;    0.000;    0.000
1002.605; 2180.700;    0.000;    0.000
1002.767; 2209.700;    0.000;    0.000
1002.929; 2284.700;    0.000;    0.000
1003.091; 2276.700;    0.000;    0.000
1003.252; 2396.700;    0.000;    0.000
1003.414; 2398.700;    0.000;    0.000
1003.576; 2488.700;    0.000;    0.000
1003.738; 2518.700;    0.000;    0.000
1003.899; 2592.700;    0.000;    0.000
1004.061; 2684.700;    0.000;    0.000
1004.222; 2717.700;    0.000;    0.000
1004.384; 2754.700;    0.000;    0.000
1004.546; 2787.700;    0.000;    0.000
1004.707; 2872.700;    0.000;    0.000
1004.869; 2942.700;    0.000;    0.000
1005.030; 2782.700;    0.000;    0.000
1005.191; 2773.700;    0.000;    0.000
1005.353; 2643.700;    0.000;    0.000
1005.514; 2658.700;    0.000;    0.000
1005.675; 2629.700;    0.000;    0.000
1005.837; 2571.700;    0.000;    0.000
1005.998; 2420.700;    0.000;    0.000
1006.159; 2471.700;    0.000;    0.000
1006.321; 2587.700;    0.000;    0.000
1006.482; 2526.700;    0.000;    0.000
1006.643; 2703.700;    0.000;    0.000
1006.804; 2702.700;    0.000;    0.000
1006.965; 2889.700;    0.000;    0.000
1007.126; 2855.700;    0.000;    0.000
1007.287; 2833.700;    0.000;    0.000
1007.448; 2745.700;    0.000;    0.000
1007.609; 2731.700;    0.000;    0.000
1007.770; 2672.700;    0.000;    0.000
1007.931; 2653.700;    0.000;    0.000
1008.092; 2716.700;    0.000;    0.000
1008.253; 2818.700;    0.000;    0.000
1008.414; 2759.700;    0.000;    0.000
1008.575; 2930.700;    0.000;    0.000
1008.736; 2978.700;    0.000;    0.000
1008.896; 3006.700;    0.000;    0.000
1009.057; 2803.700;    0.000;    0.000
1009.218; 2915.700;    0.000;    0.000
1009.379; 2855.700;    0.000;    0.000
1009.539; 2905.700;    0.000;    0.000
1009.700; 2889.700;    0.000;    0.000
1009.860; 2867.700;    0.000;    0.000
1010.021; 2905.700;    0.000;    0.000
1010.182; 2911.700;    0.000;    0.000
1010.342; 2890.700;    0.000;    0.000
1010.503; 2976.700;    0.000;    0.000
1010.663; 3107.700;    0.000;    0.000
1010.823; 3180.700;    0.000;    0.000
1010.984; 3179.700;    0.000;    0.000
1011.144; 3279.700;    0.000;    0.000
1011.305; 3398.700;    0.000;    0.000
1011.465; 3415.700;    0.000;    0.000
1011.625; 3520.700;    0.000;    0.000
1011.785; 3529.700;    0.000;    0.000
1011.946; 3353.700;    0.000;    0.000
1012.106; 3349.700;    0.000;    0.000
1012.266; 3247.700;    0.000;    0.000
1012.426; 3338.700;    0.000;    0.000
1012.586; 3426.700;    0.000;    0.000
1012.746; 3362.700;    0.000;    0.000
1012.906; 3186.700;    0.000;    0.000
1013.066; 3289.700;    0.000;    0.000
1013.226; 3293.700;    0.000;    0.000
1013.386; 3315.700;    0.000;    0.000
1013.546; 3271.700;    0.000;    0.000
1013.706; 3093.700;    0.000;    0.000
1013.866; 3250.700;    0.000;    0.000
1014.026; 3178.700;    0.000;    0.000
1014.186; 3135.700;    0.000;    0.000
1014.346; 3153.700;    0.000;    0.000
1014.505; 3212.700;    0.000;    0.000
1014.665; 3255.700;    0.000;    0.000
1014.825; 3317.700;    0.000;    0.000
1014.985; 3155.700;    0.000;    0.000
1015.144; 3236.700;    0.000;    0.000
1015.304; 3464.700;    0.000;    0.000
1015.464; 3429.700;    0.000;    0.000
1015.623; 3322.700;    0.000;    0.000
1015.783; 3329.700;    0.000;    0.000
1015.942; 3652.700;    0.000;    0.000
1016.102; 3716.700;    0.000;    0.000
1016.261; 3466.700;    0.000;    0.000
1016.420; 3627.700;    0.000;    0.000
1016.580; 3980.700;    0.000;    0.000
1016.739; 3972.700;    0.000;    0.000
1016.899; 3874.700;    0.000;    0.000
1017.058; 3705.700;    0.000;    0.000
1017.217; 4111.700;    0.000;    0.000
1017.376; 4062.700;    0.000;    0.000
1017.536; 3730.700;    0.000;    0.000
1017.695; 3621.700;    0.000;    0.000
1017.854; 3776.700;    0.000;    0.000
1018.013; 3749.700;    0.000;    0.000
1018.172; 3515.700;    0.000;    0.000
1018.331; 3451.700;    0.000;    0.000
1018.490; 3716.700;    0.000;    0.000
1018.649; 3972.700;    0.000;    0.000
1018.808; 3926.700;    0.000;    0.000
1018.967; 3717.700;    0.000;    0.000
1019.126; 3773.700;    0.000;    0.000
1019.285; 3942.700;    0.000;    0.000
1019.444; 3990.700;    0.000;    0.000
1019.603; 3665.700;    0.000;    0.000
1019.762; 3700.700;    0.000;    0.000
1019.921; 3656.700;    0.000;    0.000
1020.079; 3787.700;    0.000;    0.000
1020.238; 3929.700;    0.000;    0.000
1020.397; 4030.700;    0.000;    0.000
1020.555; 3802.700;    0.000;    0.000
1020.714; 3836.700;    0.000;    0.000
1020.873; 3903.700;    0.000;    0.000
1021.031; 3908.700;    0.000;    0.000
1021.190; 3709.700;    0.000;    0.000
1021.348; 3793.700;    0.000;    0.000
1021.507; 3912.700;    0.000;    0.000
1021.665; 4125.700;    0.000;    0.000
1021.824; 4048.700;    0.000;    0.000
1021.982; 3818.700;    0.000;    0.000
1022.141; 3912.700;    0.000;    0.000
1022.299; 4126.700;    0.000;    0.000
1022.457; 4282.700;    0.000;    0.000
1022.616; 4194.700;    0.000;    0.000
1022.774; 3823.700;    0.000;    0.000
1022.932; 3816.700;    0.000;    0.000
1023.090; 4271.700;    0.000;    0.000
1023.249; 4297.700;    0.000;    0.000
1023.407; 4005.700;    0.000;    0.000
1023.565; 3905.700;    0.000;    0.000
1023.723; 4094.700;    0.000;    0.000
1023.881; 4313.700;    0.000;    0.000
1024.039; 4374.700;    0.000;    0.000
1024.197; 4166.700;    0.000;    0.000
1024.355; 3870.700;    0.000;    0.000
1024.513; 3957.700;    0.000;    0.000
1024.671; 4294.700;    0.000;    0.000
1024.829; 4405.700;    0.000;    0.000
1024.987; 4147.700;    0.000;    0.000
1025.145; 3843.700;    0.000;    0.000
1025.302; 4086.700;    0.000;    0.000
1025.460; 4229.700;    0.000;    0.000
1025.618; 4362.700;    0.000;    0.000
1025.776; 4405.700;    0.000;    0.000
1025.933; 4023.700;    0.000;    0.000
1026.091; 4105.700;    0.000;    0.000
1026.249; 4290.700;    0.000;    0.000
1026.406; 4581.700;    0.000;    0.000
1026.564; 4446.700;    0.000;    0.000
1026.721; 4165.700;    0.000;    0.000
1026.879; 4102.700;    0.000;    0.000
1027.036; 4285.700;    0.000;    0.000
1027.194; 4616.700;    0.000;    0.000
1027.351; 4523.700;    0.000;    0.000
1027.509; 4460.700;    0.000;    0.000
1027.666; 4279.700;    0.000;    0.000
1027.823; 4268.700;    0.000;    0.000
1027.981; 4432.700;    0.000;    0.000
1028.138; 4847.700;    0.000;    0.000
1028.295; 4536.700;    0.000;    0.000
1028.452; 4345.700;    0.000;    0.000
1028.609; 4270.700;    0.000;    0.000
1028.767; 4436.700;    0.000;    0.000
1028.924; 4585.700;    0.000;    0.000
1029.081; 4534.700;    0.000;    0.000
1029.238; 4504.700;    0.000;    0.000
1029.395; 4321.700;    0.000;    0.000
1029.552; 4472.700;    0.000;    0.000
1029.709; 4476.700;    0.000;    0.000
1029.866; 4737.700;    0.000;    0.000
1030.023; 4656.700;    0.000;    0.000
1030.180; 4344.700;    0.000;    0.000
1030.337; 4504.700;    0.000;    0.000
1030.494; 4504.700;    0.000;    0.000
1030.650; 4722.700;    0.000;    0.000
1030.807; 4910.700;    0.000;    0.000
1030.964; 4594.700;    0.000;    0.000
1031.121; 4500.700;    0.000;    0.000
1031.277; 4428.700;    0.000;    0.000
1031.434; 4675.700;    0.000;    0.000
1031.591; 5107.700;    0.000;    0.000
1031.747; 5059.700;    0.000;    0.000
1031.904; 5014.700;    0.000;    0.000
1032.060; 4586.700;    0.000;    0.000
1032.217; 4531.700;    0.000;    0.000
1032.373; 5055.700;    0.000;    0.000
1032.530; 5259.700;    0.000;    0.000
1032.686; 5479.700;    0.000;    0.000
1032.843; 5555.700;    0.000;    0.000
1032.999; 5097.700;    0.000;    0.000
1033.155; 5171.700;    0.000;    0.000
1033.312; 5007.700;    0.000;    0.000
1033.468; 5599.700;    0.000;    0.000
1033.624; 6667.700;    0.000;    0.000
1033.780; 6178.700;    0.000;    0.000
1033.937; 6647.700;    0.000;    0.000
1034.093; 6029.700;    0.000;    0.000
1034.249; 5905.700;    0.000;    0.000
1034.405; 6121.700;    0.000;    0.000
1034.561; 6353.700;    0.000;    0.000
1034.717; 6817.700;    0.000;    0.000
1034.873; 6698.700;    0.000;    0.000
1035.029; 6780.700;    0.000;    0.000
1035.185; 6492.700;    0.000;    0.000
1035.341; 6154.700;    0.000;    0.000
1035.497; 6454.700;    0.000;    0.000
1035.653; 6735.700;    0.000;    0.000
1035.809; 6850.700;    0.000;    0.000
1035.964; 7966.700;    0.000;    0.000
1036.120; 7351.700;    0.000;    0.000
1036.276; 7207.700;    0.000;    0.000
1036.432; 7137.700;    0.000;    0.000
1036.587; 6671.700;    0.000;    0.000
1036.743; 6719.700;    0.000;    0.000
1036.899; 7697.700;    0.000;    0.000
1037.054; 7607.700;    0.000;    0.000
1037.210; 8150.700;    0.000;    0.000
1037.365; 8867.700;    0.000;    0.000
1037.521; 8145.700;    0.000;    0.000
1037.676; 8008.700;    0.000;    0.000
1037.832; 7629.700;    0.000;    0.000
1037.987; 7055.700;    0.000;    0.000
1038.143; 7395.700;    0.000;    0.000
1038.298; 8512.700;    0.000;    0.000
1038.453; 8686.700;    0.000;    0.000
1038.609; 8802.700;    0.000;    0.000
1038.764; 9727.700;    0.000;    0.000
1038.919; 9097.700;    0.000;    0.000
1039.074; 8508.700;    0.000;    0.000
1039.229; 8271.700;    0.000;    0.000
1039.385; 7775.700;    0.000;    0.000
1039.540; 8155.700;    0.000;    0.000
1039.695; 8562.700;    0.000;    0.000
1039.850; 9512.700;    0.000;    0.000
1040.005; 9903.700;    0.000;    0.000
1040.160;10711.700;    0.000;    0.000
1040.315;10551.700;    0.000;    0.000
1040.470; 9467.700;    0.000;    0.000
1040.625; 9566.700;    0.000;    0.000
1040.780; 8977.700;    0.000;    0.000
1040.935; 8645.700;    0.000;    0.000
1041.089; 9017.700;    0.000;    0.000
1041.244; 9533.700;    0.000;    0.000
1041.399;11113.700;    0.000;    0.000
1041.554;10996.700;    0.000;    0.000
1041.708;12142.700;    0.000;    0.000
1041.863;13134.700;    0.000;    0.000
1042.018;11118.700;    0.000;    0.000
1042.172;11236.700;    0.000;    0.000
1042.327;11112.700;    0.000;    0.000
1042.481; 9961.700;    0.000;    0.000
1042.636;10599.700;    0.000;    0.000
1042.791;10605.700;    0.000;    0.000
1042.945;11160.700;    0.000;    0.000
1043.099;14230.700;    0.000;    0.000
1043.254;13428.700;    0.000;    0.000
1043.408;13047.700;    0.000;    0.000
1043.563;14958.700;    0.000;    0.000
1043.717;14512.700;    0.000;    0.000
1043.871;13395.700;    0.000;    0.000
1044.025;13230.700;    0.000;    0.000
1044.180;12677.700;    0.000;    0.000
1044.334;12297.700;    0.000;    0.000
1044.488;13932.700;    0.000;    0.000
1044.642;13635.700;    0.000;    0.000
1044.796;14311.700;    0.000;    0.000
1044.950;17374.699;    0.000;    0.000
1045.104;18292.699;    0.000;    0.000
1045.258;18408.699;    0.000;    0.000
1045.412;18469.699;    0.000;    0.000
1045.566;18161.699;    0.000;    0.000
1045.720;16921.699;    0.000;    0.000
1045.874;16016.700;    0.000;    0.000
1046.028;15352.700;    0.000;    0.000
1046.182;14262.700;    0.000;    0.000
1046.336;15078.700;    0.000;    0.000
1046.489;15642.700;    0.000;    0.000
1046.643;15946.700;    0.000;    0.000
1046.797;16760.699;    0.000;    0.000
1046.951;18651.699;    0.000;    0.000
1047.104;19947.699;    0.000;    0.000
1047.258;20559.699;    0.000;    0.000
1047.411;20607.699;    0.000;    0.000
1047.565;21054.699;    0.000;    0.000
1047.719;21261.699;    0.000;    0.000
1047.872;20325.699;    0.000;    0.000
1048.026;18325.699;    0.000;    0.000
1048.179;18369.699;    0.000;    0.000
1048.332;18305.699;    0.000;    0.000
1048.486;17580.699;    0.000;    0.000
1048.639;18164.699;    0.000;    0.000
1048.792;18828.699;    0.000;    0.000
1048.946;20614.699;    0.000;    0.000
1049.099;21974.699;    0.000;    0.000
1049.252;22682.699;    0.000;    0.000
1049.406;21494.699;    0.000;    0.000
1049.559;22780.699;    0.000;    0.000
1049.712;25733.699;    0.000;    0.000
1049.865;26869.699;    0.000;    0.000
1050.018;26791.699;    0.000;    0.000
1050.171;23845.699;    0.000;    0.000
1050.324;21590.699;    0.000;    0.000
1050.477;22754.699;    0.000;    0.000
1050.630;25368.699;    0.000;    0.000
1050.783;27983.699;    0.000;    0.000
1050.936;26222.699;    0.000;    0.000
1051.089;23593.699;    0.000;    0.000
1051.242;23217.699;    0.000;    0.000
1051.394;25584.699;    0.000;    0.000
1051.547;28635.699;    0.000;    0.000
1051.700;29295.699;    0.000;    0.000
1051.853;28358.699;    0.000;    0.000
1052.005;27342.699;    0.000;    0.000
1052.158;29454.699;    0.000;    0.000
1052.311;32489.699;    0.000;    0.000
1052.463;33301.699;    0.000;    0.000
1052.616;31033.699;    0.000;    0.000
1052.768;29055.699;    0.000;    0.000
1052.921;26701.699;    0.000;    0.000
1053.073;27628.699;    0.000;    0.000
1053.226;29340.699;    0.000;    0.000
1053.378;35200.699;    0.000;    0.000
1053.531;38831.699;    0.000;    0.000
1053.683;38312.699;    0.000;    0.000
1053.835;33946.699;    0.000;    0.000
1053.988;25278.699;    0.000;    0.000
1054.140; 4278.700;    0.000;    0.000
1054.292; 1099.700;    0.000;    0.000
1054.444;  814.700;    0.000;    0.000
1054.596;  793.700;    0.000;    0.000
1054.749;  757.700;    0.000;    0.000
1054.901;  649.700;    0.000;    0.000
1055.053;  681.700;    0.000;    0.000
1055.205;  661.700;    0.000;    0.000
1055.357;  626.700;    0.000;    0.000
1055.509;  574.700;    0.000;    0.000
1055.661;  608.700;    0.000;    0.000
1055.813;  576.700;    0.000;    0.000
1055.965;  548.700;    0.000;    0.000
1056.116;  569.700;    0.000;    0.000
1056.268;  539.700;    0.000;    0.000
1056.420;  578.700;    0.000;    0.000

