
Integration time [ms]:   0.300
Averaging Nr. [scans]: 1
Smoothing Nr. [pixels]: 0
Data measured with spectrometer [name]: UV2
Wave   ;Sample   ;Dark     ;Reference
[nm]   ;[counts] ;[counts] ;[counts] 

353.533;  213.050;  178.050;    0.000
353.597;  222.050;  251.050;    0.000
353.660;  198.050;  213.050;    0.000
353.723;  185.050;  185.050;    0.000
353.786;  188.050;  191.050;    0.000
353.850;  214.050;  238.050;    0.000
353.913;  181.050;  181.050;    0.000
353.976;  217.050;  190.050;    0.000
354.039;  200.050;  184.050;    0.000
354.102;  188.050;  231.050;    0.000
354.166;  213.050;  188.050;    0.000
354.229;  224.050;  224.050;    0.000
354.292;  166.050;  186.050;    0.000
354.355;  182.050;  175.050;    0.000
354.418;  214.050;  191.050;    0.000
354.481;  210.050;  181.050;    0.000
354.545;  674.050;  193.050;    0.000
354.608;  685.050;  210.050;    0.000
354.671;  687.050;  183.050;    0.000
354.734;  645.050;  189.050;    0.000
354.797;  687.050;  168.050;    0.000
354.860;  699.050;  178.050;    0.000
354.923;  730.050;  236.050;    0.000
354.986;  711.050;  181.050;    0.000
355.050;  768.050;  168.050;    0.000
355.113;  731.050;  201.050;    0.000
355.176;  749.050;  206.050;    0.000
355.239;  791.050;  213.050;    0.000
355.302;  755.050;  198.050;    0.000
355.365;  830.050;  199.050;    0.000
355.428;  817.050;  200.050;    0.000
355.491;  858.050;  232.050;    0.000
355.554;  787.050;  184.050;    0.000
355.617;  811.050;  214.050;    0.000
355.680;  797.050;  191.050;    0.000
355.743;  808.050;  161.050;    0.000
355.806;  745.050;  153.050;    0.000
355.869;  887.050;  221.050;    0.000
355.932;  791.050;  152.050;    0.000
355.995;  852.050;  195.050;    0.000
356.058;  826.050;  172.050;    0.000
356.121;  876.050;  186.050;    0.000
356.184;  929.050;  196.050;    0.000
356.247;  895.050;  183.050;    0.000
356.310;  820.050;  159.050;    0.000
356.373;  923.050;  183.050;    0.000
356.436;  956.050;  176.050;    0.000
356.498;  910.050;  191.050;    0.000
356.561;  929.050;  145.050;    0.000
356.624;  888.050;  187.050;    0.000
356.687;  927.050;  181.050;    0.000
356.750;  908.050;  227.050;    0.000
356.813;  853.050;  147.050;    0.000
356.876;  922.050;  184.050;    0.000
356.939;  906.050;  141.050;    0.000
357.001;  969.050;  188.050;    0.000
357.064;  908.050;  173.050;    0.000
357.127;  876.050;  159.050;    0.000
357.190;  861.050;  185.050;    0.000
357.253;  917.050;  180.050;    0.000
357.316;  984.050;  199.050;    0.000
357.378;  938.050;  196.050;    0.000
357.441;  958.050;  175.050;    0.000
357.504;  928.050;  164.050;    0.000
357.567;  862.050;  145.050;    0.000
357.629;  966.050;  205.050;    0.000
357.692;  983.050;  175.050;    0.000
357.755;  981.050;  205.050;    0.000
357.818;  912.050;  141.050;    0.000
357.880; 1081.050;  170.050;    0.000
357.943;  917.050;  152.050;    0.000
358.006;  979.050;  145.050;    0.000
358.069;  970.050;  164.050;    0.000
358.131;  934.050;  148.050;    0.000
358.194;  930.050;  122.050;    0.000
358.257;  954.050;  147.050;    0.000
358.319;  981.050;  156.050;    0.000
358.382; 1035.050;  193.050;    0.000
358.445;  933.050;  155.050;    0.000
358.507; 1021.050;  160.050;    0.000
358.570;  987.050;  159.050;    0.000
358.633;  982.050;  163.050;    0.000
358.695;  975.050;  174.050;    0.000
358.758; 1000.050;  127.050;    0.000
358.821;  968.050;  165.050;    0.000
358.883; 1019.050;  145.050;    0.000
358.946;  979.050;  127.050;    0.000
359.008; 1019.050;  180.050;    0.000
359.071; 1032.050;  173.050;    0.000
359.134;  996.050;  150.050;    0.000
359.196;  989.050;  158.050;    0.000
359.259; 1009.050;  159.050;    0.000
359.321; 1023.050;  159.050;    0.000
359.384; 1020.050;  182.050;    0.000
359.446; 1032.050;  140.050;    0.000
359.509; 1016.050;  146.050;    0.000
359.571; 1018.050;  133.050;    0.000
359.634; 1011.050;   93.050;    0.000
359.696;  956.050;  142.050;    0.000
359.759; 1078.050;  161.050;    0.000
359.821; 1072.050;  110.050;    0.000
359.884; 1051.050;  114.050;    0.000
359.946; 1051.050;  180.050;    0.000
360.009; 1064.050;  158.050;    0.000
360.071; 1009.050;  116.050;    0.000
360.134; 1064.050;  170.050;    0.000
360.196; 1045.050;  128.050;    0.000
360.259; 1051.050;  157.050;    0.000
360.321; 1060.050;  122.050;    0.000
360.384; 1088.050;  119.050;    0.000
360.446; 1084.050;  122.050;    0.000
360.508; 1064.050;  195.050;    0.000
360.571; 1077.050;  128.050;    0.000
360.633; 1038.050;  172.050;    0.000
360.696;  996.050;  115.050;    0.000
360.758; 1134.050;  162.050;    0.000
360.820; 1050.050;  149.050;    0.000
360.883; 1084.050;  151.050;    0.000
360.945; 1129.050;  149.050;    0.000
361.007; 1064.050;  135.050;    0.000
361.070; 1083.050;  162.050;    0.000
361.132; 1103.050;  198.050;    0.000
361.194; 1088.050;  141.050;    0.000
361.257; 1068.050;  154.050;    0.000
361.319; 1054.050;  147.050;    0.000
361.381; 1091.050;  154.050;    0.000
361.443; 1085.050;  144.050;    0.000
361.506; 1148.050;  164.050;    0.000
361.568; 1098.050;  148.050;    0.000
361.630; 1113.050;  127.050;    0.000
361.693; 1119.050;  158.050;    0.000
361.755; 1082.050;  161.050;    0.000
361.817; 1144.050;  173.050;    0.000
361.879; 1135.050;  159.050;    0.000
361.941; 1130.050;  153.050;    0.000
362.004; 1141.050;  148.050;    0.000
362.066; 1111.050;  150.050;    0.000
362.128; 1168.050;  132.050;    0.000
362.190; 1131.050;  207.050;    0.000
362.252; 1167.050;  142.050;    0.000
362.315; 1096.050;  153.050;    0.000
362.377; 1145.050;  164.050;    0.000
362.439; 1132.050;  155.050;    0.000
362.501; 1165.050;  157.050;    0.000
362.563; 1119.050;  188.050;    0.000
362.625; 1120.050;  194.050;    0.000
362.688; 1086.050;  159.050;    0.000
362.750; 1196.050;  205.050;    0.000
362.812; 1102.050;  148.050;    0.000
362.874; 1149.050;  173.050;    0.000
362.936; 1146.050;  152.050;    0.000
362.998; 1119.050;  145.050;    0.000
363.060; 1200.050;  184.050;    0.000
363.122; 1131.050;  147.050;    0.000
363.184; 1166.050;  136.050;    0.000
363.246; 1183.050;  171.050;    0.000
363.308; 1147.050;  154.050;    0.000
363.370; 1238.050;  175.050;    0.000
363.432; 1099.050;  139.050;    0.000
363.494; 1125.050;  163.050;    0.000
363.556; 1153.050;  117.050;    0.000
363.618; 1179.050;  126.050;    0.000
363.680; 1251.050;  147.050;    0.000
363.742; 1209.050;  161.050;    0.000
363.804; 1244.050;  159.050;    0.000
363.866; 1238.050;  170.050;    0.000
363.928; 1125.050;  122.050;    0.000
363.990; 1227.050;  167.050;    0.000
364.052; 1196.050;  180.050;    0.000
364.114; 1200.050;  119.050;    0.000
364.176; 1241.050;  184.050;    0.000
364.238; 1224.050;  180.050;    0.000
364.300; 1209.050;  159.050;    0.000
364.362; 1190.050;  163.050;    0.000
364.424; 1098.050;  139.050;    0.000
364.486; 1230.050;  189.050;    0.000
364.548; 1198.050;  167.050;    0.000
364.609; 1208.050;  165.050;    0.000
364.671; 1167.050;  171.050;    0.000
364.733; 1139.050;  165.050;    0.000
364.795; 1187.050;  122.050;    0.000
364.857; 1217.050;  147.050;    0.000
364.919; 1216.050;  104.050;    0.000
364.981; 1219.050;  143.050;    0.000
365.042; 1229.050;  166.050;    0.000
365.104; 1171.050;  162.050;    0.000
365.166; 1216.050;  155.050;    0.000
365.228; 1162.050;  179.050;    0.000
365.290; 1247.050;  133.050;    0.000
365.351; 1224.050;  142.050;    0.000
365.413; 1177.050;  144.050;    0.000
365.475; 1126.050;  139.050;    0.000
365.537; 1245.050;  181.050;    0.000
365.598; 1211.050;  166.050;    0.000
365.660; 1158.050;  130.050;    0.000
365.722; 1212.050;  177.050;    0.000
365.784; 1253.050;  149.050;    0.000
365.845; 1180.050;  156.050;    0.000
365.907; 1235.050;  122.050;    0.000
365.969; 1265.050;  140.050;    0.000
366.030; 1230.050;  156.050;    0.000
366.092; 1198.050;  140.050;    0.000
366.154; 1252.050;  169.050;    0.000
366.215; 1181.050;  170.050;    0.000
366.277; 1228.050;  143.050;    0.000
366.339; 1263.050;  139.050;    0.000
366.400; 1219.050;  139.050;    0.000
366.462; 1232.050;  140.050;    0.000
366.524; 1208.050;  150.050;    0.000
366.585; 1252.050;  163.050;    0.000
366.647; 1303.050;  193.050;    0.000
366.708; 1303.050;  135.050;    0.000
366.770; 1248.050;  165.050;    0.000
366.832; 1254.050;  168.050;    0.000
366.893; 1226.050;  157.050;    0.000
366.955; 1245.050;  132.050;    0.000
367.016; 1243.050;  127.050;    0.000
367.078; 1246.050;  146.050;    0.000
367.139; 1229.050;  129.050;    0.000
367.201; 1205.050;  148.050;    0.000
367.262; 1300.050;  165.050;    0.000
367.324; 1183.050;  171.050;    0.000
367.385; 1185.050;  118.050;    0.000
367.447; 1306.050;  144.050;    0.000
367.508; 1202.050;  135.050;    0.000
367.570; 1264.050;  160.050;    0.000
367.631; 1189.050;  157.050;    0.000
367.693; 1212.050;  168.050;    0.000
367.754; 1273.050;  139.050;    0.000
367.816; 1307.050;  141.050;    0.000
367.877; 1284.050;  195.050;    0.000
367.939; 1280.050;  166.050;    0.000
368.000; 1216.050;  127.050;    0.000
368.062; 1296.050;  143.050;    0.000
368.123; 1323.050;  156.050;    0.000
368.184; 1230.050;  179.050;    0.000
368.246; 1302.050;  168.050;    0.000
368.307; 1298.050;  203.050;    0.000
368.369; 1210.050;  149.050;    0.000
368.430; 1251.050;  121.050;    0.000
368.491; 1259.050;  131.050;    0.000
368.553; 1265.050;  161.050;    0.000
368.614; 1249.050;  157.050;    0.000
368.675; 1273.050;  152.050;    0.000
368.737; 1275.050;  168.050;    0.000
368.798; 1281.050;  147.050;    0.000
368.859; 1206.050;  174.050;    0.000
368.921; 1242.050;  168.050;    0.000
368.982; 1296.050;  151.050;    0.000
369.043; 1289.050;  169.050;    0.000
369.104; 1310.050;  149.050;    0.000
369.166; 1341.050;  178.050;    0.000
369.227; 1271.050;  149.050;    0.000
369.288; 1294.050;  131.050;    0.000
369.349; 1296.050;  128.050;    0.000
369.411; 1415.050;  198.050;    0.000
369.472; 1372.050;  156.050;    0.000
369.533; 1261.050;  142.050;    0.000
369.594; 1237.050;  125.050;    0.000
369.656; 1330.050;  153.050;    0.000
369.717; 1239.050;  124.050;    0.000
369.778; 1318.050;  163.050;    0.000
369.839; 1310.050;  130.050;    0.000
369.900; 1356.050;  170.050;    0.000
369.961; 1321.050;  142.050;    0.000
370.023; 1349.050;  197.050;    0.000
370.084; 1257.050;  151.050;    0.000
370.145; 1275.050;  128.050;    0.000
370.206; 1324.050;  152.050;    0.000
370.267; 1318.050;  154.050;    0.000
370.328; 1314.050;  154.050;    0.000
370.389; 1360.050;  173.050;    0.000
370.451; 1351.050;  191.050;    0.000
370.512; 1370.050;  155.050;    0.000
370.573; 1361.050;  134.050;    0.000
370.634; 1387.050;  160.050;    0.000
370.695; 1314.050;  124.050;    0.000
370.756; 1319.050;  169.050;    0.000
370.817; 1377.050;  169.050;    0.000
370.878; 1338.050;  200.050;    0.000
370.939; 1333.050;  157.050;    0.000
371.000; 1353.050;  131.050;    0.000
371.061; 1337.050;  136.050;    0.000
371.122; 1304.050;  176.050;    0.000
371.183; 1295.050;   81.050;    0.000
371.244; 1368.050;  156.050;    0.000
371.305; 1336.050;  131.050;    0.000
371.366; 1400.050;  161.050;    0.000
371.427; 1414.050;  127.050;    0.000
371.488; 1417.050;  184.050;    0.000
371.549; 1410.050;  159.050;    0.000
371.610; 1380.050;  147.050;    0.000
371.671; 1302.050;  132.050;    0.000
371.732; 1307.050;  163.050;    0.000
371.793; 1374.050;  179.050;    0.000
371.853; 1339.050;  179.050;    0.000
371.914; 1406.050;  149.050;    0.000
371.975; 1343.050;  117.050;    0.000
372.036; 1415.050;  141.050;    0.000
372.097; 1321.050;  101.050;    0.000
372.158; 1325.050;  115.050;    0.000
372.219; 1427.050;  174.050;    0.000
372.280; 1389.050;  134.050;    0.000
372.340; 1399.050;  180.050;    0.000
372.401; 1400.050;  166.050;    0.000
372.462; 1394.050;  171.050;    0.000
372.523; 1389.050;  132.050;    0.000
372.584; 1402.050;  182.050;    0.000
372.645; 1367.050;  149.050;    0.000
372.705; 1420.050;  182.050;    0.000
372.766; 1417.050;  145.050;    0.000
372.827; 1362.050;  161.050;    0.000
372.888; 1329.050;  156.050;    0.000
372.948; 1489.050;  158.050;    0.000
373.009; 1364.050;  178.050;    0.000
373.070; 1402.050;  166.050;    0.000
373.131; 1389.050;  154.050;    0.000
373.191; 1438.050;  193.050;    0.000
373.252; 1354.050;  148.050;    0.000
373.313; 1350.050;  152.050;    0.000
373.373; 1363.050;  156.050;    0.000
373.434; 1380.050;  166.050;    0.000
373.495; 1413.050;  152.050;    0.000
373.555; 1391.050;  145.050;    0.000
373.616; 1363.050;  141.050;    0.000
373.677; 1417.050;  169.050;    0.000
373.737; 1424.050;  166.050;    0.000
373.798; 1420.050;  151.050;    0.000
373.859; 1457.050;  170.050;    0.000
373.919; 1361.050;  206.050;    0.000
373.980; 1422.050;  140.050;    0.000
374.041; 1354.050;  148.050;    0.000
374.101; 1428.050;  165.050;    0.000
374.162; 1442.050;  166.050;    0.000
374.222; 1410.050;  156.050;    0.000
374.283; 1419.050;  161.050;    0.000
374.343; 1381.050;  185.050;    0.000
374.404; 1448.050;  148.050;    0.000
374.465; 1411.050;  162.050;    0.000
374.525; 1413.050;  177.050;    0.000
374.586; 1463.050;  164.050;    0.000
374.646; 1412.050;  180.050;    0.000
374.707; 1474.050;  203.050;    0.000
374.767; 1533.050;  148.050;    0.000
374.828; 1532.050;  142.050;    0.000
374.888; 1531.050;  187.050;    0.000
374.949; 1444.050;  137.050;    0.000
375.009; 1523.050;  155.050;    0.000
375.070; 1516.050;  165.050;    0.000
375.130; 1476.050;  168.050;    0.000
375.190; 1435.050;  157.050;    0.000
375.251; 1466.050;  206.050;    0.000
375.311; 1525.050;  141.050;    0.000
375.372; 1480.050;  144.050;    0.000
375.432; 1494.050;  153.050;    0.000
375.493; 1551.050;  168.050;    0.000
375.553; 1475.050;  146.050;    0.000
375.613; 1464.050;  142.050;    0.000
375.674; 1504.050;  153.050;    0.000
375.734; 1473.050;  166.050;    0.000
375.794; 1451.050;  145.050;    0.000
375.855; 1479.050;  162.050;    0.000
375.915; 1492.050;  162.050;    0.000
375.975; 1532.050;  144.050;    0.000
376.036; 1476.050;  128.050;    0.000
376.096; 1461.050;  122.050;    0.000
376.156; 1471.050;  140.050;    0.000
376.217; 1478.050;  158.050;    0.000
376.277; 1458.050;  163.050;    0.000
376.337; 1536.050;  139.050;    0.000
376.398; 1532.050;  176.050;    0.000
376.458; 1467.050;  143.050;    0.000
376.518; 1503.050;  136.050;    0.000
376.578; 1505.050;  177.050;    0.000
376.639; 1450.050;  163.050;    0.000
376.699; 1496.050;  183.050;    0.000
376.759; 1531.050;  169.050;    0.000
376.819; 1541.050;  147.050;    0.000
376.880; 1568.050;  188.050;    0.000
376.940; 1509.050;  185.050;    0.000
377.000; 1416.050;  131.050;    0.000
377.060; 1505.050;  182.050;    0.000
377.120; 1484.050;  165.050;    0.000
377.180; 1564.050;  169.050;    0.000
377.241; 1526.050;  146.050;    0.000
377.301; 1588.050;  183.050;    0.000
377.361; 1560.050;  124.050;    0.000
377.421; 1574.050;  186.050;    0.000
377.481; 1564.050;  178.050;    0.000
377.541; 1545.050;  140.050;    0.000
377.601; 1656.050;  175.050;    0.000
377.661; 1592.050;  169.050;    0.000
377.722; 1581.050;  144.050;    0.000
377.782; 1598.050;  182.050;    0.000
377.842; 1584.050;  161.050;    0.000
377.902; 1554.050;  151.050;    0.000
377.962; 1534.050;  134.050;    0.000
378.022; 1624.050;  153.050;    0.000
378.082; 1681.050;  178.050;    0.000
378.142; 1568.050;  118.050;    0.000
378.202; 1615.050;  153.050;    0.000
378.262; 1581.050;  166.050;    0.000
378.322; 1646.050;  174.050;    0.000
378.382; 1642.050;  148.050;    0.000
378.442; 1670.050;  190.050;    0.000
378.502; 1551.050;  136.050;    0.000
378.562; 1632.050;  130.050;    0.000
378.622; 1639.050;  188.050;    0.000
378.682; 1683.050;  163.050;    0.000
378.742; 1655.050;  150.050;    0.000
378.802; 1615.050;  127.050;    0.000
378.862; 1698.050;  186.050;    0.000
378.921; 1673.050;  203.050;    0.000
378.981; 1791.050;  177.050;    0.000
379.041; 1619.050;  134.050;    0.000
379.101; 1677.050;  167.050;    0.000
379.161; 1703.050;  130.050;    0.000
379.221; 1636.050;  169.050;    0.000
379.281; 1711.050;  162.050;    0.000
379.341; 1771.050;  134.050;    0.000
379.401; 1736.050;  151.050;    0.000
379.460; 1697.050;  190.050;    0.000
379.520; 1752.050;  158.050;    0.000
379.580; 1751.050;  162.050;    0.000
379.640; 1689.050;  146.050;    0.000
379.700; 1790.050;  167.050;    0.000
379.759; 1848.050;  194.050;    0.000
379.819; 1782.050;  176.050;    0.000
379.879; 1793.050;  140.050;    0.000
379.939; 1798.050;  184.050;    0.000
379.999; 1775.050;  165.050;    0.000
380.058; 1828.050;  194.050;    0.000
380.118; 1831.050;  137.050;    0.000
380.178; 1754.050;  139.050;    0.000
380.237; 1877.050;  139.050;    0.000
380.297; 1867.050;  160.050;    0.000
380.357; 1754.050;  194.050;    0.000
380.417; 1839.050;  174.050;    0.000
380.476; 1839.050;  153.050;    0.000
380.536; 1844.050;  169.050;    0.000
380.596; 1925.050;  159.050;    0.000
380.655; 1899.050;  178.050;    0.000
380.715; 1819.050;  196.050;    0.000
380.775; 1853.050;  202.050;    0.000
380.834; 1876.050;  186.050;    0.000
380.894; 1972.050;  167.050;    0.000
380.954; 1803.050;  150.050;    0.000
381.013; 1985.050;  187.050;    0.000
381.073; 1940.050;  114.050;    0.000
381.132; 1920.050;  176.050;    0.000
381.192; 1920.050;  197.050;    0.000
381.252; 1925.050;  172.050;    0.000
381.311; 1966.050;  155.050;    0.000
381.371; 1938.050;  172.050;    0.000
381.430; 1982.050;  143.050;    0.000
381.490; 2026.050;  136.050;    0.000
381.549; 1954.050;  131.050;    0.000
381.609; 1967.050;  203.050;    0.000
381.668; 2043.050;  135.050;    0.000
381.728; 2061.050;  163.050;    0.000
381.787; 2011.050;  195.050;    0.000
381.847; 2133.050;  185.050;    0.000
381.906; 2141.050;  187.050;    0.000
381.966; 2039.050;  153.050;    0.000
382.025; 2068.050;  175.050;    0.000
382.085; 2107.050;  195.050;    0.000
382.144; 2244.050;  210.050;    0.000
382.204; 2196.050;  201.050;    0.000
382.263; 2217.050;  178.050;    0.000
382.323; 2282.050;  151.050;    0.000
382.382; 2403.050;  147.050;    0.000
382.441; 2352.050;  144.050;    0.000
382.501; 2498.050;  156.050;    0.000
382.560; 2486.050;  160.050;    0.000
382.619; 2545.050;  173.050;    0.000
382.679; 2721.050;  167.050;    0.000
382.738; 2828.050;  189.050;    0.000
382.798; 3067.050;  181.050;    0.000
382.857; 3347.050;  161.050;    0.000
382.916; 3710.050;  162.050;    0.000
382.976; 3818.050;  169.050;    0.000
383.035; 3668.050;  174.050;    0.000
383.094; 3867.050;  178.050;    0.000
383.154; 4301.050;  188.050;    0.000
383.213; 5195.050;  162.050;    0.000
383.272; 4819.050;  144.050;    0.000
383.331; 3978.050;  144.050;    0.000
383.391; 3501.050;  198.050;    0.000
383.450; 3388.050;  185.050;    0.000
383.509; 3411.050;  132.050;    0.000
383.568; 3569.050;  171.050;    0.000
383.628; 3749.050;  171.050;    0.000
383.687; 4324.050;  172.050;    0.000
383.746; 4882.050;  144.050;    0.000
383.805; 5827.050;  177.050;    0.000
383.864; 5590.050;  145.050;    0.000
383.924; 4442.050;  203.050;    0.000
383.983; 3516.050;  153.050;    0.000
384.042; 3193.050;  171.050;    0.000
384.101; 2949.050;  186.050;    0.000
384.160; 2777.050;  132.050;    0.000
384.219; 2565.050;  157.050;    0.000
384.279; 2610.050;  166.050;    0.000
384.338; 2448.050;  141.050;    0.000
384.397; 2366.050;  142.050;    0.000
384.456; 2280.050;  155.050;    0.000
384.515; 2364.050;  158.050;    0.000
384.574; 2303.050;  208.050;    0.000
384.633; 2284.050;  158.050;    0.000
384.692; 2213.050;  162.050;    0.000
384.751; 2196.050;  179.050;    0.000
384.810; 2254.050;  150.050;    0.000
384.869; 2143.050;  147.050;    0.000
384.929; 2118.050;  132.050;    0.000
384.988; 2104.050;  166.050;    0.000
385.047; 2168.050;  161.050;    0.000
385.106; 2201.050;  180.050;    0.000
385.165; 2221.050;  123.050;    0.000
385.224; 2171.050;  153.050;    0.000
385.283; 2092.050;  158.050;    0.000
385.342; 2188.050;  184.050;    0.000
385.401; 2160.050;  191.050;    0.000
385.459; 2190.050;  143.050;    0.000
385.518; 2147.050;  152.050;    0.000
385.577; 2104.050;  134.050;    0.000
385.636; 2150.050;  187.050;    0.000
385.695; 2172.050;  141.050;    0.000
385.754; 2205.050;  143.050;    0.000
385.813; 2211.050;  145.050;    0.000
385.872; 2058.050;  116.050;    0.000
385.931; 2095.050;  147.050;    0.000
385.990; 2114.050;  170.050;    0.000
386.049; 2140.050;  189.050;    0.000
386.107; 2013.050;  122.050;    0.000
386.166; 2093.050;  155.050;    0.000
386.225; 2097.050;  173.050;    0.000
386.284; 2157.050;  138.050;    0.000
386.343; 2124.050;  216.050;    0.000
386.402; 2176.050;  162.050;    0.000
386.460; 2062.050;  131.050;    0.000
386.519; 2028.050;  122.050;    0.000
386.578; 2034.050;  140.050;    0.000
386.637; 2182.050;  169.050;    0.000
386.696; 2180.050;  176.050;    0.000
386.754; 2037.050;  127.050;    0.000
386.813; 2072.050;  138.050;    0.000
386.872; 2063.050;  135.050;    0.000
386.931; 2091.050;  170.050;    0.000
386.989; 2096.050;  167.050;    0.000
387.048; 2086.050;  131.050;    0.000
387.107; 2062.050;  176.050;    0.000
387.165; 2057.050;  139.050;    0.000
387.224; 2161.050;  150.050;    0.000
387.283; 2070.050;  169.050;    0.000
387.342; 2037.050;  191.050;    0.000
387.400; 2089.050;  131.050;    0.000
387.459; 2096.050;  139.050;    0.000
387.517; 2090.050;  214.050;    0.000
387.576; 2063.050;  146.050;    0.000
387.635; 2046.050;  161.050;    0.000
387.693; 2066.050;  197.050;    0.000
387.752; 2100.050;  159.050;    0.000
387.811; 1943.050;  144.050;    0.000
387.869; 2053.050;  172.050;    0.000
387.928; 2031.050;  160.050;    0.000
387.986; 2099.050;  192.050;    0.000
388.045; 2020.050;  121.050;    0.000
388.103; 2021.050;  129.050;    0.000
388.162; 2012.050;  169.050;    0.000
388.221; 1949.050;  171.050;    0.000
388.279; 2003.050;  135.050;    0.000
388.338; 2102.050;  222.050;    0.000
388.396; 2014.050;  168.050;    0.000
388.455; 1962.050;  178.050;    0.000
388.513; 2076.050;  151.050;    0.000
388.572; 1979.050;  147.050;    0.000
388.630; 1991.050;  158.050;    0.000
388.689; 2015.050;  163.050;    0.000
388.747; 2037.050;  180.050;    0.000
388.806; 2020.050;  119.050;    0.000
388.864; 2065.050;  159.050;    0.000
388.922; 1965.050;  152.050;    0.000
388.981; 2027.050;  125.050;    0.000
389.039; 1908.050;  151.050;    0.000
389.098; 1990.050;  151.050;    0.000
389.156; 2004.050;  175.050;    0.000
389.214; 2076.050;  133.050;    0.000
389.273; 2007.050;  142.050;    0.000
389.331; 1886.050;  179.050;    0.000
389.390; 2005.050;  179.050;    0.000
389.448; 1976.050;  159.050;    0.000
389.506; 1914.050;  140.050;    0.000
389.565; 2073.050;  160.050;    0.000
389.623; 2009.050;  181.050;    0.000
389.681; 2056.050;  181.050;    0.000
389.740; 2078.050;  187.050;    0.000
389.798; 1937.050;  163.050;    0.000
389.856; 2062.050;  185.050;    0.000
389.914; 2042.050;  170.050;    0.000
389.973; 1928.050;  150.050;    0.000
390.031; 2041.050;  149.050;    0.000
390.089; 1956.050;  191.050;    0.000
390.147; 1977.050;  126.050;    0.000
390.206; 2003.050;  174.050;    0.000
390.264; 1952.050;  164.050;    0.000
390.322; 1946.050;  150.050;    0.000
390.380; 1972.050;  137.050;    0.000
390.439; 2044.050;  176.050;    0.000
390.497; 2027.050;  188.050;    0.000
390.555; 1934.050;  143.050;    0.000
390.613; 1989.050;  174.050;    0.000
390.671; 1958.050;  208.050;    0.000
390.729; 2036.050;  135.050;    0.000
390.788; 1927.050;  169.050;    0.000
390.846; 1983.050;  173.050;    0.000
390.904; 2010.050;  176.050;    0.000
390.962; 1973.050;  179.050;    0.000
391.020; 2032.050;  201.050;    0.000
391.078; 2003.050;  192.050;    0.000
391.136; 2013.050;  170.050;    0.000
391.194; 1991.050;  163.050;    0.000
391.253; 2030.050;  203.050;    0.000
391.311; 2052.050;  170.050;    0.000
391.369; 2045.050;  191.050;    0.000
391.427; 2046.050;  226.050;    0.000
391.485; 2009.050;  181.050;    0.000
391.543; 2091.050;  177.050;    0.000
391.601; 2072.050;  150.050;    0.000
391.659; 2024.050;  201.050;    0.000
391.717; 2011.050;  166.050;    0.000
391.775; 2102.050;  200.050;    0.000
391.833; 2033.050;  180.050;    0.000
391.891; 2042.050;  172.050;    0.000
391.949; 2094.050;  174.050;    0.000
392.007; 2073.050;  194.050;    0.000
392.065; 2037.050;  161.050;    0.000
392.123; 2106.050;  159.050;    0.000
392.180; 2113.050;  193.050;    0.000
392.238; 2017.050;  188.050;    0.000
392.296; 2060.050;  206.050;    0.000
392.354; 2098.050;  170.050;    0.000
392.412; 2071.050;  207.050;    0.000
392.470; 2096.050;  168.050;    0.000
392.528; 2142.050;  185.050;    0.000
392.586; 2006.050;  154.050;    0.000
392.644; 1985.050;  190.050;    0.000
392.701; 2119.050;  195.050;    0.000
392.759; 2082.050;  229.050;    0.000
392.817; 2029.050;  176.050;    0.000
392.875; 2017.050;  198.050;    0.000
392.933; 2082.050;  174.050;    0.000
392.991; 2103.050;  237.050;    0.000
393.048; 2053.050;  212.050;    0.000
393.106; 2050.050;  191.050;    0.000
393.164; 2086.050;  136.050;    0.000
393.222; 2091.050;  164.050;    0.000
393.279; 2115.050;  208.050;    0.000
393.337; 2156.050;  203.050;    0.000
393.395; 2183.050;  191.050;    0.000
393.453; 2187.050;  153.050;    0.000
393.510; 2183.050;  171.050;    0.000
393.568; 2049.050;  203.050;    0.000
393.626; 2008.050;  169.050;    0.000
393.684; 2057.050;  201.050;    0.000
393.741; 2095.050;  172.050;    0.000
393.799; 2071.050;  149.050;    0.000
393.857; 2006.050;  151.050;    0.000
393.914; 2114.050;  192.050;    0.000
393.972; 1998.050;  176.050;    0.000
394.030; 2031.050;  165.050;    0.000
394.087; 2147.050;  192.050;    0.000
394.145; 2177.050;  183.050;    0.000
394.202; 2139.050;  161.050;    0.000
394.260; 2161.050;  135.050;    0.000
394.318; 2183.050;  188.050;    0.000
394.375; 2083.050;  163.050;    0.000
394.433; 2118.050;  151.050;    0.000
394.490; 2037.050;  190.050;    0.000
394.548; 2134.050;  157.050;    0.000
394.605; 2085.050;  205.050;    0.000
394.663; 2107.050;  173.050;    0.000
394.720; 2195.050;  171.050;    0.000
394.778; 2092.050;  190.050;    0.000
394.836; 2117.050;  134.050;    0.000
394.893; 2156.050;  142.050;    0.000
394.951; 2165.050;  192.050;    0.000
395.008; 2129.050;  149.050;    0.000
395.065; 2192.050;  194.050;    0.000
395.123; 2152.050;  160.050;    0.000
395.180; 2142.050;  178.050;    0.000
395.238; 2150.050;  191.050;    0.000
395.295; 2174.050;  160.050;    0.000
395.353; 2222.050;  162.050;    0.000
395.410; 2128.050;  165.050;    0.000
395.468; 2207.050;  190.050;    0.000
395.525; 2201.050;  173.050;    0.000
395.582; 2153.050;  161.050;    0.000
395.640; 2355.050;  200.050;    0.000
395.697; 2228.050;  198.050;    0.000
395.754; 2201.050;  136.050;    0.000
395.812; 2226.050;  172.050;    0.000
395.869; 2288.050;  172.050;    0.000
395.927; 2353.050;  145.050;    0.000
395.984; 2226.050;  220.050;    0.000
396.041; 2214.050;  137.050;    0.000
396.098; 2145.050;  161.050;    0.000
396.156; 2236.050;  159.050;    0.000
396.213; 2194.050;  200.050;    0.000
396.270; 2259.050;  209.050;    0.000
396.328; 2111.050;  162.050;    0.000
396.385; 2202.050;  186.050;    0.000
396.442; 2176.050;  177.050;    0.000
396.499; 2089.050;  183.050;    0.000
396.557; 2193.050;  182.050;    0.000
396.614; 2251.050;  186.050;    0.000
396.671; 2177.050;  144.050;    0.000
396.728; 2274.050;  176.050;    0.000
396.785; 2268.050;  169.050;    0.000
396.843; 2282.050;  134.050;    0.000
396.900; 2303.050;  184.050;    0.000
396.957; 2298.050;  197.050;    0.000
397.014; 2291.050;  187.050;    0.000
397.071; 2302.050;  186.050;    0.000
397.128; 2299.050;  200.050;    0.000
397.186; 2347.050;  175.050;    0.000
397.243; 2231.050;  154.050;    0.000
397.300; 2369.050;  191.050;    0.000
397.357; 2331.050;  238.050;    0.000
397.414; 2337.050;  161.050;    0.000
397.471; 2235.050;  135.050;    0.000
397.528; 2305.050;  158.050;    0.000
397.585; 2308.050;  159.050;    0.000
397.642; 2367.050;  180.050;    0.000
397.699; 2352.050;  170.050;    0.000
397.756; 2341.050;  175.050;    0.000
397.814; 2348.050;  182.050;    0.000
397.871; 2320.050;  173.050;    0.000
397.928; 2343.050;  173.050;    0.000
397.985; 2280.050;  176.050;    0.000
398.042; 2360.050;  189.050;    0.000
398.099; 2356.050;  160.050;    0.000
398.156; 2374.050;  218.050;    0.000
398.212; 2433.050;  194.050;    0.000
398.269; 2386.050;  199.050;    0.000
398.326; 2346.050;  188.050;    0.000
398.383; 2410.050;  187.050;    0.000
398.440; 2339.050;  174.050;    0.000
398.497; 2494.050;  214.050;    0.000
398.554; 2445.050;  181.050;    0.000
398.611; 2495.050;  195.050;    0.000
398.668; 2369.050;  145.050;    0.000
398.725; 2493.050;  178.050;    0.000
398.782; 2465.050;  210.050;    0.000
398.839; 2430.050;  216.050;    0.000
398.895; 2447.050;  189.050;    0.000
398.952; 2414.050;  206.050;    0.000
399.009; 2518.050;  142.050;    0.000
399.066; 2544.050;  192.050;    0.000
399.123; 2599.050;  181.050;    0.000
399.180; 2625.050;  200.050;    0.000
399.236; 2607.050;  156.050;    0.000
399.293; 2711.050;  194.050;    0.000
399.350; 2696.050;  167.050;    0.000
399.407; 2789.050;  192.050;    0.000
399.463; 2722.050;  161.050;    0.000
399.520; 2701.050;  149.050;    0.000
399.577; 2855.050;  156.050;    0.000
399.634; 2836.050;  195.050;    0.000
399.690; 2762.050;  163.050;    0.000
399.747; 3059.050;  192.050;    0.000
399.804; 2836.050;  212.050;    0.000
399.861; 2831.050;  203.050;    0.000
399.917; 2860.050;  221.050;    0.000
399.974; 2763.050;  221.050;    0.000
400.031; 2729.050;  195.050;    0.000
400.087; 2784.050;  159.050;    0.000
400.144; 2725.050;  201.050;    0.000
400.201; 2684.050;  206.050;    0.000
400.257; 2731.050;  168.050;    0.000
400.314; 2640.050;  183.050;    0.000
400.370; 2702.050;  209.050;    0.000
400.427; 2736.050;  192.050;    0.000
400.484; 2544.050;  150.050;    0.000
400.540; 2699.050;  213.050;    0.000
400.597; 2634.050;  161.050;    0.000
400.653; 2633.050;  170.050;    0.000
400.710; 2526.050;  173.050;    0.000
400.766; 2594.050;  204.050;    0.000
400.823; 2617.050;  194.050;    0.000
400.879; 2565.050;  188.050;    0.000
400.936; 2576.050;  172.050;    0.000
400.993; 2619.050;  154.050;    0.000
401.049; 2599.050;  157.050;    0.000
401.105; 2594.050;  214.050;    0.000
401.162; 2600.050;  195.050;    0.000
401.218; 2604.050;  195.050;    0.000
401.275; 2541.050;  182.050;    0.000
401.331; 2459.050;  188.050;    0.000
401.388; 2537.050;  194.050;    0.000
401.444; 2510.050;  175.050;    0.000
401.501; 2588.050;  169.050;    0.000
401.557; 2566.050;  176.050;    0.000
401.614; 2485.050;  153.050;    0.000
401.670; 2664.050;  178.050;    0.000
401.726; 2583.050;  179.050;    0.000
401.783; 2542.050;  198.050;    0.000
401.839; 2549.050;  179.050;    0.000
401.895; 2618.050;  154.050;    0.000
401.952; 2606.050;  138.050;    0.000
402.008; 2543.050;  135.050;    0.000
402.064; 2543.050;  154.050;    0.000
402.121; 2652.050;  199.050;    0.000
402.177; 2577.050;  126.050;    0.000
402.233; 2629.050;  190.050;    0.000
402.290; 2717.050;  175.050;    0.000
402.346; 2613.050;  200.050;    0.000
402.402; 2664.050;  191.050;    0.000
402.458; 2640.050;  172.050;    0.000
402.515; 2600.050;  186.050;    0.000
402.571; 2636.050;  189.050;    0.000
402.627; 2650.050;  151.050;    0.000
402.683; 2596.050;  187.050;    0.000
402.740; 2596.050;  147.050;    0.000
402.796; 2600.050;  176.050;    0.000
402.852; 2716.050;  200.050;    0.000
402.908; 2651.050;  201.050;    0.000
402.964; 2706.050;  153.050;    0.000
403.021; 2632.050;  165.050;    0.000
403.077; 2790.050;  195.050;    0.000
403.133; 2654.050;  139.050;    0.000
403.189; 2719.050;  166.050;    0.000
403.245; 2661.050;  194.050;    0.000
403.301; 2722.050;  210.050;    0.000
403.357; 2805.050;  187.050;    0.000
403.414; 2753.050;  195.050;    0.000
403.470; 2697.050;  150.050;    0.000
403.526; 2642.050;  158.050;    0.000
403.582; 2795.050;  184.050;    0.000
403.638; 2702.050;  171.050;    0.000
403.694; 2798.050;  197.050;    0.000
403.750; 2682.050;  196.050;    0.000
403.806; 2779.050;  192.050;    0.000
403.862; 2685.050;  169.050;    0.000
403.918; 2783.050;  199.050;    0.000
403.974; 2771.050;  156.050;    0.000
404.030; 2757.050;  193.050;    0.000
404.086; 2815.050;  161.050;    0.000
404.142; 2820.050;  172.050;    0.000
404.198; 2705.050;  195.050;    0.000
404.254; 2747.050;  167.050;    0.000
404.310; 2790.050;  156.050;    0.000
404.366; 2735.050;  144.050;    0.000
404.422; 2772.050;  161.050;    0.000
404.478; 2868.050;  179.050;    0.000
404.534; 2727.050;  163.050;    0.000
404.590; 2685.050;  183.050;    0.000
404.646; 2851.050;  155.050;    0.000
404.701; 2760.050;  142.050;    0.000
404.757; 2736.050;  175.050;    0.000
404.813; 2829.050;  153.050;    0.000
404.869; 2984.050;  199.050;    0.000
404.925; 2803.050;  153.050;    0.000
404.981; 2742.050;  174.050;    0.000
405.037; 2710.050;  185.050;    0.000
405.092; 2720.050;  166.050;    0.000
405.148; 2798.050;  161.050;    0.000
405.204; 2815.050;  170.050;    0.000
405.260; 2743.050;  154.050;    0.000
405.316; 2771.050;  128.050;    0.000
405.371; 2864.050;  142.050;    0.000
405.427; 2859.050;  196.050;    0.000
405.483; 2771.050;  172.050;    0.000
405.539; 2697.050;  182.050;    0.000
405.594; 2853.050;  153.050;    0.000
405.650; 2816.050;  124.050;    0.000
405.706; 2813.050;  189.050;    0.000
405.761; 2891.050;  165.050;    0.000
405.817; 2838.050;  152.050;    0.000
405.873; 2876.050;  174.050;    0.000
405.928; 2808.050;  167.050;    0.000
405.984; 2882.050;  210.050;    0.000
406.040; 2801.050;  160.050;    0.000
406.095; 2751.050;  163.050;    0.000
406.151; 2852.050;  208.050;    0.000
406.207; 2812.050;  177.050;    0.000
406.262; 2893.050;  176.050;    0.000
406.318; 2792.050;  157.050;    0.000
406.374; 2911.050;  141.050;    0.000
406.429; 2854.050;  189.050;    0.000
406.485; 2996.050;  190.050;    0.000
406.540; 2890.050;  155.050;    0.000
406.596; 2940.050;  182.050;    0.000
406.651; 2947.050;  200.050;    0.000
406.707; 2979.050;  130.050;    0.000
406.763; 2982.050;  174.050;    0.000
406.818; 2985.050;  151.050;    0.000
406.874; 2916.050;  122.050;    0.000
406.929; 3059.050;  153.050;    0.000
406.985; 3097.050;  198.050;    0.000
407.040; 3129.050;  174.050;    0.000
407.095; 3010.050;  161.050;    0.000
407.151; 3176.050;  184.050;    0.000
407.206; 3211.050;  188.050;    0.000
407.262; 3134.050;  180.050;    0.000
407.317; 3256.050;  186.050;    0.000
407.373; 3221.050;  200.050;    0.000
407.428; 3290.050;  211.050;    0.000
407.484; 3141.050;  193.050;    0.000
407.539; 3187.050;  167.050;    0.000
407.594; 3236.050;  178.050;    0.000
407.650; 3112.050;  171.050;    0.000
407.705; 3111.050;  153.050;    0.000
407.760; 3142.050;  196.050;    0.000
407.816; 3161.050;  205.050;    0.000
407.871; 3216.050;  232.050;    0.000
407.926; 3182.050;  215.050;    0.000
407.982; 3169.050;  154.050;    0.000
408.037; 3109.050;  217.050;    0.000
408.092; 3208.050;  190.050;    0.000
408.148; 3126.050;  181.050;    0.000
408.203; 3155.050;  203.050;    0.000
408.258; 3042.050;  154.050;    0.000
408.314; 3190.050;  198.050;    0.000
408.369; 2958.050;  156.050;    0.000
408.424; 3089.050;  216.050;    0.000
408.479; 3087.050;  191.050;    0.000
408.534; 3231.050;  200.050;    0.000
408.590; 3145.050;  182.050;    0.000
408.645; 3099.050;  141.050;    0.000
408.700; 3170.050;  209.050;    0.000
408.755; 3093.050;  205.050;    0.000
408.810; 2965.050;  171.050;    0.000
408.866; 3046.050;  200.050;    0.000
408.921; 3115.050;  188.050;    0.000
408.976; 3049.050;  156.050;    0.000
409.031; 3094.050;  164.050;    0.000
409.086; 3060.050;  155.050;    0.000
409.141; 3047.050;  205.050;    0.000
409.196; 2979.050;  173.050;    0.000
409.252; 3018.050;  179.050;    0.000
409.307; 3057.050;  131.050;    0.000
409.362; 3044.050;  173.050;    0.000
409.417; 3101.050;  120.050;    0.000
409.472; 3101.050;  198.050;    0.000
409.527; 3039.050;  153.050;    0.000
409.582; 3126.050;  177.050;    0.000
409.637; 2956.050;  184.050;    0.000
409.692; 3022.050;  203.050;    0.000
409.747; 3046.050;  158.050;    0.000
409.802; 3007.050;  212.050;    0.000
409.857; 3087.050;  192.050;    0.000
409.912; 3046.050;  179.050;    0.000
409.967; 2991.050;  177.050;    0.000
410.022; 3129.050;  204.050;    0.000
410.077; 3071.050;  175.050;    0.000
410.132; 3081.050;  207.050;    0.000
410.187; 2979.050;  169.050;    0.000
410.242; 3043.050;  186.050;    0.000
410.297; 3008.050;  185.050;    0.000
410.351; 3013.050;  191.050;    0.000
410.406; 3122.050;  215.050;    0.000
410.461; 3033.050;  190.050;    0.000
410.516; 3017.050;  172.050;    0.000
410.571; 3044.050;  190.050;    0.000
410.626; 3064.050;  189.050;    0.000
410.681; 3007.050;  191.050;    0.000
410.736; 3028.050;  166.050;    0.000
410.790; 3116.050;  179.050;    0.000
410.845; 3022.050;  196.050;    0.000
410.900; 3062.050;  168.050;    0.000
410.955; 3075.050;  173.050;    0.000
411.010; 3060.050;  162.050;    0.000
411.064; 2994.050;  205.050;    0.000
411.119; 2963.050;  203.050;    0.000
411.174; 2967.050;  207.050;    0.000
411.229; 2913.050;  218.050;    0.000
411.283; 3066.050;  218.050;    0.000
411.338; 3033.050;  180.050;    0.000
411.393; 3077.050;  191.050;    0.000
411.447; 3051.050;  207.050;    0.000
411.502; 3062.050;  204.050;    0.000
411.557; 3041.050;  208.050;    0.000
411.612; 2962.050;  191.050;    0.000
411.666; 2998.050;  233.050;    0.000
411.721; 3063.050;  193.050;    0.000
411.776; 3025.050;  195.050;    0.000
411.830; 2858.050;  229.050;    0.000
411.885; 3029.050;  181.050;    0.000
411.939; 3067.050;  214.050;    0.000
411.994; 3031.050;  140.050;    0.000
412.049; 3070.050;  205.050;    0.000
412.103; 3077.050;  232.050;    0.000
412.158; 2976.050;  228.050;    0.000
412.212; 3097.050;  204.050;    0.000
412.267; 3075.050;  203.050;    0.000
412.322; 3127.050;  212.050;    0.000
412.376; 3040.050;  195.050;    0.000
412.431; 3104.050;  197.050;    0.000
412.485; 3086.050;  235.050;    0.000
412.540; 3061.050;  197.050;    0.000
412.594; 3043.050;  199.050;    0.000
412.649; 3074.050;  195.050;    0.000
412.703; 2984.050;  214.050;    0.000
412.758; 3039.050;  213.050;    0.000
412.812; 2986.050;  154.050;    0.000
412.866; 2931.050;  159.050;    0.000
412.921; 2953.050;  207.050;    0.000
412.975; 3080.050;  194.050;    0.000
413.030; 3071.050;  214.050;    0.000
413.084; 3045.050;  174.050;    0.000
413.139; 3017.050;  211.050;    0.000
413.193; 2990.050;  223.050;    0.000
413.247; 2976.050;  198.050;    0.000
413.302; 2941.050;  184.050;    0.000
413.356; 3136.050;  194.050;    0.000
413.410; 3096.050;  219.050;    0.000
413.465; 2993.050;  209.050;    0.000
413.519; 2996.050;  178.050;    0.000
413.573; 3026.050;  189.050;    0.000
413.628; 3020.050;  184.050;    0.000
413.682; 3034.050;  189.050;    0.000
413.736; 3026.050;  196.050;    0.000
413.791; 3096.050;  208.050;    0.000
413.845; 3047.050;  206.050;    0.000
413.899; 3022.050;  193.050;    0.000
413.953; 2987.050;  176.050;    0.000
414.008; 2911.050;  163.050;    0.000
414.062; 3004.050;  195.050;    0.000
414.116; 3065.050;  176.050;    0.000
414.170; 3073.050;  218.050;    0.000
414.225; 3027.050;  183.050;    0.000
414.279; 3103.050;  191.050;    0.000
414.333; 3086.050;  215.050;    0.000
414.387; 3150.050;  187.050;    0.000
414.441; 2942.050;  182.050;    0.000
414.496; 3043.050;  205.050;    0.000
414.550; 3057.050;  203.050;    0.000
414.604; 3087.050;  223.050;    0.000
414.658; 3015.050;  159.050;    0.000
414.712; 3107.050;  194.050;    0.000
414.766; 2953.050;  232.050;    0.000
414.820; 3038.050;  235.050;    0.000
414.874; 3029.050;  169.050;    0.000
414.928; 2947.050;  207.050;    0.000
414.982; 2979.050;  174.050;    0.000
415.037; 2986.050;  173.050;    0.000
415.091; 3051.050;  219.050;    0.000
415.145; 3040.050;  174.050;    0.000
415.199; 3211.050;  207.050;    0.000
415.253; 3101.050;  228.050;    0.000
415.307; 2977.050;  182.050;    0.000
415.361; 2981.050;  219.050;    0.000
415.415; 2984.050;  218.050;    0.000
415.469; 2989.050;  233.050;    0.000
415.523; 3148.050;  203.050;    0.000
415.577; 2982.050;  186.050;    0.000
415.631; 3118.050;  215.050;    0.000
415.684; 3046.050;  212.050;    0.000
415.738; 3080.050;  206.050;    0.000
415.792; 3086.050;  219.050;    0.000
415.846; 3031.050;  208.050;    0.000
415.900; 2889.050;  203.050;    0.000
415.954; 3025.050;  237.050;    0.000
416.008; 3010.050;  242.050;    0.000
416.062; 3009.050;  197.050;    0.000
416.116; 2969.050;  189.050;    0.000
416.169; 3002.050;  199.050;    0.000
416.223; 2980.050;  230.050;    0.000
416.277; 3007.050;  226.050;    0.000
416.331; 3040.050;  254.050;    0.000
416.385; 2990.050;  204.050;    0.000
416.439; 3001.050;  201.050;    0.000
416.492; 3094.050;  238.050;    0.000
416.546; 2989.050;  234.050;    0.000
416.600; 2958.050;  244.050;    0.000
416.654; 2979.050;  233.050;    0.000
416.707; 2882.050;  214.050;    0.000
416.761; 2941.050;  214.050;    0.000
416.815; 3056.050;  192.050;    0.000
416.869; 3229.050;  225.050;    0.000
416.922; 3105.050;  214.050;    0.000
416.976; 2991.050;  206.050;    0.000
417.030; 2874.050;  226.050;    0.000
417.083; 2914.050;  207.050;    0.000
417.137; 3036.050;  236.050;    0.000
417.191; 3042.050;  208.050;    0.000
417.244; 2967.050;  260.050;    0.000
417.298; 3031.050;  222.050;    0.000
417.352; 2975.050;  191.050;    0.000
417.405; 3018.050;  229.050;    0.000
417.459; 2993.050;  249.050;    0.000
417.512; 2981.050;  259.050;    0.000
417.566; 3001.050;  220.050;    0.000
417.620; 3105.050;  229.050;    0.000
417.673; 3013.050;  190.050;    0.000
417.727; 2976.050;  204.050;    0.000
417.780; 2988.050;  223.050;    0.000
417.834; 2922.050;  213.050;    0.000
417.887; 2984.050;  238.050;    0.000
417.941; 3096.050;  244.050;    0.000
417.994; 2968.050;  247.050;    0.000
418.048; 3004.050;  225.050;    0.000
418.101; 2991.050;  210.050;    0.000
418.155; 2984.050;  224.050;    0.000
418.208; 3016.050;  229.050;    0.000
418.262; 3052.050;  255.050;    0.000
418.315; 3148.050;  248.050;    0.000
418.369; 2979.050;  212.050;    0.000
418.422; 3062.050;  241.050;    0.000
418.476; 2932.050;  220.050;    0.000
418.529; 3026.050;  257.050;    0.000
418.582; 2990.050;  203.050;    0.000
418.636; 3045.050;  221.050;    0.000
418.689; 3013.050;  202.050;    0.000
418.743; 3128.050;  227.050;    0.000
418.796; 3051.050;  226.050;    0.000
418.849; 3027.050;  199.050;    0.000
418.903; 3070.050;  234.050;    0.000
418.956; 3098.050;  236.050;    0.000
419.009; 3012.050;  305.050;    0.000
419.063; 3051.050;  216.050;    0.000
419.116; 3067.050;  245.050;    0.000
419.169; 3049.050;  208.050;    0.000
419.222; 3019.050;  233.050;    0.000
419.276; 3092.050;  244.050;    0.000
419.329; 2987.050;  197.050;    0.000
419.382; 2955.050;  222.050;    0.000
419.435; 3012.050;  199.050;    0.000
419.489; 2987.050;  226.050;    0.000
419.542; 3024.050;  223.050;    0.000
419.595; 3021.050;  204.050;    0.000
419.648; 3019.050;  234.050;    0.000
419.701; 3002.050;  211.050;    0.000
419.755; 2883.050;  184.050;    0.000
419.808; 2982.050;  223.050;    0.000
419.861; 2944.050;  197.050;    0.000
419.914; 2997.050;  258.050;    0.000
419.967; 2953.050;  205.050;    0.000
420.020; 2929.050;  195.050;    0.000
420.073; 2877.050;  191.050;    0.000
420.127; 3006.050;  256.050;    0.000
420.180; 2980.050;  232.050;    0.000
420.233; 2846.050;  200.050;    0.000
420.286; 2882.050;  207.050;    0.000
420.339; 3034.050;  223.050;    0.000
420.392; 2843.050;  243.050;    0.000
420.445; 2964.050;  195.050;    0.000
420.498; 2857.050;  239.050;    0.000
420.551; 2847.050;  201.050;    0.000
420.604; 2899.050;  245.050;    0.000
420.657; 2843.050;  221.050;    0.000
420.710; 2876.050;  223.050;    0.000
420.763; 3002.050;  241.050;    0.000
420.816; 2867.050;  198.050;    0.000
420.869; 2977.050;  210.050;    0.000
420.922; 2857.050;  206.050;    0.000
420.975; 2854.050;  239.050;    0.000
421.028; 2765.050;  248.050;    0.000
421.081; 2897.050;  236.050;    0.000
421.134; 2716.050;  208.050;    0.000
421.187; 2914.050;  216.050;    0.000
421.239; 2907.050;  199.050;    0.000
421.292; 2856.050;  255.050;    0.000
421.345; 2874.050;  241.050;    0.000
421.398; 2868.050;  221.050;    0.000
421.451; 2851.050;  237.050;    0.000
421.504; 2809.050;  225.050;    0.000
421.557; 2762.050;  213.050;    0.000
421.609; 2873.050;  178.050;    0.000
421.662; 2824.050;  206.050;    0.000
421.715; 2799.050;  212.050;    0.000
421.768; 2828.050;  236.050;    0.000
421.821; 2801.050;  228.050;    0.000
421.873; 2784.050;  200.050;    0.000
421.926; 2770.050;  226.050;    0.000
421.979; 2815.050;  221.050;    0.000
422.032; 2794.050;  219.050;    0.000
422.084; 2772.050;  253.050;    0.000
422.137; 2758.050;  195.050;    0.000
422.190; 2807.050;  192.050;    0.000
422.243; 2751.050;  236.050;    0.000
422.295; 2737.050;  205.050;    0.000
422.348; 2852.050;  198.050;    0.000
422.401; 2757.050;  245.050;    0.000
422.453; 2839.050;  241.050;    0.000
422.506; 2823.050;  255.050;    0.000
422.559; 2744.050;  188.050;    0.000
422.611; 2844.050;  236.050;    0.000
422.664; 2784.050;  218.050;    0.000
422.716; 2849.050;  210.050;    0.000
422.769; 2941.050;  209.050;    0.000
422.822; 2774.050;  213.050;    0.000
422.874; 2826.050;  227.050;    0.000
422.927; 2810.050;  272.050;    0.000
422.979; 2766.050;  204.050;    0.000
423.032; 2732.050;  210.050;    0.000
423.084; 2761.050;  236.050;    0.000
423.137; 2865.050;  223.050;    0.000
423.189; 2785.050;  253.050;    0.000
423.242; 2633.050;  185.050;    0.000
423.294; 2890.050;  232.050;    0.000
423.347; 2802.050;  213.050;    0.000
423.399; 2820.050;  227.050;    0.000
423.452; 2832.050;  236.050;    0.000
423.504; 2756.050;  232.050;    0.000
423.557; 2729.050;  195.050;    0.000
423.609; 2765.050;  238.050;    0.000
423.662; 2816.050;  207.050;    0.000
423.714; 2766.050;  231.050;    0.000
423.766; 2744.050;  211.050;    0.000
423.819; 2764.050;  207.050;    0.000
423.871; 2754.050;  228.050;    0.000
423.923; 2770.050;  223.050;    0.000
423.976; 2693.050;  217.050;    0.000
424.028; 2668.050;  231.050;    0.000
424.081; 2756.050;  219.050;    0.000
424.133; 2691.050;  255.050;    0.000
424.185; 2681.050;  199.050;    0.000
424.238; 2800.050;  238.050;    0.000
424.290; 2764.050;  209.050;    0.000
424.342; 2678.050;  213.050;    0.000
424.394; 2723.050;  215.050;    0.000
424.447; 2756.050;  265.050;    0.000
424.499; 2648.050;  238.050;    0.000
424.551; 2802.050;  256.050;    0.000
424.603; 2649.050;  222.050;    0.000
424.656; 2741.050;  227.050;    0.000
424.708; 2758.050;  250.050;    0.000
424.760; 2718.050;  228.050;    0.000
424.812; 2803.050;  249.050;    0.000
424.864; 2732.050;  222.050;    0.000
424.917; 2594.050;  235.050;    0.000
424.969; 2631.050;  266.050;    0.000
425.021; 2667.050;  233.050;    0.000
425.073; 2737.050;  194.050;    0.000
425.125; 2674.050;  256.050;    0.000
425.177; 2733.050;  225.050;    0.000
425.229; 2673.050;  242.050;    0.000
425.282; 2653.050;  236.050;    0.000
425.334; 2670.050;  250.050;    0.000
425.386; 2727.050;  231.050;    0.000
425.438; 2672.050;  216.050;    0.000
425.490; 2660.050;  240.050;    0.000
425.542; 2640.050;  231.050;    0.000
425.594; 2595.050;  206.050;    0.000
425.646; 2649.050;  201.050;    0.000
425.698; 2582.050;  193.050;    0.000
425.750; 2694.050;  241.050;    0.000
425.802; 2670.050;  199.050;    0.000
425.854; 2603.050;  216.050;    0.000
425.906; 2676.050;  220.050;    0.000
425.958; 2597.050;  200.050;    0.000
426.010; 2557.050;  214.050;    0.000
426.062; 2623.050;  245.050;    0.000
426.114; 2503.050;  241.050;    0.000
426.166; 2644.050;  241.050;    0.000
426.218; 2640.050;  255.050;    0.000
426.270; 2534.050;  228.050;    0.000
426.321; 2465.050;  222.050;    0.000
426.373; 2639.050;  218.050;    0.000
426.425; 2592.050;  258.050;    0.000
426.477; 2568.050;  225.050;    0.000
426.529; 2537.050;  223.050;    0.000
426.581; 2538.050;  198.050;    0.000
426.633; 2625.050;  228.050;    0.000
426.684; 2648.050;  210.050;    0.000
426.736; 2524.050;  208.050;    0.000
426.788; 2642.050;  231.050;    0.000
426.840; 2597.050;  212.050;    0.000
426.892; 2542.050;  221.050;    0.000
426.943; 2532.050;  240.050;    0.000
426.995; 2538.050;  243.050;    0.000
427.047; 2449.050;  231.050;    0.000
427.099; 2600.050;  189.050;    0.000
427.150; 2517.050;  212.050;    0.000
427.202; 2464.050;  219.050;    0.000
427.254; 2497.050;  203.050;    0.000
427.306; 2566.050;  217.050;    0.000
427.357; 2512.050;  232.050;    0.000
427.409; 2486.050;  251.050;    0.000
427.461; 2570.050;  185.050;    0.000
427.512; 2496.050;  239.050;    0.000
427.564; 2549.050;  208.050;    0.000
427.616; 2538.050;  233.050;    0.000
427.667; 2481.050;  223.050;    0.000
427.719; 2561.050;  206.050;    0.000
427.770; 2462.050;  195.050;    0.000
427.822; 2526.050;  223.050;    0.000
427.874; 2453.050;  232.050;    0.000
427.925; 2556.050;  209.050;    0.000
427.977; 2478.050;  208.050;    0.000
428.028; 2441.050;  187.050;    0.000
428.080; 2521.050;  209.050;    0.000
428.131; 2524.050;  237.050;    0.000
428.183; 2404.050;  200.050;    0.000
428.234; 2379.050;  215.050;    0.000
428.286; 2480.050;  229.050;    0.000
428.337; 2498.050;  206.050;    0.000
428.389; 2594.050;  216.050;    0.000
428.440; 2492.050;  287.050;    0.000
428.492; 2439.050;  269.050;    0.000
428.543; 2468.050;  234.050;    0.000
428.595; 2507.050;  214.050;    0.000
428.646; 2483.050;  229.050;    0.000
428.697; 2380.050;  249.050;    0.000
428.749; 2431.050;  250.050;    0.000
428.800; 2478.050;  242.050;    0.000
428.852; 2415.050;  232.050;    0.000
428.903; 2347.050;  196.050;    0.000
428.954; 2360.050;  226.050;    0.000
429.006; 2375.050;  232.050;    0.000
429.057; 2377.050;  188.050;    0.000
429.108; 2443.050;  237.050;    0.000
429.160; 2375.050;  221.050;    0.000
429.211; 2510.050;  222.050;    0.000
429.262; 2437.050;  215.050;    0.000
429.314; 2454.050;  225.050;    0.000
429.365; 2357.050;  220.050;    0.000
429.416; 2459.050;  242.050;    0.000
429.467; 2525.050;  220.050;    0.000
429.519; 2422.050;  217.050;    0.000
429.570; 2423.050;  248.050;    0.000
429.621; 2410.050;  233.050;    0.000
429.672; 2409.050;  220.050;    0.000
429.724; 2400.050;  179.050;    0.000
429.775; 2379.050;  218.050;    0.000
429.826; 2343.050;  197.050;    0.000
429.877; 2271.050;  206.050;    0.000
429.928; 2434.050;  229.050;    0.000
429.980; 2384.050;  207.050;    0.000
430.031; 2459.050;  264.050;    0.000
430.082; 2365.050;  210.050;    0.000
430.133; 2299.050;  218.050;    0.000
430.184; 2401.050;  246.050;    0.000
430.235; 2312.050;  201.050;    0.000
430.286; 2471.050;  207.050;    0.000
430.337; 2448.050;  224.050;    0.000
430.388; 2421.050;  216.050;    0.000
430.439; 2338.050;  210.050;    0.000
430.490; 2328.050;  208.050;    0.000
430.542; 2365.050;  211.050;    0.000
430.593; 2280.050;  203.050;    0.000
430.644; 2300.050;  235.050;    0.000
430.695; 2359.050;  200.050;    0.000
430.746; 2344.050;  215.050;    0.000
430.797; 2308.050;  235.050;    0.000
430.848; 2296.050;  197.050;    0.000
430.898; 2434.050;  209.050;    0.000
430.949; 2301.050;  231.050;    0.000
431.000; 2300.050;  227.050;    0.000
431.051; 2402.050;  225.050;    0.000
431.102; 2400.050;  180.050;    0.000
431.153; 2267.050;  248.050;    0.000
431.204; 2408.050;  185.050;    0.000
431.255; 2360.050;  199.050;    0.000
431.306; 2409.050;  228.050;    0.000
431.357; 2338.050;  237.050;    0.000
431.408; 2323.050;  223.050;    0.000
431.458; 2310.050;  240.050;    0.000
431.509; 2390.050;  207.050;    0.000
431.560; 2358.050;  219.050;    0.000
431.611; 2463.050;  206.050;    0.000
431.662; 2447.050;  253.050;    0.000
431.713; 2325.050;  199.050;    0.000
431.763; 2383.050;  197.050;    0.000
431.814; 2353.050;  205.050;    0.000
431.865; 2307.050;  218.050;    0.000
431.916; 2315.050;  202.050;    0.000
431.966; 2340.050;  203.050;    0.000
432.017; 2357.050;  244.050;    0.000
432.068; 2398.050;  246.050;    0.000
432.118; 2323.050;  212.050;    0.000
432.169; 2355.050;  214.050;    0.000
432.220; 2346.050;  241.050;    0.000
432.271; 2364.050;  237.050;    0.000
432.321; 2385.050;  246.050;    0.000
432.372; 2347.050;  257.050;    0.000
432.423; 2377.050;  198.050;    0.000
432.473; 2309.050;  202.050;    0.000
432.524; 2260.050;  242.050;    0.000
432.574; 2328.050;  202.050;    0.000
432.625; 2295.050;  212.050;    0.000
432.676; 2346.050;  242.050;    0.000
432.726; 2330.050;  268.050;    0.000
432.777; 2242.050;  228.050;    0.000
432.827; 2372.050;  230.050;    0.000
432.878; 2231.050;  221.050;    0.000
432.928; 2325.050;  218.050;    0.000
432.979; 2297.050;  243.050;    0.000
433.029; 2211.050;  217.050;    0.000
433.080; 2362.050;  208.050;    0.000
433.130; 2445.050;  236.050;    0.000
433.181; 2330.050;  282.050;    0.000
433.231; 2440.050;  257.050;    0.000
433.282; 2381.050;  268.050;    0.000
433.332; 2323.050;  241.050;    0.000
433.383; 2340.050;  271.050;    0.000
433.433; 2413.050;  262.050;    0.000
433.484; 2338.050;  266.050;    0.000
433.534; 2374.050;  217.050;    0.000
433.585; 2299.050;  230.050;    0.000
433.635; 2416.050;  245.050;    0.000
433.685; 2314.050;  250.050;    0.000
433.736; 2361.050;  308.050;    0.000
433.786; 2361.050;  242.050;    0.000
433.836; 2349.050;  256.050;    0.000
433.887; 2342.050;  250.050;    0.000
433.937; 2333.050;  250.050;    0.000
433.987; 2374.050;  219.050;    0.000
434.038; 2312.050;  248.050;    0.000
434.088; 2222.050;  231.050;    0.000
434.138; 2323.050;  266.050;    0.000
434.189; 2300.050;  240.050;    0.000
434.239; 2387.050;  245.050;    0.000
434.289; 2370.050;  285.050;    0.000
434.339; 2465.050;  255.050;    0.000
434.389; 2391.050;  242.050;    0.000
434.440; 2322.050;  273.050;    0.000
434.490; 2315.050;  272.050;    0.000
434.540; 2447.050;  264.050;    0.000
434.590; 2374.050;  233.050;    0.000
434.640; 2377.050;  244.050;    0.000
434.691; 2421.050;  226.050;    0.000
434.741; 2393.050;  253.050;    0.000
434.791; 2387.050;  269.050;    0.000
434.841; 2429.050;  252.050;    0.000
434.891; 2506.050;  281.050;    0.000
434.941; 2476.050;  296.050;    0.000
434.991; 2420.050;  264.050;    0.000
435.042; 2435.050;  262.050;    0.000
435.092; 2424.050;  237.050;    0.000
435.142; 2377.050;  232.050;    0.000
435.192; 2432.050;  251.050;    0.000
435.242; 2370.050;  251.050;    0.000
435.292; 2443.050;  246.050;    0.000
435.342; 2258.050;  236.050;    0.000
435.392; 2406.050;  273.050;    0.000
435.442; 2378.050;  273.050;    0.000
435.492; 2391.050;  273.050;    0.000
435.542; 2323.050;  242.050;    0.000
435.592; 2285.050;  213.050;    0.000
435.642; 2363.050;  248.050;    0.000
435.692; 2299.050;  242.050;    0.000
435.742; 2285.050;  222.050;    0.000
435.792; 2217.050;  260.050;    0.000
435.842; 2224.050;  266.050;    0.000
435.891; 2265.050;  227.050;    0.000
435.941; 2279.050;  228.050;    0.000
435.991; 2312.050;  282.050;    0.000
436.041; 2320.050;  231.050;    0.000
436.091; 2254.050;  250.050;    0.000
436.141; 2310.050;  221.050;    0.000
436.191; 2239.050;  223.050;    0.000
436.241; 2218.050;  250.050;    0.000
436.290; 2340.050;  243.050;    0.000
436.340; 2193.050;  236.050;    0.000
436.390; 2269.050;  260.050;    0.000
436.440; 2161.050;  253.050;    0.000
436.490; 2259.050;  236.050;    0.000
436.539; 2178.050;  249.050;    0.000
436.589; 2250.050;  231.050;    0.000
436.639; 2174.050;  237.050;    0.000
436.689; 2284.050;  222.050;    0.000
436.738; 2287.050;  263.050;    0.000
436.788; 2207.050;  230.050;    0.000
436.838; 2203.050;  281.050;    0.000
436.887; 2193.050;  230.050;    0.000
436.937; 2244.050;  250.050;    0.000
436.987; 2131.050;  251.050;    0.000
437.036; 2245.050;  238.050;    0.000
437.086; 2215.050;  234.050;    0.000
437.136; 2186.050;  250.050;    0.000
437.185; 2142.050;  228.050;    0.000
437.235; 2205.050;  309.050;    0.000
437.285; 2144.050;  246.050;    0.000
437.334; 2127.050;  262.050;    0.000
437.384; 2165.050;  228.050;    0.000
437.433; 2225.050;  241.050;    0.000
437.483; 2168.050;  220.050;    0.000
437.532; 2226.050;  252.050;    0.000
437.582; 2173.050;  270.050;    0.000
437.631; 2132.050;  251.050;    0.000
437.681; 2140.050;  284.050;    0.000
437.730; 2110.050;  239.050;    0.000
437.780; 2081.050;  221.050;    0.000
437.829; 2166.050;  254.050;    0.000
437.879; 2066.050;  221.050;    0.000
437.928; 2048.050;  205.050;    0.000
437.978; 2221.050;  223.050;    0.000
438.027; 2140.050;  262.050;    0.000
438.077; 2187.050;  280.050;    0.000
438.126; 2163.050;  254.050;    0.000
438.176; 2080.050;  230.050;    0.000
438.225; 2106.050;  227.050;    0.000
438.274; 2128.050;  264.050;    0.000
438.324; 2105.050;  233.050;    0.000
438.373; 2133.050;  238.050;    0.000
438.422; 2094.050;  260.050;    0.000
438.472; 2079.050;  223.050;    0.000
438.521; 2142.050;  213.050;    0.000
438.570; 2184.050;  236.050;    0.000
438.620; 2200.050;  282.050;    0.000
438.669; 2123.050;  209.050;    0.000
438.718; 2095.050;  245.050;    0.000
438.768; 2093.050;  238.050;    0.000
438.817; 2108.050;  259.050;    0.000
438.866; 2054.050;  232.050;    0.000
438.915; 2157.050;  288.050;    0.000
438.965; 2111.050;  228.050;    0.000
439.014; 2190.050;  246.050;    0.000
439.063; 2132.050;  287.050;    0.000
439.112; 2109.050;  217.050;    0.000
439.162; 2176.050;  275.050;    0.000
439.211; 2125.050;  287.050;    0.000
439.260; 2063.050;  238.050;    0.000
439.309; 2150.050;  225.050;    0.000
439.358; 2180.050;  248.050;    0.000
439.407; 2114.050;  237.050;    0.000
439.456; 2140.050;  223.050;    0.000
439.506; 2077.050;  266.050;    0.000
439.555; 2225.050;  260.050;    0.000
439.604; 2144.050;  233.050;    0.000
439.653; 2097.050;  242.050;    0.000
439.702; 2128.050;  255.050;    0.000
439.751; 2130.050;  202.050;    0.000
439.800; 2112.050;  247.050;    0.000
439.849; 2186.050;  250.050;    0.000
439.898; 2104.050;  216.050;    0.000
439.947; 2134.050;  231.050;    0.000
439.996; 2163.050;  272.050;    0.000
440.045; 2156.050;  217.050;    0.000
440.094; 2171.050;  220.050;    0.000
440.143; 2170.050;  245.050;    0.000
440.192; 2169.050;  267.050;    0.000
440.241; 2197.050;  263.050;    0.000
440.290; 2166.050;  246.050;    0.000
440.339; 2081.050;  225.050;    0.000
440.388; 2165.050;  256.050;    0.000
440.437; 2202.050;  253.050;    0.000
440.486; 2122.050;  249.050;    0.000
440.535; 2109.050;  232.050;    0.000
440.583; 2130.050;  220.050;    0.000
440.632; 2084.050;  239.050;    0.000
440.681; 2115.050;  236.050;    0.000
440.730; 2263.050;  282.050;    0.000
440.779; 2230.050;  245.050;    0.000
440.828; 2165.050;  213.050;    0.000
440.876; 2134.050;  231.050;    0.000
440.925; 2121.050;  271.050;    0.000
440.974; 2169.050;  240.050;    0.000
441.023; 2169.050;  214.050;    0.000
441.072; 2210.050;  236.050;    0.000
441.120; 2163.050;  271.050;    0.000
441.169; 2262.050;  281.050;    0.000
441.218; 2206.050;  255.050;    0.000
441.267; 2250.050;  272.050;    0.000
441.315; 2289.050;  229.050;    0.000
441.364; 2275.050;  241.050;    0.000
441.413; 2235.050;  224.050;    0.000
441.461; 2235.050;  241.050;    0.000
441.510; 2211.050;  289.050;    0.000
441.559; 2268.050;  222.050;    0.000
441.607; 2319.050;  242.050;    0.000
441.656; 2227.050;  255.050;    0.000
441.705; 2297.050;  260.050;    0.000
441.753; 2281.050;  290.050;    0.000
441.802; 2310.050;  264.050;    0.000
441.850; 2285.050;  224.050;    0.000
441.899; 2237.050;  275.050;    0.000
441.948; 2274.050;  227.050;    0.000
441.996; 2256.050;  216.050;    0.000
442.045; 2303.050;  271.050;    0.000
442.093; 2252.050;  227.050;    0.000
442.142; 2232.050;  273.050;    0.000
442.190; 2229.050;  257.050;    0.000
442.239; 2368.050;  269.050;    0.000
442.287; 2331.050;  257.050;    0.000
442.336; 2294.050;  237.050;    0.000
442.384; 2220.050;  214.050;    0.000
442.433; 2234.050;  272.050;    0.000
442.481; 2330.050;  258.050;    0.000
442.529; 2273.050;  242.050;    0.000
442.578; 2247.050;  278.050;    0.000
442.626; 2240.050;  264.050;    0.000
442.675; 2319.050;  293.050;    0.000
442.723; 2175.050;  244.050;    0.000
442.771; 2302.050;  232.050;    0.000
442.820; 2261.050;  266.050;    0.000
442.868; 2230.050;  253.050;    0.000
442.917; 2247.050;  250.050;    0.000
442.965; 2279.050;  279.050;    0.000
443.013; 2223.050;  253.050;    0.000
443.062; 2246.050;  282.050;    0.000
443.110; 2241.050;  258.050;    0.000
443.158; 2237.050;  246.050;    0.000
443.206; 2223.050;  255.050;    0.000
443.255; 2261.050;  296.050;    0.000
443.303; 2251.050;  272.050;    0.000
443.351; 2248.050;  270.050;    0.000
443.399; 2296.050;  258.050;    0.000
443.448; 2247.050;  265.050;    0.000
443.496; 2274.050;  219.050;    0.000
443.544; 2315.050;  205.050;    0.000
443.592; 2302.050;  266.050;    0.000
443.640; 2278.050;  260.050;    0.000
443.689; 2197.050;  232.050;    0.000
443.737; 2293.050;  281.050;    0.000
443.785; 2323.050;  248.050;    0.000
443.833; 2321.050;  286.050;    0.000
443.881; 2289.050;  225.050;    0.000
443.929; 2198.050;  255.050;    0.000
443.977; 2162.050;  248.050;    0.000
444.025; 2253.050;  255.050;    0.000
444.074; 2410.050;  266.050;    0.000
444.122; 2338.050;  266.050;    0.000
444.170; 2373.050;  207.050;    0.000
444.218; 2409.050;  253.050;    0.000
444.266; 2298.050;  263.050;    0.000
444.314; 2499.050;  272.050;    0.000
444.362; 2365.050;  272.050;    0.000
444.410; 2432.050;  255.050;    0.000
444.458; 2382.050;  288.050;    0.000
444.506; 2407.050;  263.050;    0.000
444.554; 2341.050;  243.050;    0.000
444.602; 2452.050;  285.050;    0.000
444.650; 2466.050;  273.050;    0.000
444.698; 2403.050;  221.050;    0.000
444.746; 2461.050;  243.050;    0.000
444.793; 2352.050;  217.050;    0.000
444.841; 2410.050;  262.050;    0.000
444.889; 2507.050;  264.050;    0.000
444.937; 2383.050;  226.050;    0.000
444.985; 2482.050;  257.050;    0.000
445.033; 2408.050;  264.050;    0.000
445.081; 2471.050;  264.050;    0.000
445.129; 2367.050;  187.050;    0.000
445.176; 2459.050;  212.050;    0.000
445.224; 2403.050;  198.050;    0.000
445.272; 2328.050;  265.050;    0.000
445.320; 2343.050;  239.050;    0.000
445.368; 2337.050;  245.050;    0.000
445.415; 2363.050;  215.050;    0.000
445.463; 2309.050;  202.050;    0.000
445.511; 2346.050;  234.050;    0.000
445.559; 2357.050;  269.050;    0.000
445.606; 2354.050;  214.050;    0.000
445.654; 2277.050;  227.050;    0.000
445.702; 2334.050;  276.050;    0.000
445.749; 2421.050;  256.050;    0.000
445.797; 2358.050;  236.050;    0.000
445.845; 2325.050;  230.050;    0.000
445.892; 2362.050;  233.050;    0.000
445.940; 2417.050;  257.050;    0.000
445.988; 2392.050;  253.050;    0.000
446.035; 2447.050;  265.050;    0.000
446.083; 2424.050;  254.050;    0.000
446.130; 2299.050;  228.050;    0.000
446.178; 2422.050;  256.050;    0.000
446.226; 2368.050;  238.050;    0.000
446.273; 2475.050;  228.050;    0.000
446.321; 2432.050;  220.050;    0.000
446.368; 2327.050;  249.050;    0.000
446.416; 2301.050;  221.050;    0.000
446.463; 2360.050;  232.050;    0.000
446.511; 2381.050;  243.050;    0.000
446.558; 2356.050;  217.050;    0.000
446.606; 2453.050;  256.050;    0.000
446.653; 2464.050;  238.050;    0.000
446.701; 2364.050;  259.050;    0.000
446.748; 2528.050;  227.050;    0.000
446.796; 2504.050;  236.050;    0.000
446.843; 2612.050;  241.050;    0.000
446.891; 2488.050;  292.050;    0.000
446.938; 2584.050;  219.050;    0.000
446.985; 2600.050;  255.050;    0.000
447.033; 2618.050;  237.050;    0.000
447.080; 2598.050;  278.050;    0.000
447.128; 2586.050;  237.050;    0.000
447.175; 2672.050;  247.050;    0.000
447.222; 2638.050;  235.050;    0.000
447.270; 2727.050;  274.050;    0.000
447.317; 2691.050;  222.050;    0.000
447.364; 2593.050;  230.050;    0.000
447.411; 2712.050;  297.050;    0.000
447.459; 2729.050;  243.050;    0.000
447.506; 2703.050;  202.050;    0.000
447.553; 2845.050;  232.050;    0.000
447.601; 2886.050;  262.050;    0.000
447.648; 2918.050;  254.050;    0.000
447.695; 2754.050;  287.050;    0.000
447.742; 2855.050;  232.050;    0.000
447.789; 2978.050;  257.050;    0.000
447.837; 3039.050;  260.050;    0.000
447.884; 3063.050;  272.050;    0.000
447.931; 3179.050;  241.050;    0.000
447.978; 3123.050;  241.050;    0.000
448.025; 3115.050;  264.050;    0.000
448.072; 3113.050;  279.050;    0.000
448.120; 3221.050;  263.050;    0.000
448.167; 3145.050;  284.050;    0.000
448.214; 3081.050;  252.050;    0.000
448.261; 2947.050;  247.050;    0.000
448.308; 3022.050;  249.050;    0.000
448.355; 2980.050;  263.050;    0.000
448.402; 2992.050;  251.050;    0.000
448.449; 2860.050;  257.050;    0.000
448.496; 2869.050;  243.050;    0.000
448.543; 2777.050;  274.050;    0.000
448.590; 2750.050;  299.050;    0.000
448.637; 2748.050;  259.050;    0.000
448.684; 2726.050;  266.050;    0.000
448.731; 2636.050;  261.050;    0.000
448.778; 2714.050;  292.050;    0.000
448.825; 2491.050;  253.050;    0.000
448.872; 2558.050;  253.050;    0.000
448.919; 2587.050;  218.050;    0.000
448.966; 2566.050;  254.050;    0.000
449.013; 2511.050;  263.050;    0.000
449.060; 2519.050;  282.050;    0.000
449.107; 2453.050;  244.050;    0.000
449.154; 2409.050;  236.050;    0.000
449.200; 2461.050;  226.050;    0.000
449.247; 2459.050;  273.050;    0.000
449.294; 2401.050;  270.050;    0.000
449.341; 2388.050;  283.050;    0.000
449.388; 2282.050;  261.050;    0.000
449.435; 2288.050;  254.050;    0.000
449.481; 2353.050;  318.050;    0.000
449.528; 2306.050;  274.050;    0.000
449.575; 2302.050;  251.050;    0.000
449.622; 2253.050;  276.050;    0.000
449.668; 2298.050;  242.050;    0.000
449.715; 2220.050;  286.050;    0.000
449.762; 2281.050;  268.050;    0.000
449.809; 2329.050;  285.050;    0.000
449.855; 2218.050;  277.050;    0.000
449.902; 2337.050;  246.050;    0.000
449.949; 2222.050;  268.050;    0.000
449.995; 2350.050;  289.050;    0.000
450.042; 2294.050;  256.050;    0.000
450.089; 2191.050;  290.050;    0.000
450.135; 2192.050;  300.050;    0.000
450.182; 2185.050;  317.050;    0.000
450.229; 2165.050;  282.050;    0.000
450.275; 2277.050;  307.050;    0.000
450.322; 2331.050;  260.050;    0.000
450.368; 2206.050;  315.050;    0.000
450.415; 2258.050;  306.050;    0.000
450.462; 2178.050;  314.050;    0.000
450.508; 2150.050;  303.050;    0.000
450.555; 2191.050;  281.050;    0.000
450.601; 2261.050;  291.050;    0.000
450.648; 2199.050;  288.050;    0.000
450.694; 2239.050;  290.050;    0.000
450.741; 2181.050;  303.050;    0.000
450.787; 2219.050;  298.050;    0.000
450.834; 2116.050;  265.050;    0.000
450.880; 2093.050;  273.050;    0.000
450.927; 2175.050;  312.050;    0.000
450.973; 2308.050;  303.050;    0.000
451.019; 2139.050;  222.050;    0.000
451.066; 2136.050;  284.050;    0.000
451.112; 2182.050;  296.050;    0.000
451.159; 2189.050;  299.050;    0.000
451.205; 2108.050;  311.050;    0.000
451.251; 2153.050;  306.050;    0.000
451.298; 2170.050;  281.050;    0.000
451.344; 2093.050;  311.050;    0.000
451.390; 2136.050;  331.050;    0.000
451.437; 2164.050;  303.050;    0.000
451.483; 2110.050;  284.050;    0.000
451.529; 2063.050;  310.050;    0.000
451.576; 2222.050;  301.050;    0.000
451.622; 2140.050;  275.050;    0.000
451.668; 2102.050;  269.050;    0.000
451.714; 2111.050;  277.050;    0.000
451.761; 2051.050;  298.050;    0.000
451.807; 2119.050;  316.050;    0.000
451.853; 2092.050;  301.050;    0.000
451.899; 2003.050;  292.050;    0.000
451.945; 2079.050;  324.050;    0.000
451.992; 2087.050;  292.050;    0.000
452.038; 2041.050;  261.050;    0.000
452.084; 2060.050;  286.050;    0.000
452.130; 2129.050;  301.050;    0.000
452.176; 2065.050;  287.050;    0.000
452.222; 2027.050;  265.050;    0.000
452.268; 1980.050;  268.050;    0.000
452.315; 2060.050;  272.050;    0.000
452.361; 2046.050;  258.050;    0.000
452.407; 1998.050;  279.050;    0.000
452.453; 1969.050;  252.050;    0.000
452.499; 2064.050;  305.050;    0.000
452.545; 2048.050;  263.050;    0.000
452.591; 2053.050;  284.050;    0.000
452.637; 2033.050;  289.050;    0.000
452.683; 1926.050;  249.050;    0.000
452.729; 2074.050;  290.050;    0.000
452.775; 1916.050;  315.050;    0.000
452.821; 1962.050;  271.050;    0.000
452.867; 1940.050;  258.050;    0.000
452.913; 1975.050;  256.050;    0.000
452.959; 2039.050;  266.050;    0.000
453.005; 2016.050;  299.050;    0.000
453.051; 2009.050;  299.050;    0.000
453.097; 2096.050;  268.050;    0.000
453.142; 1929.050;  251.050;    0.000
453.188; 1995.050;  284.050;    0.000
453.234; 2040.050;  285.050;    0.000
453.280; 1930.050;  263.050;    0.000
453.326; 1982.050;  273.050;    0.000
453.372; 1962.050;  253.050;    0.000
453.418; 1929.050;  269.050;    0.000
453.463; 2006.050;  250.050;    0.000
453.509; 1957.050;  289.050;    0.000
453.555; 2069.050;  262.050;    0.000
453.601; 1927.050;  274.050;    0.000
453.647; 2054.050;  306.050;    0.000
453.692; 1917.050;  264.050;    0.000
453.738; 2020.050;  312.050;    0.000
453.784; 1898.050;  300.050;    0.000
453.829; 1931.050;  284.050;    0.000
453.875; 1921.050;  270.050;    0.000
453.921; 1892.050;  237.050;    0.000
453.967; 1946.050;  263.050;    0.000
454.012; 1955.050;  295.050;    0.000
454.058; 1977.050;  293.050;    0.000
454.104; 2052.050;  264.050;    0.000
454.149; 1970.050;  282.050;    0.000
454.195; 1925.050;  277.050;    0.000
454.240; 1979.050;  307.050;    0.000
454.286; 2012.050;  282.050;    0.000
454.332; 1946.050;  291.050;    0.000
454.377; 1997.050;  302.050;    0.000
454.423; 1948.050;  276.050;    0.000
454.468; 1987.050;  281.050;    0.000
454.514; 1964.050;  290.050;    0.000
454.559; 1983.050;  289.050;    0.000
454.605; 1926.050;  258.050;    0.000
454.650; 2036.050;  281.050;    0.000
454.696; 1915.050;  308.050;    0.000
454.741; 1976.050;  288.050;    0.000
454.787; 1963.050;  284.050;    0.000
454.832; 1893.050;  306.050;    0.000
454.878; 1954.050;  288.050;    0.000
454.923; 2033.050;  287.050;    0.000
454.969; 1998.050;  325.050;    0.000
455.014; 1941.050;  323.050;    0.000
455.060; 1958.050;  290.050;    0.000
455.105; 1929.050;  285.050;    0.000
455.150; 2014.050;  303.050;    0.000
455.196; 1971.050;  282.050;    0.000
455.241; 1976.050;  281.050;    0.000
455.286; 2001.050;  290.050;    0.000
455.332; 1984.050;  280.050;    0.000
455.377; 1925.050;  243.050;    0.000
455.422; 1995.050;  308.050;    0.000
455.468; 1902.050;  308.050;    0.000
455.513; 1938.050;  290.050;    0.000
455.558; 1828.050;  211.050;    0.000
455.604; 1938.050;  289.050;    0.000
455.649; 1947.050;  297.050;    0.000
455.694; 1923.050;  287.050;    0.000
455.739; 1909.050;  296.050;    0.000
455.785; 1920.050;  315.050;    0.000
455.830; 1937.050;  328.050;    0.000
455.875; 1933.050;  310.050;    0.000
455.920; 1909.050;  261.050;    0.000
455.965; 1924.050;  277.050;    0.000
456.010; 1952.050;  317.050;    0.000
456.056; 1932.050;  299.050;    0.000
456.101; 1944.050;  262.050;    0.000
456.146; 1920.050;  318.050;    0.000
456.191; 1986.050;  274.050;    0.000
456.236; 1934.050;  274.050;    0.000
456.281; 1868.050;  275.050;    0.000
456.326; 1876.050;  256.050;    0.000
456.371; 1914.050;  260.050;    0.000
456.416; 1853.050;  304.050;    0.000
456.461; 1893.050;  278.050;    0.000
456.507; 1868.050;  299.050;    0.000
456.552; 1968.050;  305.050;    0.000
456.597; 1927.050;  271.050;    0.000
456.642; 1994.050;  273.050;    0.000
456.687; 1980.050;  290.050;    0.000
456.732; 1972.050;  327.050;    0.000
456.776; 1956.050;  284.050;    0.000
456.821; 2001.050;  321.050;    0.000
456.866; 1963.050;  272.050;    0.000
456.911; 1858.050;  232.050;    0.000
456.956; 1822.050;  263.050;    0.000
457.001; 1890.050;  277.050;    0.000
457.046; 1950.050;  284.050;    0.000
457.091; 1955.050;  269.050;    0.000
457.136; 1987.050;  269.050;    0.000
457.181; 1921.050;  275.050;    0.000
457.225; 1949.050;  310.050;    0.000
457.270; 1895.050;  295.050;    0.000
457.315; 1961.050;  284.050;    0.000
457.360; 1899.050;  264.050;    0.000
457.405; 1950.050;  273.050;    0.000
457.450; 2018.050;  284.050;    0.000
457.494; 1909.050;  273.050;    0.000
457.539; 1846.050;  287.050;    0.000
457.584; 1981.050;  279.050;    0.000
457.629; 2009.050;  288.050;    0.000
457.673; 1951.050;  297.050;    0.000
457.718; 1976.050;  270.050;    0.000
457.763; 2005.050;  295.050;    0.000
457.807; 1930.050;  321.050;    0.000
457.852; 1928.050;  293.050;    0.000
457.897; 1929.050;  282.050;    0.000
457.941; 1972.050;  320.050;    0.000
457.986; 1978.050;  295.050;    0.000
458.031; 2027.050;  314.050;    0.000
458.075; 1950.050;  280.050;    0.000
458.120; 1986.050;  314.050;    0.000
458.165; 1920.050;  289.050;    0.000
458.209; 2045.050;  289.050;    0.000
458.254; 1995.050;  272.050;    0.000
458.298; 2043.050;  305.050;    0.000
458.343; 2037.050;  284.050;    0.000
458.387; 2082.050;  340.050;    0.000
458.432; 2036.050;  306.050;    0.000
458.476; 2017.050;  311.050;    0.000
458.521; 1979.050;  304.050;    0.000
458.565; 2088.050;  329.050;    0.000
458.610; 2075.050;  287.050;    0.000
458.654; 2082.050;  300.050;    0.000
458.699; 2074.050;  295.050;    0.000
458.743; 2011.050;  269.050;    0.000
458.788; 2078.050;  294.050;    0.000
458.832; 2079.050;  301.050;    0.000
458.877; 2095.050;  303.050;    0.000
458.921; 2009.050;  259.050;    0.000
458.965; 2057.050;  308.050;    0.000
459.010; 2105.050;  330.050;    0.000
459.054; 2113.050;  298.050;    0.000
459.099; 2043.050;  303.050;    0.000
459.143; 2044.050;  333.050;    0.000
459.187; 2128.050;  291.050;    0.000
459.231; 2034.050;  316.050;    0.000
459.276; 2096.050;  294.050;    0.000
459.320; 2135.050;  291.050;    0.000
459.364; 2090.050;  318.050;    0.000
459.409; 2060.050;  325.050;    0.000
459.453; 2079.050;  293.050;    0.000
459.497; 2130.050;  354.050;    0.000
459.541; 2123.050;  313.050;    0.000
459.586; 2089.050;  282.050;    0.000
459.630; 2166.050;  286.050;    0.000
459.674; 2189.050;  292.050;    0.000
459.718; 2187.050;  280.050;    0.000
459.762; 2127.050;  304.050;    0.000
459.807; 2130.050;  352.050;    0.000
459.851; 2163.050;  300.050;    0.000
459.895; 2224.050;  311.050;    0.000
459.939; 2197.050;  303.050;    0.000
459.983; 2201.050;  299.050;    0.000
460.027; 2135.050;  307.050;    0.000
460.071; 2165.050;  313.050;    0.000
460.115; 2258.050;  325.050;    0.000
460.159; 2214.050;  331.050;    0.000
460.204; 2186.050;  301.050;    0.000
460.248; 2227.050;  329.050;    0.000
460.292; 2260.050;  310.050;    0.000
460.336; 2219.050;  304.050;    0.000
460.380; 2191.050;  313.050;    0.000
460.424; 2271.050;  300.050;    0.000
460.468; 2255.050;  338.050;    0.000
460.512; 2160.050;  310.050;    0.000
460.556; 2349.050;  337.050;    0.000
460.599; 2111.050;  310.050;    0.000
460.643; 2245.050;  303.050;    0.000
460.687; 2261.050;  316.050;    0.000
460.731; 2290.050;  292.050;    0.000
460.775; 2196.050;  294.050;    0.000
460.819; 2251.050;  310.050;    0.000
460.863; 2240.050;  349.050;    0.000
460.907; 2144.050;  265.050;    0.000
460.951; 2253.050;  325.050;    0.000
460.995; 2224.050;  338.050;    0.000
461.038; 2243.050;  304.050;    0.000
461.082; 2192.050;  312.050;    0.000
461.126; 2238.050;  358.050;    0.000
461.170; 2220.050;  306.050;    0.000
461.214; 2234.050;  330.050;    0.000
461.257; 2285.050;  311.050;    0.000
461.301; 2198.050;  303.050;    0.000
461.345; 2303.050;  310.050;    0.000
461.389; 2224.050;  296.050;    0.000
461.432; 2235.050;  304.050;    0.000
461.476; 2232.050;  305.050;    0.000
461.520; 2229.050;  319.050;    0.000
461.563; 2247.050;  294.050;    0.000
461.607; 2150.050;  295.050;    0.000
461.651; 2207.050;  335.050;    0.000
461.694; 2186.050;  276.050;    0.000
461.738; 2174.050;  327.050;    0.000
461.782; 2209.050;  288.050;    0.000
461.825; 2209.050;  319.050;    0.000
461.869; 2295.050;  305.050;    0.000
461.913; 2301.050;  281.050;    0.000
461.956; 2303.050;  281.050;    0.000
462.000; 2232.050;  339.050;    0.000
462.043; 2362.050;  347.050;    0.000
462.087; 2329.050;  314.050;    0.000
462.130; 2404.050;  332.050;    0.000
462.174; 2417.050;  332.050;    0.000
462.217; 2388.050;  299.050;    0.000
462.261; 2353.050;  323.050;    0.000
462.304; 2338.050;  286.050;    0.000
462.348; 2274.050;  305.050;    0.000
462.391; 2298.050;  293.050;    0.000
462.435; 2444.050;  365.050;    0.000
462.478; 2358.050;  329.050;    0.000
462.522; 2335.050;  316.050;    0.000
462.565; 2401.050;  328.050;    0.000
462.608; 2429.050;  350.050;    0.000
462.652; 2422.050;  328.050;    0.000
462.695; 2387.050;  358.050;    0.000
462.739; 2445.050;  317.050;    0.000
462.782; 2516.050;  329.050;    0.000
462.825; 2474.050;  368.050;    0.000
462.869; 2383.050;  343.050;    0.000
462.912; 2577.050;  404.050;    0.000
462.955; 2564.050;  328.050;    0.000
462.998; 2516.050;  340.050;    0.000
463.042; 2593.050;  361.050;    0.000
463.085; 2491.050;  337.050;    0.000
463.128; 2568.050;  373.050;    0.000
463.172; 2442.050;  347.050;    0.000
463.215;  382.050;  305.050;    0.000
463.258;  344.050;  324.050;    0.000
463.301;  289.050;  296.050;    0.000
463.344;  292.050;  332.050;    0.000
463.388;  301.050;  309.050;    0.000
463.431;  299.050;  298.050;    0.000
463.474;  342.050;  351.050;    0.000
463.517;  334.050;  319.050;    0.000
463.560;  352.050;  325.050;    0.000
463.603;  326.050;  330.050;    0.000
463.646;  333.050;  332.050;    0.000
463.690;  331.050;  325.050;    0.000
463.733;  301.050;  323.050;    0.000
463.776;  298.050;  276.050;    0.000
463.819;  361.050;  320.050;    0.000
463.862;  294.050;  275.050;    0.000

