
Integration time [ms]:   0.300
Averaging Nr. [scans]: 1
Smoothing Nr. [pixels]: 0
Data measured with spectrometer [name]: VIS
Wave   ;Sample   ;Dark     ;Reference
[nm]   ;[counts] ;[counts] ;[counts] 

450.961;  193.400;  204.125;    0.000
451.100;  212.400;  219.125;    0.000
451.239;  259.400;  196.125;    0.000
451.377;  229.400;  252.125;    0.000
451.516;  229.400;  215.125;    0.000
451.655;  210.400;  214.125;    0.000
451.794;  212.400;  241.125;    0.000
451.932;  253.400;  242.125;    0.000
452.071;  240.400;  204.125;    0.000
452.210;  256.400;  243.125;    0.000
452.348;  217.400;  241.125;    0.000
452.487;  240.400;  246.125;    0.000
452.626;  222.400;  235.125;    0.000
452.764;  242.400;  230.125;    0.000
452.903;  226.400;  199.125;    0.000
453.042;  290.400;  178.125;    0.000
453.180; 3544.400;  291.125;    0.000
453.319; 3567.400;  335.125;    0.000
453.458; 3613.400;  245.125;    0.000
453.596; 3603.400;  325.125;    0.000
453.735; 3707.400;  291.125;    0.000
453.873; 3692.400;  295.125;    0.000
454.012; 3685.400;  291.125;    0.000
454.150; 3748.400;  292.125;    0.000
454.289; 3807.400;  328.125;    0.000
454.427; 3819.400;  295.125;    0.000
454.566; 3822.400;  295.125;    0.000
454.704; 3902.400;  301.125;    0.000
454.843; 3978.400;  278.125;    0.000
454.981; 3975.400;  306.125;    0.000
455.120; 3981.400;  237.125;    0.000
455.258; 4087.400;  325.125;    0.000
455.397; 4123.400;  276.125;    0.000
455.535; 4143.400;  269.125;    0.000
455.674; 4177.400;  259.125;    0.000
455.812; 4192.400;  264.125;    0.000
455.951; 4153.400;  286.125;    0.000
456.089; 4371.400;  302.125;    0.000
456.227; 4237.400;  230.125;    0.000
456.366; 4346.400;  303.125;    0.000
456.504; 4480.400;  316.125;    0.000
456.642; 4472.400;  309.125;    0.000
456.781; 4487.400;  299.125;    0.000
456.919; 4474.400;  281.125;    0.000
457.057; 4637.400;  253.125;    0.000
457.196; 4676.400;  268.125;    0.000
457.334; 4736.400;  292.125;    0.000
457.472; 4725.400;  287.125;    0.000
457.610; 4881.400;  300.125;    0.000
457.749; 4934.400;  342.125;    0.000
457.887; 4986.400;  310.125;    0.000
458.025; 4930.400;  310.125;    0.000
458.163; 4952.400;  323.125;    0.000
458.301; 5214.400;  336.125;    0.000
458.440; 5107.400;  297.125;    0.000
458.578; 5301.400;  295.125;    0.000
458.716; 5357.400;  309.125;    0.000
458.854; 5516.400;  335.125;    0.000
458.992; 5453.400;  244.125;    0.000
459.130; 5485.400;  370.125;    0.000
459.269; 5638.400;  313.125;    0.000
459.407; 5800.400;  370.125;    0.000
459.545; 5736.400;  341.125;    0.000
459.683; 5786.400;  336.125;    0.000
459.821; 5874.400;  311.125;    0.000
459.959; 5885.400;  330.125;    0.000
460.097; 6046.400;  355.125;    0.000
460.235; 6164.400;  348.125;    0.000
460.373; 6161.400;  338.125;    0.000
460.511; 6183.400;  361.125;    0.000
460.649; 6174.400;  295.125;    0.000
460.787; 6313.400;  325.125;    0.000
460.925; 6352.400;  266.125;    0.000
461.063; 6368.400;  365.125;    0.000
461.201; 6313.400;  334.125;    0.000
461.339; 6515.400;  341.125;    0.000
461.477; 6422.400;  304.125;    0.000
461.615; 6570.400;  311.125;    0.000
461.753; 6648.400;  342.125;    0.000
461.891; 6836.400;  333.125;    0.000
462.029; 6799.400;  336.125;    0.000
462.166; 6935.400;  272.125;    0.000
462.304; 6957.400;  313.125;    0.000
462.442; 7058.400;  313.125;    0.000
462.580; 7174.400;  328.125;    0.000
462.718; 7299.400;  358.125;    0.000
462.856; 7449.400;  302.125;    0.000
462.993; 7242.400;  360.125;    0.000
463.131; 7219.400;  280.125;    0.000
463.269; 7233.400;  312.125;    0.000
463.407; 7119.400;  263.125;    0.000
463.545; 6798.400;  253.125;    0.000
463.682; 7013.400;  296.125;    0.000
463.820; 7239.400;  308.125;    0.000
463.958; 7560.400;  300.125;    0.000
464.095; 7645.400;  289.125;    0.000
464.233; 7735.400;  340.125;    0.000
464.371; 7792.400;  300.125;    0.000
464.509; 7573.400;  266.125;    0.000
464.646; 7732.400;  294.125;    0.000
464.784; 7508.400;  284.125;    0.000
464.921; 7361.400;  350.125;    0.000
465.059; 7374.400;  256.125;    0.000
465.197; 7252.400;  289.125;    0.000
465.334; 7078.400;  287.125;    0.000
465.472; 6930.400;  322.125;    0.000
465.609; 6854.400;  311.125;    0.000
465.747; 6781.400;  336.125;    0.000
465.885; 6636.400;  308.125;    0.000
466.022; 6759.400;  299.125;    0.000
466.160; 6779.400;  293.125;    0.000
466.297; 6651.400;  317.125;    0.000
466.435; 6590.400;  336.125;    0.000
466.572; 6614.400;  282.125;    0.000
466.710; 6571.400;  299.125;    0.000
466.847; 6615.400;  288.125;    0.000
466.985; 6465.400;  274.125;    0.000
467.122; 6507.400;  302.125;    0.000
467.260; 6471.400;  271.125;    0.000
467.397; 6507.400;  263.125;    0.000
467.534; 6439.400;  320.125;    0.000
467.672; 6464.400;  309.125;    0.000
467.809; 6423.400;  275.125;    0.000
467.947; 6499.400;  319.125;    0.000
468.084; 6377.400;  309.125;    0.000
468.221; 6475.400;  302.125;    0.000
468.359; 6452.400;  286.125;    0.000
468.496; 6371.400;  293.125;    0.000
468.633; 6465.400;  273.125;    0.000
468.771; 6588.400;  296.125;    0.000
468.908; 6445.400;  277.125;    0.000
469.045; 6578.400;  303.125;    0.000
469.183; 6593.400;  314.125;    0.000
469.320; 6636.400;  278.125;    0.000
469.457; 6722.400;  308.125;    0.000
469.594; 6706.400;  272.125;    0.000
469.732; 6771.400;  321.125;    0.000
469.869; 6950.400;  299.125;    0.000
470.006; 7008.400;  267.125;    0.000
470.143; 6895.400;  298.125;    0.000
470.280; 6995.400;  272.125;    0.000
470.417; 7189.400;  314.125;    0.000
470.555; 7091.400;  305.125;    0.000
470.692; 6976.400;  309.125;    0.000
470.829; 6947.400;  311.125;    0.000
470.966; 7011.400;  260.125;    0.000
471.103; 6906.400;  267.125;    0.000
471.240; 6791.400;  290.125;    0.000
471.377; 6936.400;  290.125;    0.000
471.514; 6825.400;  295.125;    0.000
471.651; 6829.400;  300.125;    0.000
471.789; 6911.400;  281.125;    0.000
471.926; 6837.400;  291.125;    0.000
472.063; 6692.400;  305.125;    0.000
472.200; 6618.400;  285.125;    0.000
472.337; 6626.400;  288.125;    0.000
472.474; 6659.400;  276.125;    0.000
472.611; 6592.400;  309.125;    0.000
472.748; 6604.400;  280.125;    0.000
472.884; 6715.400;  300.125;    0.000
473.021; 6525.400;  280.125;    0.000
473.158; 6611.400;  304.125;    0.000
473.295; 6590.400;  308.125;    0.000
473.432; 6550.400;  294.125;    0.000
473.569; 6551.400;  288.125;    0.000
473.706; 6580.400;  254.125;    0.000
473.843; 6473.400;  282.125;    0.000
473.980; 6563.400;  286.125;    0.000
474.117; 6553.400;  257.125;    0.000
474.253; 6515.400;  298.125;    0.000
474.390; 6544.400;  253.125;    0.000
474.527; 6556.400;  271.125;    0.000
474.664; 6601.400;  257.125;    0.000
474.801; 6616.400;  296.125;    0.000
474.937; 6655.400;  263.125;    0.000
475.074; 6654.400;  262.125;    0.000
475.211; 6714.400;  299.125;    0.000
475.348; 6640.400;  308.125;    0.000
475.484; 6792.400;  278.125;    0.000
475.621; 6649.400;  287.125;    0.000
475.758; 6869.400;  231.125;    0.000
475.894; 6683.400;  295.125;    0.000
476.031; 6702.400;  290.125;    0.000
476.168; 6676.400;  287.125;    0.000
476.304; 6774.400;  331.125;    0.000
476.441; 6720.400;  301.125;    0.000
476.578; 6631.400;  263.125;    0.000
476.714; 6829.400;  261.125;    0.000
476.851; 6864.400;  247.125;    0.000
476.987; 6987.400;  297.125;    0.000
477.124; 6906.400;  296.125;    0.000
477.261; 7045.400;  299.125;    0.000
477.397; 6996.400;  292.125;    0.000
477.534; 7022.400;  289.125;    0.000
477.670; 7169.400;  268.125;    0.000
477.807; 7127.400;  234.125;    0.000
477.943; 7256.400;  279.125;    0.000
478.080; 7288.400;  276.125;    0.000
478.216; 7301.400;  248.125;    0.000
478.353; 7328.400;  296.125;    0.000
478.489; 7397.400;  267.125;    0.000
478.626; 7548.400;  243.125;    0.000
478.762; 7494.400;  252.125;    0.000
478.898; 7388.400;  266.125;    0.000
479.035; 7544.400;  290.125;    0.000
479.171; 7430.400;  247.125;    0.000
479.308; 7642.400;  283.125;    0.000
479.444; 7517.400;  244.125;    0.000
479.580; 7444.400;  259.125;    0.000
479.717; 7536.400;  301.125;    0.000
479.853; 7523.400;  257.125;    0.000
479.989; 7711.400;  249.125;    0.000
480.126; 7656.400;  218.125;    0.000
480.262; 7674.400;  275.125;    0.000
480.398; 7768.400;  246.125;    0.000
480.535; 7687.400;  246.125;    0.000
480.671; 7575.400;  272.125;    0.000
480.807; 7680.400;  281.125;    0.000
480.943; 7589.400;  233.125;    0.000
481.080; 7594.400;  303.125;    0.000
481.216; 7473.400;  229.125;    0.000
481.352; 7583.400;  240.125;    0.000
481.488; 7474.400;  284.125;    0.000
481.624; 7486.400;  236.125;    0.000
481.760; 7381.400;  255.125;    0.000
481.897; 7410.400;  206.125;    0.000
482.033; 7415.400;  254.125;    0.000
482.169; 7427.400;  268.125;    0.000
482.305; 7557.400;  214.125;    0.000
482.441; 7402.400;  225.125;    0.000
482.577; 7265.400;  251.125;    0.000
482.713; 7321.400;  221.125;    0.000
482.849; 7241.400;  218.125;    0.000
482.985; 7420.400;  245.125;    0.000
483.121; 7347.400;  224.125;    0.000
483.258; 7354.400;  249.125;    0.000
483.394; 7404.400;  224.125;    0.000
483.530; 7496.400;  247.125;    0.000
483.665; 7306.400;  256.125;    0.000
483.801; 7307.400;  220.125;    0.000
483.937; 7301.400;  200.125;    0.000
484.073; 7478.400;  272.125;    0.000
484.209; 7382.400;  243.125;    0.000
484.345; 7409.400;  274.125;    0.000
484.481; 7527.400;  264.125;    0.000
484.617; 7548.400;  270.125;    0.000
484.753; 7553.400;  244.125;    0.000
484.889; 7543.400;  293.125;    0.000
485.025; 7566.400;  257.125;    0.000
485.161; 7477.400;  264.125;    0.000
485.296; 7712.400;  247.125;    0.000
485.432; 7670.400;  240.125;    0.000
485.568; 7621.400;  240.125;    0.000
485.704; 7523.400;  232.125;    0.000
485.840; 7576.400;  280.125;    0.000
485.975; 7746.400;  253.125;    0.000
486.111; 7705.400;  250.125;    0.000
486.247; 7612.400;  272.125;    0.000
486.383; 7699.400;  258.125;    0.000
486.518; 7728.400;  256.125;    0.000
486.654; 7779.400;  250.125;    0.000
486.790; 7528.400;  259.125;    0.000
486.926; 7550.400;  256.125;    0.000
487.061; 7639.400;  267.125;    0.000
487.197; 7630.400;  224.125;    0.000
487.333; 7675.400;  265.125;    0.000
487.468; 7494.400;  223.125;    0.000
487.604; 7545.400;  298.125;    0.000
487.740; 7643.400;  261.125;    0.000
487.875; 7651.400;  278.125;    0.000
488.011; 7589.400;  292.125;    0.000
488.146; 7619.400;  239.125;    0.000
488.282; 7500.400;  265.125;    0.000
488.417; 7543.400;  286.125;    0.000
488.553; 7571.400;  271.125;    0.000
488.688; 7676.400;  252.125;    0.000
488.824; 7621.400;  239.125;    0.000
488.960; 7608.400;  266.125;    0.000
489.095; 7741.400;  229.125;    0.000
489.230; 7699.400;  247.125;    0.000
489.366; 7546.400;  260.125;    0.000
489.501; 7686.400;  257.125;    0.000
489.637; 7720.400;  233.125;    0.000
489.772; 7668.400;  254.125;    0.000
489.908; 7689.400;  235.125;    0.000
490.043; 7787.400;  266.125;    0.000
490.178; 7769.400;  228.125;    0.000
490.314; 7798.400;  310.125;    0.000
490.449; 7738.400;  251.125;    0.000
490.585; 7556.400;  221.125;    0.000
490.720; 7575.400;  203.125;    0.000
490.855; 7606.400;  266.125;    0.000
490.991; 7823.400;  249.125;    0.000
491.126; 7619.400;  313.125;    0.000
491.261; 7628.400;  284.125;    0.000
491.396; 7781.400;  225.125;    0.000
491.532; 7727.400;  227.125;    0.000
491.667; 7635.400;  210.125;    0.000
491.802; 7705.400;  214.125;    0.000
491.937; 7748.400;  246.125;    0.000
492.073; 7866.400;  250.125;    0.000
492.208; 7749.400;  267.125;    0.000
492.343; 7945.400;  245.125;    0.000
492.478; 7868.400;  271.125;    0.000
492.613; 7844.400;  253.125;    0.000
492.749; 7853.400;  249.125;    0.000
492.884; 7788.400;  217.125;    0.000
493.019; 7916.400;  244.125;    0.000
493.154; 7898.400;  265.125;    0.000
493.289; 7756.400;  266.125;    0.000
493.424; 7786.400;  226.125;    0.000
493.559; 7742.400;  222.125;    0.000
493.694; 7794.400;  218.125;    0.000
493.829; 7783.400;  246.125;    0.000
493.964; 7840.400;  243.125;    0.000
494.099; 7751.400;  269.125;    0.000
494.234; 7817.400;  249.125;    0.000
494.369; 8037.400;  279.125;    0.000
494.504; 7823.400;  261.125;    0.000
494.639; 7888.400;  289.125;    0.000
494.774; 7759.400;  252.125;    0.000
494.909; 7748.400;  250.125;    0.000
495.044; 7838.400;  207.125;    0.000
495.179; 7695.400;  266.125;    0.000
495.314; 7862.400;  228.125;    0.000
495.449; 7765.400;  262.125;    0.000
495.584; 7794.400;  281.125;    0.000
495.719; 7895.400;  251.125;    0.000
495.854; 7783.400;  237.125;    0.000
495.988; 7943.400;  238.125;    0.000
496.123; 7916.400;  255.125;    0.000
496.258; 8019.400;  264.125;    0.000
496.393; 7993.400;  253.125;    0.000
496.528; 8207.400;  244.125;    0.000
496.663; 8137.400;  267.125;    0.000
496.797; 8358.400;  271.125;    0.000
496.932; 8281.400;  262.125;    0.000
497.067; 8210.400;  260.125;    0.000
497.202; 8481.400;  264.125;    0.000
497.336; 8566.400;  243.125;    0.000
497.471; 8651.400;  251.125;    0.000
497.606; 8806.400;  219.125;    0.000
497.740; 8845.400;  264.125;    0.000
497.875; 9324.400;  252.125;    0.000
498.010; 9305.400;  241.125;    0.000
498.144; 9467.400;  261.125;    0.000
498.279; 9753.400;  221.125;    0.000
498.414;10004.400;  246.125;    0.000
498.548;10218.400;  212.125;    0.000
498.683;10098.400;  260.125;    0.000
498.817;10401.400;  244.125;    0.000
498.952;10526.400;  252.125;    0.000
499.087;10948.400;  251.125;    0.000
499.221;11211.400;  282.125;    0.000
499.356;11185.400;  264.125;    0.000
499.490;11880.400;  280.125;    0.000
499.625;12121.400;  256.125;    0.000
499.759;12384.400;  253.125;    0.000
499.894;13041.400;  261.125;    0.000
500.028;13616.400;  304.125;    0.000
500.162;13856.400;  272.125;    0.000
500.297;14188.400;  274.125;    0.000
500.431;14238.400;  320.125;    0.000
500.566;14356.400;  268.125;    0.000
500.700;14020.400;  280.125;    0.000
500.835;13696.400;  288.125;    0.000
500.969;13208.400;  253.125;    0.000
501.103;12669.400;  234.125;    0.000
501.238;12266.400;  302.125;    0.000
501.372;11650.400;  292.125;    0.000
501.506;11510.400;  222.125;    0.000
501.641;11164.400;  274.125;    0.000
501.775;10554.400;  245.125;    0.000
501.909;10195.400;  283.125;    0.000
502.043; 9985.400;  252.125;    0.000
502.178; 9905.400;  293.125;    0.000
502.312; 9640.400;  223.125;    0.000
502.446; 9407.400;  292.125;    0.000
502.580; 9257.400;  253.125;    0.000
502.715; 9090.400;  282.125;    0.000
502.849; 8946.400;  258.125;    0.000
502.983; 8858.400;  267.125;    0.000
503.117; 8847.400;  226.125;    0.000
503.251; 8730.400;  260.125;    0.000
503.385; 8485.400;  291.125;    0.000
503.520; 8307.400;  279.125;    0.000
503.654; 8231.400;  229.125;    0.000
503.788; 8261.400;  259.125;    0.000
503.922; 8139.400;  246.125;    0.000
504.056; 8238.400;  269.125;    0.000
504.190; 8105.400;  265.125;    0.000
504.324; 7973.400;  298.125;    0.000
504.458; 7984.400;  235.125;    0.000
504.592; 7845.400;  275.125;    0.000
504.726; 7655.400;  226.125;    0.000
504.860; 7542.400;  298.125;    0.000
504.994; 7470.400;  253.125;    0.000
505.128; 7328.400;  283.125;    0.000
505.262; 7232.400;  255.125;    0.000
505.396; 7069.400;  219.125;    0.000
505.530; 7063.400;  279.125;    0.000
505.664; 6873.400;  306.125;    0.000
505.798; 6874.400;  297.125;    0.000
505.932; 6844.400;  273.125;    0.000
506.066; 6774.400;  271.125;    0.000
506.199; 6671.400;  273.125;    0.000
506.333; 6636.400;  227.125;    0.000
506.467; 6591.400;  302.125;    0.000
506.601; 6498.400;  254.125;    0.000
506.735; 6547.400;  299.125;    0.000
506.869; 6455.400;  278.125;    0.000
507.002; 6426.400;  259.125;    0.000
507.136; 6423.400;  285.125;    0.000
507.270; 6321.400;  255.125;    0.000
507.404; 6281.400;  273.125;    0.000
507.537; 6235.400;  245.125;    0.000
507.671; 6333.400;  251.125;    0.000
507.805; 6245.400;  286.125;    0.000
507.939; 6200.400;  261.125;    0.000
508.072; 6208.400;  298.125;    0.000
508.206; 6185.400;  238.125;    0.000
508.340; 6172.400;  289.125;    0.000
508.473; 6108.400;  255.125;    0.000
508.607; 5966.400;  266.125;    0.000
508.740; 6048.400;  253.125;    0.000
508.874; 6064.400;  233.125;    0.000
509.008; 6000.400;  274.125;    0.000
509.141; 5950.400;  235.125;    0.000
509.275; 5935.400;  225.125;    0.000
509.408; 5970.400;  254.125;    0.000
509.542; 6014.400;  244.125;    0.000
509.675; 6016.400;  263.125;    0.000
509.809; 5867.400;  271.125;    0.000
509.942; 5783.400;  246.125;    0.000
510.076; 5859.400;  221.125;    0.000
510.209; 5889.400;  270.125;    0.000
510.343; 5716.400;  265.125;    0.000
510.476; 5755.400;  291.125;    0.000
510.610; 5795.400;  251.125;    0.000
510.743; 5835.400;  304.125;    0.000
510.877; 5760.400;  259.125;    0.000
511.010; 5766.400;  274.125;    0.000
511.143; 5835.400;  255.125;    0.000
511.277; 5811.400;  267.125;    0.000
511.410; 5675.400;  270.125;    0.000
511.543; 5752.400;  231.125;    0.000
511.677; 5735.400;  275.125;    0.000
511.810; 5563.400;  265.125;    0.000
511.943; 5721.400;  231.125;    0.000
512.077; 5713.400;  225.125;    0.000
512.210; 5608.400;  235.125;    0.000
512.343; 5537.400;  251.125;    0.000
512.476; 5743.400;  260.125;    0.000
512.610; 5640.400;  289.125;    0.000
512.743; 5650.400;  270.125;    0.000
512.876; 5786.400;  289.125;    0.000
513.009; 5628.400;  293.125;    0.000
513.142; 5809.400;  282.125;    0.000
513.276; 5596.400;  244.125;    0.000
513.409; 5751.400;  277.125;    0.000
513.542; 5721.400;  254.125;    0.000
513.675; 5736.400;  258.125;    0.000
513.808; 5716.400;  243.125;    0.000
513.941; 5614.400;  274.125;    0.000
514.074; 5727.400;  296.125;    0.000
514.207; 5660.400;  267.125;    0.000
514.340; 5614.400;  283.125;    0.000
514.474; 5816.400;  255.125;    0.000
514.607; 5763.400;  291.125;    0.000
514.740; 5823.400;  296.125;    0.000
514.873; 5962.400;  275.125;    0.000
515.006; 5985.400;  313.125;    0.000
515.139; 5912.400;  253.125;    0.000
515.272; 5995.400;  263.125;    0.000
515.404; 6045.400;  258.125;    0.000
515.537; 6155.400;  285.125;    0.000
515.670; 6060.400;  286.125;    0.000
515.803; 6054.400;  266.125;    0.000
515.936; 6155.400;  251.125;    0.000
516.069; 6104.400;  231.125;    0.000
516.202; 6189.400;  278.125;    0.000
516.335; 6512.400;  295.125;    0.000
516.468; 6603.400;  239.125;    0.000
516.600; 7683.400;  229.125;    0.000
516.733; 9724.400;  301.125;    0.000
516.866; 9844.400;  287.125;    0.000
516.999; 9016.400;  265.125;    0.000
517.132;10775.400;  291.125;    0.000
517.264;14715.400;  262.125;    0.000
517.397;14944.400;  292.125;    0.000
517.530;11384.400;  299.125;    0.000
517.663; 9350.400;  268.125;    0.000
517.795; 8737.400;  323.125;    0.000
517.928; 8413.400;  281.125;    0.000
518.061; 8460.400;  242.125;    0.000
518.193;10970.400;  279.125;    0.000
518.326;17211.400;  288.125;    0.000
518.459;18920.400;  251.125;    0.000
518.591;13980.400;  314.125;    0.000
518.724;10504.400;  279.125;    0.000
518.857; 8999.400;  245.125;    0.000
518.989; 8311.400;  290.125;    0.000
519.122; 7772.400;  319.125;    0.000
519.254; 7372.400;  295.125;    0.000
519.387; 6880.400;  271.125;    0.000
519.519; 6733.400;  312.125;    0.000
519.652; 6523.400;  289.125;    0.000
519.784; 6480.400;  311.125;    0.000
519.917; 6304.400;  283.125;    0.000
520.049; 6112.400;  281.125;    0.000
520.182; 6012.400;  242.125;    0.000
520.314; 5967.400;  310.125;    0.000
520.447; 5920.400;  215.125;    0.000
520.579; 5962.400;  277.125;    0.000
520.712; 5858.400;  224.125;    0.000
520.844; 5738.400;  293.125;    0.000
520.976; 5713.400;  281.125;    0.000
521.109; 5660.400;  279.125;    0.000
521.241; 5557.400;  318.125;    0.000
521.373; 5479.400;  242.125;    0.000
521.506; 5553.400;  246.125;    0.000
521.638; 5392.400;  312.125;    0.000
521.770; 5400.400;  257.125;    0.000
521.903; 5376.400;  295.125;    0.000
522.035; 5251.400;  283.125;    0.000
522.167; 5300.400;  281.125;    0.000
522.300; 5180.400;  262.125;    0.000
522.432; 5254.400;  272.125;    0.000
522.564; 5180.400;  277.125;    0.000
522.696; 5227.400;  295.125;    0.000
522.828; 5038.400;  284.125;    0.000
522.961; 5016.400;  295.125;    0.000
523.093; 5019.400;  282.125;    0.000
523.225; 5128.400;  270.125;    0.000
523.357; 5051.400;  285.125;    0.000
523.489; 4985.400;  292.125;    0.000
523.621; 4930.400;  285.125;    0.000
523.753; 4961.400;  273.125;    0.000
523.885; 4920.400;  271.125;    0.000
524.018; 4913.400;  276.125;    0.000
524.150; 4872.400;  320.125;    0.000
524.282; 4861.400;  304.125;    0.000
524.414; 4938.400;  302.125;    0.000
524.546; 4782.400;  305.125;    0.000
524.678; 4828.400;  264.125;    0.000
524.810; 4706.400;  258.125;    0.000
524.942; 4776.400;  252.125;    0.000
525.074; 4771.400;  275.125;    0.000
525.206; 4887.400;  286.125;    0.000
525.338; 4766.400;  280.125;    0.000
525.469; 4687.400;  267.125;    0.000
525.601; 4680.400;  266.125;    0.000
525.733; 4655.400;  283.125;    0.000
525.865; 4659.400;  273.125;    0.000
525.997; 4615.400;  286.125;    0.000
526.129; 4641.400;  249.125;    0.000
526.261; 4652.400;  233.125;    0.000
526.393; 4593.400;  257.125;    0.000
526.524; 4561.400;  184.125;    0.000
526.656; 4653.400;  259.125;    0.000
526.788; 4722.400;  268.125;    0.000
526.920; 4572.400;  262.125;    0.000
527.052; 4534.400;  250.125;    0.000
527.183; 4554.400;  264.125;    0.000
527.315; 4484.400;  301.125;    0.000
527.447; 4557.400;  262.125;    0.000
527.578; 4470.400;  267.125;    0.000
527.710; 4627.400;  299.125;    0.000
527.842; 4553.400;  266.125;    0.000
527.973; 4528.400;  240.125;    0.000
528.105; 4542.400;  275.125;    0.000
528.237; 4517.400;  239.125;    0.000
528.368; 4451.400;  275.125;    0.000
528.500; 4468.400;  271.125;    0.000
528.632; 4398.400;  252.125;    0.000
528.763; 4567.400;  253.125;    0.000
528.895; 4412.400;  259.125;    0.000
529.026; 4565.400;  209.125;    0.000
529.158; 4532.400;  291.125;    0.000
529.289; 4625.400;  280.125;    0.000
529.421; 4507.400;  274.125;    0.000
529.552; 4510.400;  253.125;    0.000
529.684; 4596.400;  310.125;    0.000
529.815; 4430.400;  305.125;    0.000
529.947; 4572.400;  234.125;    0.000
530.078; 4471.400;  259.125;    0.000
530.210; 4475.400;  264.125;    0.000
530.341; 4472.400;  267.125;    0.000
530.472; 4459.400;  232.125;    0.000
530.604; 4460.400;  293.125;    0.000
530.735; 4503.400;  275.125;    0.000
530.867; 4501.400;  280.125;    0.000
530.998; 4594.400;  295.125;    0.000
531.129; 4651.400;  274.125;    0.000
531.260; 4648.400;  272.125;    0.000
531.392; 4581.400;  275.125;    0.000
531.523; 4608.400;  244.125;    0.000
531.654; 4819.400;  289.125;    0.000
531.786; 4711.400;  259.125;    0.000
531.917; 4796.400;  286.125;    0.000
532.048; 4756.400;  293.125;    0.000
532.179; 4794.400;  288.125;    0.000
532.311; 4621.400;  296.125;    0.000
532.442; 4661.400;  277.125;    0.000
532.573; 4618.400;  273.125;    0.000
532.704; 4622.400;  308.125;    0.000
532.835; 4541.400;  308.125;    0.000
532.966; 4576.400;  274.125;    0.000
533.097; 4542.400;  310.125;    0.000
533.229; 4515.400;  294.125;    0.000
533.360; 4483.400;  324.125;    0.000
533.491; 4616.400;  278.125;    0.000
533.622; 4604.400;  319.125;    0.000
533.753; 4557.400;  303.125;    0.000
533.884; 4585.400;  269.125;    0.000
534.015; 4735.400;  266.125;    0.000
534.146; 4598.400;  283.125;    0.000
534.277; 4768.400;  299.125;    0.000
534.408; 4688.400;  265.125;    0.000
534.539; 4680.400;  310.125;    0.000
534.670; 4557.400;  319.125;    0.000
534.801; 4659.400;  281.125;    0.000
534.932; 4520.400;  239.125;    0.000
535.063; 4454.400;  276.125;    0.000
535.194; 4502.400;  361.125;    0.000
535.324; 4418.400;  283.125;    0.000
535.455; 4535.400;  282.125;    0.000
535.586; 4508.400;  331.125;    0.000
535.717; 4431.400;  262.125;    0.000
535.848; 4573.400;  308.125;    0.000
535.979; 4507.400;  273.125;    0.000
536.109; 4465.400;  277.125;    0.000
536.240; 4360.400;  293.125;    0.000
536.371; 4389.400;  295.125;    0.000
536.502; 4484.400;  330.125;    0.000
536.632; 4449.400;  280.125;    0.000
536.763; 4466.400;  332.125;    0.000
536.894; 4408.400;  334.125;    0.000
537.025; 4352.400;  295.125;    0.000
537.155; 4398.400;  321.125;    0.000
537.286; 4348.400;  292.125;    0.000
537.417; 4349.400;  314.125;    0.000
537.547; 4314.400;  287.125;    0.000
537.678; 4376.400;  287.125;    0.000
537.808; 4375.400;  278.125;    0.000
537.939; 4364.400;  304.125;    0.000
538.070; 4378.400;  303.125;    0.000
538.200; 4445.400;  279.125;    0.000
538.331; 4278.400;  321.125;    0.000
538.461; 4341.400;  313.125;    0.000
538.592; 4306.400;  290.125;    0.000
538.722; 4389.400;  285.125;    0.000
538.853; 4308.400;  261.125;    0.000
538.983; 4373.400;  280.125;    0.000
539.114; 4302.400;  310.125;    0.000
539.244; 4257.400;  281.125;    0.000
539.375; 4310.400;  292.125;    0.000
539.505; 4206.400;  286.125;    0.000
539.636; 4256.400;  276.125;    0.000
539.766; 4263.400;  287.125;    0.000
539.896; 4262.400;  292.125;    0.000
540.027; 4347.400;  262.125;    0.000
540.157; 4259.400;  269.125;    0.000
540.287; 4314.400;  282.125;    0.000
540.418; 4335.400;  269.125;    0.000
540.548; 4299.400;  328.125;    0.000
540.678; 4369.400;  271.125;    0.000
540.809; 4361.400;  272.125;    0.000
540.939; 4329.400;  299.125;    0.000
541.069; 4437.400;  266.125;    0.000
541.200; 4385.400;  242.125;    0.000
541.330; 4316.400;  257.125;    0.000
541.460; 4400.400;  270.125;    0.000
541.590; 4444.400;  287.125;    0.000
541.720; 4318.400;  255.125;    0.000
541.851; 4304.400;  273.125;    0.000
541.981; 4436.400;  244.125;    0.000
542.111; 4522.400;  263.125;    0.000
542.241; 4396.400;  271.125;    0.000
542.371; 4487.400;  263.125;    0.000
542.501; 4690.400;  274.125;    0.000
542.631; 4662.400;  288.125;    0.000
542.761; 4751.400;  261.125;    0.000
542.891; 4800.400;  253.125;    0.000
543.021; 4715.400;  249.125;    0.000
543.151; 4827.400;  261.125;    0.000
543.281; 4723.400;  256.125;    0.000
543.411; 4631.400;  290.125;    0.000
543.542; 4664.400;  278.125;    0.000
543.671; 4497.400;  238.125;    0.000
543.801; 4529.400;  256.125;    0.000
543.931; 4631.400;  254.125;    0.000
544.061; 4567.400;  237.125;    0.000
544.191; 4638.400;  245.125;    0.000
544.321; 4630.400;  267.125;    0.000
544.451; 4482.400;  262.125;    0.000
544.581; 4593.400;  221.125;    0.000
544.711; 4671.400;  252.125;    0.000
544.841; 4759.400;  264.125;    0.000
544.970; 4843.400;  315.125;    0.000
545.100; 4895.400;  245.125;    0.000
545.230; 4916.400;  276.125;    0.000
545.360; 4891.400;  278.125;    0.000
545.490; 4869.400;  268.125;    0.000
545.619; 4755.400;  237.125;    0.000
545.749; 4657.400;  228.125;    0.000
545.879; 4610.400;  234.125;    0.000
546.009; 4543.400;  287.125;    0.000
546.138; 4636.400;  222.125;    0.000
546.268; 4595.400;  228.125;    0.000
546.398; 4528.400;  244.125;    0.000
546.527; 4645.400;  233.125;    0.000
546.657; 4485.400;  189.125;    0.000
546.786; 4600.400;  247.125;    0.000
546.916; 4549.400;  244.125;    0.000
547.046; 4668.400;  214.125;    0.000
547.175; 4586.400;  242.125;    0.000
547.305; 4626.400;  252.125;    0.000
547.434; 4612.400;  191.125;    0.000
547.564; 4594.400;  208.125;    0.000
547.693; 4538.400;  213.125;    0.000
547.823; 4549.400;  209.125;    0.000
547.953; 4591.400;  250.125;    0.000
548.082; 4540.400;  231.125;    0.000
548.211; 4539.400;  226.125;    0.000
548.341; 4613.400;  254.125;    0.000
548.470; 4604.400;  266.125;    0.000
548.600; 4569.400;  229.125;    0.000
548.729; 4716.400;  225.125;    0.000
548.859; 4563.400;  185.125;    0.000
548.988; 4626.400;  225.125;    0.000
549.117; 4630.400;  241.125;    0.000
549.247; 4652.400;  236.125;    0.000
549.376; 4686.400;  220.125;    0.000
549.505; 4657.400;  254.125;    0.000
549.635; 4759.400;  268.125;    0.000
549.764; 4587.400;  194.125;    0.000
549.893; 4714.400;  232.125;    0.000
550.023; 4697.400;  222.125;    0.000
550.152; 4676.400;  223.125;    0.000
550.281; 4675.400;  210.125;    0.000
550.410; 4831.400;  197.125;    0.000
550.539; 4767.400;  222.125;    0.000
550.669; 4726.400;  245.125;    0.000
550.798; 4790.400;  265.125;    0.000
550.927; 4769.400;  249.125;    0.000
551.056; 4605.400;  184.125;    0.000
551.185; 4613.400;  247.125;    0.000
551.314; 4683.400;  258.125;    0.000
551.443; 4749.400;  224.125;    0.000
551.573; 4698.400;  204.125;    0.000
551.702; 4776.400;  220.125;    0.000
551.831; 4796.400;  287.125;    0.000
551.960; 4781.400;  259.125;    0.000
552.089; 4780.400;  222.125;    0.000
552.218; 4839.400;  254.125;    0.000
552.347; 4956.400;  260.125;    0.000
552.476; 4868.400;  251.125;    0.000
552.605; 5050.400;  229.125;    0.000
552.734; 5136.400;  261.125;    0.000
552.863; 5193.400;  225.125;    0.000
552.992; 5204.400;  202.125;    0.000
553.121; 5182.400;  193.125;    0.000
553.249; 5117.400;  224.125;    0.000
553.378; 5068.400;  274.125;    0.000
553.507; 5014.400;  248.125;    0.000
553.636; 4926.400;  203.125;    0.000
553.765; 4857.400;  224.125;    0.000
553.894; 4880.400;  246.125;    0.000
554.023; 4936.400;  229.125;    0.000
554.151; 4873.400;  216.125;    0.000
554.280; 4895.400;  223.125;    0.000
554.409; 4736.400;  240.125;    0.000
554.538; 4912.400;  277.125;    0.000
554.666; 4754.400;  244.125;    0.000
554.795; 4768.400;  240.125;    0.000
554.924; 4771.400;  257.125;    0.000
555.052; 4776.400;  266.125;    0.000
555.181; 4822.400;  244.125;    0.000
555.310; 4783.400;  262.125;    0.000
555.439; 4658.400;  260.125;    0.000
555.567; 4731.400;  234.125;    0.000
555.696; 4746.400;  237.125;    0.000
555.824; 4565.400;  232.125;    0.000
555.953; 4725.400;  279.125;    0.000
556.082; 4587.400;  234.125;    0.000
556.210; 4563.400;  235.125;    0.000
556.339; 4671.400;  198.125;    0.000
556.467; 4668.400;  216.125;    0.000
556.596; 4494.400;  273.125;    0.000
556.724; 4561.400;  245.125;    0.000
556.853; 4581.400;  241.125;    0.000
556.981; 4663.400;  219.125;    0.000
557.110; 4632.400;  242.125;    0.000
557.238; 4635.400;  202.125;    0.000
557.367; 4674.400;  254.125;    0.000
557.495; 4478.400;  260.125;    0.000
557.623; 4435.400;  207.125;    0.000
557.752; 4484.400;  219.125;    0.000
557.880; 4525.400;  209.125;    0.000
558.008; 4549.400;  243.125;    0.000
558.137; 4599.400;  244.125;    0.000
558.265; 4473.400;  221.125;    0.000
558.393; 4594.400;  297.125;    0.000
558.522; 4458.400;  232.125;    0.000
558.650; 4696.400;  299.125;    0.000
558.778; 4665.400;  210.125;    0.000
558.906; 4586.400;  240.125;    0.000
559.035; 4601.400;  252.125;    0.000
559.163; 4541.400;  246.125;    0.000
559.291; 4628.400;  213.125;    0.000
559.419; 4550.400;  221.125;    0.000
559.548; 4525.400;  208.125;    0.000
559.676; 4690.400;  254.125;    0.000
559.804; 4598.400;  213.125;    0.000
559.932; 4590.400;  208.125;    0.000
560.060; 4601.400;  276.125;    0.000
560.188; 4598.400;  278.125;    0.000
560.316; 4689.400;  217.125;    0.000
560.444; 4723.400;  254.125;    0.000
560.572; 4613.400;  226.125;    0.000
560.700; 4828.400;  282.125;    0.000
560.828; 4881.400;  211.125;    0.000
560.956; 4796.400;  264.125;    0.000
561.085; 4867.400;  295.125;    0.000
561.212; 4896.400;  229.125;    0.000
561.340; 4882.400;  259.125;    0.000
561.468; 4962.400;  253.125;    0.000
561.596; 4788.400;  240.125;    0.000
561.724; 4843.400;  259.125;    0.000
561.852; 4742.400;  224.125;    0.000
561.980; 4699.400;  251.125;    0.000
562.108; 4853.400;  214.125;    0.000
562.236; 4896.400;  258.125;    0.000
562.364; 4891.400;  237.125;    0.000
562.492; 4957.400;  228.125;    0.000
562.619; 4931.400;  223.125;    0.000
562.747; 5060.400;  263.125;    0.000
562.875; 5024.400;  257.125;    0.000
563.003; 5103.400;  216.125;    0.000
563.130; 5144.400;  190.125;    0.000
563.258; 5145.400;  225.125;    0.000
563.386; 5164.400;  259.125;    0.000
563.514; 5326.400;  264.125;    0.000
563.641; 5357.400;  230.125;    0.000
563.769; 5498.400;  257.125;    0.000
563.897; 5452.400;  210.125;    0.000
564.024; 5574.400;  221.125;    0.000
564.152; 5749.400;  256.125;    0.000
564.280; 5594.400;  225.125;    0.000
564.407; 5683.400;  262.125;    0.000
564.535; 5634.400;  235.125;    0.000
564.662; 5795.400;  238.125;    0.000
564.790; 5668.400;  248.125;    0.000
564.917; 5773.400;  214.125;    0.000
565.045; 5777.400;  253.125;    0.000
565.173; 5779.400;  225.125;    0.000
565.300; 5867.400;  261.125;    0.000
565.428; 5912.400;  218.125;    0.000
565.555; 6004.400;  245.125;    0.000
565.682; 6074.400;  242.125;    0.000
565.810; 6147.400;  228.125;    0.000
565.937; 6439.400;  230.125;    0.000
566.065; 6610.400;  251.125;    0.000
566.192; 6760.400;  196.125;    0.000
566.320; 6957.400;  217.125;    0.000
566.447; 7087.400;  224.125;    0.000
566.574; 7009.400;  221.125;    0.000
566.702; 7301.400;  221.125;    0.000
566.829; 7384.400;  252.125;    0.000
566.956; 7360.400;  214.125;    0.000
567.083; 7457.400;  204.125;    0.000
567.211; 7550.400;  216.125;    0.000
567.338; 7600.400;  228.125;    0.000
567.465; 7690.400;  208.125;    0.000
567.593; 7828.400;  205.125;    0.000
567.720; 7852.400;  194.125;    0.000
567.847; 7845.400;  268.125;    0.000
567.974; 7904.400;  198.125;    0.000
568.101; 8233.400;  224.125;    0.000
568.228; 8970.400;  236.125;    0.000
568.356; 9400.400;  207.125;    0.000
568.483; 9058.400;  220.125;    0.000
568.610; 8956.400;  181.125;    0.000
568.737;10052.400;  216.125;    0.000
568.864;11239.400;  258.125;    0.000
568.991;10744.400;  203.125;    0.000
569.118; 9353.400;  232.125;    0.000
569.245; 8574.400;  192.125;    0.000
569.372; 8010.400;  226.125;    0.000
569.499; 7611.400;  211.125;    0.000
569.626; 7312.400;  247.125;    0.000
569.753; 7254.400;  248.125;    0.000
569.880; 6891.400;  226.125;    0.000
570.007; 6609.400;  215.125;    0.000
570.134; 6579.400;  205.125;    0.000
570.261; 6416.400;  187.125;    0.000
570.388; 6261.400;  258.125;    0.000
570.515; 6231.400;  241.125;    0.000
570.642; 6164.400;  211.125;    0.000
570.768; 6143.400;  228.125;    0.000
570.895; 5942.400;  229.125;    0.000
571.022; 6012.400;  203.125;    0.000
571.149; 5895.400;  206.125;    0.000
571.276; 5700.400;  191.125;    0.000
571.402; 5833.400;  218.125;    0.000
571.529; 5803.400;  192.125;    0.000
571.656; 5666.400;  209.125;    0.000
571.783; 5563.400;  181.125;    0.000
571.909; 5498.400;  251.125;    0.000
572.036; 5530.400;  225.125;    0.000
572.163; 5501.400;  214.125;    0.000
572.289; 5425.400;  252.125;    0.000
572.416; 5309.400;  220.125;    0.000
572.543; 5319.400;  225.125;    0.000
572.669; 5219.400;  226.125;    0.000
572.796; 5234.400;  231.125;    0.000
572.922; 5274.400;  258.125;    0.000
573.049; 5216.400;  202.125;    0.000
573.176; 5111.400;  254.125;    0.000
573.302; 5091.400;  215.125;    0.000
573.429; 5131.400;  251.125;    0.000
573.555; 5205.400;  221.125;    0.000
573.682; 5266.400;  227.125;    0.000
573.808; 5119.400;  259.125;    0.000
573.935; 5031.400;  233.125;    0.000
574.061; 5193.400;  241.125;    0.000
574.188; 5034.400;  238.125;    0.000
574.314; 5123.400;  221.125;    0.000
574.440; 4993.400;  221.125;    0.000
574.567; 5013.400;  216.125;    0.000
574.693; 5038.400;  224.125;    0.000
574.820; 5111.400;  199.125;    0.000
574.946; 5037.400;  248.125;    0.000
575.072; 4936.400;  220.125;    0.000
575.198; 5024.400;  262.125;    0.000
575.325; 4937.400;  232.125;    0.000
575.451; 4977.400;  225.125;    0.000
575.577; 5012.400;  216.125;    0.000
575.704; 4962.400;  248.125;    0.000
575.830; 4964.400;  227.125;    0.000
575.956; 4926.400;  206.125;    0.000
576.082; 4974.400;  222.125;    0.000
576.208; 4836.400;  206.125;    0.000
576.335; 4901.400;  256.125;    0.000
576.461; 4898.400;  247.125;    0.000
576.587; 4971.400;  219.125;    0.000
576.713; 4973.400;  215.125;    0.000
576.839; 4948.400;  225.125;    0.000
576.965; 4906.400;  230.125;    0.000
577.091; 4939.400;  235.125;    0.000
577.217; 4967.400;  235.125;    0.000
577.343; 4904.400;  233.125;    0.000
577.469; 4966.400;  242.125;    0.000
577.596; 4897.400;  241.125;    0.000
577.722; 4927.400;  255.125;    0.000
577.848; 4901.400;  235.125;    0.000
577.974; 4924.400;  210.125;    0.000
578.099; 4923.400;  239.125;    0.000
578.225; 4842.400;  258.125;    0.000
578.351; 4943.400;  209.125;    0.000
578.477; 4952.400;  255.125;    0.000
578.603; 4962.400;  213.125;    0.000
578.729; 4961.400;  221.125;    0.000
578.855; 4939.400;  209.125;    0.000
578.981; 5023.400;  206.125;    0.000
579.107; 5016.400;  221.125;    0.000
579.232; 4979.400;  206.125;    0.000
579.358; 4952.400;  226.125;    0.000
579.484; 5047.400;  244.125;    0.000
579.610; 5025.400;  261.125;    0.000
579.735; 4998.400;  270.125;    0.000
579.861; 5097.400;  255.125;    0.000
579.987; 5092.400;  249.125;    0.000
580.113; 5161.400;  260.125;    0.000
580.238; 5038.400;  206.125;    0.000
580.364; 5209.400;  249.125;    0.000
580.490; 5012.400;  225.125;    0.000
580.615; 5192.400;  266.125;    0.000
580.741; 5166.400;  224.125;    0.000
580.867; 5135.400;  251.125;    0.000
580.992; 5116.400;  270.125;    0.000
581.118; 5136.400;  248.125;    0.000
581.243; 5096.400;  251.125;    0.000
581.369; 5267.400;  192.125;    0.000
581.494; 5205.400;  259.125;    0.000
581.620; 5296.400;  245.125;    0.000
581.745; 5342.400;  232.125;    0.000
581.871; 5398.400;  243.125;    0.000
581.996; 5455.400;  216.125;    0.000
582.122; 5376.400;  263.125;    0.000
582.247; 5408.400;  254.125;    0.000
582.373; 5413.400;  232.125;    0.000
582.498; 5465.400;  275.125;    0.000
582.624; 5393.400;  260.125;    0.000
582.749; 5574.400;  251.125;    0.000
582.874; 5648.400;  245.125;    0.000
583.000; 5700.400;  278.125;    0.000
583.125; 5678.400;  211.125;    0.000
583.250; 5762.400;  246.125;    0.000
583.376; 5853.400;  259.125;    0.000
583.501; 6008.400;  254.125;    0.000
583.626; 5904.400;  209.125;    0.000
583.751; 6091.400;  239.125;    0.000
583.877; 6009.400;  255.125;    0.000
584.002; 6052.400;  263.125;    0.000
584.127; 6072.400;  205.125;    0.000
584.252; 6270.400;  196.125;    0.000
584.377; 6271.400;  249.125;    0.000
584.503; 6390.400;  219.125;    0.000
584.628; 6468.400;  243.125;    0.000
584.753; 6536.400;  250.125;    0.000
584.878; 6653.400;  208.125;    0.000
585.003; 6769.400;  234.125;    0.000
585.128; 6713.400;  207.125;    0.000
585.253; 7010.400;  219.125;    0.000
585.378; 7226.400;  205.125;    0.000
585.503; 7252.400;  256.125;    0.000
585.628; 7334.400;  217.125;    0.000
585.753; 7506.400;  213.125;    0.000
585.878; 7751.400;  147.125;    0.000
586.003; 8025.400;  256.125;    0.000
586.128; 8206.400;  214.125;    0.000
586.253; 8345.400;  254.125;    0.000
586.378; 8649.400;  252.125;    0.000
586.503; 8913.400;  219.125;    0.000
586.628; 9242.400;  226.125;    0.000
586.753; 9671.400;  237.125;    0.000
586.878;10080.400;  185.125;    0.000
587.003;10532.400;  248.125;    0.000
587.127;10968.400;  237.125;    0.000
587.252;11533.400;  221.125;    0.000
587.377;12225.400;  244.125;    0.000
587.502;12836.400;  260.125;    0.000
587.627;13928.400;  232.125;    0.000
587.751;14986.400;  250.125;    0.000
587.876;15978.400;  234.125;    0.000
588.001;17364.400;  248.125;    0.000
588.125;19452.400;  236.125;    0.000
588.250;21934.400;  192.125;    0.000
588.375;24987.400;  265.125;    0.000
588.499;28923.400;  235.125;    0.000
588.624;33976.398;  212.125;    0.000
588.749;41056.398;  214.125;    0.000
588.873;49315.398;  236.125;    0.000
588.998;56329.398;  230.125;    0.000
589.122;57359.398;  231.125;    0.000
589.247;52852.398;  250.125;    0.000
589.372;48992.398;  247.125;    0.000
589.496;51157.398;  230.125;    0.000
589.621;54566.398;  237.125;    0.000
589.745;51289.398;  277.125;    0.000
589.870;43468.398;  283.125;    0.000
589.994;35794.398;  263.125;    0.000
590.118;30490.400;  239.125;    0.000
590.243;26583.400;  218.125;    0.000
590.367;23210.400;  226.125;    0.000
590.492;20944.400;  269.125;    0.000
590.616;19009.400;  205.125;    0.000
590.740;17459.400;  243.125;    0.000
590.865;16229.400;  281.125;    0.000
590.989;15143.400;  233.125;    0.000
591.114;13992.400;  222.125;    0.000
591.238;13308.400;  204.125;    0.000
591.362;12853.400;  283.125;    0.000
591.486;12228.400;  236.125;    0.000
591.611;11739.400;  228.125;    0.000
591.735;11206.400;  249.125;    0.000
591.859;10696.400;  202.125;    0.000
591.983;10392.400;  257.125;    0.000
592.107;10018.400;  230.125;    0.000
592.232; 9541.400;  266.125;    0.000
592.356; 9577.400;  232.125;    0.000
592.480; 9266.400;  245.125;    0.000
592.604; 9222.400;  254.125;    0.000
592.728; 9047.400;  233.125;    0.000
592.852; 8736.400;  213.125;    0.000
592.976; 8612.400;  234.125;    0.000
593.100; 8259.400;  246.125;    0.000
593.224; 8265.400;  305.125;    0.000
593.349; 8197.400;  240.125;    0.000
593.473; 8066.400;  206.125;    0.000
593.597; 7886.400;  243.125;    0.000
593.721; 7757.400;  247.125;    0.000
593.844; 7568.400;  230.125;    0.000
593.968; 7686.400;  226.125;    0.000
594.092; 7369.400;  193.125;    0.000
594.216; 7479.400;  237.125;    0.000
594.340; 7192.400;  235.125;    0.000
594.464; 7152.400;  225.125;    0.000
594.588; 6991.400;  269.125;    0.000
594.712; 6988.400;  242.125;    0.000
594.836; 6691.400;  240.125;    0.000
594.959; 6522.400;  255.125;    0.000
595.083; 6466.400;  258.125;    0.000
595.207; 6543.400;  264.125;    0.000
595.331; 6400.400;  215.125;    0.000
595.455; 6245.400;  234.125;    0.000
595.578; 6149.400;  215.125;    0.000
595.702; 6141.400;  259.125;    0.000
595.826; 6007.400;  232.125;    0.000
595.949; 5994.400;  251.125;    0.000
596.073; 5902.400;  197.125;    0.000
596.197; 5750.400;  239.125;    0.000
596.320; 5808.400;  229.125;    0.000
596.444; 5739.400;  264.125;    0.000
596.568; 5677.400;  207.125;    0.000
596.691; 5619.400;  234.125;    0.000
596.815; 5611.400;  241.125;    0.000
596.938; 5576.400;  244.125;    0.000
597.062; 5441.400;  210.125;    0.000
597.186; 5370.400;  247.125;    0.000
597.309; 5323.400;  215.125;    0.000
597.433; 5379.400;  266.125;    0.000
597.556; 5316.400;  234.125;    0.000
597.680; 5202.400;  261.125;    0.000
597.803; 5117.400;  239.125;    0.000
597.926; 5235.400;  251.125;    0.000
598.050; 5149.400;  227.125;    0.000
598.173; 5120.400;  247.125;    0.000
598.297; 5133.400;  244.125;    0.000
598.420; 5022.400;  243.125;    0.000
598.543; 4893.400;  237.125;    0.000
598.667; 4876.400;  239.125;    0.000
598.790; 5020.400;  217.125;    0.000
598.913; 4898.400;  244.125;    0.000
599.037; 4837.400;  249.125;    0.000
599.160; 4802.400;  222.125;    0.000
599.283; 4820.400;  235.125;    0.000
599.406; 4776.400;  228.125;    0.000
599.530; 4847.400;  234.125;    0.000
599.653; 4758.400;  228.125;    0.000
599.776; 4769.400;  263.125;    0.000
599.899; 4766.400;  197.125;    0.000
600.022; 4744.400;  224.125;    0.000
600.145; 4753.400;  211.125;    0.000
600.269; 4861.400;  246.125;    0.000
600.392; 4614.400;  233.125;    0.000
600.515; 4621.400;  266.125;    0.000
600.638; 4624.400;  246.125;    0.000
600.761; 4632.400;  213.125;    0.000
600.884; 4586.400;  279.125;    0.000
601.007; 4493.400;  268.125;    0.000
601.130; 4516.400;  203.125;    0.000
601.253; 4710.400;  241.125;    0.000
601.376; 4474.400;  248.125;    0.000
601.499; 4445.400;  241.125;    0.000
601.622; 4472.400;  266.125;    0.000
601.745; 4458.400;  237.125;    0.000
601.868; 4577.400;  256.125;    0.000
601.991; 4441.400;  260.125;    0.000
602.113; 4450.400;  246.125;    0.000
602.236; 4382.400;  243.125;    0.000
602.359; 4457.400;  220.125;    0.000
602.482; 4430.400;  236.125;    0.000
602.605; 4410.400;  216.125;    0.000
602.728; 4445.400;  247.125;    0.000
602.850; 4307.400;  255.125;    0.000
602.973; 4368.400;  224.125;    0.000
603.096; 4405.400;  258.125;    0.000
603.219; 4371.400;  222.125;    0.000
603.341; 4394.400;  235.125;    0.000
603.464; 4321.400;  223.125;    0.000
603.587; 4392.400;  250.125;    0.000
603.709; 4222.400;  229.125;    0.000
603.832; 4315.400;  285.125;    0.000
603.955; 4383.400;  225.125;    0.000
604.077; 4264.400;  235.125;    0.000
604.200; 4198.400;  209.125;    0.000
604.323; 4265.400;  240.125;    0.000
604.445; 4195.400;  198.125;    0.000
604.568; 4283.400;  230.125;    0.000
604.690; 4274.400;  225.125;    0.000
604.813; 4223.400;  248.125;    0.000
604.935; 4176.400;  204.125;    0.000
605.058; 4091.400;  191.125;    0.000
605.180; 4103.400;  237.125;    0.000
605.303; 4299.400;  224.125;    0.000
605.425; 4091.400;  244.125;    0.000
605.547; 4222.400;  268.125;    0.000
605.670; 4265.400;  211.125;    0.000
605.792; 4183.400;  266.125;    0.000
605.915; 4111.400;  202.125;    0.000
606.037; 4061.400;  236.125;    0.000
606.159; 4231.400;  234.125;    0.000
606.282; 4092.400;  223.125;    0.000
606.404; 4211.400;  217.125;    0.000
606.526; 4105.400;  221.125;    0.000
606.648; 4128.400;  204.125;    0.000
606.771; 4041.400;  265.125;    0.000
606.893; 4094.400;  211.125;    0.000
607.015; 4081.400;  206.125;    0.000
607.137; 4016.400;  222.125;    0.000
607.260; 4010.400;  228.125;    0.000
607.382; 4052.400;  202.125;    0.000
607.504; 4091.400;  257.125;    0.000
607.626; 4104.400;  249.125;    0.000
607.748; 4166.400;  233.125;    0.000
607.870; 3995.400;  222.125;    0.000
607.992; 4016.400;  227.125;    0.000
608.114; 4115.400;  228.125;    0.000
608.237; 4058.400;  254.125;    0.000
608.359; 4077.400;  216.125;    0.000
608.481; 4103.400;  197.125;    0.000
608.603; 4082.400;  209.125;    0.000
608.725; 4003.400;  220.125;    0.000
608.847; 4047.400;  259.125;    0.000
608.969; 4096.400;  242.125;    0.000
609.090; 4097.400;  218.125;    0.000
609.212; 3885.400;  200.125;    0.000
609.334; 3999.400;  212.125;    0.000
609.456; 4013.400;  231.125;    0.000
609.578; 3948.400;  249.125;    0.000
609.700; 3918.400;  185.125;    0.000
609.822; 4054.400;  200.125;    0.000
609.944; 3867.400;  236.125;    0.000
610.065; 3938.400;  255.125;    0.000
610.187; 3896.400;  208.125;    0.000
610.309; 3929.400;  202.125;    0.000
610.431; 4057.400;  232.125;    0.000
610.552; 4083.400;  232.125;    0.000
610.674; 3935.400;  217.125;    0.000
610.796; 3930.400;  186.125;    0.000
610.918; 4006.400;  211.125;    0.000
611.039; 3978.400;  244.125;    0.000
611.161; 3971.400;  202.125;    0.000
611.282; 3947.400;  212.125;    0.000
611.404; 3885.400;  235.125;    0.000
611.526; 3947.400;  213.125;    0.000
611.647; 3849.400;  248.125;    0.000
611.769; 3909.400;  205.125;    0.000
611.890; 3917.400;  224.125;    0.000
612.012; 3896.400;  189.125;    0.000
612.133; 3943.400;  186.125;    0.000
612.255; 3882.400;  246.125;    0.000
612.377; 3914.400;  230.125;    0.000
612.498; 3920.400;  196.125;    0.000
612.619; 3924.400;  234.125;    0.000
612.741; 3839.400;  221.125;    0.000
612.862; 3921.400;  227.125;    0.000
612.984; 3901.400;  189.125;    0.000
613.105; 4004.400;  232.125;    0.000
613.226; 3860.400;  199.125;    0.000
613.348; 3909.400;  260.125;    0.000
613.469; 3816.400;  217.125;    0.000
613.590; 3894.400;  236.125;    0.000
613.712; 3862.400;  226.125;    0.000
613.833; 4006.400;  231.125;    0.000
613.954; 3882.400;  236.125;    0.000
614.076; 3916.400;  236.125;    0.000
614.197; 3867.400;  228.125;    0.000
614.318; 3793.400;  207.125;    0.000
614.439; 3883.400;  237.125;    0.000
614.560; 3905.400;  202.125;    0.000
614.682; 3890.400;  230.125;    0.000
614.803; 3841.400;  236.125;    0.000
614.924; 3864.400;  257.125;    0.000
615.045; 3877.400;  228.125;    0.000
615.166; 4100.400;  221.125;    0.000
615.287; 4177.400;  199.125;    0.000
615.408; 4602.400;  228.125;    0.000
615.529; 4878.400;  200.125;    0.000
615.650; 4622.400;  224.125;    0.000
615.771; 4396.400;  202.125;    0.000
615.892; 4386.400;  215.125;    0.000
616.013; 5283.400;  246.125;    0.000
616.134; 5715.400;  210.125;    0.000
616.255; 5357.400;  232.125;    0.000
616.376; 4692.400;  241.125;    0.000
616.497; 4501.400;  213.125;    0.000
616.618; 4431.400;  171.125;    0.000
616.739; 4309.400;  221.125;    0.000
616.860; 4146.400;  244.125;    0.000
616.981; 4124.400;  240.125;    0.000
617.102; 4172.400;  234.125;    0.000
617.222; 3961.400;  265.125;    0.000
617.343; 3992.400;  206.125;    0.000
617.464; 4029.400;  246.125;    0.000
617.585; 3934.400;  256.125;    0.000
617.705; 4004.400;  249.125;    0.000
617.826; 4002.400;  218.125;    0.000
617.947; 3982.400;  225.125;    0.000
618.068; 3924.400;  199.125;    0.000
618.188; 3897.400;  202.125;    0.000
618.309; 3864.400;  220.125;    0.000
618.430; 3893.400;  229.125;    0.000
618.550; 3843.400;  252.125;    0.000
618.671; 3930.400;  233.125;    0.000
618.791; 3912.400;  227.125;    0.000
618.912; 3824.400;  236.125;    0.000
619.033; 3980.400;  220.125;    0.000
619.153; 3837.400;  228.125;    0.000
619.274; 3725.400;  208.125;    0.000
619.394; 3850.400;  255.125;    0.000
619.515; 3756.400;  206.125;    0.000
619.635; 3736.400;  204.125;    0.000
619.756; 3838.400;  252.125;    0.000
619.876; 3804.400;  238.125;    0.000
619.996; 3887.400;  249.125;    0.000
620.117; 3750.400;  223.125;    0.000
620.237; 3704.400;  210.125;    0.000
620.358; 3775.400;  264.125;    0.000
620.478; 3668.400;  263.125;    0.000
620.598; 3723.400;  238.125;    0.000
620.719; 3699.400;  225.125;    0.000
620.839; 3836.400;  259.125;    0.000
620.959; 3653.400;  218.125;    0.000
621.079; 3714.400;  253.125;    0.000
621.200; 3745.400;  245.125;    0.000
621.320; 3773.400;  254.125;    0.000
621.440; 3698.400;  233.125;    0.000
621.560; 3632.400;  235.125;    0.000
621.681; 3641.400;  234.125;    0.000
621.801; 3726.400;  240.125;    0.000
621.921; 3734.400;  239.125;    0.000
622.041; 3637.400;  288.125;    0.000
622.161; 3618.400;  229.125;    0.000
622.281; 3650.400;  223.125;    0.000
622.401; 3639.400;  240.125;    0.000
622.521; 3639.400;  267.125;    0.000
622.641; 3696.400;  226.125;    0.000
622.761; 3587.400;  252.125;    0.000
622.882; 3555.400;  207.125;    0.000
623.002; 3683.400;  226.125;    0.000
623.121; 3589.400;  207.125;    0.000
623.241; 3560.400;  215.125;    0.000
623.361; 3547.400;  222.125;    0.000
623.481; 3535.400;  187.125;    0.000
623.601; 3565.400;  283.125;    0.000
623.721; 3574.400;  283.125;    0.000
623.841; 3666.400;  233.125;    0.000
623.961; 3627.400;  215.125;    0.000
624.081; 3491.400;  219.125;    0.000
624.201; 3658.400;  221.125;    0.000
624.320; 3487.400;  215.125;    0.000
624.440; 3647.400;  222.125;    0.000
624.560; 3509.400;  231.125;    0.000
624.680; 3547.400;  225.125;    0.000
624.799; 3515.400;  230.125;    0.000
624.919; 3535.400;  243.125;    0.000
625.039; 3481.400;  203.125;    0.000
625.159; 3430.400;  257.125;    0.000
625.278; 3493.400;  230.125;    0.000
625.398; 3419.400;  195.125;    0.000
625.518; 3503.400;  211.125;    0.000
625.637; 3500.400;  267.125;    0.000
625.757; 3525.400;  228.125;    0.000
625.876; 3464.400;  231.125;    0.000
625.996; 3499.400;  219.125;    0.000
626.115; 3521.400;  235.125;    0.000
626.235; 3538.400;  199.125;    0.000
626.354; 3542.400;  226.125;    0.000
626.474; 3486.400;  225.125;    0.000
626.594; 3457.400;  223.125;    0.000
626.713; 3606.400;  231.125;    0.000
626.832; 3579.400;  287.125;    0.000
626.952; 3499.400;  251.125;    0.000
627.071; 3423.400;  254.125;    0.000
627.191; 3476.400;  193.125;    0.000
627.310; 3403.400;  213.125;    0.000
627.429; 3455.400;  259.125;    0.000
627.549; 3417.400;  243.125;    0.000
627.668; 3409.400;  181.125;    0.000
627.787; 3366.400;  232.125;    0.000
627.907; 3377.400;  222.125;    0.000
628.026; 3457.400;  219.125;    0.000
628.145; 3414.400;  201.125;    0.000
628.264; 3438.400;  198.125;    0.000
628.384; 3381.400;  208.125;    0.000
628.503; 3468.400;  251.125;    0.000
628.622; 3416.400;  195.125;    0.000
628.741; 3459.400;  180.125;    0.000
628.860; 3429.400;  235.125;    0.000
628.980; 3462.400;  222.125;    0.000
629.099; 3432.400;  237.125;    0.000
629.218; 3328.400;  175.125;    0.000
629.337; 3395.400;  194.125;    0.000
629.456; 3450.400;  225.125;    0.000
629.575; 3417.400;  239.125;    0.000
629.694; 3394.400;  230.125;    0.000
629.813; 3348.400;  197.125;    0.000
629.932; 3371.400;  225.125;    0.000
630.051; 3359.400;  238.125;    0.000
630.170; 3502.400;  233.125;    0.000
630.289; 3393.400;  231.125;    0.000
630.408; 3366.400;  204.125;    0.000
630.527; 3355.400;  262.125;    0.000
630.646; 3363.400;  181.125;    0.000
630.764; 3355.400;  218.125;    0.000
630.883; 3336.400;  215.125;    0.000
631.002; 3379.400;  224.125;    0.000
631.121; 3381.400;  209.125;    0.000
631.240; 3401.400;  230.125;    0.000
631.359; 3425.400;  235.125;    0.000
631.477; 3346.400;  223.125;    0.000
631.596; 3465.400;  218.125;    0.000
631.715; 3300.400;  234.125;    0.000
631.834; 3306.400;  215.125;    0.000
631.952; 3450.400;  243.125;    0.000
632.071; 3261.400;  219.125;    0.000
632.190; 3222.400;  235.125;    0.000
632.308; 3310.400;  239.125;    0.000
632.427; 3273.400;  211.125;    0.000
632.546; 3289.400;  233.125;    0.000
632.664; 3314.400;  219.125;    0.000
632.783; 3297.400;  203.125;    0.000
632.901; 3361.400;  221.125;    0.000
633.020; 3306.400;  197.125;    0.000
633.138; 3342.400;  244.125;    0.000
633.257; 3233.400;  205.125;    0.000
633.375; 3342.400;  245.125;    0.000
633.494; 3380.400;  218.125;    0.000
633.612; 3263.400;  222.125;    0.000
633.731; 3281.400;  212.125;    0.000
633.849; 3262.400;  218.125;    0.000
633.968; 3337.400;  236.125;    0.000
634.086; 3344.400;  233.125;    0.000
634.204; 3307.400;  215.125;    0.000
634.323; 3298.400;  230.125;    0.000
634.441; 3331.400;  235.125;    0.000
634.559; 3320.400;  202.125;    0.000
634.678; 3162.400;  218.125;    0.000
634.796; 3175.400;  203.125;    0.000
634.914; 3343.400;  227.125;    0.000
635.032; 3367.400;  279.125;    0.000
635.151; 3260.400;  221.125;    0.000
635.269; 3239.400;  207.125;    0.000
635.387; 3339.400;  195.125;    0.000
635.505; 3191.400;  243.125;    0.000
635.623; 3331.400;  269.125;    0.000
635.742; 3236.400;  232.125;    0.000
635.860; 3207.400;  243.125;    0.000
635.978; 3247.400;  215.125;    0.000
636.096; 3189.400;  225.125;    0.000
636.214; 3257.400;  244.125;    0.000
636.332; 3252.400;  226.125;    0.000
636.450; 3233.400;  227.125;    0.000
636.568; 3261.400;  225.125;    0.000
636.686; 3234.400;  194.125;    0.000
636.804; 3142.400;  234.125;    0.000
636.922; 3192.400;  177.125;    0.000
637.040; 3116.400;  225.125;    0.000
637.158; 3196.400;  194.125;    0.000
637.276; 3303.400;  219.125;    0.000
637.394; 3147.400;  219.125;    0.000
637.512; 3264.400;  210.125;    0.000
637.629; 3274.400;  242.125;    0.000
637.747; 3180.400;  193.125;    0.000
637.865; 3219.400;  219.125;    0.000
637.983; 3203.400;  251.125;    0.000
638.101; 3200.400;  221.125;    0.000
638.218; 3211.400;  193.125;    0.000
638.336; 3280.400;  224.125;    0.000
638.454; 3159.400;  227.125;    0.000
638.572; 3227.400;  245.125;    0.000
638.689; 3198.400;  222.125;    0.000
638.807; 3153.400;  244.125;    0.000
638.925; 3228.400;  238.125;    0.000
639.042; 3095.400;  213.125;    0.000
639.160; 3155.400;  186.125;    0.000
639.278; 3157.400;  203.125;    0.000
639.395; 3212.400;  270.125;    0.000
639.513; 3246.400;  227.125;    0.000
639.630; 3157.400;  200.125;    0.000
639.748; 3157.400;  199.125;    0.000
639.865; 3260.400;  233.125;    0.000
639.983; 3088.400;  181.125;    0.000
640.100; 3055.400;  219.125;    0.000
640.218; 3150.400;  234.125;    0.000
640.335; 3080.400;  233.125;    0.000
640.453; 3220.400;  202.125;    0.000
640.570; 3142.400;  214.125;    0.000
640.688; 3131.400;  215.125;    0.000
640.805; 3159.400;  229.125;    0.000
640.922; 3160.400;  244.125;    0.000
641.040; 3160.400;  233.125;    0.000
641.157; 3163.400;  199.125;    0.000
641.274; 3117.400;  205.125;    0.000
641.391; 3189.400;  244.125;    0.000
641.509; 3156.400;  184.125;    0.000
641.626; 3206.400;  244.125;    0.000
641.743; 3073.400;  221.125;    0.000
641.860; 3182.400;  206.125;    0.000
641.978; 3048.400;  272.125;    0.000
642.095; 3166.400;  218.125;    0.000
642.212; 3115.400;  208.125;    0.000
642.329; 3158.400;  218.125;    0.000
642.446; 3065.400;  197.125;    0.000
642.563; 3242.400;  214.125;    0.000
642.681; 3117.400;  203.125;    0.000
642.798; 3053.400;  236.125;    0.000
642.915; 3127.400;  191.125;    0.000
643.032; 3192.400;  226.125;    0.000
643.149; 3227.400;  231.125;    0.000
643.266; 3096.400;  213.125;    0.000
643.383; 3164.400;  240.125;    0.000
643.500; 3109.400;  185.125;    0.000
643.617; 3144.400;  229.125;    0.000
643.734; 3135.400;  205.125;    0.000
643.850; 3134.400;  222.125;    0.000
643.967; 3114.400;  202.125;    0.000
644.084; 3192.400;  264.125;    0.000
644.201; 3112.400;  214.125;    0.000
644.318; 3163.400;  206.125;    0.000
644.435; 3237.400;  225.125;    0.000
644.552; 3157.400;  203.125;    0.000
644.668; 3200.400;  252.125;    0.000
644.785; 3142.400;  213.125;    0.000
644.902; 3145.400;  233.125;    0.000
645.019; 3140.400;  220.125;    0.000
645.135; 3170.400;  225.125;    0.000
645.252; 3176.400;  218.125;    0.000
645.369; 3175.400;  214.125;    0.000
645.485; 3182.400;  210.125;    0.000
645.602; 3250.400;  198.125;    0.000
645.719; 3173.400;  228.125;    0.000
645.835; 3312.400;  209.125;    0.000
645.952; 3239.400;  213.125;    0.000
646.068; 3229.400;  241.125;    0.000
646.185; 3271.400;  219.125;    0.000
646.302; 3260.400;  246.125;    0.000
646.418; 3240.400;  228.125;    0.000
646.535; 3349.400;  256.125;    0.000
646.651; 3224.400;  222.125;    0.000
646.768; 3237.400;  203.125;    0.000
646.884; 3286.400;  199.125;    0.000
647.000; 3270.400;  194.125;    0.000
647.117; 3302.400;  214.125;    0.000
647.233; 3348.400;  209.125;    0.000
647.350; 3352.400;  235.125;    0.000
647.466; 3371.400;  237.125;    0.000
647.582; 3395.400;  231.125;    0.000
647.699; 3299.400;  219.125;    0.000
647.815; 3326.400;  200.125;    0.000
647.931; 3404.400;  173.125;    0.000
648.047; 3327.400;  184.125;    0.000
648.164; 3413.400;  199.125;    0.000
648.280; 3457.400;  209.125;    0.000
648.396; 3393.400;  220.125;    0.000
648.512; 3454.400;  212.125;    0.000
648.629; 3431.400;  214.125;    0.000
648.745; 3328.400;  197.125;    0.000
648.861; 3468.400;  228.125;    0.000
648.977; 3514.400;  238.125;    0.000
649.093; 3413.400;  208.125;    0.000
649.209; 3431.400;  179.125;    0.000
649.325; 3482.400;  256.125;    0.000
649.441; 3436.400;  224.125;    0.000
649.557; 3389.400;  247.125;    0.000
649.673; 3436.400;  214.125;    0.000
649.789; 3337.400;  213.125;    0.000
649.905; 3365.400;  170.125;    0.000
650.021; 3482.400;  236.125;    0.000
650.137; 3432.400;  229.125;    0.000
650.253; 3484.400;  207.125;    0.000
650.369; 3494.400;  198.125;    0.000
650.485; 3380.400;  225.125;    0.000
650.601; 3507.400;  260.125;    0.000
650.717; 3496.400;  196.125;    0.000
650.833; 3550.400;  219.125;    0.000
650.948; 3537.400;  203.125;    0.000
651.064; 3532.400;  232.125;    0.000
651.180; 3473.400;  252.125;    0.000
651.296; 3490.400;  190.125;    0.000
651.411; 3549.400;  235.125;    0.000
651.527; 3606.400;  227.125;    0.000
651.643; 3582.400;  238.125;    0.000
651.759; 3500.400;  260.125;    0.000
651.874; 3671.400;  217.125;    0.000
651.990; 3698.400;  239.125;    0.000
652.105; 3589.400;  215.125;    0.000
652.221; 3705.400;  237.125;    0.000
652.337; 3702.400;  238.125;    0.000
652.452; 3755.400;  230.125;    0.000
652.568; 3793.400;  201.125;    0.000
652.683; 3766.400;  243.125;    0.000
652.799; 3782.400;  218.125;    0.000
652.914; 3763.400;  189.125;    0.000
653.030; 3871.400;  191.125;    0.000
653.145; 3892.400;  240.125;    0.000
653.261; 3985.400;  225.125;    0.000
653.376; 4001.400;  241.125;    0.000
653.492; 3977.400;  188.125;    0.000
653.607; 3979.400;  219.125;    0.000
653.722; 4104.400;  268.125;    0.000
653.838; 4280.400;  262.125;    0.000
653.953; 4282.400;  188.125;    0.000
654.068; 4340.400;  244.125;    0.000
654.184; 4315.400;  247.125;    0.000
654.299; 4474.400;  228.125;    0.000
654.414; 4402.400;  181.125;    0.000
654.530; 4499.400;  210.125;    0.000
654.645; 4522.400;  240.125;    0.000
654.760; 4673.400;  219.125;    0.000
654.875; 4679.400;  178.125;    0.000
654.990; 5025.400;  222.125;    0.000
655.106; 5075.400;  227.125;    0.000
655.221; 5111.400;  270.125;    0.000
655.336; 5270.400;  199.125;    0.000
655.451; 5441.400;  235.125;    0.000
655.566; 5678.400;  251.125;    0.000
655.681; 5845.400;  253.125;    0.000
655.796; 6137.400;  207.125;    0.000
655.911; 6449.400;  213.125;    0.000
656.026; 6534.400;  247.125;    0.000
656.141; 6897.400;  209.125;    0.000
656.256; 7238.400;  226.125;    0.000
656.371; 7350.400;  201.125;    0.000
656.486; 7142.400;  196.125;    0.000
656.601; 7051.400;  239.125;    0.000
656.716; 6808.400;  234.125;    0.000
656.831; 6563.400;  223.125;    0.000
656.946; 6265.400;  246.125;    0.000
657.060; 6131.400;  230.125;    0.000
657.175; 6095.400;  207.125;    0.000
657.290; 5920.400;  213.125;    0.000
657.405; 5847.400;  319.125;    0.000
657.520; 5580.400;  241.125;    0.000
657.634; 5517.400;  235.125;    0.000
657.749; 5455.400;  275.125;    0.000
657.864; 5204.400;  210.125;    0.000
657.979; 5097.400;  227.125;    0.000
658.093; 5006.400;  206.125;    0.000
658.208; 4884.400;  217.125;    0.000
658.323; 4807.400;  227.125;    0.000
658.437; 4796.400;  217.125;    0.000
658.552; 4648.400;  237.125;    0.000
658.666; 4651.400;  233.125;    0.000
658.781; 4560.400;  248.125;    0.000
658.895; 4583.400;  233.125;    0.000
659.010; 4480.400;  238.125;    0.000
659.125; 4294.400;  206.125;    0.000
659.239; 4289.400;  220.125;    0.000
659.353; 4374.400;  236.125;    0.000
659.468; 4225.400;  238.125;    0.000
659.582; 4284.400;  275.125;    0.000
659.697; 4203.400;  239.125;    0.000
659.811; 4082.400;  232.125;    0.000
659.926; 4079.400;  230.125;    0.000
660.040; 4048.400;  257.125;    0.000
660.154; 3922.400;  221.125;    0.000
660.269; 4055.400;  219.125;    0.000
660.383; 3951.400;  228.125;    0.000
660.497; 3947.400;  243.125;    0.000
660.612; 3922.400;  238.125;    0.000
660.726; 3859.400;  260.125;    0.000
660.840; 3813.400;  239.125;    0.000
660.954; 3797.400;  236.125;    0.000
661.068; 3831.400;  239.125;    0.000
661.183; 3783.400;  245.125;    0.000
661.297; 3719.400;  198.125;    0.000
661.411; 3548.400;  203.125;    0.000
661.525; 3632.400;  244.125;    0.000
661.639; 3565.400;  229.125;    0.000
661.753; 3469.400;  238.125;    0.000
661.867; 3517.400;  237.125;    0.000
661.981; 3448.400;  219.125;    0.000
662.095; 3426.400;  232.125;    0.000
662.209; 3426.400;  236.125;    0.000
662.323; 3260.400;  209.125;    0.000
662.437; 3360.400;  206.125;    0.000
662.551; 3388.400;  217.125;    0.000
662.665; 3475.400;  262.125;    0.000
662.779; 3239.400;  234.125;    0.000
662.893; 3276.400;  222.125;    0.000
663.007; 3206.400;  189.125;    0.000
663.121; 3210.400;  258.125;    0.000
663.235; 3279.400;  191.125;    0.000
663.349; 3173.400;  259.125;    0.000
663.462; 3132.400;  209.125;    0.000
663.576; 3151.400;  244.125;    0.000
663.690; 3073.400;  237.125;    0.000
663.804; 3101.400;  205.125;    0.000
663.917; 3120.400;  207.125;    0.000
664.031; 3060.400;  234.125;    0.000
664.145; 2985.400;  216.125;    0.000
664.258; 3042.400;  202.125;    0.000
664.372; 3074.400;  198.125;    0.000
664.486; 3002.400;  181.125;    0.000
664.599; 3024.400;  229.125;    0.000
664.713; 3004.400;  266.125;    0.000
664.827; 2931.400;  185.125;    0.000
664.940; 2953.400;  225.125;    0.000
665.054; 2913.400;  198.125;    0.000
665.167; 3060.400;  208.125;    0.000
665.281; 2980.400;  231.125;    0.000
665.394; 2919.400;  228.125;    0.000
665.508; 2966.400;  204.125;    0.000
665.621; 2866.400;  263.125;    0.000
665.735; 2928.400;  222.125;    0.000
665.848; 2980.400;  237.125;    0.000
665.961; 2813.400;  180.125;    0.000
666.075; 2955.400;  212.125;    0.000
666.188; 2895.400;  229.125;    0.000
666.301; 2778.400;  247.125;    0.000
666.415; 2860.400;  212.125;    0.000
666.528; 2810.400;  268.125;    0.000
666.641; 2839.400;  210.125;    0.000
666.755; 2789.400;  178.125;    0.000
666.868; 2821.400;  227.125;    0.000
666.981; 2800.400;  250.125;    0.000
667.094; 2821.400;  228.125;    0.000
667.207; 2701.400;  235.125;    0.000
667.321; 2790.400;  171.125;    0.000
667.434; 2794.400;  191.125;    0.000
667.547; 2778.400;  279.125;    0.000
667.660; 2740.400;  210.125;    0.000
667.773; 2710.400;  217.125;    0.000
667.886; 2825.400;  209.125;    0.000
667.999; 2677.400;  239.125;    0.000
668.112; 2673.400;  227.125;    0.000
668.225; 2688.400;  185.125;    0.000
668.338; 2693.400;  222.125;    0.000
668.451; 2604.400;  200.125;    0.000
668.564; 2684.400;  237.125;    0.000
668.677; 2648.400;  207.125;    0.000
668.790; 2636.400;  208.125;    0.000
668.903; 2736.400;  243.125;    0.000
669.016; 2630.400;  190.125;    0.000
669.129; 2610.400;  234.125;    0.000
669.242; 2594.400;  185.125;    0.000
669.354; 2548.400;  224.125;    0.000
669.467; 2524.400;  219.125;    0.000
669.580; 2663.400;  249.125;    0.000
669.693; 2635.400;  187.125;    0.000
669.806; 2561.400;  206.125;    0.000
669.918; 2544.400;  192.125;    0.000
670.031; 2612.400;  235.125;    0.000
670.144; 2565.400;  238.125;    0.000
670.256; 2539.400;  237.125;    0.000
670.369; 2536.400;  237.125;    0.000
670.482; 2638.400;  250.125;    0.000
670.594; 2572.400;  273.125;    0.000
670.707; 2578.400;  223.125;    0.000
670.820; 2511.400;  238.125;    0.000
670.932; 2518.400;  224.125;    0.000
671.045; 2527.400;  219.125;    0.000
671.157; 2566.400;  242.125;    0.000
671.270; 2527.400;  235.125;    0.000
671.382; 2555.400;  213.125;    0.000
671.495; 2561.400;  254.125;    0.000
671.607; 2513.400;  253.125;    0.000
671.720; 2509.400;  169.125;    0.000
671.832; 2481.400;  201.125;    0.000
671.944; 2513.400;  250.125;    0.000
672.057; 2470.400;  187.125;    0.000
672.169; 2460.400;  224.125;    0.000
672.281; 2514.400;  238.125;    0.000
672.394; 2448.400;  250.125;    0.000
672.506; 2492.400;  227.125;    0.000
672.618; 2487.400;  223.125;    0.000
672.731; 2460.400;  210.125;    0.000
672.843; 2499.400;  245.125;    0.000
672.955; 2388.400;  263.125;    0.000
673.067; 2412.400;  239.125;    0.000
673.180; 2485.400;  253.125;    0.000
673.292; 2490.400;  243.125;    0.000
673.404; 2425.400;  226.125;    0.000
673.516; 2422.400;  223.125;    0.000
673.628; 2450.400;  223.125;    0.000
673.740; 2418.400;  216.125;    0.000
673.852; 2463.400;  277.125;    0.000
673.964; 2520.400;  211.125;    0.000
674.076; 2453.400;  241.125;    0.000
674.188; 2421.400;  251.125;    0.000
674.300; 2419.400;  268.125;    0.000
674.412; 2411.400;  260.125;    0.000
674.524; 2448.400;  257.125;    0.000
674.636; 2402.400;  222.125;    0.000
674.748; 2420.400;  227.125;    0.000
674.860; 2437.400;  250.125;    0.000
674.972; 2415.400;  240.125;    0.000
675.084; 2398.400;  262.125;    0.000
675.196; 2527.400;  287.125;    0.000
675.307; 2388.400;  257.125;    0.000
675.419; 2380.400;  231.125;    0.000
675.531; 2503.400;  274.125;    0.000
675.643; 2373.400;  235.125;    0.000
675.755; 2377.400;  275.125;    0.000
675.866; 2422.400;  238.125;    0.000
675.978; 2380.400;  209.125;    0.000
676.090; 2375.400;  239.125;    0.000
676.201; 2384.400;  249.125;    0.000
676.313; 2402.400;  237.125;    0.000
676.425; 2349.400;  263.125;    0.000
676.536; 2380.400;  178.125;    0.000
676.648; 2357.400;  245.125;    0.000
676.759; 2436.400;  244.125;    0.000
676.871; 2381.400;  242.125;    0.000
676.983; 2394.400;  245.125;    0.000
677.094; 2262.400;  209.125;    0.000
677.206; 2328.400;  248.125;    0.000
677.317; 2414.400;  260.125;    0.000
677.429; 2286.400;  237.125;    0.000
677.540; 2269.400;  226.125;    0.000
677.651; 2325.400;  226.125;    0.000
677.763; 2252.400;  194.125;    0.000
677.874; 2349.400;  230.125;    0.000
677.986; 2247.400;  202.125;    0.000
678.097; 2282.400;  229.125;    0.000
678.208; 2334.400;  263.125;    0.000
678.320; 2298.400;  243.125;    0.000
678.431; 2234.400;  229.125;    0.000
678.542; 2337.400;  231.125;    0.000
678.653; 2213.400;  224.125;    0.000
678.765; 2253.400;  255.125;    0.000
678.876; 2197.400;  175.125;    0.000
678.987; 2223.400;  204.125;    0.000
679.098; 2220.400;  227.125;    0.000
679.209; 2206.400;  228.125;    0.000
679.320; 2274.400;  223.125;    0.000
679.432; 2196.400;  219.125;    0.000
679.543; 2165.400;  210.125;    0.000
679.654; 2214.400;  249.125;    0.000
679.765; 2251.400;  222.125;    0.000
679.876; 2311.400;  219.125;    0.000
679.987; 2242.400;  213.125;    0.000
680.098; 2280.400;  237.125;    0.000
680.209; 2281.400;  188.125;    0.000
680.320; 2287.400;  243.125;    0.000
680.431; 2241.400;  227.125;    0.000
680.542; 2273.400;  212.125;    0.000
680.653; 2228.400;  266.125;    0.000
680.763; 2190.400;  198.125;    0.000
680.874; 2251.400;  211.125;    0.000
680.985; 2232.400;  207.125;    0.000
681.096; 2224.400;  244.125;    0.000
681.207; 2180.400;  209.125;    0.000
681.318; 2251.400;  215.125;    0.000
681.428; 2253.400;  199.125;    0.000
681.539; 2226.400;  175.125;    0.000
681.650; 2168.400;  224.125;    0.000
681.760; 2234.400;  216.125;    0.000
681.871; 2155.400;  187.125;    0.000
681.982; 2072.400;  237.125;    0.000
682.093; 2163.400;  213.125;    0.000
682.203; 2200.400;  190.125;    0.000
682.314; 2145.400;  230.125;    0.000
682.424; 2167.400;  223.125;    0.000
682.535; 2228.400;  172.125;    0.000
682.646; 2265.400;  268.125;    0.000
682.756; 2242.400;  249.125;    0.000
682.867; 2182.400;  225.125;    0.000
682.977; 2211.400;  211.125;    0.000
683.088; 2224.400;  238.125;    0.000
683.198; 2196.400;  202.125;    0.000
683.308; 2177.400;  196.125;    0.000
683.419; 2243.400;  230.125;    0.000
683.529; 2173.400;  213.125;    0.000
683.640; 2212.400;  225.125;    0.000
683.750; 2144.400;  203.125;    0.000
683.860; 2138.400;  200.125;    0.000
683.971; 2169.400;  269.125;    0.000
684.081; 2176.400;  204.125;    0.000
684.191; 2260.400;  228.125;    0.000
684.301; 2230.400;  219.125;    0.000
684.412; 2131.400;  222.125;    0.000
684.522; 2214.400;  242.125;    0.000
684.632; 2160.400;  234.125;    0.000
684.742; 2154.400;  240.125;    0.000
684.852; 2139.400;  229.125;    0.000
684.963; 2163.400;  237.125;    0.000
685.073; 2183.400;  205.125;    0.000
685.183; 2134.400;  241.125;    0.000
685.293; 2205.400;  202.125;    0.000
685.403; 2165.400;  232.125;    0.000
685.513; 2201.400;  244.125;    0.000
685.623; 2157.400;  224.125;    0.000
685.733; 2161.400;  236.125;    0.000
685.843; 2196.400;  235.125;    0.000
685.953; 2170.400;  216.125;    0.000
686.063; 2190.400;  214.125;    0.000
686.173; 2092.400;  198.125;    0.000
686.283; 2188.400;  250.125;    0.000
686.393; 2202.400;  227.125;    0.000
686.503; 2163.400;  244.125;    0.000
686.612; 2181.400;  247.125;    0.000
686.722; 2216.400;  265.125;    0.000
686.832; 2124.400;  213.125;    0.000
686.942; 2141.400;  241.125;    0.000
687.052; 2157.400;  238.125;    0.000
687.161; 2186.400;  233.125;    0.000
687.271; 2134.400;  232.125;    0.000
687.381; 2124.400;  220.125;    0.000
687.491; 2130.400;  206.125;    0.000
687.600; 2106.400;  283.125;    0.000
687.710; 2189.400;  212.125;    0.000
687.820; 2149.400;  226.125;    0.000
687.929; 2124.400;  202.125;    0.000
688.039; 2139.400;  225.125;    0.000
688.148; 2139.400;  235.125;    0.000
688.258; 2130.400;  224.125;    0.000
688.367; 2112.400;  239.125;    0.000
688.477; 2036.400;  193.125;    0.000
688.586; 2075.400;  226.125;    0.000
688.696; 2157.400;  185.125;    0.000
688.805; 2151.400;  190.125;    0.000
688.915; 2156.400;  209.125;    0.000
689.024; 2106.400;  214.125;    0.000
689.134; 2173.400;  205.125;    0.000
689.243; 2012.400;  190.125;    0.000
689.352; 2083.400;  233.125;    0.000
689.462; 2038.400;  196.125;    0.000
689.571; 2069.400;  227.125;    0.000
689.680; 2104.400;  206.125;    0.000
689.790; 2106.400;  193.125;    0.000
689.899; 2095.400;  204.125;    0.000
690.008; 2103.400;  228.125;    0.000
690.117; 2082.400;  207.125;    0.000
690.227; 2124.400;  231.125;    0.000
690.336; 2073.400;  222.125;    0.000
690.445; 2065.400;  198.125;    0.000
690.554; 2049.400;  202.125;    0.000
690.663; 2065.400;  217.125;    0.000
690.772; 2148.400;  213.125;    0.000
690.881; 2016.400;  225.125;    0.000
690.990; 2098.400;  217.125;    0.000
691.099; 2142.400;  205.125;    0.000
691.209; 2068.400;  220.125;    0.000
691.318; 2112.400;  216.125;    0.000
691.427; 1988.400;  188.125;    0.000
691.536; 2089.400;  224.125;    0.000
691.644; 2095.400;  212.125;    0.000
691.753; 2098.400;  216.125;    0.000
691.862; 2068.400;  250.125;    0.000
691.971; 2090.400;  210.125;    0.000
692.080; 2068.400;  232.125;    0.000
692.189; 2115.400;  218.125;    0.000
692.298; 2061.400;  220.125;    0.000
692.406; 2152.400;  261.125;    0.000
692.515; 2111.400;  253.125;    0.000
692.624; 2108.400;  224.125;    0.000
692.733; 2017.400;  209.125;    0.000
692.842; 2048.400;  214.125;    0.000
692.950; 2110.400;  206.125;    0.000
693.059; 2015.400;  180.125;    0.000
693.168; 2106.400;  220.125;    0.000
693.276; 2138.400;  196.125;    0.000
693.385; 2096.400;  203.125;    0.000
693.494; 2077.400;  263.125;    0.000
693.602; 2067.400;  222.125;    0.000
693.711; 2101.400;  178.125;    0.000
693.819; 2045.400;  230.125;    0.000
693.928; 2054.400;  187.125;    0.000
694.036; 2024.400;  219.125;    0.000
694.145; 1997.400;  223.125;    0.000
694.253; 2054.400;  241.125;    0.000
694.362; 2054.400;  229.125;    0.000
694.470; 2117.400;  223.125;    0.000
694.579; 2080.400;  195.125;    0.000
694.687; 2132.400;  257.125;    0.000
694.795; 1999.400;  230.125;    0.000
694.904; 2003.400;  196.125;    0.000
695.012; 2106.400;  247.125;    0.000
695.120; 2102.400;  215.125;    0.000
695.229; 2092.400;  244.125;    0.000
695.337; 2033.400;  197.125;    0.000
695.445; 2161.400;  270.125;    0.000
695.553; 2077.400;  241.125;    0.000
695.662; 2075.400;  249.125;    0.000
695.770; 2088.400;  244.125;    0.000
695.878; 2120.400;  236.125;    0.000
695.986; 2098.400;  253.125;    0.000
696.094; 2042.400;  242.125;    0.000
696.202; 2031.400;  174.125;    0.000
696.310; 2034.400;  230.125;    0.000
696.419; 2010.400;  218.125;    0.000
696.527; 2091.400;  226.125;    0.000
696.635; 2079.400;  217.125;    0.000
696.743; 2041.400;  221.125;    0.000
696.851; 2099.400;  259.125;    0.000
696.959; 2057.400;  245.125;    0.000
697.067; 2089.400;  235.125;    0.000
697.174; 2089.400;  238.125;    0.000
697.282; 2004.400;  208.125;    0.000
697.390; 2013.400;  265.125;    0.000
697.498; 2046.400;  202.125;    0.000
697.606; 2008.400;  219.125;    0.000
697.714; 2100.400;  245.125;    0.000
697.822; 2056.400;  222.125;    0.000
697.929; 2018.400;  194.125;    0.000
698.037; 1973.400;  223.125;    0.000
698.145; 1998.400;  213.125;    0.000
698.253; 2098.400;  234.125;    0.000
698.360; 2054.400;  211.125;    0.000
698.468; 2041.400;  241.125;    0.000
698.576; 2044.400;  249.125;    0.000
698.683; 2119.400;  268.125;    0.000
698.791; 2027.400;  223.125;    0.000
698.899; 2099.400;  251.125;    0.000
699.006; 2050.400;  216.125;    0.000
699.114; 2036.400;  256.125;    0.000
699.221; 2047.400;  226.125;    0.000
699.329; 2069.400;  255.125;    0.000
699.436; 2063.400;  213.125;    0.000
699.544; 2057.400;  258.125;    0.000
699.651; 2046.400;  214.125;    0.000
699.759; 1967.400;  229.125;    0.000
699.866; 2052.400;  239.125;    0.000
699.974; 1995.400;  224.125;    0.000
700.081; 2042.400;  227.125;    0.000
700.188; 2025.400;  267.125;    0.000
700.296; 2009.400;  222.125;    0.000
700.403; 1982.400;  225.125;    0.000
700.510; 2001.400;  248.125;    0.000
700.618; 2023.400;  223.125;    0.000
700.725; 2100.400;  243.125;    0.000
700.832; 2012.400;  239.125;    0.000
700.940; 2025.400;  284.125;    0.000
701.047; 2010.400;  216.125;    0.000
701.154; 2029.400;  249.125;    0.000
701.261; 1976.400;  229.125;    0.000
701.368; 2026.400;  247.125;    0.000
701.475; 1924.400;  208.125;    0.000
701.582; 1999.400;  262.125;    0.000
701.690; 2044.400;  224.125;    0.000
701.797; 2052.400;  294.125;    0.000
701.904; 2061.400;  303.125;    0.000
702.011; 2120.400;  278.125;    0.000
702.118; 2107.400;  279.125;    0.000
702.225; 2038.400;  342.125;    0.000
702.332; 2078.400;  281.125;    0.000
702.439; 2074.400;  313.125;    0.000
702.546; 2054.400;  295.125;    0.000
702.652; 2069.400;  293.125;    0.000
702.759; 2043.400;  333.125;    0.000
702.866; 2063.400;  272.125;    0.000
702.973; 2073.400;  310.125;    0.000
703.080; 2065.400;  313.125;    0.000
703.187; 2078.400;  316.125;    0.000
703.294; 2057.400;  328.125;    0.000
703.400; 1945.400;  312.125;    0.000
703.507;  506.400;  349.125;    0.000
703.614;  302.400;  298.125;    0.000
703.720;  303.400;  300.125;    0.000
703.827;  314.400;  346.125;    0.000
703.934;  328.400;  308.125;    0.000
704.040;  321.400;  300.125;    0.000
704.147;  347.400;  317.125;    0.000
704.254;  329.400;  350.125;    0.000
704.360;  295.400;  285.125;    0.000
704.467;  348.400;  334.125;    0.000
704.573;  328.400;  330.125;    0.000
704.680;  317.400;  312.125;    0.000
704.786;  318.400;  305.125;    0.000
704.893;  319.400;  330.125;    0.000
704.999;  320.400;  315.125;    0.000
705.106;  370.400;  327.125;    0.000

