
Integration time [ms]:   0.300
Averaging Nr. [scans]: 1
Smoothing Nr. [pixels]: 0
Data measured with spectrometer [name]: UV1
Wave   ;Sample   ;Dark     ;Reference
[nm]   ;[counts] ;[counts] ;[counts] 

236.381;  143.125;  160.350;    0.000
236.451;  190.125;  198.350;    0.000
236.520;  172.125;  179.350;    0.000
236.590;  206.125;  205.350;    0.000
236.660;  185.125;  199.350;    0.000
236.730;  233.125;  178.350;    0.000
236.799;  201.125;  201.350;    0.000
236.869;  226.125;  197.350;    0.000
236.939;  183.125;  180.350;    0.000
237.009;  174.125;  165.350;    0.000
237.078;  152.125;  191.350;    0.000
237.148;  162.125;  146.350;    0.000
237.218;  171.125;  142.350;    0.000
237.287;  189.125;  190.350;    0.000
237.357;  209.125;  182.350;    0.000
237.427;  168.125;  139.350;    0.000
237.496; 1161.125;  221.350;    0.000
237.566; 1109.125;  183.350;    0.000
237.636; 1166.125;  157.350;    0.000
237.705; 1160.125;  189.350;    0.000
237.775; 1128.125;  169.350;    0.000
237.845; 1096.125;  156.350;    0.000
237.914; 1092.125;  185.350;    0.000
237.984; 1209.125;  194.350;    0.000
238.054; 1176.125;  138.350;    0.000
238.123; 1106.125;  166.350;    0.000
238.193; 1100.125;  174.350;    0.000
238.263; 1134.125;  158.350;    0.000
238.332; 1192.125;  167.350;    0.000
238.402; 1140.125;  173.350;    0.000
238.471; 1117.125;  153.350;    0.000
238.541; 1196.125;  167.350;    0.000
238.611; 1169.125;  165.350;    0.000
238.680; 1090.125;  157.350;    0.000
238.750; 1162.125;  152.350;    0.000
238.819; 1178.125;  190.350;    0.000
238.889; 1100.125;  151.350;    0.000
238.958; 1200.125;  166.350;    0.000
239.028; 1075.125;  180.350;    0.000
239.097; 1099.125;  170.350;    0.000
239.167; 1149.125;  177.350;    0.000
239.237; 1122.125;  195.350;    0.000
239.306; 1146.125;  145.350;    0.000
239.376; 1145.125;  158.350;    0.000
239.445; 1183.125;  187.350;    0.000
239.515; 1158.125;  160.350;    0.000
239.584; 1139.125;  173.350;    0.000
239.654; 1093.125;  184.350;    0.000
239.723; 1150.125;  195.350;    0.000
239.793; 1137.125;  183.350;    0.000
239.862; 1081.125;  190.350;    0.000
239.932; 1067.125;  168.350;    0.000
240.001; 1124.125;  164.350;    0.000
240.070; 1151.125;  183.350;    0.000
240.140; 1122.125;  175.350;    0.000
240.209; 1124.125;  135.350;    0.000
240.279; 1133.125;  176.350;    0.000
240.348; 1144.125;  184.350;    0.000
240.418; 1085.125;  157.350;    0.000
240.487; 1077.125;  189.350;    0.000
240.556; 1142.125;  157.350;    0.000
240.626; 1064.125;  174.350;    0.000
240.695; 1090.125;  180.350;    0.000
240.765; 1142.125;  152.350;    0.000
240.834; 1062.125;  136.350;    0.000
240.903; 1099.125;  196.350;    0.000
240.973; 1146.125;  183.350;    0.000
241.042; 1103.125;  150.350;    0.000
241.112; 1101.125;  168.350;    0.000
241.181; 1145.125;  152.350;    0.000
241.250; 1103.125;  132.350;    0.000
241.320; 1109.125;  209.350;    0.000
241.389; 1055.125;  169.350;    0.000
241.458; 1070.125;  204.350;    0.000
241.528; 1086.125;  176.350;    0.000
241.597; 1077.125;  170.350;    0.000
241.666; 1082.125;  168.350;    0.000
241.736; 1115.125;  172.350;    0.000
241.805; 1069.125;  160.350;    0.000
241.874; 1025.125;  176.350;    0.000
241.943; 1090.125;  165.350;    0.000
242.013; 1139.125;  206.350;    0.000
242.082; 1053.125;  162.350;    0.000
242.151; 1082.125;  180.350;    0.000
242.221; 1088.125;  154.350;    0.000
242.290; 1119.125;  122.350;    0.000
242.359; 1037.125;  121.350;    0.000
242.428; 1146.125;  187.350;    0.000
242.498; 1035.125;  140.350;    0.000
242.567; 1094.125;  173.350;    0.000
242.636; 1009.125;  155.350;    0.000
242.705; 1088.125;  108.350;    0.000
242.774; 1147.125;  145.350;    0.000
242.844; 1055.125;  162.350;    0.000
242.913; 1153.125;  178.350;    0.000
242.982; 1074.125;  163.350;    0.000
243.051; 1060.125;  138.350;    0.000
243.120; 1069.125;  172.350;    0.000
243.190;  995.125;  155.350;    0.000
243.259; 1014.125;  159.350;    0.000
243.328; 1139.125;  173.350;    0.000
243.397; 1064.125;  175.350;    0.000
243.466; 1046.125;  170.350;    0.000
243.535; 1013.125;  161.350;    0.000
243.605;  995.125;  149.350;    0.000
243.674; 1043.125;  162.350;    0.000
243.743; 1124.125;  175.350;    0.000
243.812; 1025.125;  159.350;    0.000
243.881; 1020.125;  158.350;    0.000
243.950; 1057.125;  154.350;    0.000
244.019; 1091.125;  185.350;    0.000
244.088; 1048.125;  175.350;    0.000
244.158; 1032.125;  167.350;    0.000
244.227; 1012.125;  159.350;    0.000
244.296; 1030.125;  143.350;    0.000
244.365; 1021.125;  182.350;    0.000
244.434; 1030.125;  117.350;    0.000
244.503;  966.125;  109.350;    0.000
244.572; 1012.125;  147.350;    0.000
244.641; 1015.125;  129.350;    0.000
244.710; 1058.125;  159.350;    0.000
244.779; 1117.125;  166.350;    0.000
244.848;  977.125;  122.350;    0.000
244.917;  964.125;  167.350;    0.000
244.986;  967.125;  158.350;    0.000
245.055; 1057.125;  175.350;    0.000
245.124; 1072.125;  153.350;    0.000
245.193; 1058.125;  155.350;    0.000
245.262;  918.125;  137.350;    0.000
245.331;  981.125;  145.350;    0.000
245.400;  956.125;  107.350;    0.000
245.469;  978.125;  162.350;    0.000
245.538;  965.125;  165.350;    0.000
245.607;  951.125;  178.350;    0.000
245.676;  974.125;  166.350;    0.000
245.745;  976.125;  169.350;    0.000
245.814;  929.125;  155.350;    0.000
245.883;  934.125;  186.350;    0.000
245.952; 1017.125;  165.350;    0.000
246.021;  979.125;  169.350;    0.000
246.090;  942.125;  170.350;    0.000
246.159;  854.125;  155.350;    0.000
246.227;  923.125;  161.350;    0.000
246.296;  886.125;  142.350;    0.000
246.365;  897.125;  160.350;    0.000
246.434;  909.125;  199.350;    0.000
246.503;  945.125;  155.350;    0.000
246.572;  951.125;  206.350;    0.000
246.641;  911.125;  177.350;    0.000
246.710;  874.125;  178.350;    0.000
246.779;  928.125;  193.350;    0.000
246.847;  930.125;  147.350;    0.000
246.916;  829.125;  131.350;    0.000
246.985;  899.125;  168.350;    0.000
247.054;  911.125;  143.350;    0.000
247.123;  824.125;  130.350;    0.000
247.192;  899.125;  175.350;    0.000
247.260;  794.125;  171.350;    0.000
247.329;  849.125;  162.350;    0.000
247.398;  903.125;  163.350;    0.000
247.467;  902.125;  155.350;    0.000
247.536;  917.125;  149.350;    0.000
247.604;  927.125;  191.350;    0.000
247.673;  880.125;  193.350;    0.000
247.742;  895.125;  159.350;    0.000
247.811;  955.125;  167.350;    0.000
247.879;  828.125;  176.350;    0.000
247.948;  925.125;  157.350;    0.000
248.017;  868.125;  150.350;    0.000
248.086;  873.125;  153.350;    0.000
248.154;  841.125;  157.350;    0.000
248.223;  880.125;  198.350;    0.000
248.292;  864.125;  188.350;    0.000
248.361;  878.125;  157.350;    0.000
248.429;  828.125;  138.350;    0.000
248.498;  828.125;  166.350;    0.000
248.567;  846.125;  179.350;    0.000
248.635;  882.125;  210.350;    0.000
248.704;  875.125;  168.350;    0.000
248.773;  842.125;  147.350;    0.000
248.841;  890.125;  155.350;    0.000
248.910;  847.125;  183.350;    0.000
248.979;  847.125;  171.350;    0.000
249.047;  883.125;  152.350;    0.000
249.116;  883.125;  155.350;    0.000
249.185;  893.125;  217.350;    0.000
249.253;  881.125;  149.350;    0.000
249.322;  855.125;  167.350;    0.000
249.390;  867.125;  182.350;    0.000
249.459;  845.125;  173.350;    0.000
249.528;  864.125;  162.350;    0.000
249.596;  866.125;  162.350;    0.000
249.665;  827.125;  163.350;    0.000
249.733;  819.125;  147.350;    0.000
249.802;  878.125;  170.350;    0.000
249.871;  896.125;  179.350;    0.000
249.939;  831.125;  179.350;    0.000
250.008;  819.125;  201.350;    0.000
250.076;  863.125;  189.350;    0.000
250.145;  865.125;  171.350;    0.000
250.213;  880.125;  161.350;    0.000
250.282;  831.125;  171.350;    0.000
250.350;  803.125;  138.350;    0.000
250.419;  835.125;  172.350;    0.000
250.487;  866.125;  207.350;    0.000
250.556;  806.125;  160.350;    0.000
250.624;  851.125;  187.350;    0.000
250.693;  809.125;  141.350;    0.000
250.761;  861.125;  182.350;    0.000
250.830;  863.125;  203.350;    0.000
250.898;  773.125;  160.350;    0.000
250.967;  855.125;  143.350;    0.000
251.035;  824.125;  142.350;    0.000
251.104;  818.125;  159.350;    0.000
251.172;  837.125;  189.350;    0.000
251.241;  776.125;  134.350;    0.000
251.309;  779.125;  179.350;    0.000
251.378;  848.125;  203.350;    0.000
251.446;  775.125;  151.350;    0.000
251.514;  854.125;  176.350;    0.000
251.583;  812.125;  173.350;    0.000
251.651;  757.125;  163.350;    0.000
251.720;  844.125;  151.350;    0.000
251.788;  835.125;  205.350;    0.000
251.856;  817.125;  126.350;    0.000
251.925;  728.125;  118.350;    0.000
251.993;  790.125;  139.350;    0.000
252.062;  834.125;  161.350;    0.000
252.130;  815.125;  180.350;    0.000
252.198;  780.125;  141.350;    0.000
252.267;  788.125;  145.350;    0.000
252.335;  823.125;  159.350;    0.000
252.403;  819.125;  158.350;    0.000
252.472;  765.125;  142.350;    0.000
252.540;  812.125;  162.350;    0.000
252.608;  872.125;  180.350;    0.000
252.677;  785.125;  137.350;    0.000
252.745;  719.125;  183.350;    0.000
252.813;  746.125;  151.350;    0.000
252.881;  690.125;  109.350;    0.000
252.950;  776.125;  174.350;    0.000
253.018;  734.125;  136.350;    0.000
253.086;  719.125;  149.350;    0.000
253.155;  741.125;  127.350;    0.000
253.223;  705.125;  156.350;    0.000
253.291;  672.125;  163.350;    0.000
253.359;  711.125;  174.350;    0.000
253.428;  703.125;  174.350;    0.000
253.496;  642.125;  161.350;    0.000
253.564;  632.125;  128.350;    0.000
253.632;  628.125;  153.350;    0.000
253.700;  661.125;  185.350;    0.000
253.769;  641.125;  163.350;    0.000
253.837;  663.125;  176.350;    0.000
253.905;  640.125;  164.350;    0.000
253.973;  638.125;  156.350;    0.000
254.041;  620.125;  154.350;    0.000
254.110;  632.125;  165.350;    0.000
254.178;  583.125;  148.350;    0.000
254.246;  596.125;  138.350;    0.000
254.314;  657.125;  164.350;    0.000
254.382;  608.125;  167.350;    0.000
254.450;  628.125;  134.350;    0.000
254.518;  583.125;  192.350;    0.000
254.587;  638.125;  139.350;    0.000
254.655;  642.125;  162.350;    0.000
254.723;  588.125;  131.350;    0.000
254.791;  672.125;  181.350;    0.000
254.859;  637.125;  146.350;    0.000
254.927;  625.125;  189.350;    0.000
254.995;  577.125;  141.350;    0.000
255.063;  656.125;  181.350;    0.000
255.131;  660.125;  156.350;    0.000
255.199;  616.125;  175.350;    0.000
255.267;  650.125;  120.350;    0.000
255.336;  608.125;  186.350;    0.000
255.404;  622.125;  134.350;    0.000
255.472;  632.125;  172.350;    0.000
255.540;  616.125;  157.350;    0.000
255.608;  627.125;  186.350;    0.000
255.676;  670.125;  155.350;    0.000
255.744;  619.125;  143.350;    0.000
255.812;  630.125;  134.350;    0.000
255.880;  716.125;  188.350;    0.000
255.948;  671.125;  163.350;    0.000
256.016;  705.125;  175.350;    0.000
256.084;  725.125;  191.350;    0.000
256.152;  697.125;  187.350;    0.000
256.220;  680.125;  152.350;    0.000
256.288;  689.125;  141.350;    0.000
256.356;  748.125;  139.350;    0.000
256.424;  722.125;  121.350;    0.000
256.491;  730.125;  139.350;    0.000
256.559;  754.125;  144.350;    0.000
256.627;  718.125;  158.350;    0.000
256.695;  706.125;  121.350;    0.000
256.763;  769.125;  150.350;    0.000
256.831;  763.125;  181.350;    0.000
256.899;  753.125;  146.350;    0.000
256.967;  721.125;   71.350;    0.000
257.035;  783.125;  164.350;    0.000
257.103;  794.125;  191.350;    0.000
257.171;  717.125;  140.350;    0.000
257.238;  752.125;  165.350;    0.000
257.306;  802.125;  127.350;    0.000
257.374;  813.125;  120.350;    0.000
257.442;  787.125;  139.350;    0.000
257.510;  832.125;  158.350;    0.000
257.578;  802.125;  164.350;    0.000
257.646;  809.125;  151.350;    0.000
257.713;  826.125;  136.350;    0.000
257.781;  843.125;  137.350;    0.000
257.849;  922.125;  151.350;    0.000
257.917;  881.125;  154.350;    0.000
257.985;  880.125;  113.350;    0.000
258.052;  877.125;  140.350;    0.000
258.120;  875.125;  176.350;    0.000
258.188;  963.125;  157.350;    0.000
258.256;  860.125;  153.350;    0.000
258.324;  930.125;  184.350;    0.000
258.391;  960.125;  144.350;    0.000
258.459; 1035.125;  162.350;    0.000
258.527;  999.125;  154.350;    0.000
258.595;  952.125;  122.350;    0.000
258.662;  979.125;  164.350;    0.000
258.730;  988.125;  114.350;    0.000
258.798;  915.125;  131.350;    0.000
258.865; 1059.125;  171.350;    0.000
258.933; 1084.125;  145.350;    0.000
259.001; 1065.125;  150.350;    0.000
259.069; 1028.125;  123.350;    0.000
259.136; 1057.125;  139.350;    0.000
259.204; 1065.125;  165.350;    0.000
259.272; 1138.125;  114.350;    0.000
259.339; 1052.125;  179.350;    0.000
259.407; 1064.125;  153.350;    0.000
259.475; 1124.125;  143.350;    0.000
259.542; 1184.125;  136.350;    0.000
259.610; 1169.125;  133.350;    0.000
259.677; 1176.125;  159.350;    0.000
259.745; 1238.125;  130.350;    0.000
259.813; 1302.125;  175.350;    0.000
259.880; 1248.125;  158.350;    0.000
259.948; 1156.125;  124.350;    0.000
260.016; 1206.125;  105.350;    0.000
260.083; 1279.125;  169.350;    0.000
260.151; 1267.125;  133.350;    0.000
260.218; 1260.125;  143.350;    0.000
260.286; 1292.125;  134.350;    0.000
260.353; 1319.125;  160.350;    0.000
260.421; 1275.125;  128.350;    0.000
260.489; 1341.125;  150.350;    0.000
260.556; 1400.125;  179.350;    0.000
260.624; 1386.125;  113.350;    0.000
260.691; 1355.125;  128.350;    0.000
260.759; 1425.125;  146.350;    0.000
260.826; 1418.125;  111.350;    0.000
260.894; 1434.125;  115.350;    0.000
260.961; 1425.125;  138.350;    0.000
261.029; 1455.125;  152.350;    0.000
261.096; 1438.125;  175.350;    0.000
261.164; 1507.125;  131.350;    0.000
261.231; 1517.125;  141.350;    0.000
261.299; 1468.125;  125.350;    0.000
261.366; 1523.125;  142.350;    0.000
261.434; 1513.125;  133.350;    0.000
261.501; 1559.125;  137.350;    0.000
261.568; 1544.125;  184.350;    0.000
261.636; 1604.125;  138.350;    0.000
261.703; 1661.125;  161.350;    0.000
261.771; 1652.125;  160.350;    0.000
261.838; 1703.125;  178.350;    0.000
261.906; 1568.125;  128.350;    0.000
261.973; 1658.125;  139.350;    0.000
262.040; 1664.125;  148.350;    0.000
262.108; 1642.125;  130.350;    0.000
262.175; 1669.125;  117.350;    0.000
262.243; 1714.125;  174.350;    0.000
262.310; 1675.125;  145.350;    0.000
262.377; 1710.125;  108.350;    0.000
262.445; 1755.125;  147.350;    0.000
262.512; 1738.125;  124.350;    0.000
262.579; 1779.125;  127.350;    0.000
262.647; 1881.125;  166.350;    0.000
262.714; 1873.125;  150.350;    0.000
262.781; 1785.125;  121.350;    0.000
262.849; 1783.125;  126.350;    0.000
262.916; 1831.125;  119.350;    0.000
262.983; 1844.125;  155.350;    0.000
263.051; 1888.125;  137.350;    0.000
263.118; 1886.125;  160.350;    0.000
263.185; 1837.125;  151.350;    0.000
263.252; 1935.125;  167.350;    0.000
263.320; 1868.125;  123.350;    0.000
263.387; 1934.125;  134.350;    0.000
263.454; 1961.125;  144.350;    0.000
263.522; 1952.125;  153.350;    0.000
263.589; 1937.125;  161.350;    0.000
263.656; 1924.125;  117.350;    0.000
263.723; 1969.125;  101.350;    0.000
263.790; 1990.125;  128.350;    0.000
263.858; 1988.125;  142.350;    0.000
263.925; 2038.125;  182.350;    0.000
263.992; 2006.125;  146.350;    0.000
264.059; 2034.125;  132.350;    0.000
264.126; 2041.125;  154.350;    0.000
264.194; 2084.125;  153.350;    0.000
264.261; 2133.125;  157.350;    0.000
264.328; 2109.125;  171.350;    0.000
264.395; 2149.125;  166.350;    0.000
264.462; 2146.125;  165.350;    0.000
264.529; 2152.125;  124.350;    0.000
264.597; 2134.125;  120.350;    0.000
264.664; 2190.125;  159.350;    0.000
264.731; 2224.125;  145.350;    0.000
264.798; 2109.125;  100.350;    0.000
264.865; 2240.125;  166.350;    0.000
264.932; 2221.125;  132.350;    0.000
264.999; 2215.125;  137.350;    0.000
265.066; 2228.125;  124.350;    0.000
265.133; 2162.125;  162.350;    0.000
265.201; 2238.125;  163.350;    0.000
265.268; 2248.125;  174.350;    0.000
265.335; 2303.125;  132.350;    0.000
265.402; 2304.125;  116.350;    0.000
265.469; 2227.125;  121.350;    0.000
265.536; 2397.125;  157.350;    0.000
265.603; 2436.125;  151.350;    0.000
265.670; 2353.125;  164.350;    0.000
265.737; 2332.125;  142.350;    0.000
265.804; 2287.125;  146.350;    0.000
265.871; 2378.125;  168.350;    0.000
265.938; 2364.125;  131.350;    0.000
266.005; 2430.125;  208.350;    0.000
266.072; 2392.125;  125.350;    0.000
266.139; 2543.125;  161.350;    0.000
266.206; 2359.125;  134.350;    0.000
266.273; 2444.125;  155.350;    0.000
266.340; 2489.125;  122.350;    0.000
266.407; 2458.125;  134.350;    0.000
266.474; 2473.125;  126.350;    0.000
266.541; 2551.125;  153.350;    0.000
266.608; 2552.125;  129.350;    0.000
266.675; 2438.125;  185.350;    0.000
266.742; 2455.125;  153.350;    0.000
266.808; 2550.125;  169.350;    0.000
266.875; 2617.125;  156.350;    0.000
266.942; 2488.125;  172.350;    0.000
267.009; 2533.125;  150.350;    0.000
267.076; 2523.125;  184.350;    0.000
267.143; 2561.125;  170.350;    0.000
267.210; 2682.125;  132.350;    0.000
267.277; 2608.125;  146.350;    0.000
267.344; 2572.125;  159.350;    0.000
267.410; 2587.125;  174.350;    0.000
267.477; 2582.125;  169.350;    0.000
267.544; 2605.125;  130.350;    0.000
267.611; 2584.125;  169.350;    0.000
267.678; 2622.125;  197.350;    0.000
267.745; 2671.125;  185.350;    0.000
267.811; 2661.125;  160.350;    0.000
267.878; 2598.125;  143.350;    0.000
267.945; 2562.125;  126.350;    0.000
268.012; 2605.125;  172.350;    0.000
268.079; 2569.125;  156.350;    0.000
268.145; 2724.125;  128.350;    0.000
268.212; 2619.125;  107.350;    0.000
268.279; 2645.125;  135.350;    0.000
268.346; 2648.125;  166.350;    0.000
268.412; 2640.125;  150.350;    0.000
268.479; 2668.125;  176.350;    0.000
268.546; 2637.125;  119.350;    0.000
268.613; 2586.125;  201.350;    0.000
268.679; 2568.125;  141.350;    0.000
268.746; 2736.125;  177.350;    0.000
268.813; 2674.125;  134.350;    0.000
268.879; 2602.125;  141.350;    0.000
268.946; 2653.125;  172.350;    0.000
269.013; 2774.125;  150.350;    0.000
269.079; 2576.125;  124.350;    0.000
269.146; 2643.125;  135.350;    0.000
269.213; 2669.125;  200.350;    0.000
269.280; 2614.125;  142.350;    0.000
269.346; 2667.125;  153.350;    0.000
269.413; 2546.125;  140.350;    0.000
269.479; 2579.125;  171.350;    0.000
269.546; 2648.125;  156.350;    0.000
269.613; 2657.125;  145.350;    0.000
269.679; 2601.125;  168.350;    0.000
269.746; 2639.125;  136.350;    0.000
269.813; 2703.125;  153.350;    0.000
269.879; 2716.125;  162.350;    0.000
269.946; 2666.125;  156.350;    0.000
270.012; 2670.125;  178.350;    0.000
270.079; 2597.125;  132.350;    0.000
270.145; 2635.125;  146.350;    0.000
270.212; 2658.125;  145.350;    0.000
270.279; 2663.125;  184.350;    0.000
270.345; 2525.125;  143.350;    0.000
270.412; 2626.125;  158.350;    0.000
270.478; 2539.125;  143.350;    0.000
270.545; 2593.125;  150.350;    0.000
270.611; 2589.125;  156.350;    0.000
270.678; 2608.125;  121.350;    0.000
270.744; 2585.125;  161.350;    0.000
270.811; 2579.125;  173.350;    0.000
270.877; 2560.125;  115.350;    0.000
270.944; 2674.125;  114.350;    0.000
271.010; 2672.125;  122.350;    0.000
271.077; 2552.125;  142.350;    0.000
271.143; 2589.125;  152.350;    0.000
271.210; 2568.125;  135.350;    0.000
271.276; 2481.125;  107.350;    0.000
271.342; 2598.125;  173.350;    0.000
271.409; 2530.125;  171.350;    0.000
271.475; 2510.125;  136.350;    0.000
271.542; 2502.125;  121.350;    0.000
271.608; 2574.125;  133.350;    0.000
271.675; 2583.125;  136.350;    0.000
271.741; 2577.125;  151.350;    0.000
271.807; 2625.125;  130.350;    0.000
271.874; 2583.125;  168.350;    0.000
271.940; 2583.125;  156.350;    0.000
272.007; 2471.125;  122.350;    0.000
272.073; 2556.125;  121.350;    0.000
272.139; 2572.125;  137.350;    0.000
272.206; 2587.125;  152.350;    0.000
272.272; 2605.125;  162.350;    0.000
272.338; 2663.125;  197.350;    0.000
272.405; 2576.125;  144.350;    0.000
272.471; 2592.125;  160.350;    0.000
272.537; 2575.125;  142.350;    0.000
272.604; 2552.125;  141.350;    0.000
272.670; 2591.125;  182.350;    0.000
272.736; 2542.125;  126.350;    0.000
272.802; 2620.125;  146.350;    0.000
272.869; 2597.125;  163.350;    0.000
272.935; 2596.125;  132.350;    0.000
273.001; 2583.125;  119.350;    0.000
273.068; 2627.125;  137.350;    0.000
273.134; 2670.125;  155.350;    0.000
273.200; 2656.125;  165.350;    0.000
273.266; 2564.125;  156.350;    0.000
273.333; 2619.125;  143.350;    0.000
273.399; 2557.125;  128.350;    0.000
273.465; 2673.125;  167.350;    0.000
273.531; 2692.125;  122.350;    0.000
273.597; 2608.125;  182.350;    0.000
273.664; 2743.125;  177.350;    0.000
273.730; 2666.125;  124.350;    0.000
273.796; 2716.125;  143.350;    0.000
273.862; 2652.125;  155.350;    0.000
273.928; 2678.125;  137.350;    0.000
273.995; 2747.125;  188.350;    0.000
274.061; 2679.125;  154.350;    0.000
274.127; 2680.125;  161.350;    0.000
274.193; 2634.125;   95.350;    0.000
274.259; 2715.125;  128.350;    0.000
274.325; 2601.125;  146.350;    0.000
274.391; 2761.125;  113.350;    0.000
274.457; 2760.125;  150.350;    0.000
274.524; 2765.125;  165.350;    0.000
274.590; 2717.125;  140.350;    0.000
274.656; 2712.125;  165.350;    0.000
274.722; 2752.125;  118.350;    0.000
274.788; 2758.125;  143.350;    0.000
274.854; 2754.125;  150.350;    0.000
274.920; 2834.125;   88.350;    0.000
274.986; 2772.125;  178.350;    0.000
275.052; 2834.125;  145.350;    0.000
275.118; 2813.125;  105.350;    0.000
275.184; 2905.125;  129.350;    0.000
275.250; 2883.125;  138.350;    0.000
275.316; 3004.125;  173.350;    0.000
275.382; 3007.125;  106.350;    0.000
275.448; 2884.125;  160.350;    0.000
275.514; 2976.125;  162.350;    0.000
275.580; 3069.125;  135.350;    0.000
275.646; 3010.125;  120.350;    0.000
275.712; 3043.125;  157.350;    0.000
275.778; 3046.125;  128.350;    0.000
275.844; 3132.125;  117.350;    0.000
275.910; 3096.125;  121.350;    0.000
275.976; 3159.125;  172.350;    0.000
276.042; 3255.125;  114.350;    0.000
276.108; 3359.125;  200.350;    0.000
276.174; 3278.125;  132.350;    0.000
276.240; 3268.125;  128.350;    0.000
276.306; 3361.125;  124.350;    0.000
276.372; 3425.125;  133.350;    0.000
276.437; 3433.125;  146.350;    0.000
276.503; 3499.125;  136.350;    0.000
276.569; 3620.125;  162.350;    0.000
276.635; 3474.125;  128.350;    0.000
276.701; 3686.125;  148.350;    0.000
276.767; 3606.125;  155.350;    0.000
276.833; 3705.125;  128.350;    0.000
276.899; 3852.125;  145.350;    0.000
276.964; 4007.125;  124.350;    0.000
277.030; 4017.125;  130.350;    0.000
277.096; 3949.125;  139.350;    0.000
277.162; 4216.125;  164.350;    0.000
277.228; 4252.125;  108.350;    0.000
277.293; 4337.125;  138.350;    0.000
277.359; 4560.125;  123.350;    0.000
277.425; 4710.125;  183.350;    0.000
277.491; 5088.125;  144.350;    0.000
277.557; 5924.125;  130.350;    0.000
277.622; 7762.125;  151.350;    0.000
277.688; 7756.125;  169.350;    0.000
277.754; 7937.125;  199.350;    0.000
277.820; 8656.125;  170.350;    0.000
277.885;10122.125;  173.350;    0.000
277.951;12005.125;  187.350;    0.000
278.017;10906.125;  152.350;    0.000
278.083; 9472.125;  137.350;    0.000
278.148; 9082.125;  147.350;    0.000
278.214; 9213.125;  162.350;    0.000
278.280; 9756.125;  171.350;    0.000
278.345; 8885.125;  174.350;    0.000
278.411; 8318.125;  152.350;    0.000
278.477; 8735.125;  173.350;    0.000
278.542; 9126.125;  161.350;    0.000
278.608; 9752.125;  155.350;    0.000
278.674;10686.125;  169.350;    0.000
278.739;11915.125;  142.350;    0.000
278.805;13659.125;  164.350;    0.000
278.871;16209.125;  160.350;    0.000
278.936;20794.125;  121.350;    0.000
279.002;31803.125;  166.350;    0.000
279.067;41183.125;  199.350;    0.000
279.133;39055.125;  150.350;    0.000
279.199;34990.125;  154.350;    0.000
279.264;34993.125;  154.350;    0.000
279.330;40413.125;  159.350;    0.000
279.395;52275.125;  143.350;    0.000
279.461;65295.125;  173.350;    0.000
279.527;65295.125;  163.350;    0.000
279.592;65295.125;  167.350;    0.000
279.658;59012.125;  189.350;    0.000
279.723;58175.125;  153.350;    0.000
279.789;61120.125;  174.350;    0.000
279.854;54440.125;  129.350;    0.000
279.920;44540.125;  165.350;    0.000
279.985;40228.125;  152.350;    0.000
280.051;40437.125;  164.350;    0.000
280.116;47802.125;  187.350;    0.000
280.182;62606.125;  160.350;    0.000
280.247;65295.125;  124.350;    0.000
280.313;60352.125;  154.350;    0.000
280.378;43294.125;  152.350;    0.000
280.444;31611.125;  165.350;    0.000
280.509;24957.125;  164.350;    0.000
280.574;21062.125;  160.350;    0.000
280.640;18038.125;  167.350;    0.000
280.705;16225.125;  190.350;    0.000
280.771;14805.125;  154.350;    0.000
280.836;13350.125;  158.350;    0.000
280.902;12511.125;  124.350;    0.000
280.967;11751.125;  179.350;    0.000
281.032;11168.125;  187.350;    0.000
281.098;10426.125;  155.350;    0.000
281.163;10081.125;  133.350;    0.000
281.229; 9551.125;  170.350;    0.000
281.294; 9063.125;  175.350;    0.000
281.359; 8656.125;  163.350;    0.000
281.425; 8387.125;  161.350;    0.000
281.490; 7950.125;  162.350;    0.000
281.555; 7809.125;  137.350;    0.000
281.621; 7509.125;  163.350;    0.000
281.686; 7422.125;  155.350;    0.000
281.751; 7161.125;  158.350;    0.000
281.816; 6799.125;  139.350;    0.000
281.882; 6700.125;  150.350;    0.000
281.947; 6590.125;  165.350;    0.000
282.012; 6335.125;  171.350;    0.000
282.078; 6290.125;  177.350;    0.000
282.143; 6147.125;  149.350;    0.000
282.208; 5972.125;  181.350;    0.000
282.273; 5979.125;  166.350;    0.000
282.339; 5845.125;  165.350;    0.000
282.404; 5661.125;  166.350;    0.000
282.469; 5557.125;  150.350;    0.000
282.534; 5638.125;  176.350;    0.000
282.600; 5569.125;  117.350;    0.000
282.665; 5364.125;  134.350;    0.000
282.730; 5370.125;  155.350;    0.000
282.795; 5262.125;  193.350;    0.000
282.860; 5227.125;  160.350;    0.000
282.926; 5178.125;  174.350;    0.000
282.991; 5074.125;  161.350;    0.000
283.056; 5137.125;  157.350;    0.000
283.121; 5119.125;  178.350;    0.000
283.186; 5083.125;  152.350;    0.000
283.251; 4897.125;  167.350;    0.000
283.316; 5029.125;  186.350;    0.000
283.382; 4968.125;  148.350;    0.000
283.447; 4839.125;  191.350;    0.000
283.512; 4817.125;  132.350;    0.000
283.577; 4862.125;  179.350;    0.000
283.642; 4812.125;  185.350;    0.000
283.707; 4702.125;  136.350;    0.000
283.772; 4785.125;  119.350;    0.000
283.837; 4678.125;  136.350;    0.000
283.902; 4689.125;  135.350;    0.000
283.967; 4812.125;  146.350;    0.000
284.032; 4787.125;  140.350;    0.000
284.097; 4930.125;  199.350;    0.000
284.163; 4935.125;  144.350;    0.000
284.228; 4824.125;  183.350;    0.000
284.293; 4856.125;  141.350;    0.000
284.358; 4891.125;  146.350;    0.000
284.423; 4879.125;  127.350;    0.000
284.488; 5069.125;  186.350;    0.000
284.553; 5102.125;  155.350;    0.000
284.618; 5166.125;  118.350;    0.000
284.683; 5463.125;  145.350;    0.000
284.748; 5589.125;  139.350;    0.000
284.812; 5868.125;  147.350;    0.000
284.877; 6537.125;  123.350;    0.000
284.942; 7167.125;  153.350;    0.000
285.007; 8509.125;  168.350;    0.000
285.072;11544.125;  181.350;    0.000
285.137;17984.125;  147.350;    0.000
285.202;23012.125;  175.350;    0.000
285.267;20021.125;  182.350;    0.000
285.332;13640.125;  136.350;    0.000
285.397;10286.125;  138.350;    0.000
285.462; 8638.125;  151.350;    0.000
285.527; 7556.125;  159.350;    0.000
285.591; 6804.125;  177.350;    0.000
285.656; 6384.125;  144.350;    0.000
285.721; 5845.125;  125.350;    0.000
285.786; 5895.125;  169.350;    0.000
285.851; 5556.125;  175.350;    0.000
285.916; 5378.125;  164.350;    0.000
285.981; 5274.125;  134.350;    0.000
286.045; 5122.125;  154.350;    0.000
286.110; 5033.125;  136.350;    0.000
286.175; 4912.125;  155.350;    0.000
286.240; 4921.125;  138.350;    0.000
286.305; 4969.125;  213.350;    0.000
286.369; 4673.125;  221.350;    0.000
286.434; 4706.125;  172.350;    0.000
286.499; 4782.125;  161.350;    0.000
286.564; 4696.125;  189.350;    0.000
286.628; 4618.125;  144.350;    0.000
286.693; 4558.125;  176.350;    0.000
286.758; 4587.125;  168.350;    0.000
286.823; 4481.125;  142.350;    0.000
286.887; 4576.125;  134.350;    0.000
286.952; 4407.125;  180.350;    0.000
287.017; 4477.125;  204.350;    0.000
287.082; 4433.125;  120.350;    0.000
287.146; 4318.125;  173.350;    0.000
287.211; 4376.125;  167.350;    0.000
287.276; 4367.125;  164.350;    0.000
287.340; 4436.125;  138.350;    0.000
287.405; 4346.125;  172.350;    0.000
287.470; 4313.125;  142.350;    0.000
287.534; 4372.125;  155.350;    0.000
287.599; 4313.125;  166.350;    0.000
287.663; 4196.125;  171.350;    0.000
287.728; 4311.125;  190.350;    0.000
287.793; 4286.125;  197.350;    0.000
287.857; 4352.125;  165.350;    0.000
287.922; 4276.125;  147.350;    0.000
287.987; 4334.125;  167.350;    0.000
288.051; 4343.125;  151.350;    0.000
288.116; 4263.125;  154.350;    0.000
288.180; 4316.125;  186.350;    0.000
288.245; 4272.125;  161.350;    0.000
288.309; 4145.125;  177.350;    0.000
288.374; 4315.125;  151.350;    0.000
288.439; 4183.125;  169.350;    0.000
288.503; 4198.125;  133.350;    0.000
288.568; 4282.125;  206.350;    0.000
288.632; 4318.125;  192.350;    0.000
288.697; 4225.125;  183.350;    0.000
288.761; 4121.125;  148.350;    0.000
288.826; 4077.125;  136.350;    0.000
288.890; 4165.125;  185.350;    0.000
288.955; 4039.125;  150.350;    0.000
289.019; 4136.125;  165.350;    0.000
289.084; 4070.125;  150.350;    0.000
289.148; 4028.125;  146.350;    0.000
289.212; 4056.125;  172.350;    0.000
289.277; 4063.125;  177.350;    0.000
289.341; 4116.125;  190.350;    0.000
289.406; 4019.125;  117.350;    0.000
289.470; 4116.125;  173.350;    0.000
289.535; 4176.125;  170.350;    0.000
289.599; 4105.125;  154.350;    0.000
289.663; 4104.125;  173.350;    0.000
289.728; 4133.125;  176.350;    0.000
289.792; 4088.125;  138.350;    0.000
289.857; 4052.125;  203.350;    0.000
289.921; 3972.125;  143.350;    0.000
289.985; 4074.125;  150.350;    0.000
290.050; 4102.125;  170.350;    0.000
290.114; 4048.125;  125.350;    0.000
290.178; 4120.125;  161.350;    0.000
290.243; 4032.125;  119.350;    0.000
290.307; 4075.125;  169.350;    0.000
290.371; 4073.125;  169.350;    0.000
290.436; 4158.125;  170.350;    0.000
290.500; 4072.125;  144.350;    0.000
290.564; 4132.125;  179.350;    0.000
290.629; 4027.125;  166.350;    0.000
290.693; 4126.125;  156.350;    0.000
290.757; 4079.125;  147.350;    0.000
290.821; 4200.125;  170.350;    0.000
290.886; 3932.125;  167.350;    0.000
290.950; 4139.125;  187.350;    0.000
291.014; 4101.125;  164.350;    0.000
291.078; 4207.125;  115.350;    0.000
291.143; 4170.125;  149.350;    0.000
291.207; 4302.125;  163.350;    0.000
291.271; 4155.125;  177.350;    0.000
291.335; 4442.125;  148.350;    0.000
291.399; 4353.125;  155.350;    0.000
291.464; 4613.125;  114.350;    0.000
291.528; 4611.125;  153.350;    0.000
291.592; 4645.125;  156.350;    0.000
291.656; 4541.125;  170.350;    0.000
291.720; 4480.125;  159.350;    0.000
291.784; 4506.125;  159.350;    0.000
291.849; 4449.125;  154.350;    0.000
291.913; 4448.125;  118.350;    0.000
291.977; 4466.125;  157.350;    0.000
292.041; 4390.125;  163.350;    0.000
292.105; 4469.125;  135.350;    0.000
292.169; 4336.125;  155.350;    0.000
292.233; 4508.125;  163.350;    0.000
292.297; 4753.125;  144.350;    0.000
292.361; 4659.125;  143.350;    0.000
292.425; 4742.125;  177.350;    0.000
292.490; 4908.125;  159.350;    0.000
292.554; 5106.125;  137.350;    0.000
292.618; 5352.125;  144.350;    0.000
292.682; 5823.125;  169.350;    0.000
292.746; 6603.125;  166.350;    0.000
292.810; 8872.125;  147.350;    0.000
292.874;11205.125;  160.350;    0.000
292.938;11238.125;  174.350;    0.000
293.002; 9715.125;  148.350;    0.000
293.066; 8863.125;  115.350;    0.000
293.130; 7996.125;  133.350;    0.000
293.194; 7608.125;  148.350;    0.000
293.258; 7247.125;  167.350;    0.000
293.322; 7287.125;  166.350;    0.000
293.386; 7507.125;  193.350;    0.000
293.450; 8024.125;  142.350;    0.000
293.514; 9006.125;  170.350;    0.000
293.577;12005.125;  153.350;    0.000
293.641;16561.125;  171.350;    0.000
293.705;17575.125;  168.350;    0.000
293.769;15524.125;  155.350;    0.000
293.833;13209.125;  161.350;    0.000
293.897;11546.125;  124.350;    0.000
293.961;10290.125;  165.350;    0.000
294.025; 9073.125;  118.350;    0.000
294.089; 8408.125;  125.350;    0.000
294.152; 7558.125;  160.350;    0.000
294.216; 7147.125;  160.350;    0.000
294.280; 6853.125;  158.350;    0.000
294.344; 6530.125;  119.350;    0.000
294.408; 6064.125;  168.350;    0.000
294.472; 6097.125;  156.350;    0.000
294.536; 5673.125;  192.350;    0.000
294.599; 5536.125;  171.350;    0.000
294.663; 5435.125;  139.350;    0.000
294.727; 5364.125;  136.350;    0.000
294.791; 5168.125;  118.350;    0.000
294.855; 5088.125;  118.350;    0.000
294.918; 5078.125;  127.350;    0.000
294.982; 5125.125;  167.350;    0.000
295.046; 4858.125;  178.350;    0.000
295.110; 4706.125;  157.350;    0.000
295.173; 4882.125;  101.350;    0.000
295.237; 4647.125;  145.350;    0.000
295.301; 4666.125;  135.350;    0.000
295.364; 4661.125;  185.350;    0.000
295.428; 4323.125;  112.350;    0.000
295.492; 4445.125;  142.350;    0.000
295.556; 4479.125;  170.350;    0.000
295.619; 4389.125;  193.350;    0.000
295.683; 4274.125;  144.350;    0.000
295.747; 4311.125;  152.350;    0.000
295.810; 4220.125;  139.350;    0.000
295.874; 4347.125;  157.350;    0.000
295.938; 4312.125;  128.350;    0.000
296.001; 4163.125;  164.350;    0.000
296.065; 4121.125;  184.350;    0.000
296.128; 4002.125;  127.350;    0.000
296.192; 4219.125;  166.350;    0.000
296.256; 3972.125;  154.350;    0.000
296.319; 4081.125;  128.350;    0.000
296.383; 4102.125;  146.350;    0.000
296.447; 4045.125;  155.350;    0.000
296.510; 4035.125;  177.350;    0.000
296.574; 3952.125;  169.350;    0.000
296.637; 3958.125;  140.350;    0.000
296.701; 3875.125;  181.350;    0.000
296.764; 3816.125;  131.350;    0.000
296.828; 4079.125;  194.350;    0.000
296.891; 3932.125;  146.350;    0.000
296.955; 3869.125;  160.350;    0.000
297.018; 3877.125;  174.350;    0.000
297.082; 3876.125;  153.350;    0.000
297.145; 3839.125;  133.350;    0.000
297.209; 3806.125;  149.350;    0.000
297.272; 3822.125;  150.350;    0.000
297.336; 3828.125;  119.350;    0.000
297.399; 3780.125;  160.350;    0.000
297.463; 3853.125;  158.350;    0.000
297.526; 3833.125;  160.350;    0.000
297.590; 3803.125;  173.350;    0.000
297.653; 3818.125;  121.350;    0.000
297.717; 3728.125;  168.350;    0.000
297.780; 3854.125;  131.350;    0.000
297.843; 3698.125;  154.350;    0.000
297.907; 3713.125;  126.350;    0.000
297.970; 3729.125;  180.350;    0.000
298.034; 3784.125;  140.350;    0.000
298.097; 3763.125;  207.350;    0.000
298.160; 3855.125;  177.350;    0.000
298.224; 3786.125;  165.350;    0.000
298.287; 3740.125;  160.350;    0.000
298.350; 3698.125;  176.350;    0.000
298.414; 3673.125;  155.350;    0.000
298.477; 3599.125;  132.350;    0.000
298.540; 3609.125;  162.350;    0.000
298.604; 3672.125;  180.350;    0.000
298.667; 3701.125;  208.350;    0.000
298.730; 3688.125;  177.350;    0.000
298.794; 3529.125;  126.350;    0.000
298.857; 3488.125;  171.350;    0.000
298.920; 3542.125;  124.350;    0.000
298.984; 3500.125;  146.350;    0.000
299.047; 3544.125;  140.350;    0.000
299.110; 3518.125;  159.350;    0.000
299.173; 3478.125;  177.350;    0.000
299.237; 3455.125;  196.350;    0.000
299.300; 3506.125;  121.350;    0.000
299.363; 3484.125;  172.350;    0.000
299.426; 3405.125;  117.350;    0.000
299.489; 3461.125;  138.350;    0.000
299.553; 3469.125;  198.350;    0.000
299.616; 3461.125;  158.350;    0.000
299.679; 3436.125;  148.350;    0.000
299.742; 3442.125;  138.350;    0.000
299.805; 3460.125;  157.350;    0.000
299.868; 3412.125;  183.350;    0.000
299.932; 3364.125;  137.350;    0.000
299.995; 3354.125;  152.350;    0.000
300.058; 3405.125;  171.350;    0.000
300.121; 3434.125;  172.350;    0.000
300.184; 3246.125;  161.350;    0.000
300.247; 3326.125;  156.350;    0.000
300.310; 3353.125;  154.350;    0.000
300.374; 3402.125;  147.350;    0.000
300.437; 3315.125;  144.350;    0.000
300.500; 3311.125;  152.350;    0.000
300.563; 3289.125;  160.350;    0.000
300.626; 3352.125;  167.350;    0.000
300.689; 3319.125;  193.350;    0.000
300.752; 3305.125;  134.350;    0.000
300.815; 3285.125;  194.350;    0.000
300.878; 3336.125;  156.350;    0.000
300.941; 3338.125;  177.350;    0.000
301.004; 3399.125;  160.350;    0.000
301.067; 3298.125;  153.350;    0.000
301.130; 3316.125;  167.350;    0.000
301.193; 3330.125;  156.350;    0.000
301.256; 3291.125;  176.350;    0.000
301.319; 3377.125;  172.350;    0.000
301.382; 3253.125;  150.350;    0.000
301.445; 3318.125;  183.350;    0.000
301.508; 3281.125;  118.350;    0.000
301.571; 3219.125;  142.350;    0.000
301.634; 3248.125;  164.350;    0.000
301.697; 3272.125;  169.350;    0.000
301.760; 3299.125;  197.350;    0.000
301.823; 3266.125;  155.350;    0.000
301.885; 3253.125;  165.350;    0.000
301.948; 3288.125;  168.350;    0.000
302.011; 3248.125;  172.350;    0.000
302.074; 3303.125;  182.350;    0.000
302.137; 3247.125;  161.350;    0.000
302.200; 3270.125;  174.350;    0.000
302.263; 3232.125;  158.350;    0.000
302.326; 3200.125;  168.350;    0.000
302.388; 3289.125;  165.350;    0.000
302.451; 3273.125;  158.350;    0.000
302.514; 3189.125;  181.350;    0.000
302.577; 3262.125;  147.350;    0.000
302.640; 3162.125;  178.350;    0.000
302.703; 3130.125;  164.350;    0.000
302.765; 3192.125;  149.350;    0.000
302.828; 3226.125;  192.350;    0.000
302.891; 3155.125;  201.350;    0.000
302.954; 3177.125;  135.350;    0.000
303.016; 3149.125;  180.350;    0.000
303.079; 3158.125;  192.350;    0.000
303.142; 3191.125;  176.350;    0.000
303.205; 3209.125;  176.350;    0.000
303.267; 3010.125;  163.350;    0.000
303.330; 3184.125;  162.350;    0.000
303.393; 3109.125;  164.350;    0.000
303.456; 3281.125;  180.350;    0.000
303.518; 3080.125;  162.350;    0.000
303.581; 3137.125;  137.350;    0.000
303.644; 3100.125;  135.350;    0.000
303.706; 3268.125;  170.350;    0.000
303.769; 3164.125;  216.350;    0.000
303.832; 3282.125;  143.350;    0.000
303.894; 3050.125;  162.350;    0.000
303.957; 3144.125;  149.350;    0.000
304.020; 3196.125;  111.350;    0.000
304.082; 3280.125;  158.350;    0.000
304.145; 3165.125;  149.350;    0.000
304.207; 3171.125;  169.350;    0.000
304.270; 3158.125;  170.350;    0.000
304.333; 3210.125;  185.350;    0.000
304.395; 3216.125;  179.350;    0.000
304.458; 3222.125;  174.350;    0.000
304.520; 3233.125;  160.350;    0.000
304.583; 3099.125;  175.350;    0.000
304.646; 3247.125;  160.350;    0.000
304.708; 3180.125;  173.350;    0.000
304.771; 3191.125;  115.350;    0.000
304.833; 3136.125;  172.350;    0.000
304.896; 3123.125;  187.350;    0.000
304.958; 3211.125;  142.350;    0.000
305.021; 3086.125;  164.350;    0.000
305.083; 3155.125;  139.350;    0.000
305.146; 3194.125;  162.350;    0.000
305.208; 3257.125;  135.350;    0.000
305.271; 3177.125;  159.350;    0.000
305.333; 3167.125;  210.350;    0.000
305.396; 3173.125;  151.350;    0.000
305.458; 3189.125;  195.350;    0.000
305.520; 3210.125;  179.350;    0.000
305.583; 3196.125;  157.350;    0.000
305.645; 3205.125;  187.350;    0.000
305.708; 3180.125;  159.350;    0.000
305.770; 3212.125;  189.350;    0.000
305.833; 3179.125;  147.350;    0.000
305.895; 3300.125;  154.350;    0.000
305.957; 3116.125;  143.350;    0.000
306.020; 3198.125;  133.350;    0.000
306.082; 3274.125;  146.350;    0.000
306.144; 3131.125;  171.350;    0.000
306.207; 3200.125;  151.350;    0.000
306.269; 3116.125;  169.350;    0.000
306.331; 3147.125;  162.350;    0.000
306.394; 3085.125;  171.350;    0.000
306.456; 3111.125;  155.350;    0.000
306.518; 3246.125;  183.350;    0.000
306.581; 3200.125;  180.350;    0.000
306.643; 3217.125;  199.350;    0.000
306.705; 3194.125;  163.350;    0.000
306.768; 3183.125;  183.350;    0.000
306.830; 3199.125;  183.350;    0.000
306.892; 3190.125;  190.350;    0.000
306.954; 3090.125;  161.350;    0.000
307.017; 3315.125;  151.350;    0.000
307.079; 3213.125;  147.350;    0.000
307.141; 3227.125;  179.350;    0.000
307.203; 3325.125;  143.350;    0.000
307.266; 3331.125;  142.350;    0.000
307.328; 3295.125;  161.350;    0.000
307.390; 3330.125;  189.350;    0.000
307.452; 3329.125;  155.350;    0.000
307.514; 3332.125;  211.350;    0.000
307.577; 3281.125;  201.350;    0.000
307.639; 3345.125;  192.350;    0.000
307.701; 3223.125;  162.350;    0.000
307.763; 3470.125;  155.350;    0.000
307.825; 3376.125;  193.350;    0.000
307.887; 3390.125;  214.350;    0.000
307.949; 3298.125;  208.350;    0.000
308.012; 3437.125;  175.350;    0.000
308.074; 3403.125;  155.350;    0.000
308.136; 3356.125;  172.350;    0.000
308.198; 3309.125;  171.350;    0.000
308.260; 3399.125;  182.350;    0.000
308.322; 3350.125;  177.350;    0.000
308.384; 3443.125;  207.350;    0.000
308.446; 3364.125;  170.350;    0.000
308.508; 3318.125;  177.350;    0.000
308.570; 3469.125;  195.350;    0.000
308.632; 3329.125;  190.350;    0.000
308.694; 3503.125;  161.350;    0.000
308.756; 3480.125;  173.350;    0.000
308.818; 3553.125;  190.350;    0.000
308.880; 3548.125;  197.350;    0.000
308.942; 3496.125;  223.350;    0.000
309.004; 3503.125;  176.350;    0.000
309.066; 3600.125;  182.350;    0.000
309.128; 3724.125;  185.350;    0.000
309.190; 3942.125;  166.350;    0.000
309.252; 3950.125;  191.350;    0.000
309.314; 4091.125;  208.350;    0.000
309.376; 3930.125;  205.350;    0.000
309.438; 3918.125;  166.350;    0.000
309.500; 3869.125;  195.350;    0.000
309.562; 3887.125;  163.350;    0.000
309.624; 3971.125;  162.350;    0.000
309.686; 4173.125;  194.350;    0.000
309.747; 4017.125;  179.350;    0.000
309.809; 3852.125;  211.350;    0.000
309.871; 3931.125;  191.350;    0.000
309.933; 3713.125;  151.350;    0.000
309.995; 3706.125;  179.350;    0.000
310.057; 3786.125;  175.350;    0.000
310.119; 3734.125;  161.350;    0.000
310.180; 3703.125;  167.350;    0.000
310.242; 3644.125;  171.350;    0.000
310.304; 3667.125;  209.350;    0.000
310.366; 3661.125;  229.350;    0.000
310.428; 3539.125;  132.350;    0.000
310.489; 3483.125;  165.350;    0.000
310.551; 3486.125;  193.350;    0.000
310.613; 3601.125;  182.350;    0.000
310.675; 3488.125;  186.350;    0.000
310.737; 3431.125;  192.350;    0.000
310.798; 3403.125;  194.350;    0.000
310.860; 3465.125;  220.350;    0.000
310.922; 3482.125;  161.350;    0.000
310.983; 3494.125;  203.350;    0.000
311.045; 3463.125;  198.350;    0.000
311.107; 3521.125;  179.350;    0.000
311.169; 3408.125;  154.350;    0.000
311.230; 3473.125;  134.350;    0.000
311.292; 3475.125;  215.350;    0.000
311.354; 3389.125;  171.350;    0.000
311.415; 3478.125;  195.350;    0.000
311.477; 3444.125;  185.350;    0.000
311.539; 3454.125;  183.350;    0.000
311.600; 3453.125;  183.350;    0.000
311.662; 3522.125;  207.350;    0.000
311.724; 3489.125;  193.350;    0.000
311.785; 3544.125;  180.350;    0.000
311.847; 3343.125;  155.350;    0.000
311.908; 3492.125;  179.350;    0.000
311.970; 3537.125;  193.350;    0.000
312.032; 3412.125;  188.350;    0.000
312.093; 3494.125;  166.350;    0.000
312.155; 3389.125;  147.350;    0.000
312.216; 3466.125;  177.350;    0.000
312.278; 3390.125;  162.350;    0.000
312.339; 3394.125;  158.350;    0.000
312.401; 3553.125;  181.350;    0.000
312.462; 3428.125;  153.350;    0.000
312.524; 3573.125;  186.350;    0.000
312.585; 3441.125;  191.350;    0.000
312.647; 3485.125;  131.350;    0.000
312.708; 3470.125;  170.350;    0.000
312.770; 3512.125;  194.350;    0.000
312.831; 3488.125;  161.350;    0.000
312.893; 3628.125;  179.350;    0.000
312.954; 3496.125;  183.350;    0.000
313.016; 3541.125;  189.350;    0.000
313.077; 3464.125;  169.350;    0.000
313.139; 3594.125;  148.350;    0.000
313.200; 3486.125;  155.350;    0.000
313.261; 3514.125;  213.350;    0.000
313.323; 3514.125;  162.350;    0.000
313.384; 3416.125;  160.350;    0.000
313.446; 3525.125;  202.350;    0.000
313.507; 3395.125;  149.350;    0.000
313.568; 3461.125;  194.350;    0.000
313.630; 3503.125;  163.350;    0.000
313.691; 3412.125;  158.350;    0.000
313.752; 3528.125;  179.350;    0.000
313.814; 3429.125;  180.350;    0.000
313.875; 3476.125;  191.350;    0.000
313.936; 3467.125;  169.350;    0.000
313.998; 3418.125;  165.350;    0.000
314.059; 3576.125;  211.350;    0.000
314.120; 3474.125;  190.350;    0.000
314.182; 3514.125;  185.350;    0.000
314.243; 3509.125;  186.350;    0.000
314.304; 3423.125;  178.350;    0.000
314.365; 3542.125;  187.350;    0.000
314.427; 3527.125;  145.350;    0.000
314.488; 3521.125;  184.350;    0.000
314.549; 3496.125;  181.350;    0.000
314.610; 3561.125;  151.350;    0.000
314.672; 3523.125;  153.350;    0.000
314.733; 3445.125;  148.350;    0.000
314.794; 3468.125;  156.350;    0.000
314.855; 3486.125;  196.350;    0.000
314.917; 3442.125;  157.350;    0.000
314.978; 3553.125;  174.350;    0.000
315.039; 3508.125;  168.350;    0.000
315.100; 3446.125;  154.350;    0.000
315.161; 3557.125;  176.350;    0.000
315.222; 3467.125;  198.350;    0.000
315.283; 3540.125;  169.350;    0.000
315.345; 3440.125;  162.350;    0.000
315.406; 3495.125;  199.350;    0.000
315.467; 3466.125;  180.350;    0.000
315.528; 3423.125;  179.350;    0.000
315.589; 3454.125;  166.350;    0.000
315.650; 3462.125;  179.350;    0.000
315.711; 3431.125;  177.350;    0.000
315.772; 3513.125;  180.350;    0.000
315.833; 3349.125;  157.350;    0.000
315.894; 3361.125;  133.350;    0.000
315.955; 3381.125;  205.350;    0.000
316.016; 3437.125;  190.350;    0.000
316.078; 3334.125;  174.350;    0.000
316.139; 3498.125;  208.350;    0.000
316.200; 3394.125;  166.350;    0.000
316.261; 3424.125;  186.350;    0.000
316.322; 3350.125;  185.350;    0.000
316.383; 3293.125;  179.350;    0.000
316.444; 3323.125;  172.350;    0.000
316.504; 3295.125;  181.350;    0.000
316.565; 3420.125;  197.350;    0.000
316.626; 3337.125;  196.350;    0.000
316.687; 3362.125;  173.350;    0.000
316.748; 3399.125;  178.350;    0.000
316.809; 3389.125;  178.350;    0.000
316.870; 3400.125;  134.350;    0.000
316.931; 3390.125;  166.350;    0.000
316.992; 3359.125;  200.350;    0.000
317.053; 3367.125;  169.350;    0.000
317.114; 3312.125;  185.350;    0.000
317.175; 3416.125;  213.350;    0.000
317.235; 3385.125;  199.350;    0.000
317.296; 3359.125;  190.350;    0.000
317.357; 3339.125;  152.350;    0.000
317.418; 3384.125;  192.350;    0.000
317.479; 3352.125;  170.350;    0.000
317.540; 3288.125;  179.350;    0.000
317.601; 3365.125;  155.350;    0.000
317.661; 3295.125;  154.350;    0.000
317.722; 3408.125;  190.350;    0.000
317.783; 3356.125;  149.350;    0.000
317.844; 3326.125;  207.350;    0.000
317.904; 3246.125;  153.350;    0.000
317.965; 3373.125;  179.350;    0.000
318.026; 3330.125;  235.350;    0.000
318.087; 3408.125;  184.350;    0.000
318.148; 3335.125;  201.350;    0.000
318.208; 3257.125;  220.350;    0.000
318.269; 3310.125;  175.350;    0.000
318.330; 3341.125;  185.350;    0.000
318.390; 3356.125;  180.350;    0.000
318.451; 3361.125;  164.350;    0.000
318.512; 3260.125;  150.350;    0.000
318.572; 3345.125;  205.350;    0.000
318.633; 3356.125;  224.350;    0.000
318.694; 3364.125;  202.350;    0.000
318.754; 3290.125;  196.350;    0.000
318.815; 3324.125;  187.350;    0.000
318.876; 3400.125;  200.350;    0.000
318.936; 3330.125;  232.350;    0.000
318.997; 3340.125;  211.350;    0.000
319.058; 3375.125;  194.350;    0.000
319.118; 3274.125;  197.350;    0.000
319.179; 3258.125;  162.350;    0.000
319.239; 3457.125;  188.350;    0.000
319.300; 3346.125;  205.350;    0.000
319.361; 3259.125;  179.350;    0.000
319.421; 3309.125;  182.350;    0.000
319.482; 3181.125;  189.350;    0.000
319.542; 3248.125;  180.350;    0.000
319.603; 3249.125;  204.350;    0.000
319.663; 3257.125;  195.350;    0.000
319.724; 3282.125;  135.350;    0.000
319.784; 3236.125;  184.350;    0.000
319.845; 3266.125;  160.350;    0.000
319.905; 3294.125;  206.350;    0.000
319.966; 3278.125;  203.350;    0.000
320.026; 3339.125;  203.350;    0.000
320.087; 3228.125;  206.350;    0.000
320.147; 3267.125;  180.350;    0.000
320.208; 3267.125;  189.350;    0.000
320.268; 3243.125;  179.350;    0.000
320.329; 3251.125;  215.350;    0.000
320.389; 3176.125;  193.350;    0.000
320.449; 3219.125;  210.350;    0.000
320.510; 3273.125;  206.350;    0.000
320.570; 3181.125;  221.350;    0.000
320.631; 3315.125;  203.350;    0.000
320.691; 3278.125;  190.350;    0.000
320.751; 3079.125;  205.350;    0.000
320.812; 3228.125;  191.350;    0.000
320.872; 3280.125;  216.350;    0.000
320.932; 3175.125;  209.350;    0.000
320.993; 3227.125;  189.350;    0.000
321.053; 3301.125;  228.350;    0.000
321.113; 3214.125;  163.350;    0.000
321.174; 3320.125;  204.350;    0.000
321.234; 3275.125;  214.350;    0.000
321.294; 3265.125;  184.350;    0.000
321.355; 3306.125;  216.350;    0.000
321.415; 3157.125;  187.350;    0.000
321.475; 3286.125;  216.350;    0.000
321.535; 3271.125;  189.350;    0.000
321.596; 3240.125;  186.350;    0.000
321.656; 3171.125;  204.350;    0.000
321.716; 3196.125;  183.350;    0.000
321.776; 3215.125;  194.350;    0.000
321.837; 3197.125;  190.350;    0.000
321.897; 3242.125;  219.350;    0.000
321.957; 3231.125;  222.350;    0.000
322.017; 3128.125;  183.350;    0.000
322.077; 3169.125;  239.350;    0.000
322.138; 3236.125;  219.350;    0.000
322.198; 3217.125;  185.350;    0.000
322.258; 3095.125;  231.350;    0.000
322.318; 3104.125;  197.350;    0.000
322.378; 3226.125;  179.350;    0.000
322.438; 3122.125;  217.350;    0.000
322.499; 3228.125;  238.350;    0.000
322.559; 3129.125;  197.350;    0.000
322.619; 3196.125;  204.350;    0.000
322.679; 3101.125;  199.350;    0.000
322.739; 3085.125;  194.350;    0.000
322.799; 3168.125;  203.350;    0.000
322.859; 3138.125;  234.350;    0.000
322.919; 3166.125;  194.350;    0.000
322.979; 3162.125;  219.350;    0.000
323.039; 3172.125;  193.350;    0.000
323.099; 3164.125;  207.350;    0.000
323.159; 3057.125;  213.350;    0.000
323.219; 3193.125;  171.350;    0.000
323.279; 3159.125;  215.350;    0.000
323.339; 3194.125;  170.350;    0.000
323.399; 3184.125;  195.350;    0.000
323.459; 3224.125;  234.350;    0.000
323.519; 3302.125;  201.350;    0.000
323.579; 3161.125;  167.350;    0.000
323.639; 3271.125;  209.350;    0.000
323.699; 3204.125;  217.350;    0.000
323.759; 3266.125;  213.350;    0.000
323.819; 3139.125;  216.350;    0.000
323.879; 3316.125;  193.350;    0.000
323.939; 3197.125;  182.350;    0.000
323.999; 3258.125;  206.350;    0.000
324.059; 3123.125;  196.350;    0.000
324.119; 3103.125;  240.350;    0.000
324.178; 3144.125;  186.350;    0.000
324.238; 3180.125;  179.350;    0.000
324.298; 3265.125;  195.350;    0.000
324.358; 3193.125;  208.350;    0.000
324.418; 3125.125;  190.350;    0.000
324.478; 3148.125;  197.350;    0.000
324.538; 3122.125;  157.350;    0.000
324.597; 3172.125;  219.350;    0.000
324.657; 3124.125;  176.350;    0.000
324.717; 3118.125;  179.350;    0.000
324.777; 3064.125;  190.350;    0.000
324.837; 3063.125;  172.350;    0.000
324.896; 3162.125;  199.350;    0.000
324.956; 3096.125;  216.350;    0.000
325.016; 3121.125;  191.350;    0.000
325.076; 3200.125;  185.350;    0.000
325.135; 3183.125;  174.350;    0.000
325.195; 3063.125;  175.350;    0.000
325.255; 3128.125;  144.350;    0.000
325.315; 3094.125;  201.350;    0.000
325.374; 3128.125;  198.350;    0.000
325.434; 3049.125;  181.350;    0.000
325.494; 3081.125;  183.350;    0.000
325.553; 3060.125;  172.350;    0.000
325.613; 3189.125;  200.350;    0.000
325.673; 3114.125;  177.350;    0.000
325.732; 3106.125;  174.350;    0.000
325.792; 3210.125;  181.350;    0.000
325.852; 3128.125;  214.350;    0.000
325.911; 3178.125;  230.350;    0.000
325.971; 3231.125;  198.350;    0.000
326.031; 3243.125;  201.350;    0.000
326.090; 3087.125;  214.350;    0.000
326.150; 3132.125;  163.350;    0.000
326.209; 3183.125;  207.350;    0.000
326.269; 3215.125;  201.350;    0.000
326.328; 3177.125;  208.350;    0.000
326.388; 3093.125;  169.350;    0.000
326.448; 3212.125;  229.350;    0.000
326.507; 3065.125;  243.350;    0.000
326.567; 3191.125;  162.350;    0.000
326.626; 3130.125;  200.350;    0.000
326.686; 3084.125;  166.350;    0.000
326.745; 2986.125;  178.350;    0.000
326.805; 3032.125;  185.350;    0.000
326.864; 3103.125;  209.350;    0.000
326.924; 3067.125;  234.350;    0.000
326.983; 3088.125;  197.350;    0.000
327.043; 3041.125;  217.350;    0.000
327.102; 3120.125;  174.350;    0.000
327.161; 2989.125;  172.350;    0.000
327.221; 3067.125;  183.350;    0.000
327.280; 2950.125;  200.350;    0.000
327.340; 2992.125;  200.350;    0.000
327.399; 2994.125;  219.350;    0.000
327.459; 3028.125;  246.350;    0.000
327.518; 3051.125;  217.350;    0.000
327.577; 3003.125;  212.350;    0.000
327.637; 2954.125;  188.350;    0.000
327.696; 2977.125;  201.350;    0.000
327.755; 3156.125;  199.350;    0.000
327.815; 3027.125;  224.350;    0.000
327.874; 2961.125;  236.350;    0.000
327.933; 3005.125;  182.350;    0.000
327.993; 2958.125;  206.350;    0.000
328.052; 2926.125;  191.350;    0.000
328.111; 2977.125;  222.350;    0.000
328.171; 3060.125;  200.350;    0.000
328.230; 3046.125;  203.350;    0.000
328.289; 3059.125;  219.350;    0.000
328.349; 3105.125;  231.350;    0.000
328.408; 3004.125;  223.350;    0.000
328.467; 2966.125;  226.350;    0.000
328.526; 3053.125;  197.350;    0.000
328.586; 3065.125;  221.350;    0.000
328.645; 2958.125;  199.350;    0.000
328.704; 3066.125;  227.350;    0.000
328.763; 2973.125;  201.350;    0.000
328.822; 2944.125;  230.350;    0.000
328.882; 2950.125;  244.350;    0.000
328.941; 2989.125;  221.350;    0.000
329.000; 2993.125;  207.350;    0.000
329.059; 3004.125;  208.350;    0.000
329.118; 2918.125;  203.350;    0.000
329.177; 2915.125;  198.350;    0.000
329.237; 3030.125;  218.350;    0.000
329.296; 2970.125;  213.350;    0.000
329.355; 2904.125;  208.350;    0.000
329.414; 2979.125;  231.350;    0.000
329.473; 3081.125;  221.350;    0.000
329.532; 3043.125;  243.350;    0.000
329.591; 3017.125;  210.350;    0.000
329.650; 3038.125;  232.350;    0.000
329.709; 3041.125;  211.350;    0.000
329.768; 3034.125;  194.350;    0.000
329.827; 3079.125;  237.350;    0.000
329.886; 3118.125;  213.350;    0.000
329.945; 3071.125;  190.350;    0.000
330.004; 3204.125;  233.350;    0.000
330.063; 3223.125;  191.350;    0.000
330.122; 3397.125;  234.350;    0.000
330.181; 3739.125;  220.350;    0.000
330.240; 3827.125;  191.350;    0.000
330.299; 3502.125;  210.350;    0.000
330.358; 3309.125;  191.350;    0.000
330.417; 2996.125;  225.350;    0.000
330.476; 3005.125;  226.350;    0.000
330.535; 3029.125;  217.350;    0.000
330.594; 3047.125;  205.350;    0.000
330.653; 2896.125;  193.350;    0.000
330.712; 2918.125;  206.350;    0.000
330.771; 2956.125;  175.350;    0.000
330.830; 2868.125;  204.350;    0.000
330.889; 2973.125;  198.350;    0.000
330.948; 2868.125;  198.350;    0.000
331.006; 3009.125;  207.350;    0.000
331.065; 2912.125;  203.350;    0.000
331.124; 2906.125;  210.350;    0.000
331.183; 2880.125;  165.350;    0.000
331.242; 2814.125;  195.350;    0.000
331.301; 2836.125;  191.350;    0.000
331.359; 2918.125;  205.350;    0.000
331.418; 2785.125;  183.350;    0.000
331.477; 2820.125;  198.350;    0.000
331.536; 2883.125;  211.350;    0.000
331.595; 2860.125;  191.350;    0.000
331.653; 2793.125;  232.350;    0.000
331.712; 2864.125;  225.350;    0.000
331.771; 2816.125;  199.350;    0.000
331.830; 2875.125;  189.350;    0.000
331.888; 2832.125;  219.350;    0.000
331.947; 2870.125;  188.350;    0.000
332.006; 2856.125;  180.350;    0.000
332.065; 2872.125;  177.350;    0.000
332.123; 2839.125;  214.350;    0.000
332.182; 2868.125;  223.350;    0.000
332.241; 2919.125;  202.350;    0.000
332.299; 2910.125;  180.350;    0.000
332.358; 2894.125;  206.350;    0.000
332.417; 2989.125;  195.350;    0.000
332.475; 2894.125;  221.350;    0.000
332.534; 2989.125;  207.350;    0.000
332.592; 2973.125;  190.350;    0.000
332.651; 3053.125;  203.350;    0.000
332.710; 3056.125;  219.350;    0.000
332.768; 2983.125;  210.350;    0.000
332.827; 2950.125;  173.350;    0.000
332.885; 3074.125;  239.350;    0.000
332.944; 3146.125;  145.350;    0.000
333.003; 3028.125;  197.350;    0.000
333.061; 3039.125;  179.350;    0.000
333.120; 3125.125;  198.350;    0.000
333.178; 3087.125;  185.350;    0.000
333.237; 3221.125;  204.350;    0.000
333.295; 3152.125;  266.350;    0.000
333.354; 3171.125;  181.350;    0.000
333.412; 3126.125;  189.350;    0.000
333.471; 3099.125;  216.350;    0.000
333.529; 3240.125;  220.350;    0.000
333.588; 3226.125;  193.350;    0.000
333.646; 3293.125;  186.350;    0.000
333.705; 3385.125;  210.350;    0.000
333.763; 3235.125;  222.350;    0.000
333.822; 3188.125;  222.350;    0.000
333.880; 3211.125;  202.350;    0.000
333.938; 3164.125;  205.350;    0.000
333.997; 3186.125;  199.350;    0.000
334.055; 3149.125;  199.350;    0.000
334.114; 3200.125;  237.350;    0.000
334.172; 3113.125;  155.350;    0.000
334.230; 3222.125;  208.350;    0.000
334.289; 3077.125;  191.350;    0.000
334.347; 3098.125;  211.350;    0.000
334.405; 3100.125;  212.350;    0.000
334.464; 3076.125;  179.350;    0.000
334.522; 3109.125;  160.350;    0.000
334.580; 3042.125;  195.350;    0.000
334.639; 3119.125;  191.350;    0.000
334.697; 2960.125;  194.350;    0.000
334.755; 3068.125;  185.350;    0.000
334.814; 3112.125;  214.350;    0.000
334.872; 3063.125;  179.350;    0.000
334.930; 3045.125;  169.350;    0.000
334.988; 3062.125;  201.350;    0.000
335.047; 3094.125;  188.350;    0.000
335.105; 3086.125;  175.350;    0.000
335.163; 3057.125;  191.350;    0.000
335.221; 3048.125;  196.350;    0.000
335.280; 2941.125;  182.350;    0.000
335.338; 3073.125;  202.350;    0.000
335.396; 3055.125;  219.350;    0.000
335.454; 2968.125;  187.350;    0.000
335.512; 3004.125;  236.350;    0.000
335.570; 3074.125;  209.350;    0.000
335.629; 3024.125;  247.350;    0.000
335.687; 3057.125;  219.350;    0.000
335.745; 3046.125;  203.350;    0.000
335.803; 3072.125;  220.350;    0.000
335.861; 3085.125;  208.350;    0.000
335.919; 3100.125;  223.350;    0.000
335.977; 3122.125;  201.350;    0.000
336.035; 3093.125;  193.350;    0.000
336.094; 3004.125;  178.350;    0.000
336.152; 2956.125;  182.350;    0.000
336.210; 3006.125;  199.350;    0.000
336.268; 3069.125;  216.350;    0.000
336.326; 3014.125;  216.350;    0.000
336.384; 3020.125;  201.350;    0.000
336.442; 2932.125;  197.350;    0.000
336.500; 2957.125;  203.350;    0.000
336.558; 3028.125;  198.350;    0.000
336.616; 2995.125;  210.350;    0.000
336.674; 2936.125;  192.350;    0.000
336.732; 3086.125;  182.350;    0.000
336.790; 2986.125;  189.350;    0.000
336.848; 2990.125;  233.350;    0.000
336.906; 3055.125;  235.350;    0.000
336.964; 2954.125;  208.350;    0.000
337.022; 3019.125;  249.350;    0.000
337.080; 3007.125;  204.350;    0.000
337.138; 2955.125;  176.350;    0.000
337.195; 2901.125;  207.350;    0.000
337.253; 2925.125;  214.350;    0.000
337.311; 3027.125;  210.350;    0.000
337.369; 2835.125;  222.350;    0.000
337.427; 2877.125;  236.350;    0.000
337.485; 2756.125;  241.350;    0.000
337.543; 3006.125;  217.350;    0.000
337.601; 2945.125;  221.350;    0.000
337.658; 2897.125;  205.350;    0.000
337.716; 2918.125;  210.350;    0.000
337.774; 2896.125;  196.350;    0.000
337.832; 2939.125;  200.350;    0.000
337.890; 2764.125;  192.350;    0.000
337.947; 2954.125;  192.350;    0.000
338.005; 2865.125;  211.350;    0.000
338.063; 2874.125;  176.350;    0.000
338.121; 2793.125;  222.350;    0.000
338.178; 2774.125;  198.350;    0.000
338.236; 2879.125;  210.350;    0.000
338.294; 2950.125;  211.350;    0.000
338.352; 2847.125;  212.350;    0.000
338.409; 2834.125;  199.350;    0.000
338.467; 2765.125;  205.350;    0.000
338.525; 2873.125;  217.350;    0.000
338.583; 2871.125;  197.350;    0.000
338.640; 2837.125;  226.350;    0.000
338.698; 2755.125;  201.350;    0.000
338.756; 2764.125;  192.350;    0.000
338.813; 2846.125;  220.350;    0.000
338.871; 2879.125;  258.350;    0.000
338.928; 2854.125;  223.350;    0.000
338.986; 2859.125;  200.350;    0.000
339.044; 2914.125;  206.350;    0.000
339.101; 2789.125;  250.350;    0.000
339.159; 2813.125;  245.350;    0.000
339.216; 2845.125;  227.350;    0.000
339.274; 2957.125;  260.350;    0.000
339.332; 2789.125;  223.350;    0.000
339.389; 2816.125;  233.350;    0.000
339.447; 2740.125;  206.350;    0.000
339.504; 2806.125;  229.350;    0.000
339.562; 2856.125;  194.350;    0.000
339.619; 2862.125;  245.350;    0.000
339.677; 2894.125;  238.350;    0.000
339.734; 2780.125;  197.350;    0.000
339.792; 2741.125;  210.350;    0.000
339.849; 2750.125;  201.350;    0.000
339.907; 2875.125;  252.350;    0.000
339.964; 2857.125;  191.350;    0.000
340.022; 2788.125;  246.350;    0.000
340.079; 2792.125;  213.350;    0.000
340.137; 2663.125;  240.350;    0.000
340.194; 2817.125;  208.350;    0.000
340.252; 2734.125;  215.350;    0.000
340.309; 2702.125;  203.350;    0.000
340.366; 2784.125;  194.350;    0.000
340.424; 2729.125;  226.350;    0.000
340.481; 2852.125;  234.350;    0.000
340.538; 2771.125;  205.350;    0.000
340.596; 2675.125;  197.350;    0.000
340.653; 2838.125;  233.350;    0.000
340.711; 2794.125;  273.350;    0.000
340.768; 2880.125;  237.350;    0.000
340.825; 2771.125;  224.350;    0.000
340.883; 2749.125;  240.350;    0.000
340.940; 2867.125;  216.350;    0.000
340.997; 2795.125;  228.350;    0.000
341.054; 2732.125;  200.350;    0.000
341.112; 2779.125;  220.350;    0.000
341.169; 2776.125;  226.350;    0.000
341.226; 2719.125;  206.350;    0.000
341.284; 2845.125;  204.350;    0.000
341.341; 2836.125;  214.350;    0.000
341.398; 2757.125;  160.350;    0.000
341.455; 2750.125;  209.350;    0.000
341.512; 2753.125;  233.350;    0.000
341.570; 2738.125;  240.350;    0.000
341.627; 2806.125;  209.350;    0.000
341.684; 2708.125;  178.350;    0.000
341.741; 2737.125;  254.350;    0.000
341.798; 2724.125;  232.350;    0.000
341.856; 2729.125;  196.350;    0.000
341.913; 2749.125;  244.350;    0.000
341.970; 2766.125;  203.350;    0.000
342.027; 2820.125;  235.350;    0.000
342.084; 2798.125;  214.350;    0.000
342.141; 2712.125;  194.350;    0.000
342.198; 2760.125;  194.350;    0.000
342.255; 2703.125;  219.350;    0.000
342.313; 2822.125;  195.350;    0.000
342.370; 2703.125;  207.350;    0.000
342.427; 2792.125;  217.350;    0.000
342.484; 2764.125;  213.350;    0.000
342.541; 2777.125;  215.350;    0.000
342.598; 2755.125;  247.350;    0.000
342.655; 2789.125;  205.350;    0.000
342.712; 2708.125;  226.350;    0.000
342.769; 2714.125;  212.350;    0.000
342.826; 2800.125;  203.350;    0.000
342.883; 2851.125;  207.350;    0.000
342.940; 2690.125;  204.350;    0.000
342.997; 2792.125;  237.350;    0.000
343.054; 2757.125;  210.350;    0.000
343.111; 2794.125;  209.350;    0.000
343.168; 2839.125;  201.350;    0.000
343.225; 2833.125;  208.350;    0.000
343.282; 2950.125;  216.350;    0.000
343.339; 2876.125;  237.350;    0.000
343.395; 2853.125;  218.350;    0.000
343.452; 2951.125;  234.350;    0.000
343.509; 2990.125;  214.350;    0.000
343.566; 3061.125;  222.350;    0.000
343.623; 3040.125;  226.350;    0.000
343.680; 3012.125;  245.350;    0.000
343.737; 3033.125;  209.350;    0.000
343.794; 3105.125;  227.350;    0.000
343.850; 3140.125;  197.350;    0.000
343.907; 3094.125;  211.350;    0.000
343.964; 3206.125;  190.350;    0.000
344.021; 3198.125;  252.350;    0.000
344.078; 3146.125;  261.350;    0.000
344.134; 3140.125;  206.350;    0.000
344.191; 3063.125;  231.350;    0.000
344.248; 3143.125;  225.350;    0.000
344.305; 3037.125;  210.350;    0.000
344.361; 3091.125;  194.350;    0.000
344.418; 3112.125;  219.350;    0.000
344.475; 3071.125;  245.350;    0.000
344.532; 2987.125;  238.350;    0.000
344.588; 3008.125;  235.350;    0.000
344.645; 3003.125;  229.350;    0.000
344.702; 3050.125;  145.350;    0.000
344.758; 3133.125;  240.350;    0.000
344.815; 2967.125;  215.350;    0.000
344.872; 2936.125;  203.350;    0.000
344.928; 3005.125;  208.350;    0.000
344.985; 2955.125;  216.350;    0.000
345.042; 3018.125;  234.350;    0.000
345.098; 3059.125;  183.350;    0.000
345.155; 2852.125;  241.350;    0.000
345.212; 2960.125;  222.350;    0.000
345.268; 2917.125;  234.350;    0.000
345.325; 2939.125;  181.350;    0.000
345.381; 3025.125;  251.350;    0.000
345.438; 3006.125;  256.350;    0.000
345.495; 3030.125;  247.350;    0.000
345.551; 3042.125;  231.350;    0.000
345.608; 2983.125;  206.350;    0.000
345.664; 2984.125;  201.350;    0.000
345.721; 2973.125;  216.350;    0.000
345.777; 2987.125;  195.350;    0.000
345.834; 3003.125;  195.350;    0.000
345.890; 2911.125;  227.350;    0.000
345.947; 3010.125;  240.350;    0.000
346.003; 3026.125;  248.350;    0.000
346.060; 2903.125;  213.350;    0.000
346.116; 3009.125;  225.350;    0.000
346.173; 2931.125;  199.350;    0.000
346.229; 2883.125;  264.350;    0.000
346.285; 3029.125;  246.350;    0.000
346.342; 2949.125;  240.350;    0.000
346.398; 2884.125;  222.350;    0.000
346.455; 2917.125;  231.350;    0.000
346.511; 3005.125;  214.350;    0.000
346.567; 3060.125;  231.350;    0.000
346.624; 3042.125;  222.350;    0.000
346.680; 2880.125;  197.350;    0.000
346.737; 3070.125;  225.350;    0.000
346.793; 3004.125;  255.350;    0.000
346.849; 3118.125;  245.350;    0.000
346.906; 3021.125;  221.350;    0.000
346.962; 3124.125;  260.350;    0.000
347.018; 2907.125;  238.350;    0.000
347.074; 3076.125;  257.350;    0.000
347.131; 3073.125;  200.350;    0.000
347.187; 3082.125;  232.350;    0.000
347.243; 3098.125;  240.350;    0.000
347.300; 3027.125;  249.350;    0.000
347.356; 3076.125;  250.350;    0.000
347.412; 3054.125;  252.350;    0.000
347.468; 3127.125;  254.350;    0.000
347.524; 3023.125;  280.350;    0.000
347.581; 3101.125;  228.350;    0.000
347.637; 3128.125;  261.350;    0.000
347.693; 3063.125;  238.350;    0.000
347.749; 3083.125;  261.350;    0.000
347.805; 3047.125;  238.350;    0.000
347.862; 3092.125;  246.350;    0.000
347.918; 3050.125;  256.350;    0.000
347.974; 3089.125;  277.350;    0.000
348.030; 3045.125;  242.350;    0.000
348.086; 3045.125;  223.350;    0.000
348.142; 3108.125;  215.350;    0.000
348.198; 3059.125;  272.350;    0.000
348.254; 3074.125;  292.350;    0.000
348.311; 3106.125;  235.350;    0.000
348.367; 3082.125;  263.350;    0.000
348.423; 2998.125;  193.350;    0.000
348.479; 3117.125;  266.350;    0.000
348.535; 3109.125;  238.350;    0.000
348.591; 3041.125;  237.350;    0.000
348.647; 3047.125;  239.350;    0.000
348.703; 3043.125;  240.350;    0.000
348.759; 3048.125;  253.350;    0.000
348.815; 3152.125;  255.350;    0.000
348.871; 3108.125;  256.350;    0.000
348.927; 3099.125;  261.350;    0.000
348.983; 3109.125;  258.350;    0.000
349.039; 3036.125;  204.350;    0.000
349.095; 3036.125;  215.350;    0.000
349.151; 3086.125;  230.350;    0.000
349.207; 3165.125;  216.350;    0.000
349.263; 3074.125;  235.350;    0.000
349.319; 3072.125;  244.350;    0.000
349.374; 3050.125;  213.350;    0.000
349.430; 3161.125;  241.350;    0.000
349.486; 3140.125;  248.350;    0.000
349.542; 3209.125;  259.350;    0.000
349.598; 3158.125;  208.350;    0.000
349.654; 3155.125;  242.350;    0.000
349.710; 3084.125;  246.350;    0.000
349.766; 3184.125;  226.350;    0.000
349.821; 3108.125;  227.350;    0.000
349.877; 3193.125;  226.350;    0.000
349.933; 3109.125;  249.350;    0.000
349.989; 3134.125;  263.350;    0.000
350.045; 2968.125;  267.350;    0.000
350.100; 3156.125;  219.350;    0.000
350.156; 3080.125;  207.350;    0.000
350.212; 3110.125;  230.350;    0.000
350.268; 3095.125;  223.350;    0.000
350.323; 3084.125;  217.350;    0.000
350.379; 3084.125;  227.350;    0.000
350.435; 3138.125;  219.350;    0.000
350.491; 3053.125;  195.350;    0.000
350.546; 3101.125;  229.350;    0.000
350.602; 3100.125;  222.350;    0.000
350.658; 3172.125;  225.350;    0.000
350.713; 3043.125;  231.350;    0.000
350.769; 3064.125;  193.350;    0.000
350.825; 3008.125;  182.350;    0.000
350.880; 3132.125;  193.350;    0.000
350.936; 3114.125;  222.350;    0.000
350.992; 3029.125;  217.350;    0.000
351.047; 3184.125;  226.350;    0.000
351.103; 3074.125;  187.350;    0.000
351.158; 3094.125;  212.350;    0.000
351.214; 3085.125;  207.350;    0.000
351.270; 3086.125;  194.350;    0.000
351.325; 3102.125;  213.350;    0.000
351.381; 3161.125;  223.350;    0.000
351.436; 3141.125;  222.350;    0.000
351.492; 3196.125;  219.350;    0.000
351.547; 3071.125;  205.350;    0.000
351.603; 3145.125;  218.350;    0.000
351.658; 3086.125;  199.350;    0.000
351.714; 3142.125;  201.350;    0.000
351.769; 3122.125;  209.350;    0.000
351.825; 3165.125;  226.350;    0.000
351.880; 3170.125;  189.350;    0.000
351.936; 3181.125;  201.350;    0.000
351.991; 3195.125;  220.350;    0.000
352.047; 3163.125;  232.350;    0.000
352.102; 3088.125;  185.350;    0.000
352.158; 3009.125;  228.350;    0.000
352.213; 3054.125;  204.350;    0.000
352.268; 3107.125;  220.350;    0.000
352.324; 3071.125;  206.350;    0.000
352.379; 3148.125;  182.350;    0.000
352.434; 3146.125;  214.350;    0.000
352.490; 3167.125;  250.350;    0.000
352.545; 3211.125;  290.350;    0.000
352.601; 3235.125;  247.350;    0.000
352.656; 3192.125;  203.350;    0.000
352.711; 3085.125;  197.350;    0.000
352.767; 3041.125;  169.350;    0.000
352.822; 3179.125;  191.350;    0.000
352.877; 3157.125;  235.350;    0.000
352.932; 3110.125;  231.350;    0.000
352.988; 3168.125;  224.350;    0.000
353.043; 3200.125;  226.350;    0.000
353.098; 3103.125;  227.350;    0.000
353.153; 3212.125;  239.350;    0.000
353.209; 3149.125;  217.350;    0.000
353.264; 3090.125;  198.350;    0.000
353.319; 3234.125;  247.350;    0.000
353.374; 3121.125;  199.350;    0.000
353.430; 3138.125;  247.350;    0.000
353.485; 3204.125;  242.350;    0.000
353.540; 3233.125;  237.350;    0.000
353.595; 3145.125;  233.350;    0.000
353.650; 3026.125;  221.350;    0.000
353.705; 3251.125;  259.350;    0.000
353.761; 3100.125;  223.350;    0.000
353.816; 3106.125;  234.350;    0.000
353.871; 3148.125;  226.350;    0.000
353.926; 3169.125;  232.350;    0.000
353.981; 3185.125;  245.350;    0.000
354.036; 3244.125;  247.350;    0.000
354.091; 3235.125;  233.350;    0.000
354.146; 3192.125;  253.350;    0.000
354.201; 3168.125;  236.350;    0.000
354.256; 3186.125;  210.350;    0.000
354.311; 3190.125;  279.350;    0.000
354.367; 3215.125;  208.350;    0.000
354.422; 3198.125;  228.350;    0.000
354.477; 3146.125;  202.350;    0.000
354.532; 3193.125;  215.350;    0.000
354.587; 3239.125;  249.350;    0.000
354.642; 3159.125;  206.350;    0.000
354.697; 3145.125;  226.350;    0.000
354.751; 3163.125;  241.350;    0.000
354.806; 3328.125;  249.350;    0.000
354.861; 3185.125;  216.350;    0.000
354.916; 3185.125;  249.350;    0.000
354.971; 3194.125;  217.350;    0.000
355.026; 3147.125;  236.350;    0.000
355.081; 3232.125;  242.350;    0.000
355.136; 3094.125;  216.350;    0.000
355.191; 3184.125;  216.350;    0.000
355.246; 3171.125;  258.350;    0.000
355.301; 3253.125;  250.350;    0.000
355.355; 3250.125;  251.350;    0.000
355.410; 3207.125;  216.350;    0.000
355.465; 3182.125;  224.350;    0.000
355.520; 3129.125;  221.350;    0.000
355.575; 3208.125;  255.350;    0.000
355.630; 3267.125;  225.350;    0.000
355.684; 3203.125;  210.350;    0.000
355.739; 3245.125;  232.350;    0.000
355.794; 3314.125;  202.350;    0.000
355.849; 3198.125;  211.350;    0.000
355.904; 3247.125;  226.350;    0.000
355.958; 3183.125;  191.350;    0.000
356.013; 3180.125;  208.350;    0.000
356.068; 3363.125;  229.350;    0.000
356.123; 3157.125;  243.350;    0.000
356.177; 3277.125;  227.350;    0.000
356.232; 3337.125;  243.350;    0.000
356.287; 3214.125;  216.350;    0.000
356.341; 3159.125;  242.350;    0.000
356.396; 3300.125;  175.350;    0.000
356.451; 3228.125;  271.350;    0.000
356.505; 3240.125;  225.350;    0.000
356.560; 3197.125;  260.350;    0.000
356.615; 3271.125;  213.350;    0.000
356.669; 3184.125;  213.350;    0.000
356.724; 3216.125;  221.350;    0.000
356.778; 3196.125;  232.350;    0.000
356.833; 3210.125;  178.350;    0.000
356.888; 3197.125;  236.350;    0.000
356.942; 3270.125;  224.350;    0.000
356.997; 3222.125;  228.350;    0.000
357.051; 3278.125;  226.350;    0.000
357.106; 3209.125;  185.350;    0.000
357.160; 3202.125;  202.350;    0.000
357.215; 3221.125;  232.350;    0.000
357.269; 3227.125;  224.350;    0.000
357.324; 3185.125;  219.350;    0.000
357.378; 3146.125;  196.350;    0.000
357.433; 3213.125;  241.350;    0.000
357.487; 3260.125;  244.350;    0.000
357.542; 3157.125;  210.350;    0.000
357.596; 3230.125;  231.350;    0.000
357.651; 3169.125;  248.350;    0.000
357.705; 3304.125;  232.350;    0.000
357.760; 3214.125;  224.350;    0.000
357.814; 3236.125;  221.350;    0.000
357.868; 3287.125;  207.350;    0.000
357.923; 3190.125;  234.350;    0.000
357.977; 3216.125;  218.350;    0.000
358.032; 3205.125;  244.350;    0.000
358.086; 3266.125;  246.350;    0.000
358.140; 3229.125;  235.350;    0.000
358.195; 3279.125;  237.350;    0.000
358.249; 3152.125;  233.350;    0.000
358.303; 3300.125;  254.350;    0.000
358.358; 3271.125;  217.350;    0.000
358.412; 3240.125;  245.350;    0.000
358.466; 3217.125;  230.350;    0.000
358.521; 3208.125;  214.350;    0.000
358.575; 3280.125;  243.350;    0.000
358.629; 3141.125;  230.350;    0.000
358.683; 3270.125;  232.350;    0.000
358.738; 3164.125;  249.350;    0.000
358.792; 3248.125;  249.350;    0.000
358.846; 3150.125;  271.350;    0.000
358.900; 3258.125;  265.350;    0.000
358.954; 3203.125;  236.350;    0.000
359.009; 3170.125;  254.350;    0.000
359.063; 3212.125;  216.350;    0.000
359.117; 3283.125;  245.350;    0.000
359.171; 3231.125;  252.350;    0.000
359.225; 3237.125;  240.350;    0.000
359.280; 3275.125;  239.350;    0.000
359.334; 3230.125;  234.350;    0.000
359.388; 3333.125;  258.350;    0.000
359.442; 3145.125;  220.350;    0.000
359.496; 3206.125;  206.350;    0.000
359.550; 3147.125;  279.350;    0.000
359.604; 3187.125;  263.350;    0.000
359.658; 3146.125;  251.350;    0.000
359.712; 3316.125;  244.350;    0.000
359.766; 3211.125;  217.350;    0.000
359.820; 3187.125;  235.350;    0.000
359.875; 3117.125;  249.350;    0.000
359.929; 3283.125;  269.350;    0.000
359.983; 3122.125;  240.350;    0.000
360.037; 3279.125;  252.350;    0.000
360.091; 3373.125;  271.350;    0.000
360.145; 3180.125;  222.350;    0.000
360.199; 3195.125;  302.350;    0.000
360.253; 3209.125;  234.350;    0.000
360.306; 3155.125;  258.350;    0.000
360.360; 3338.125;  249.350;    0.000
360.414; 3154.125;  231.350;    0.000
360.468; 3231.125;  261.350;    0.000
360.522; 3194.125;  277.350;    0.000
360.576; 3179.125;  273.350;    0.000
360.630; 3281.125;  264.350;    0.000
360.684; 3163.125;  223.350;    0.000
360.738; 3225.125;  266.350;    0.000
360.792; 3205.125;  252.350;    0.000
360.846; 3127.125;  234.350;    0.000
360.899; 3184.125;  296.350;    0.000
360.953; 3191.125;  273.350;    0.000
361.007; 3250.125;  251.350;    0.000
361.061; 3206.125;  250.350;    0.000
361.115; 3159.125;  267.350;    0.000
361.168; 3266.125;  308.350;    0.000
361.222; 3265.125;  246.350;    0.000
361.276; 3125.125;  261.350;    0.000
361.330; 3225.125;  233.350;    0.000
361.384; 3299.125;  269.350;    0.000
361.437; 3243.125;  270.350;    0.000
361.491; 3224.125;  263.350;    0.000
361.545; 3230.125;  288.350;    0.000
361.599; 3116.125;  270.350;    0.000
361.652; 3239.125;  256.350;    0.000
361.706; 3243.125;  263.350;    0.000
361.760; 3150.125;  237.350;    0.000
361.813; 3241.125;  278.350;    0.000
361.867; 3210.125;  317.350;    0.000
361.921; 3181.125;  260.350;    0.000
361.974; 3227.125;  239.350;    0.000
362.028; 3099.125;  266.350;    0.000
362.082; 3098.125;  269.350;    0.000
362.135; 3169.125;  262.350;    0.000
362.189; 3222.125;  258.350;    0.000
362.242; 3313.125;  273.350;    0.000
362.296; 3207.125;  261.350;    0.000
362.350; 3219.125;  272.350;    0.000
362.403; 3168.125;  291.350;    0.000
362.457; 3217.125;  253.350;    0.000
362.510; 3188.125;  266.350;    0.000
362.564; 3097.125;  260.350;    0.000
362.617; 3197.125;  280.350;    0.000
362.671; 3222.125;  281.350;    0.000
362.724; 3194.125;  234.350;    0.000
362.778; 3204.125;  311.350;    0.000
362.831; 3204.125;  276.350;    0.000
362.885; 3154.125;  288.350;    0.000
362.938; 3085.125;  284.350;    0.000
362.992;  333.125;  245.350;    0.000
363.045;  250.125;  277.350;    0.000
363.099;  256.125;  246.350;    0.000
363.152;  257.125;  290.350;    0.000
363.205;  274.125;  256.350;    0.000
363.259;  260.125;  238.350;    0.000
363.312;  305.125;  290.350;    0.000
363.366;  258.125;  287.350;    0.000
363.419;  312.125;  279.350;    0.000
363.472;  297.125;  304.350;    0.000
363.526;  274.125;  305.350;    0.000
363.579;  278.125;  281.350;    0.000
363.632;  289.125;  279.350;    0.000
363.686;  280.125;  277.350;    0.000
363.739;  294.125;  268.350;    0.000
363.792;  295.125;  274.350;    0.000

