
Integration time [ms]:   0.300
Averaging Nr. [scans]: 1
Smoothing Nr. [pixels]: 0
Data measured with spectrometer [name]: UV1
Wave   ;Sample   ;Dark     ;Reference
[nm]   ;[counts] ;[counts] ;[counts] 

236.381;  178.875;  160.350;    0.000
236.451;  157.875;  198.350;    0.000
236.520;  165.875;  179.350;    0.000
236.590;  200.875;  205.350;    0.000
236.660;  173.875;  199.350;    0.000
236.730;  181.875;  178.350;    0.000
236.799;  202.875;  201.350;    0.000
236.869;  186.875;  197.350;    0.000
236.939;  198.875;  180.350;    0.000
237.009;  206.875;  165.350;    0.000
237.078;  200.875;  191.350;    0.000
237.148;  179.875;  146.350;    0.000
237.218;  181.875;  142.350;    0.000
237.287;  169.875;  190.350;    0.000
237.357;  171.875;  182.350;    0.000
237.427;  188.875;  139.350;    0.000
237.496; 1221.875;  221.350;    0.000
237.566; 1132.875;  183.350;    0.000
237.636; 1178.875;  157.350;    0.000
237.705; 1239.875;  189.350;    0.000
237.775; 1162.875;  169.350;    0.000
237.845; 1218.875;  156.350;    0.000
237.914; 1182.875;  185.350;    0.000
237.984; 1151.875;  194.350;    0.000
238.054; 1237.875;  138.350;    0.000
238.123; 1205.875;  166.350;    0.000
238.193; 1211.875;  174.350;    0.000
238.263; 1187.875;  158.350;    0.000
238.332; 1217.875;  167.350;    0.000
238.402; 1204.875;  173.350;    0.000
238.471; 1180.875;  153.350;    0.000
238.541; 1143.875;  167.350;    0.000
238.611; 1109.875;  165.350;    0.000
238.680; 1202.875;  157.350;    0.000
238.750; 1152.875;  152.350;    0.000
238.819; 1190.875;  190.350;    0.000
238.889; 1071.875;  151.350;    0.000
238.958; 1198.875;  166.350;    0.000
239.028; 1147.875;  180.350;    0.000
239.097; 1132.875;  170.350;    0.000
239.167; 1169.875;  177.350;    0.000
239.237; 1137.875;  195.350;    0.000
239.306; 1233.875;  145.350;    0.000
239.376; 1183.875;  158.350;    0.000
239.445; 1150.875;  187.350;    0.000
239.515; 1202.875;  160.350;    0.000
239.584; 1176.875;  173.350;    0.000
239.654; 1164.875;  184.350;    0.000
239.723; 1111.875;  195.350;    0.000
239.793; 1149.875;  183.350;    0.000
239.862; 1119.875;  190.350;    0.000
239.932; 1164.875;  168.350;    0.000
240.001; 1156.875;  164.350;    0.000
240.070; 1169.875;  183.350;    0.000
240.140; 1134.875;  175.350;    0.000
240.209; 1137.875;  135.350;    0.000
240.279; 1104.875;  176.350;    0.000
240.348; 1160.875;  184.350;    0.000
240.418; 1142.875;  157.350;    0.000
240.487; 1097.875;  189.350;    0.000
240.556; 1146.875;  157.350;    0.000
240.626; 1112.875;  174.350;    0.000
240.695; 1196.875;  180.350;    0.000
240.765; 1133.875;  152.350;    0.000
240.834; 1126.875;  136.350;    0.000
240.903; 1077.875;  196.350;    0.000
240.973; 1152.875;  183.350;    0.000
241.042; 1124.875;  150.350;    0.000
241.112; 1184.875;  168.350;    0.000
241.181; 1121.875;  152.350;    0.000
241.250; 1118.875;  132.350;    0.000
241.320; 1134.875;  209.350;    0.000
241.389; 1116.875;  169.350;    0.000
241.458; 1148.875;  204.350;    0.000
241.528; 1142.875;  176.350;    0.000
241.597; 1141.875;  170.350;    0.000
241.666; 1149.875;  168.350;    0.000
241.736; 1146.875;  172.350;    0.000
241.805; 1066.875;  160.350;    0.000
241.874; 1137.875;  176.350;    0.000
241.943; 1108.875;  165.350;    0.000
242.013; 1118.875;  206.350;    0.000
242.082; 1073.875;  162.350;    0.000
242.151; 1109.875;  180.350;    0.000
242.221; 1130.875;  154.350;    0.000
242.290; 1084.875;  122.350;    0.000
242.359; 1081.875;  121.350;    0.000
242.428; 1134.875;  187.350;    0.000
242.498; 1066.875;  140.350;    0.000
242.567; 1057.875;  173.350;    0.000
242.636; 1074.875;  155.350;    0.000
242.705; 1090.875;  108.350;    0.000
242.774; 1109.875;  145.350;    0.000
242.844; 1097.875;  162.350;    0.000
242.913; 1110.875;  178.350;    0.000
242.982; 1105.875;  163.350;    0.000
243.051; 1027.875;  138.350;    0.000
243.120; 1142.875;  172.350;    0.000
243.190; 1038.875;  155.350;    0.000
243.259; 1103.875;  159.350;    0.000
243.328; 1096.875;  173.350;    0.000
243.397; 1071.875;  175.350;    0.000
243.466; 1085.875;  170.350;    0.000
243.535; 1067.875;  161.350;    0.000
243.605; 1087.875;  149.350;    0.000
243.674; 1158.875;  162.350;    0.000
243.743; 1083.875;  175.350;    0.000
243.812; 1026.875;  159.350;    0.000
243.881; 1067.875;  158.350;    0.000
243.950; 1031.875;  154.350;    0.000
244.019; 1089.875;  185.350;    0.000
244.088; 1031.875;  175.350;    0.000
244.158; 1127.875;  167.350;    0.000
244.227; 1095.875;  159.350;    0.000
244.296; 1087.875;  143.350;    0.000
244.365; 1032.875;  182.350;    0.000
244.434; 1059.875;  117.350;    0.000
244.503; 1103.875;  109.350;    0.000
244.572;  977.875;  147.350;    0.000
244.641; 1099.875;  129.350;    0.000
244.710; 1036.875;  159.350;    0.000
244.779; 1043.875;  166.350;    0.000
244.848; 1073.875;  122.350;    0.000
244.917; 1126.875;  167.350;    0.000
244.986; 1029.875;  158.350;    0.000
245.055; 1036.875;  175.350;    0.000
245.124; 1099.875;  153.350;    0.000
245.193; 1116.875;  155.350;    0.000
245.262;  999.875;  137.350;    0.000
245.331; 1010.875;  145.350;    0.000
245.400;  998.875;  107.350;    0.000
245.469;  971.875;  162.350;    0.000
245.538;  940.875;  165.350;    0.000
245.607; 1035.875;  178.350;    0.000
245.676;  943.875;  166.350;    0.000
245.745;  925.875;  169.350;    0.000
245.814;  947.875;  155.350;    0.000
245.883; 1008.875;  186.350;    0.000
245.952;  935.875;  165.350;    0.000
246.021;  963.875;  169.350;    0.000
246.090; 1014.875;  170.350;    0.000
246.159;  911.875;  155.350;    0.000
246.227;  988.875;  161.350;    0.000
246.296;  957.875;  142.350;    0.000
246.365;  961.875;  160.350;    0.000
246.434; 1009.875;  199.350;    0.000
246.503;  949.875;  155.350;    0.000
246.572;  974.875;  206.350;    0.000
246.641;  918.875;  177.350;    0.000
246.710;  994.875;  178.350;    0.000
246.779;  964.875;  193.350;    0.000
246.847;  894.875;  147.350;    0.000
246.916;  925.875;  131.350;    0.000
246.985;  923.875;  168.350;    0.000
247.054;  969.875;  143.350;    0.000
247.123;  842.875;  130.350;    0.000
247.192;  907.875;  175.350;    0.000
247.260;  930.875;  171.350;    0.000
247.329;  979.875;  162.350;    0.000
247.398;  928.875;  163.350;    0.000
247.467;  885.875;  155.350;    0.000
247.536;  963.875;  149.350;    0.000
247.604;  977.875;  191.350;    0.000
247.673;  903.875;  193.350;    0.000
247.742;  868.875;  159.350;    0.000
247.811;  892.875;  167.350;    0.000
247.879;  985.875;  176.350;    0.000
247.948;  978.875;  157.350;    0.000
248.017;  859.875;  150.350;    0.000
248.086;  908.875;  153.350;    0.000
248.154;  856.875;  157.350;    0.000
248.223;  908.875;  198.350;    0.000
248.292;  885.875;  188.350;    0.000
248.361;  899.875;  157.350;    0.000
248.429;  888.875;  138.350;    0.000
248.498;  880.875;  166.350;    0.000
248.567;  836.875;  179.350;    0.000
248.635;  908.875;  210.350;    0.000
248.704;  935.875;  168.350;    0.000
248.773;  896.875;  147.350;    0.000
248.841;  890.875;  155.350;    0.000
248.910;  908.875;  183.350;    0.000
248.979;  924.875;  171.350;    0.000
249.047;  879.875;  152.350;    0.000
249.116;  918.875;  155.350;    0.000
249.185;  885.875;  217.350;    0.000
249.253;  912.875;  149.350;    0.000
249.322;  854.875;  167.350;    0.000
249.390;  869.875;  182.350;    0.000
249.459;  909.875;  173.350;    0.000
249.528;  900.875;  162.350;    0.000
249.596;  850.875;  162.350;    0.000
249.665;  873.875;  163.350;    0.000
249.733;  844.875;  147.350;    0.000
249.802;  886.875;  170.350;    0.000
249.871;  824.875;  179.350;    0.000
249.939;  879.875;  179.350;    0.000
250.008;  854.875;  201.350;    0.000
250.076;  860.875;  189.350;    0.000
250.145;  835.875;  171.350;    0.000
250.213;  880.875;  161.350;    0.000
250.282;  847.875;  171.350;    0.000
250.350;  825.875;  138.350;    0.000
250.419;  852.875;  172.350;    0.000
250.487;  939.875;  207.350;    0.000
250.556;  890.875;  160.350;    0.000
250.624;  849.875;  187.350;    0.000
250.693;  842.875;  141.350;    0.000
250.761;  888.875;  182.350;    0.000
250.830;  863.875;  203.350;    0.000
250.898;  847.875;  160.350;    0.000
250.967;  866.875;  143.350;    0.000
251.035;  805.875;  142.350;    0.000
251.104;  852.875;  159.350;    0.000
251.172;  879.875;  189.350;    0.000
251.241;  799.875;  134.350;    0.000
251.309;  855.875;  179.350;    0.000
251.378;  874.875;  203.350;    0.000
251.446;  792.875;  151.350;    0.000
251.514;  827.875;  176.350;    0.000
251.583;  815.875;  173.350;    0.000
251.651;  811.875;  163.350;    0.000
251.720;  829.875;  151.350;    0.000
251.788;  916.875;  205.350;    0.000
251.856;  773.875;  126.350;    0.000
251.925;  807.875;  118.350;    0.000
251.993;  831.875;  139.350;    0.000
252.062;  856.875;  161.350;    0.000
252.130;  798.875;  180.350;    0.000
252.198;  894.875;  141.350;    0.000
252.267;  813.875;  145.350;    0.000
252.335;  821.875;  159.350;    0.000
252.403;  750.875;  158.350;    0.000
252.472;  809.875;  142.350;    0.000
252.540;  821.875;  162.350;    0.000
252.608;  796.875;  180.350;    0.000
252.677;  778.875;  137.350;    0.000
252.745;  809.875;  183.350;    0.000
252.813;  804.875;  151.350;    0.000
252.881;  706.875;  109.350;    0.000
252.950;  772.875;  174.350;    0.000
253.018;  699.875;  136.350;    0.000
253.086;  686.875;  149.350;    0.000
253.155;  712.875;  127.350;    0.000
253.223;  681.875;  156.350;    0.000
253.291;  696.875;  163.350;    0.000
253.359;  669.875;  174.350;    0.000
253.428;  645.875;  174.350;    0.000
253.496;  656.875;  161.350;    0.000
253.564;  630.875;  128.350;    0.000
253.632;  666.875;  153.350;    0.000
253.700;  682.875;  185.350;    0.000
253.769;  614.875;  163.350;    0.000
253.837;  652.875;  176.350;    0.000
253.905;  687.875;  164.350;    0.000
253.973;  583.875;  156.350;    0.000
254.041;  675.875;  154.350;    0.000
254.110;  621.875;  165.350;    0.000
254.178;  652.875;  148.350;    0.000
254.246;  671.875;  138.350;    0.000
254.314;  579.875;  164.350;    0.000
254.382;  607.875;  167.350;    0.000
254.450;  618.875;  134.350;    0.000
254.518;  632.875;  192.350;    0.000
254.587;  619.875;  139.350;    0.000
254.655;  635.875;  162.350;    0.000
254.723;  673.875;  131.350;    0.000
254.791;  673.875;  181.350;    0.000
254.859;  678.875;  146.350;    0.000
254.927;  711.875;  189.350;    0.000
254.995;  655.875;  141.350;    0.000
255.063;  624.875;  181.350;    0.000
255.131;  648.875;  156.350;    0.000
255.199;  633.875;  175.350;    0.000
255.267;  687.875;  120.350;    0.000
255.336;  657.875;  186.350;    0.000
255.404;  602.875;  134.350;    0.000
255.472;  690.875;  172.350;    0.000
255.540;  672.875;  157.350;    0.000
255.608;  633.875;  186.350;    0.000
255.676;  664.875;  155.350;    0.000
255.744;  663.875;  143.350;    0.000
255.812;  729.875;  134.350;    0.000
255.880;  752.875;  188.350;    0.000
255.948;  686.875;  163.350;    0.000
256.016;  692.875;  175.350;    0.000
256.084;  683.875;  191.350;    0.000
256.152;  690.875;  187.350;    0.000
256.220;  698.875;  152.350;    0.000
256.288;  725.875;  141.350;    0.000
256.356;  738.875;  139.350;    0.000
256.424;  633.875;  121.350;    0.000
256.491;  749.875;  139.350;    0.000
256.559;  745.875;  144.350;    0.000
256.627;  748.875;  158.350;    0.000
256.695;  713.875;  121.350;    0.000
256.763;  780.875;  150.350;    0.000
256.831;  754.875;  181.350;    0.000
256.899;  772.875;  146.350;    0.000
256.967;  742.875;   71.350;    0.000
257.035;  770.875;  164.350;    0.000
257.103;  840.875;  191.350;    0.000
257.171;  801.875;  140.350;    0.000
257.238;  772.875;  165.350;    0.000
257.306;  811.875;  127.350;    0.000
257.374;  847.875;  120.350;    0.000
257.442;  826.875;  139.350;    0.000
257.510;  858.875;  158.350;    0.000
257.578;  780.875;  164.350;    0.000
257.646;  867.875;  151.350;    0.000
257.713;  845.875;  136.350;    0.000
257.781;  833.875;  137.350;    0.000
257.849;  899.875;  151.350;    0.000
257.917;  896.875;  154.350;    0.000
257.985;  855.875;  113.350;    0.000
258.052;  892.875;  140.350;    0.000
258.120;  890.875;  176.350;    0.000
258.188;  939.875;  157.350;    0.000
258.256;  894.875;  153.350;    0.000
258.324;  965.875;  184.350;    0.000
258.391;  938.875;  144.350;    0.000
258.459;  949.875;  162.350;    0.000
258.527;  999.875;  154.350;    0.000
258.595;  967.875;  122.350;    0.000
258.662;  980.875;  164.350;    0.000
258.730; 1005.875;  114.350;    0.000
258.798;  992.875;  131.350;    0.000
258.865; 1045.875;  171.350;    0.000
258.933; 1077.875;  145.350;    0.000
259.001; 1162.875;  150.350;    0.000
259.069;  980.875;  123.350;    0.000
259.136; 1130.875;  139.350;    0.000
259.204; 1140.875;  165.350;    0.000
259.272; 1094.875;  114.350;    0.000
259.339; 1079.875;  179.350;    0.000
259.407; 1114.875;  153.350;    0.000
259.475; 1189.875;  143.350;    0.000
259.542; 1132.875;  136.350;    0.000
259.610; 1145.875;  133.350;    0.000
259.677; 1231.875;  159.350;    0.000
259.745; 1181.875;  130.350;    0.000
259.813; 1272.875;  175.350;    0.000
259.880; 1310.875;  158.350;    0.000
259.948; 1236.875;  124.350;    0.000
260.016; 1213.875;  105.350;    0.000
260.083; 1274.875;  169.350;    0.000
260.151; 1306.875;  133.350;    0.000
260.218; 1313.875;  143.350;    0.000
260.286; 1332.875;  134.350;    0.000
260.353; 1322.875;  160.350;    0.000
260.421; 1327.875;  128.350;    0.000
260.489; 1365.875;  150.350;    0.000
260.556; 1406.875;  179.350;    0.000
260.624; 1380.875;  113.350;    0.000
260.691; 1409.875;  128.350;    0.000
260.759; 1421.875;  146.350;    0.000
260.826; 1438.875;  111.350;    0.000
260.894; 1449.875;  115.350;    0.000
260.961; 1340.875;  138.350;    0.000
261.029; 1480.875;  152.350;    0.000
261.096; 1544.875;  175.350;    0.000
261.164; 1501.875;  131.350;    0.000
261.231; 1574.875;  141.350;    0.000
261.299; 1546.875;  125.350;    0.000
261.366; 1586.875;  142.350;    0.000
261.434; 1566.875;  133.350;    0.000
261.501; 1526.875;  137.350;    0.000
261.568; 1603.875;  184.350;    0.000
261.636; 1641.875;  138.350;    0.000
261.703; 1619.875;  161.350;    0.000
261.771; 1653.875;  160.350;    0.000
261.838; 1635.875;  178.350;    0.000
261.906; 1645.875;  128.350;    0.000
261.973; 1618.875;  139.350;    0.000
262.040; 1635.875;  148.350;    0.000
262.108; 1740.875;  130.350;    0.000
262.175; 1631.875;  117.350;    0.000
262.243; 1704.875;  174.350;    0.000
262.310; 1725.875;  145.350;    0.000
262.377; 1755.875;  108.350;    0.000
262.445; 1810.875;  147.350;    0.000
262.512; 1801.875;  124.350;    0.000
262.579; 1770.875;  127.350;    0.000
262.647; 1846.875;  166.350;    0.000
262.714; 1821.875;  150.350;    0.000
262.781; 1809.875;  121.350;    0.000
262.849; 1804.875;  126.350;    0.000
262.916; 1927.875;  119.350;    0.000
262.983; 1783.875;  155.350;    0.000
263.051; 1906.875;  137.350;    0.000
263.118; 1932.875;  160.350;    0.000
263.185; 1962.875;  151.350;    0.000
263.252; 1917.875;  167.350;    0.000
263.320; 1833.875;  123.350;    0.000
263.387; 1973.875;  134.350;    0.000
263.454; 2044.875;  144.350;    0.000
263.522; 1879.875;  153.350;    0.000
263.589; 1998.875;  161.350;    0.000
263.656; 2022.875;  117.350;    0.000
263.723; 2052.875;  101.350;    0.000
263.790; 2030.875;  128.350;    0.000
263.858; 2055.875;  142.350;    0.000
263.925; 2021.875;  182.350;    0.000
263.992; 2035.875;  146.350;    0.000
264.059; 2126.875;  132.350;    0.000
264.126; 2091.875;  154.350;    0.000
264.194; 2131.875;  153.350;    0.000
264.261; 2164.875;  157.350;    0.000
264.328; 2137.875;  171.350;    0.000
264.395; 2113.875;  166.350;    0.000
264.462; 2125.875;  165.350;    0.000
264.529; 2173.875;  124.350;    0.000
264.597; 2152.875;  120.350;    0.000
264.664; 2202.875;  159.350;    0.000
264.731; 2100.875;  145.350;    0.000
264.798; 2166.875;  100.350;    0.000
264.865; 2268.875;  166.350;    0.000
264.932; 2210.875;  132.350;    0.000
264.999; 2241.875;  137.350;    0.000
265.066; 2300.875;  124.350;    0.000
265.133; 2285.875;  162.350;    0.000
265.201; 2204.875;  163.350;    0.000
265.268; 2343.875;  174.350;    0.000
265.335; 2266.875;  132.350;    0.000
265.402; 2306.875;  116.350;    0.000
265.469; 2362.875;  121.350;    0.000
265.536; 2390.875;  157.350;    0.000
265.603; 2409.875;  151.350;    0.000
265.670; 2391.875;  164.350;    0.000
265.737; 2349.875;  142.350;    0.000
265.804; 2413.875;  146.350;    0.000
265.871; 2405.875;  168.350;    0.000
265.938; 2498.875;  131.350;    0.000
266.005; 2527.875;  208.350;    0.000
266.072; 2518.875;  125.350;    0.000
266.139; 2452.875;  161.350;    0.000
266.206; 2490.875;  134.350;    0.000
266.273; 2477.875;  155.350;    0.000
266.340; 2437.875;  122.350;    0.000
266.407; 2413.875;  134.350;    0.000
266.474; 2476.875;  126.350;    0.000
266.541; 2543.875;  153.350;    0.000
266.608; 2552.875;  129.350;    0.000
266.675; 2558.875;  185.350;    0.000
266.742; 2496.875;  153.350;    0.000
266.808; 2516.875;  169.350;    0.000
266.875; 2581.875;  156.350;    0.000
266.942; 2542.875;  172.350;    0.000
267.009; 2567.875;  150.350;    0.000
267.076; 2600.875;  184.350;    0.000
267.143; 2454.875;  170.350;    0.000
267.210; 2544.875;  132.350;    0.000
267.277; 2575.875;  146.350;    0.000
267.344; 2609.875;  159.350;    0.000
267.410; 2648.875;  174.350;    0.000
267.477; 2601.875;  169.350;    0.000
267.544; 2572.875;  130.350;    0.000
267.611; 2601.875;  169.350;    0.000
267.678; 2654.875;  197.350;    0.000
267.745; 2660.875;  185.350;    0.000
267.811; 2546.875;  160.350;    0.000
267.878; 2680.875;  143.350;    0.000
267.945; 2570.875;  126.350;    0.000
268.012; 2653.875;  172.350;    0.000
268.079; 2702.875;  156.350;    0.000
268.145; 2677.875;  128.350;    0.000
268.212; 2616.875;  107.350;    0.000
268.279; 2595.875;  135.350;    0.000
268.346; 2696.875;  166.350;    0.000
268.412; 2537.875;  150.350;    0.000
268.479; 2600.875;  176.350;    0.000
268.546; 2602.875;  119.350;    0.000
268.613; 2623.875;  201.350;    0.000
268.679; 2568.875;  141.350;    0.000
268.746; 2648.875;  177.350;    0.000
268.813; 2620.875;  134.350;    0.000
268.879; 2599.875;  141.350;    0.000
268.946; 2605.875;  172.350;    0.000
269.013; 2678.875;  150.350;    0.000
269.079; 2730.875;  124.350;    0.000
269.146; 2676.875;  135.350;    0.000
269.213; 2723.875;  200.350;    0.000
269.280; 2564.875;  142.350;    0.000
269.346; 2657.875;  153.350;    0.000
269.413; 2661.875;  140.350;    0.000
269.479; 2708.875;  171.350;    0.000
269.546; 2577.875;  156.350;    0.000
269.613; 2684.875;  145.350;    0.000
269.679; 2618.875;  168.350;    0.000
269.746; 2634.875;  136.350;    0.000
269.813; 2590.875;  153.350;    0.000
269.879; 2598.875;  162.350;    0.000
269.946; 2604.875;  156.350;    0.000
270.012; 2685.875;  178.350;    0.000
270.079; 2617.875;  132.350;    0.000
270.145; 2635.875;  146.350;    0.000
270.212; 2553.875;  145.350;    0.000
270.279; 2700.875;  184.350;    0.000
270.345; 2684.875;  143.350;    0.000
270.412; 2634.875;  158.350;    0.000
270.478; 2581.875;  143.350;    0.000
270.545; 2694.875;  150.350;    0.000
270.611; 2694.875;  156.350;    0.000
270.678; 2626.875;  121.350;    0.000
270.744; 2617.875;  161.350;    0.000
270.811; 2546.875;  173.350;    0.000
270.877; 2541.875;  115.350;    0.000
270.944; 2579.875;  114.350;    0.000
271.010; 2571.875;  122.350;    0.000
271.077; 2514.875;  142.350;    0.000
271.143; 2569.875;  152.350;    0.000
271.210; 2556.875;  135.350;    0.000
271.276; 2545.875;  107.350;    0.000
271.342; 2555.875;  173.350;    0.000
271.409; 2549.875;  171.350;    0.000
271.475; 2552.875;  136.350;    0.000
271.542; 2512.875;  121.350;    0.000
271.608; 2592.875;  133.350;    0.000
271.675; 2527.875;  136.350;    0.000
271.741; 2678.875;  151.350;    0.000
271.807; 2580.875;  130.350;    0.000
271.874; 2656.875;  168.350;    0.000
271.940; 2578.875;  156.350;    0.000
272.007; 2617.875;  122.350;    0.000
272.073; 2555.875;  121.350;    0.000
272.139; 2536.875;  137.350;    0.000
272.206; 2560.875;  152.350;    0.000
272.272; 2655.875;  162.350;    0.000
272.338; 2632.875;  197.350;    0.000
272.405; 2557.875;  144.350;    0.000
272.471; 2610.875;  160.350;    0.000
272.537; 2552.875;  142.350;    0.000
272.604; 2485.875;  141.350;    0.000
272.670; 2584.875;  182.350;    0.000
272.736; 2544.875;  126.350;    0.000
272.802; 2577.875;  146.350;    0.000
272.869; 2626.875;  163.350;    0.000
272.935; 2646.875;  132.350;    0.000
273.001; 2548.875;  119.350;    0.000
273.068; 2658.875;  137.350;    0.000
273.134; 2528.875;  155.350;    0.000
273.200; 2561.875;  165.350;    0.000
273.266; 2751.875;  156.350;    0.000
273.333; 2676.875;  143.350;    0.000
273.399; 2519.875;  128.350;    0.000
273.465; 2654.875;  167.350;    0.000
273.531; 2624.875;  122.350;    0.000
273.597; 2693.875;  182.350;    0.000
273.664; 2798.875;  177.350;    0.000
273.730; 2711.875;  124.350;    0.000
273.796; 2631.875;  143.350;    0.000
273.862; 2578.875;  155.350;    0.000
273.928; 2690.875;  137.350;    0.000
273.995; 2671.875;  188.350;    0.000
274.061; 2691.875;  154.350;    0.000
274.127; 2693.875;  161.350;    0.000
274.193; 2667.875;   95.350;    0.000
274.259; 2795.875;  128.350;    0.000
274.325; 2809.875;  146.350;    0.000
274.391; 2741.875;  113.350;    0.000
274.457; 2694.875;  150.350;    0.000
274.524; 2859.875;  165.350;    0.000
274.590; 2917.875;  140.350;    0.000
274.656; 2858.875;  165.350;    0.000
274.722; 2730.875;  118.350;    0.000
274.788; 2803.875;  143.350;    0.000
274.854; 3013.875;  150.350;    0.000
274.920; 2850.875;   88.350;    0.000
274.986; 2867.875;  178.350;    0.000
275.052; 2841.875;  145.350;    0.000
275.118; 2939.875;  105.350;    0.000
275.184; 2968.875;  129.350;    0.000
275.250; 2937.875;  138.350;    0.000
275.316; 3087.875;  173.350;    0.000
275.382; 2922.875;  106.350;    0.000
275.448; 2991.875;  160.350;    0.000
275.514; 3082.875;  162.350;    0.000
275.580; 3064.875;  135.350;    0.000
275.646; 2947.875;  120.350;    0.000
275.712; 3111.875;  157.350;    0.000
275.778; 3123.875;  128.350;    0.000
275.844; 2989.875;  117.350;    0.000
275.910; 3146.875;  121.350;    0.000
275.976; 3153.875;  172.350;    0.000
276.042; 3147.875;  114.350;    0.000
276.108; 3427.875;  200.350;    0.000
276.174; 3258.875;  132.350;    0.000
276.240; 3329.875;  128.350;    0.000
276.306; 3344.875;  124.350;    0.000
276.372; 3455.875;  133.350;    0.000
276.437; 3447.875;  146.350;    0.000
276.503; 3523.875;  136.350;    0.000
276.569; 3518.875;  162.350;    0.000
276.635; 3632.875;  128.350;    0.000
276.701; 3759.875;  148.350;    0.000
276.767; 3751.875;  155.350;    0.000
276.833; 3837.875;  128.350;    0.000
276.899; 3849.875;  145.350;    0.000
276.964; 3918.875;  124.350;    0.000
277.030; 3901.875;  130.350;    0.000
277.096; 4143.875;  139.350;    0.000
277.162; 4226.875;  164.350;    0.000
277.228; 4316.875;  108.350;    0.000
277.293; 4545.875;  138.350;    0.000
277.359; 4590.875;  123.350;    0.000
277.425; 4821.875;  183.350;    0.000
277.491; 5065.875;  144.350;    0.000
277.557; 6070.875;  130.350;    0.000
277.622; 7788.875;  151.350;    0.000
277.688; 7849.875;  169.350;    0.000
277.754; 7880.875;  199.350;    0.000
277.820; 8626.875;  170.350;    0.000
277.885;10133.875;  173.350;    0.000
277.951;12464.875;  187.350;    0.000
278.017;10862.875;  152.350;    0.000
278.083; 9528.875;  137.350;    0.000
278.148; 9171.875;  147.350;    0.000
278.214; 9262.875;  162.350;    0.000
278.280; 9918.875;  171.350;    0.000
278.345; 8945.875;  174.350;    0.000
278.411; 8354.875;  152.350;    0.000
278.477; 8695.875;  173.350;    0.000
278.542; 9121.875;  161.350;    0.000
278.608;10047.875;  155.350;    0.000
278.674;11050.875;  169.350;    0.000
278.739;12201.875;  142.350;    0.000
278.805;13927.875;  164.350;    0.000
278.871;16858.875;  160.350;    0.000
278.936;21171.875;  121.350;    0.000
279.002;31763.875;  166.350;    0.000
279.067;41606.875;  199.350;    0.000
279.133;39851.875;  150.350;    0.000
279.199;35801.875;  154.350;    0.000
279.264;36745.875;  154.350;    0.000
279.330;42763.875;  159.350;    0.000
279.395;54663.875;  143.350;    0.000
279.461;65303.875;  173.350;    0.000
279.527;65303.875;  163.350;    0.000
279.592;65303.875;  167.350;    0.000
279.658;61267.875;  189.350;    0.000
279.723;60409.875;  153.350;    0.000
279.789;63145.875;  174.350;    0.000
279.854;56623.875;  129.350;    0.000
279.920;46926.875;  165.350;    0.000
279.985;42203.875;  152.350;    0.000
280.051;42638.875;  164.350;    0.000
280.116;49854.875;  187.350;    0.000
280.182;65303.875;  160.350;    0.000
280.247;65303.875;  124.350;    0.000
280.313;63723.875;  154.350;    0.000
280.378;44725.875;  152.350;    0.000
280.444;33199.875;  165.350;    0.000
280.509;25943.875;  164.350;    0.000
280.574;21643.875;  160.350;    0.000
280.640;18781.875;  167.350;    0.000
280.705;16616.875;  190.350;    0.000
280.771;15115.875;  154.350;    0.000
280.836;13889.875;  158.350;    0.000
280.902;12793.875;  124.350;    0.000
280.967;11942.875;  179.350;    0.000
281.032;11292.875;  187.350;    0.000
281.098;10719.875;  155.350;    0.000
281.163;10276.875;  133.350;    0.000
281.229; 9702.875;  170.350;    0.000
281.294; 9239.875;  175.350;    0.000
281.359; 9060.875;  163.350;    0.000
281.425; 8525.875;  161.350;    0.000
281.490; 8178.875;  162.350;    0.000
281.555; 7947.875;  137.350;    0.000
281.621; 7711.875;  163.350;    0.000
281.686; 7450.875;  155.350;    0.000
281.751; 7258.875;  158.350;    0.000
281.816; 6993.875;  139.350;    0.000
281.882; 6751.875;  150.350;    0.000
281.947; 6623.875;  165.350;    0.000
282.012; 6481.875;  171.350;    0.000
282.078; 6325.875;  177.350;    0.000
282.143; 6336.875;  149.350;    0.000
282.208; 6175.875;  181.350;    0.000
282.273; 5895.875;  166.350;    0.000
282.339; 5782.875;  165.350;    0.000
282.404; 5870.875;  166.350;    0.000
282.469; 5726.875;  150.350;    0.000
282.534; 5685.875;  176.350;    0.000
282.600; 5549.875;  117.350;    0.000
282.665; 5481.875;  134.350;    0.000
282.730; 5343.875;  155.350;    0.000
282.795; 5319.875;  193.350;    0.000
282.860; 5240.875;  160.350;    0.000
282.926; 5202.875;  174.350;    0.000
282.991; 5056.875;  161.350;    0.000
283.056; 4989.875;  157.350;    0.000
283.121; 5143.875;  178.350;    0.000
283.186; 5062.875;  152.350;    0.000
283.251; 5021.875;  167.350;    0.000
283.316; 5098.875;  186.350;    0.000
283.382; 4842.875;  148.350;    0.000
283.447; 4915.875;  191.350;    0.000
283.512; 4857.875;  132.350;    0.000
283.577; 5052.875;  179.350;    0.000
283.642; 4885.875;  185.350;    0.000
283.707; 4813.875;  136.350;    0.000
283.772; 4877.875;  119.350;    0.000
283.837; 4854.875;  136.350;    0.000
283.902; 4654.875;  135.350;    0.000
283.967; 4776.875;  146.350;    0.000
284.032; 4864.875;  140.350;    0.000
284.097; 4824.875;  199.350;    0.000
284.163; 4745.875;  144.350;    0.000
284.228; 4821.875;  183.350;    0.000
284.293; 4866.875;  141.350;    0.000
284.358; 4982.875;  146.350;    0.000
284.423; 4872.875;  127.350;    0.000
284.488; 5022.875;  186.350;    0.000
284.553; 5002.875;  155.350;    0.000
284.618; 5189.875;  118.350;    0.000
284.683; 5299.875;  145.350;    0.000
284.748; 5562.875;  139.350;    0.000
284.812; 5899.875;  147.350;    0.000
284.877; 6321.875;  123.350;    0.000
284.942; 7208.875;  153.350;    0.000
285.007; 8545.875;  168.350;    0.000
285.072;11685.875;  181.350;    0.000
285.137;19339.875;  147.350;    0.000
285.202;25134.875;  175.350;    0.000
285.267;20872.875;  182.350;    0.000
285.332;13856.875;  136.350;    0.000
285.397;10414.875;  138.350;    0.000
285.462; 8477.875;  151.350;    0.000
285.527; 7593.875;  159.350;    0.000
285.591; 6758.875;  177.350;    0.000
285.656; 6210.875;  144.350;    0.000
285.721; 6073.875;  125.350;    0.000
285.786; 5756.875;  169.350;    0.000
285.851; 5598.875;  175.350;    0.000
285.916; 5331.875;  164.350;    0.000
285.981; 5239.875;  134.350;    0.000
286.045; 5174.875;  154.350;    0.000
286.110; 4978.875;  136.350;    0.000
286.175; 4899.875;  155.350;    0.000
286.240; 4777.875;  138.350;    0.000
286.305; 4869.875;  213.350;    0.000
286.369; 4821.875;  221.350;    0.000
286.434; 4837.875;  172.350;    0.000
286.499; 4515.875;  161.350;    0.000
286.564; 4732.875;  189.350;    0.000
286.628; 4656.875;  144.350;    0.000
286.693; 4562.875;  176.350;    0.000
286.758; 4544.875;  168.350;    0.000
286.823; 4499.875;  142.350;    0.000
286.887; 4446.875;  134.350;    0.000
286.952; 4370.875;  180.350;    0.000
287.017; 4335.875;  204.350;    0.000
287.082; 4336.875;  120.350;    0.000
287.146; 4307.875;  173.350;    0.000
287.211; 4465.875;  167.350;    0.000
287.276; 4231.875;  164.350;    0.000
287.340; 4413.875;  138.350;    0.000
287.405; 4276.875;  172.350;    0.000
287.470; 4359.875;  142.350;    0.000
287.534; 4278.875;  155.350;    0.000
287.599; 4275.875;  166.350;    0.000
287.663; 4196.875;  171.350;    0.000
287.728; 4276.875;  190.350;    0.000
287.793; 4333.875;  197.350;    0.000
287.857; 4307.875;  165.350;    0.000
287.922; 4285.875;  147.350;    0.000
287.987; 4214.875;  167.350;    0.000
288.051; 4334.875;  151.350;    0.000
288.116; 4442.875;  154.350;    0.000
288.180; 4223.875;  186.350;    0.000
288.245; 4180.875;  161.350;    0.000
288.309; 4351.875;  177.350;    0.000
288.374; 4357.875;  151.350;    0.000
288.439; 4183.875;  169.350;    0.000
288.503; 4109.875;  133.350;    0.000
288.568; 4238.875;  206.350;    0.000
288.632; 4193.875;  192.350;    0.000
288.697; 4256.875;  183.350;    0.000
288.761; 4213.875;  148.350;    0.000
288.826; 4202.875;  136.350;    0.000
288.890; 4179.875;  185.350;    0.000
288.955; 4108.875;  150.350;    0.000
289.019; 4160.875;  165.350;    0.000
289.084; 4008.875;  150.350;    0.000
289.148; 4177.875;  146.350;    0.000
289.212; 4121.875;  172.350;    0.000
289.277; 4100.875;  177.350;    0.000
289.341; 4182.875;  190.350;    0.000
289.406; 4064.875;  117.350;    0.000
289.470; 4102.875;  173.350;    0.000
289.535; 4080.875;  170.350;    0.000
289.599; 4178.875;  154.350;    0.000
289.663; 4025.875;  173.350;    0.000
289.728; 4070.875;  176.350;    0.000
289.792; 4105.875;  138.350;    0.000
289.857; 4140.875;  203.350;    0.000
289.921; 4173.875;  143.350;    0.000
289.985; 4056.875;  150.350;    0.000
290.050; 4069.875;  170.350;    0.000
290.114; 4054.875;  125.350;    0.000
290.178; 4020.875;  161.350;    0.000
290.243; 4108.875;  119.350;    0.000
290.307; 4144.875;  169.350;    0.000
290.371; 4086.875;  169.350;    0.000
290.436; 4089.875;  170.350;    0.000
290.500; 4176.875;  144.350;    0.000
290.564; 4118.875;  179.350;    0.000
290.629; 4078.875;  166.350;    0.000
290.693; 4019.875;  156.350;    0.000
290.757; 4144.875;  147.350;    0.000
290.821; 4158.875;  170.350;    0.000
290.886; 4049.875;  167.350;    0.000
290.950; 4221.875;  187.350;    0.000
291.014; 4189.875;  164.350;    0.000
291.078; 4132.875;  115.350;    0.000
291.143; 4221.875;  149.350;    0.000
291.207; 4276.875;  163.350;    0.000
291.271; 4254.875;  177.350;    0.000
291.335; 4252.875;  148.350;    0.000
291.399; 4374.875;  155.350;    0.000
291.464; 4542.875;  114.350;    0.000
291.528; 4836.875;  153.350;    0.000
291.592; 4643.875;  156.350;    0.000
291.656; 4602.875;  170.350;    0.000
291.720; 4477.875;  159.350;    0.000
291.784; 4369.875;  159.350;    0.000
291.849; 4438.875;  154.350;    0.000
291.913; 4435.875;  118.350;    0.000
291.977; 4427.875;  157.350;    0.000
292.041; 4284.875;  163.350;    0.000
292.105; 4564.875;  135.350;    0.000
292.169; 4513.875;  155.350;    0.000
292.233; 4603.875;  163.350;    0.000
292.297; 4513.875;  144.350;    0.000
292.361; 4710.875;  143.350;    0.000
292.425; 4696.875;  177.350;    0.000
292.490; 4934.875;  159.350;    0.000
292.554; 5099.875;  137.350;    0.000
292.618; 5370.875;  144.350;    0.000
292.682; 5817.875;  169.350;    0.000
292.746; 6706.875;  166.350;    0.000
292.810; 9093.875;  147.350;    0.000
292.874;11007.875;  160.350;    0.000
292.938;11251.875;  174.350;    0.000
293.002; 9866.875;  148.350;    0.000
293.066; 8983.875;  115.350;    0.000
293.130; 8210.875;  133.350;    0.000
293.194; 7689.875;  148.350;    0.000
293.258; 7383.875;  167.350;    0.000
293.322; 7605.875;  166.350;    0.000
293.386; 7585.875;  193.350;    0.000
293.450; 7905.875;  142.350;    0.000
293.514; 9048.875;  170.350;    0.000
293.577;12037.875;  153.350;    0.000
293.641;16420.875;  171.350;    0.000
293.705;17522.875;  168.350;    0.000
293.769;15348.875;  155.350;    0.000
293.833;13224.875;  161.350;    0.000
293.897;11708.875;  124.350;    0.000
293.961;10298.875;  165.350;    0.000
294.025; 9193.875;  118.350;    0.000
294.089; 8484.875;  125.350;    0.000
294.152; 7866.875;  160.350;    0.000
294.216; 7380.875;  160.350;    0.000
294.280; 6841.875;  158.350;    0.000
294.344; 6610.875;  119.350;    0.000
294.408; 6188.875;  168.350;    0.000
294.472; 5991.875;  156.350;    0.000
294.536; 5914.875;  192.350;    0.000
294.599; 5644.875;  171.350;    0.000
294.663; 5523.875;  139.350;    0.000
294.727; 5360.875;  136.350;    0.000
294.791; 5267.875;  118.350;    0.000
294.855; 5129.875;  118.350;    0.000
294.918; 5106.875;  127.350;    0.000
294.982; 4911.875;  167.350;    0.000
295.046; 4910.875;  178.350;    0.000
295.110; 4725.875;  157.350;    0.000
295.173; 4650.875;  101.350;    0.000
295.237; 4815.875;  145.350;    0.000
295.301; 4557.875;  135.350;    0.000
295.364; 4597.875;  185.350;    0.000
295.428; 4470.875;  112.350;    0.000
295.492; 4395.875;  142.350;    0.000
295.556; 4451.875;  170.350;    0.000
295.619; 4502.875;  193.350;    0.000
295.683; 4374.875;  144.350;    0.000
295.747; 4287.875;  152.350;    0.000
295.810; 4375.875;  139.350;    0.000
295.874; 4153.875;  157.350;    0.000
295.938; 4143.875;  128.350;    0.000
296.001; 4195.875;  164.350;    0.000
296.065; 4059.875;  184.350;    0.000
296.128; 4057.875;  127.350;    0.000
296.192; 4060.875;  166.350;    0.000
296.256; 4113.875;  154.350;    0.000
296.319; 4089.875;  128.350;    0.000
296.383; 3959.875;  146.350;    0.000
296.447; 4040.875;  155.350;    0.000
296.510; 4120.875;  177.350;    0.000
296.574; 3890.875;  169.350;    0.000
296.637; 4070.875;  140.350;    0.000
296.701; 4087.875;  181.350;    0.000
296.764; 3916.875;  131.350;    0.000
296.828; 3990.875;  194.350;    0.000
296.891; 3829.875;  146.350;    0.000
296.955; 3925.875;  160.350;    0.000
297.018; 3999.875;  174.350;    0.000
297.082; 3886.875;  153.350;    0.000
297.145; 3935.875;  133.350;    0.000
297.209; 3842.875;  149.350;    0.000
297.272; 3880.875;  150.350;    0.000
297.336; 3827.875;  119.350;    0.000
297.399; 3811.875;  160.350;    0.000
297.463; 3809.875;  158.350;    0.000
297.526; 3973.875;  160.350;    0.000
297.590; 3732.875;  173.350;    0.000
297.653; 3689.875;  121.350;    0.000
297.717; 3703.875;  168.350;    0.000
297.780; 3736.875;  131.350;    0.000
297.843; 3698.875;  154.350;    0.000
297.907; 3838.875;  126.350;    0.000
297.970; 3614.875;  180.350;    0.000
298.034; 3721.875;  140.350;    0.000
298.097; 3736.875;  207.350;    0.000
298.160; 3725.875;  177.350;    0.000
298.224; 3691.875;  165.350;    0.000
298.287; 3629.875;  160.350;    0.000
298.350; 3802.875;  176.350;    0.000
298.414; 3762.875;  155.350;    0.000
298.477; 3624.875;  132.350;    0.000
298.540; 3741.875;  162.350;    0.000
298.604; 3626.875;  180.350;    0.000
298.667; 3641.875;  208.350;    0.000
298.730; 3555.875;  177.350;    0.000
298.794; 3622.875;  126.350;    0.000
298.857; 3554.875;  171.350;    0.000
298.920; 3473.875;  124.350;    0.000
298.984; 3636.875;  146.350;    0.000
299.047; 3527.875;  140.350;    0.000
299.110; 3541.875;  159.350;    0.000
299.173; 3507.875;  177.350;    0.000
299.237; 3512.875;  196.350;    0.000
299.300; 3514.875;  121.350;    0.000
299.363; 3509.875;  172.350;    0.000
299.426; 3408.875;  117.350;    0.000
299.489; 3441.875;  138.350;    0.000
299.553; 3468.875;  198.350;    0.000
299.616; 3349.875;  158.350;    0.000
299.679; 3522.875;  148.350;    0.000
299.742; 3328.875;  138.350;    0.000
299.805; 3430.875;  157.350;    0.000
299.868; 3386.875;  183.350;    0.000
299.932; 3464.875;  137.350;    0.000
299.995; 3375.875;  152.350;    0.000
300.058; 3498.875;  171.350;    0.000
300.121; 3357.875;  172.350;    0.000
300.184; 3379.875;  161.350;    0.000
300.247; 3376.875;  156.350;    0.000
300.310; 3297.875;  154.350;    0.000
300.374; 3309.875;  147.350;    0.000
300.437; 3326.875;  144.350;    0.000
300.500; 3423.875;  152.350;    0.000
300.563; 3300.875;  160.350;    0.000
300.626; 3284.875;  167.350;    0.000
300.689; 3224.875;  193.350;    0.000
300.752; 3217.875;  134.350;    0.000
300.815; 3331.875;  194.350;    0.000
300.878; 3396.875;  156.350;    0.000
300.941; 3226.875;  177.350;    0.000
301.004; 3258.875;  160.350;    0.000
301.067; 3268.875;  153.350;    0.000
301.130; 3307.875;  167.350;    0.000
301.193; 3284.875;  156.350;    0.000
301.256; 3311.875;  176.350;    0.000
301.319; 3275.875;  172.350;    0.000
301.382; 3366.875;  150.350;    0.000
301.445; 3331.875;  183.350;    0.000
301.508; 3346.875;  118.350;    0.000
301.571; 3267.875;  142.350;    0.000
301.634; 3257.875;  164.350;    0.000
301.697; 3231.875;  169.350;    0.000
301.760; 3209.875;  197.350;    0.000
301.823; 3197.875;  155.350;    0.000
301.885; 3309.875;  165.350;    0.000
301.948; 3306.875;  168.350;    0.000
302.011; 3349.875;  172.350;    0.000
302.074; 3348.875;  182.350;    0.000
302.137; 3186.875;  161.350;    0.000
302.200; 3248.875;  174.350;    0.000
302.263; 3159.875;  158.350;    0.000
302.326; 3232.875;  168.350;    0.000
302.388; 3318.875;  165.350;    0.000
302.451; 3175.875;  158.350;    0.000
302.514; 3130.875;  181.350;    0.000
302.577; 3169.875;  147.350;    0.000
302.640; 3192.875;  178.350;    0.000
302.703; 3235.875;  164.350;    0.000
302.765; 3173.875;  149.350;    0.000
302.828; 3227.875;  192.350;    0.000
302.891; 3206.875;  201.350;    0.000
302.954; 3178.875;  135.350;    0.000
303.016; 3149.875;  180.350;    0.000
303.079; 3074.875;  192.350;    0.000
303.142; 3217.875;  176.350;    0.000
303.205; 3079.875;  176.350;    0.000
303.267; 3209.875;  163.350;    0.000
303.330; 3200.875;  162.350;    0.000
303.393; 3079.875;  164.350;    0.000
303.456; 3178.875;  180.350;    0.000
303.518; 3271.875;  162.350;    0.000
303.581; 3230.875;  137.350;    0.000
303.644; 3152.875;  135.350;    0.000
303.706; 3133.875;  170.350;    0.000
303.769; 3197.875;  216.350;    0.000
303.832; 3179.875;  143.350;    0.000
303.894; 3133.875;  162.350;    0.000
303.957; 3164.875;  149.350;    0.000
304.020; 3228.875;  111.350;    0.000
304.082; 3186.875;  158.350;    0.000
304.145; 3331.875;  149.350;    0.000
304.207; 3228.875;  169.350;    0.000
304.270; 3182.875;  170.350;    0.000
304.333; 3280.875;  185.350;    0.000
304.395; 3193.875;  179.350;    0.000
304.458; 3119.875;  174.350;    0.000
304.520; 3240.875;  160.350;    0.000
304.583; 3145.875;  175.350;    0.000
304.646; 3136.875;  160.350;    0.000
304.708; 3266.875;  173.350;    0.000
304.771; 3155.875;  115.350;    0.000
304.833; 3132.875;  172.350;    0.000
304.896; 3180.875;  187.350;    0.000
304.958; 3186.875;  142.350;    0.000
305.021; 3105.875;  164.350;    0.000
305.083; 3109.875;  139.350;    0.000
305.146; 3088.875;  162.350;    0.000
305.208; 3176.875;  135.350;    0.000
305.271; 3035.875;  159.350;    0.000
305.333; 3186.875;  210.350;    0.000
305.396; 3168.875;  151.350;    0.000
305.458; 3160.875;  195.350;    0.000
305.520; 3212.875;  179.350;    0.000
305.583; 3247.875;  157.350;    0.000
305.645; 3171.875;  187.350;    0.000
305.708; 3108.875;  159.350;    0.000
305.770; 3210.875;  189.350;    0.000
305.833; 3114.875;  147.350;    0.000
305.895; 3231.875;  154.350;    0.000
305.957; 3111.875;  143.350;    0.000
306.020; 3212.875;  133.350;    0.000
306.082; 3281.875;  146.350;    0.000
306.144; 3217.875;  171.350;    0.000
306.207; 3135.875;  151.350;    0.000
306.269; 3217.875;  169.350;    0.000
306.331; 3158.875;  162.350;    0.000
306.394; 3174.875;  171.350;    0.000
306.456; 3118.875;  155.350;    0.000
306.518; 3133.875;  183.350;    0.000
306.581; 3062.875;  180.350;    0.000
306.643; 3165.875;  199.350;    0.000
306.705; 3113.875;  163.350;    0.000
306.768; 3191.875;  183.350;    0.000
306.830; 3120.875;  183.350;    0.000
306.892; 3241.875;  190.350;    0.000
306.954; 3176.875;  161.350;    0.000
307.017; 3152.875;  151.350;    0.000
307.079; 3195.875;  147.350;    0.000
307.141; 3194.875;  179.350;    0.000
307.203; 3194.875;  143.350;    0.000
307.266; 3332.875;  142.350;    0.000
307.328; 3302.875;  161.350;    0.000
307.390; 3309.875;  189.350;    0.000
307.452; 3181.875;  155.350;    0.000
307.514; 3357.875;  211.350;    0.000
307.577; 3356.875;  201.350;    0.000
307.639; 3275.875;  192.350;    0.000
307.701; 3352.875;  162.350;    0.000
307.763; 3334.875;  155.350;    0.000
307.825; 3316.875;  193.350;    0.000
307.887; 3332.875;  214.350;    0.000
307.949; 3267.875;  208.350;    0.000
308.012; 3316.875;  175.350;    0.000
308.074; 3379.875;  155.350;    0.000
308.136; 3322.875;  172.350;    0.000
308.198; 3430.875;  171.350;    0.000
308.260; 3331.875;  182.350;    0.000
308.322; 3296.875;  177.350;    0.000
308.384; 3399.875;  207.350;    0.000
308.446; 3413.875;  170.350;    0.000
308.508; 3325.875;  177.350;    0.000
308.570; 3429.875;  195.350;    0.000
308.632; 3452.875;  190.350;    0.000
308.694; 3451.875;  161.350;    0.000
308.756; 3468.875;  173.350;    0.000
308.818; 3542.875;  190.350;    0.000
308.880; 3548.875;  197.350;    0.000
308.942; 3562.875;  223.350;    0.000
309.004; 3457.875;  176.350;    0.000
309.066; 3626.875;  182.350;    0.000
309.128; 3709.875;  185.350;    0.000
309.190; 3856.875;  166.350;    0.000
309.252; 3911.875;  191.350;    0.000
309.314; 3886.875;  208.350;    0.000
309.376; 3895.875;  205.350;    0.000
309.438; 3864.875;  166.350;    0.000
309.500; 3834.875;  195.350;    0.000
309.562; 3733.875;  163.350;    0.000
309.624; 3919.875;  162.350;    0.000
309.686; 4085.875;  194.350;    0.000
309.747; 3974.875;  179.350;    0.000
309.809; 3869.875;  211.350;    0.000
309.871; 3778.875;  191.350;    0.000
309.933; 3701.875;  151.350;    0.000
309.995; 3634.875;  179.350;    0.000
310.057; 3613.875;  175.350;    0.000
310.119; 3654.875;  161.350;    0.000
310.180; 3545.875;  167.350;    0.000
310.242; 3652.875;  171.350;    0.000
310.304; 3617.875;  209.350;    0.000
310.366; 3528.875;  229.350;    0.000
310.428; 3453.875;  132.350;    0.000
310.489; 3504.875;  165.350;    0.000
310.551; 3554.875;  193.350;    0.000
310.613; 3602.875;  182.350;    0.000
310.675; 3572.875;  186.350;    0.000
310.737; 3492.875;  192.350;    0.000
310.798; 3428.875;  194.350;    0.000
310.860; 3387.875;  220.350;    0.000
310.922; 3413.875;  161.350;    0.000
310.983; 3512.875;  203.350;    0.000
311.045; 3448.875;  198.350;    0.000
311.107; 3452.875;  179.350;    0.000
311.169; 3373.875;  154.350;    0.000
311.230; 3504.875;  134.350;    0.000
311.292; 3572.875;  215.350;    0.000
311.354; 3536.875;  171.350;    0.000
311.415; 3412.875;  195.350;    0.000
311.477; 3448.875;  185.350;    0.000
311.539; 3412.875;  183.350;    0.000
311.600; 3430.875;  183.350;    0.000
311.662; 3496.875;  207.350;    0.000
311.724; 3514.875;  193.350;    0.000
311.785; 3446.875;  180.350;    0.000
311.847; 3414.875;  155.350;    0.000
311.908; 3389.875;  179.350;    0.000
311.970; 3432.875;  193.350;    0.000
312.032; 3499.875;  188.350;    0.000
312.093; 3449.875;  166.350;    0.000
312.155; 3397.875;  147.350;    0.000
312.216; 3468.875;  177.350;    0.000
312.278; 3434.875;  162.350;    0.000
312.339; 3447.875;  158.350;    0.000
312.401; 3452.875;  181.350;    0.000
312.462; 3414.875;  153.350;    0.000
312.524; 3450.875;  186.350;    0.000
312.585; 3431.875;  191.350;    0.000
312.647; 3471.875;  131.350;    0.000
312.708; 3382.875;  170.350;    0.000
312.770; 3563.875;  194.350;    0.000
312.831; 3571.875;  161.350;    0.000
312.893; 3511.875;  179.350;    0.000
312.954; 3569.875;  183.350;    0.000
313.016; 3651.875;  189.350;    0.000
313.077; 3453.875;  169.350;    0.000
313.139; 3547.875;  148.350;    0.000
313.200; 3565.875;  155.350;    0.000
313.261; 3496.875;  213.350;    0.000
313.323; 3417.875;  162.350;    0.000
313.384; 3406.875;  160.350;    0.000
313.446; 3579.875;  202.350;    0.000
313.507; 3474.875;  149.350;    0.000
313.568; 3536.875;  194.350;    0.000
313.630; 3492.875;  163.350;    0.000
313.691; 3549.875;  158.350;    0.000
313.752; 3467.875;  179.350;    0.000
313.814; 3479.875;  180.350;    0.000
313.875; 3478.875;  191.350;    0.000
313.936; 3468.875;  169.350;    0.000
313.998; 3518.875;  165.350;    0.000
314.059; 3475.875;  211.350;    0.000
314.120; 3471.875;  190.350;    0.000
314.182; 3515.875;  185.350;    0.000
314.243; 3494.875;  186.350;    0.000
314.304; 3429.875;  178.350;    0.000
314.365; 3511.875;  187.350;    0.000
314.427; 3481.875;  145.350;    0.000
314.488; 3421.875;  184.350;    0.000
314.549; 3565.875;  181.350;    0.000
314.610; 3482.875;  151.350;    0.000
314.672; 3469.875;  153.350;    0.000
314.733; 3400.875;  148.350;    0.000
314.794; 3468.875;  156.350;    0.000
314.855; 3572.875;  196.350;    0.000
314.917; 3501.875;  157.350;    0.000
314.978; 3536.875;  174.350;    0.000
315.039; 3496.875;  168.350;    0.000
315.100; 3460.875;  154.350;    0.000
315.161; 3420.875;  176.350;    0.000
315.222; 3524.875;  198.350;    0.000
315.283; 3396.875;  169.350;    0.000
315.345; 3442.875;  162.350;    0.000
315.406; 3398.875;  199.350;    0.000
315.467; 3356.875;  180.350;    0.000
315.528; 3386.875;  179.350;    0.000
315.589; 3434.875;  166.350;    0.000
315.650; 3493.875;  179.350;    0.000
315.711; 3403.875;  177.350;    0.000
315.772; 3444.875;  180.350;    0.000
315.833; 3495.875;  157.350;    0.000
315.894; 3501.875;  133.350;    0.000
315.955; 3472.875;  205.350;    0.000
316.016; 3307.875;  190.350;    0.000
316.078; 3442.875;  174.350;    0.000
316.139; 3457.875;  208.350;    0.000
316.200; 3426.875;  166.350;    0.000
316.261; 3414.875;  186.350;    0.000
316.322; 3415.875;  185.350;    0.000
316.383; 3355.875;  179.350;    0.000
316.444; 3370.875;  172.350;    0.000
316.504; 3395.875;  181.350;    0.000
316.565; 3359.875;  197.350;    0.000
316.626; 3423.875;  196.350;    0.000
316.687; 3417.875;  173.350;    0.000
316.748; 3345.875;  178.350;    0.000
316.809; 3375.875;  178.350;    0.000
316.870; 3423.875;  134.350;    0.000
316.931; 3407.875;  166.350;    0.000
316.992; 3410.875;  200.350;    0.000
317.053; 3302.875;  169.350;    0.000
317.114; 3369.875;  185.350;    0.000
317.175; 3329.875;  213.350;    0.000
317.235; 3301.875;  199.350;    0.000
317.296; 3411.875;  190.350;    0.000
317.357; 3399.875;  152.350;    0.000
317.418; 3392.875;  192.350;    0.000
317.479; 3342.875;  170.350;    0.000
317.540; 3358.875;  179.350;    0.000
317.601; 3335.875;  155.350;    0.000
317.661; 3257.875;  154.350;    0.000
317.722; 3198.875;  190.350;    0.000
317.783; 3295.875;  149.350;    0.000
317.844; 3299.875;  207.350;    0.000
317.904; 3271.875;  153.350;    0.000
317.965; 3298.875;  179.350;    0.000
318.026; 3413.875;  235.350;    0.000
318.087; 3337.875;  184.350;    0.000
318.148; 3343.875;  201.350;    0.000
318.208; 3385.875;  220.350;    0.000
318.269; 3205.875;  175.350;    0.000
318.330; 3402.875;  185.350;    0.000
318.390; 3294.875;  180.350;    0.000
318.451; 3301.875;  164.350;    0.000
318.512; 3420.875;  150.350;    0.000
318.572; 3332.875;  205.350;    0.000
318.633; 3321.875;  224.350;    0.000
318.694; 3293.875;  202.350;    0.000
318.754; 3358.875;  196.350;    0.000
318.815; 3302.875;  187.350;    0.000
318.876; 3302.875;  200.350;    0.000
318.936; 3432.875;  232.350;    0.000
318.997; 3292.875;  211.350;    0.000
319.058; 3391.875;  194.350;    0.000
319.118; 3247.875;  197.350;    0.000
319.179; 3369.875;  162.350;    0.000
319.239; 3314.875;  188.350;    0.000
319.300; 3282.875;  205.350;    0.000
319.361; 3273.875;  179.350;    0.000
319.421; 3373.875;  182.350;    0.000
319.482; 3210.875;  189.350;    0.000
319.542; 3191.875;  180.350;    0.000
319.603; 3279.875;  204.350;    0.000
319.663; 3282.875;  195.350;    0.000
319.724; 3228.875;  135.350;    0.000
319.784; 3223.875;  184.350;    0.000
319.845; 3317.875;  160.350;    0.000
319.905; 3273.875;  206.350;    0.000
319.966; 3275.875;  203.350;    0.000
320.026; 3278.875;  203.350;    0.000
320.087; 3149.875;  206.350;    0.000
320.147; 3212.875;  180.350;    0.000
320.208; 3276.875;  189.350;    0.000
320.268; 3209.875;  179.350;    0.000
320.329; 3249.875;  215.350;    0.000
320.389; 3378.875;  193.350;    0.000
320.449; 3304.875;  210.350;    0.000
320.510; 3198.875;  206.350;    0.000
320.570; 3202.875;  221.350;    0.000
320.631; 3382.875;  203.350;    0.000
320.691; 3215.875;  190.350;    0.000
320.751; 3184.875;  205.350;    0.000
320.812; 3211.875;  191.350;    0.000
320.872; 3369.875;  216.350;    0.000
320.932; 3365.875;  209.350;    0.000
320.993; 3195.875;  189.350;    0.000
321.053; 3300.875;  228.350;    0.000
321.113; 3307.875;  163.350;    0.000
321.174; 3232.875;  204.350;    0.000
321.234; 3282.875;  214.350;    0.000
321.294; 3231.875;  184.350;    0.000
321.355; 3312.875;  216.350;    0.000
321.415; 3267.875;  187.350;    0.000
321.475; 3172.875;  216.350;    0.000
321.535; 3165.875;  189.350;    0.000
321.596; 3251.875;  186.350;    0.000
321.656; 3242.875;  204.350;    0.000
321.716; 3193.875;  183.350;    0.000
321.776; 3218.875;  194.350;    0.000
321.837; 3224.875;  190.350;    0.000
321.897; 3151.875;  219.350;    0.000
321.957; 3257.875;  222.350;    0.000
322.017; 3254.875;  183.350;    0.000
322.077; 3205.875;  239.350;    0.000
322.138; 3198.875;  219.350;    0.000
322.198; 3205.875;  185.350;    0.000
322.258; 3198.875;  231.350;    0.000
322.318; 3151.875;  197.350;    0.000
322.378; 3222.875;  179.350;    0.000
322.438; 3225.875;  217.350;    0.000
322.499; 3224.875;  238.350;    0.000
322.559; 3233.875;  197.350;    0.000
322.619; 3159.875;  204.350;    0.000
322.679; 3071.875;  199.350;    0.000
322.739; 3078.875;  194.350;    0.000
322.799; 3128.875;  203.350;    0.000
322.859; 3226.875;  234.350;    0.000
322.919; 3115.875;  194.350;    0.000
322.979; 3177.875;  219.350;    0.000
323.039; 3151.875;  193.350;    0.000
323.099; 3118.875;  207.350;    0.000
323.159; 3137.875;  213.350;    0.000
323.219; 3129.875;  171.350;    0.000
323.279; 3176.875;  215.350;    0.000
323.339; 3221.875;  170.350;    0.000
323.399; 3237.875;  195.350;    0.000
323.459; 3248.875;  234.350;    0.000
323.519; 3212.875;  201.350;    0.000
323.579; 3124.875;  167.350;    0.000
323.639; 3290.875;  209.350;    0.000
323.699; 3268.875;  217.350;    0.000
323.759; 3208.875;  213.350;    0.000
323.819; 3128.875;  216.350;    0.000
323.879; 3300.875;  193.350;    0.000
323.939; 3101.875;  182.350;    0.000
323.999; 3228.875;  206.350;    0.000
324.059; 3208.875;  196.350;    0.000
324.119; 3152.875;  240.350;    0.000
324.178; 3130.875;  186.350;    0.000
324.238; 3158.875;  179.350;    0.000
324.298; 3158.875;  195.350;    0.000
324.358; 3134.875;  208.350;    0.000
324.418; 3150.875;  190.350;    0.000
324.478; 3159.875;  197.350;    0.000
324.538; 3129.875;  157.350;    0.000
324.597; 3137.875;  219.350;    0.000
324.657; 3131.875;  176.350;    0.000
324.717; 3047.875;  179.350;    0.000
324.777; 3043.875;  190.350;    0.000
324.837; 3162.875;  172.350;    0.000
324.896; 3118.875;  199.350;    0.000
324.956; 3093.875;  216.350;    0.000
325.016; 3111.875;  191.350;    0.000
325.076; 3079.875;  185.350;    0.000
325.135; 3125.875;  174.350;    0.000
325.195; 3147.875;  175.350;    0.000
325.255; 3182.875;  144.350;    0.000
325.315; 3227.875;  201.350;    0.000
325.374; 3163.875;  198.350;    0.000
325.434; 3126.875;  181.350;    0.000
325.494; 3149.875;  183.350;    0.000
325.553; 3145.875;  172.350;    0.000
325.613; 3165.875;  200.350;    0.000
325.673; 3119.875;  177.350;    0.000
325.732; 3135.875;  174.350;    0.000
325.792; 3166.875;  181.350;    0.000
325.852; 3148.875;  214.350;    0.000
325.911; 3084.875;  230.350;    0.000
325.971; 3179.875;  198.350;    0.000
326.031; 3153.875;  201.350;    0.000
326.090; 3137.875;  214.350;    0.000
326.150; 3106.875;  163.350;    0.000
326.209; 3226.875;  207.350;    0.000
326.269; 3149.875;  201.350;    0.000
326.328; 3202.875;  208.350;    0.000
326.388; 3098.875;  169.350;    0.000
326.448; 3259.875;  229.350;    0.000
326.507; 3059.875;  243.350;    0.000
326.567; 3122.875;  162.350;    0.000
326.626; 3129.875;  200.350;    0.000
326.686; 3107.875;  166.350;    0.000
326.745; 3107.875;  178.350;    0.000
326.805; 3073.875;  185.350;    0.000
326.864; 3089.875;  209.350;    0.000
326.924; 3224.875;  234.350;    0.000
326.983; 3109.875;  197.350;    0.000
327.043; 3125.875;  217.350;    0.000
327.102; 3092.875;  174.350;    0.000
327.161; 3032.875;  172.350;    0.000
327.221; 3004.875;  183.350;    0.000
327.280; 3086.875;  200.350;    0.000
327.340; 3126.875;  200.350;    0.000
327.399; 3022.875;  219.350;    0.000
327.459; 3094.875;  246.350;    0.000
327.518; 2996.875;  217.350;    0.000
327.577; 3035.875;  212.350;    0.000
327.637; 3043.875;  188.350;    0.000
327.696; 2979.875;  201.350;    0.000
327.755; 2949.875;  199.350;    0.000
327.815; 2938.875;  224.350;    0.000
327.874; 3123.875;  236.350;    0.000
327.933; 3041.875;  182.350;    0.000
327.993; 3007.875;  206.350;    0.000
328.052; 3038.875;  191.350;    0.000
328.111; 2971.875;  222.350;    0.000
328.171; 2993.875;  200.350;    0.000
328.230; 3156.875;  203.350;    0.000
328.289; 3011.875;  219.350;    0.000
328.349; 3031.875;  231.350;    0.000
328.408; 3015.875;  223.350;    0.000
328.467; 3026.875;  226.350;    0.000
328.526; 3034.875;  197.350;    0.000
328.586; 3077.875;  221.350;    0.000
328.645; 2961.875;  199.350;    0.000
328.704; 3065.875;  227.350;    0.000
328.763; 2999.875;  201.350;    0.000
328.822; 3037.875;  230.350;    0.000
328.882; 3014.875;  244.350;    0.000
328.941; 2994.875;  221.350;    0.000
329.000; 2900.875;  207.350;    0.000
329.059; 2985.875;  208.350;    0.000
329.118; 2982.875;  203.350;    0.000
329.177; 2927.875;  198.350;    0.000
329.237; 2971.875;  218.350;    0.000
329.296; 2922.875;  213.350;    0.000
329.355; 2994.875;  208.350;    0.000
329.414; 3013.875;  231.350;    0.000
329.473; 2941.875;  221.350;    0.000
329.532; 2953.875;  243.350;    0.000
329.591; 2939.875;  210.350;    0.000
329.650; 2937.875;  232.350;    0.000
329.709; 3116.875;  211.350;    0.000
329.768; 3054.875;  194.350;    0.000
329.827; 3018.875;  237.350;    0.000
329.886; 2993.875;  213.350;    0.000
329.945; 2952.875;  190.350;    0.000
330.004; 3228.875;  233.350;    0.000
330.063; 3069.875;  191.350;    0.000
330.122; 3455.875;  234.350;    0.000
330.181; 3652.875;  220.350;    0.000
330.240; 3618.875;  191.350;    0.000
330.299; 3314.875;  210.350;    0.000
330.358; 3136.875;  191.350;    0.000
330.417; 2967.875;  225.350;    0.000
330.476; 2988.875;  226.350;    0.000
330.535; 2985.875;  217.350;    0.000
330.594; 2903.875;  205.350;    0.000
330.653; 2874.875;  193.350;    0.000
330.712; 2981.875;  206.350;    0.000
330.771; 2924.875;  175.350;    0.000
330.830; 2788.875;  204.350;    0.000
330.889; 2909.875;  198.350;    0.000
330.948; 2871.875;  198.350;    0.000
331.006; 2806.875;  207.350;    0.000
331.065; 2870.875;  203.350;    0.000
331.124; 2944.875;  210.350;    0.000
331.183; 2850.875;  165.350;    0.000
331.242; 2873.875;  195.350;    0.000
331.301; 2925.875;  191.350;    0.000
331.359; 2827.875;  205.350;    0.000
331.418; 2956.875;  183.350;    0.000
331.477; 2827.875;  198.350;    0.000
331.536; 2916.875;  211.350;    0.000
331.595; 2838.875;  191.350;    0.000
331.653; 2887.875;  232.350;    0.000
331.712; 2882.875;  225.350;    0.000
331.771; 2785.875;  199.350;    0.000
331.830; 2902.875;  189.350;    0.000
331.888; 2943.875;  219.350;    0.000
331.947; 2917.875;  188.350;    0.000
332.006; 2995.875;  180.350;    0.000
332.065; 2984.875;  177.350;    0.000
332.123; 2877.875;  214.350;    0.000
332.182; 2947.875;  223.350;    0.000
332.241; 2920.875;  202.350;    0.000
332.299; 2917.875;  180.350;    0.000
332.358; 2972.875;  206.350;    0.000
332.417; 2988.875;  195.350;    0.000
332.475; 2947.875;  221.350;    0.000
332.534; 2944.875;  207.350;    0.000
332.592; 2994.875;  190.350;    0.000
332.651; 2986.875;  203.350;    0.000
332.710; 2934.875;  219.350;    0.000
332.768; 2961.875;  210.350;    0.000
332.827; 3024.875;  173.350;    0.000
332.885; 2953.875;  239.350;    0.000
332.944; 3091.875;  145.350;    0.000
333.003; 3025.875;  197.350;    0.000
333.061; 2988.875;  179.350;    0.000
333.120; 3098.875;  198.350;    0.000
333.178; 3202.875;  185.350;    0.000
333.237; 3219.875;  204.350;    0.000
333.295; 3138.875;  266.350;    0.000
333.354; 3160.875;  181.350;    0.000
333.412; 3151.875;  189.350;    0.000
333.471; 3095.875;  216.350;    0.000
333.529; 3123.875;  220.350;    0.000
333.588; 3135.875;  193.350;    0.000
333.646; 3304.875;  186.350;    0.000
333.705; 3279.875;  210.350;    0.000
333.763; 3337.875;  222.350;    0.000
333.822; 3087.875;  222.350;    0.000
333.880; 3137.875;  202.350;    0.000
333.938; 3042.875;  205.350;    0.000
333.997; 3117.875;  199.350;    0.000
334.055; 3196.875;  199.350;    0.000
334.114; 3177.875;  237.350;    0.000
334.172; 3200.875;  155.350;    0.000
334.230; 2989.875;  208.350;    0.000
334.289; 3098.875;  191.350;    0.000
334.347; 3046.875;  211.350;    0.000
334.405; 3106.875;  212.350;    0.000
334.464; 3100.875;  179.350;    0.000
334.522; 3100.875;  160.350;    0.000
334.580; 3047.875;  195.350;    0.000
334.639; 3073.875;  191.350;    0.000
334.697; 3015.875;  194.350;    0.000
334.755; 2946.875;  185.350;    0.000
334.814; 3000.875;  214.350;    0.000
334.872; 3115.875;  179.350;    0.000
334.930; 3004.875;  169.350;    0.000
334.988; 3059.875;  201.350;    0.000
335.047; 3009.875;  188.350;    0.000
335.105; 3064.875;  175.350;    0.000
335.163; 3053.875;  191.350;    0.000
335.221; 3068.875;  196.350;    0.000
335.280; 3029.875;  182.350;    0.000
335.338; 3078.875;  202.350;    0.000
335.396; 3068.875;  219.350;    0.000
335.454; 3138.875;  187.350;    0.000
335.512; 2942.875;  236.350;    0.000
335.570; 2944.875;  209.350;    0.000
335.629; 3081.875;  247.350;    0.000
335.687; 3060.875;  219.350;    0.000
335.745; 3049.875;  203.350;    0.000
335.803; 2941.875;  220.350;    0.000
335.861; 3094.875;  208.350;    0.000
335.919; 3014.875;  223.350;    0.000
335.977; 3052.875;  201.350;    0.000
336.035; 3050.875;  193.350;    0.000
336.094; 3018.875;  178.350;    0.000
336.152; 3031.875;  182.350;    0.000
336.210; 3013.875;  199.350;    0.000
336.268; 3040.875;  216.350;    0.000
336.326; 2957.875;  216.350;    0.000
336.384; 3051.875;  201.350;    0.000
336.442; 3049.875;  197.350;    0.000
336.500; 2970.875;  203.350;    0.000
336.558; 3006.875;  198.350;    0.000
336.616; 3048.875;  210.350;    0.000
336.674; 3011.875;  192.350;    0.000
336.732; 3060.875;  182.350;    0.000
336.790; 2999.875;  189.350;    0.000
336.848; 3107.875;  233.350;    0.000
336.906; 3028.875;  235.350;    0.000
336.964; 2985.875;  208.350;    0.000
337.022; 3054.875;  249.350;    0.000
337.080; 3087.875;  204.350;    0.000
337.138; 2973.875;  176.350;    0.000
337.195; 2920.875;  207.350;    0.000
337.253; 2978.875;  214.350;    0.000
337.311; 3015.875;  210.350;    0.000
337.369; 2851.875;  222.350;    0.000
337.427; 2872.875;  236.350;    0.000
337.485; 2888.875;  241.350;    0.000
337.543; 2897.875;  217.350;    0.000
337.601; 2937.875;  221.350;    0.000
337.658; 2853.875;  205.350;    0.000
337.716; 2898.875;  210.350;    0.000
337.774; 2872.875;  196.350;    0.000
337.832; 2922.875;  200.350;    0.000
337.890; 2838.875;  192.350;    0.000
337.947; 2866.875;  192.350;    0.000
338.005; 2833.875;  211.350;    0.000
338.063; 2848.875;  176.350;    0.000
338.121; 2795.875;  222.350;    0.000
338.178; 2859.875;  198.350;    0.000
338.236; 2809.875;  210.350;    0.000
338.294; 2822.875;  211.350;    0.000
338.352; 2808.875;  212.350;    0.000
338.409; 2807.875;  199.350;    0.000
338.467; 2793.875;  205.350;    0.000
338.525; 2890.875;  217.350;    0.000
338.583; 2797.875;  197.350;    0.000
338.640; 2724.875;  226.350;    0.000
338.698; 2693.875;  201.350;    0.000
338.756; 2896.875;  192.350;    0.000
338.813; 2865.875;  220.350;    0.000
338.871; 2846.875;  258.350;    0.000
338.928; 2854.875;  223.350;    0.000
338.986; 2884.875;  200.350;    0.000
339.044; 2950.875;  206.350;    0.000
339.101; 2860.875;  250.350;    0.000
339.159; 2763.875;  245.350;    0.000
339.216; 2877.875;  227.350;    0.000
339.274; 2812.875;  260.350;    0.000
339.332; 2865.875;  223.350;    0.000
339.389; 2790.875;  233.350;    0.000
339.447; 2745.875;  206.350;    0.000
339.504; 2762.875;  229.350;    0.000
339.562; 2830.875;  194.350;    0.000
339.619; 2872.875;  245.350;    0.000
339.677; 2837.875;  238.350;    0.000
339.734; 2760.875;  197.350;    0.000
339.792; 2745.875;  210.350;    0.000
339.849; 2713.875;  201.350;    0.000
339.907; 2678.875;  252.350;    0.000
339.964; 2768.875;  191.350;    0.000
340.022; 2790.875;  246.350;    0.000
340.079; 2754.875;  213.350;    0.000
340.137; 2640.875;  240.350;    0.000
340.194; 2705.875;  208.350;    0.000
340.252; 2722.875;  215.350;    0.000
340.309; 2747.875;  203.350;    0.000
340.366; 2753.875;  194.350;    0.000
340.424; 2844.875;  226.350;    0.000
340.481; 2676.875;  234.350;    0.000
340.538; 2731.875;  205.350;    0.000
340.596; 2777.875;  197.350;    0.000
340.653; 2856.875;  233.350;    0.000
340.711; 2886.875;  273.350;    0.000
340.768; 2740.875;  237.350;    0.000
340.825; 2763.875;  224.350;    0.000
340.883; 2762.875;  240.350;    0.000
340.940; 2832.875;  216.350;    0.000
340.997; 2769.875;  228.350;    0.000
341.054; 2798.875;  200.350;    0.000
341.112; 2731.875;  220.350;    0.000
341.169; 2801.875;  226.350;    0.000
341.226; 2834.875;  206.350;    0.000
341.284; 2752.875;  204.350;    0.000
341.341; 2707.875;  214.350;    0.000
341.398; 2747.875;  160.350;    0.000
341.455; 2776.875;  209.350;    0.000
341.512; 2811.875;  233.350;    0.000
341.570; 2864.875;  240.350;    0.000
341.627; 2811.875;  209.350;    0.000
341.684; 2769.875;  178.350;    0.000
341.741; 2792.875;  254.350;    0.000
341.798; 2829.875;  232.350;    0.000
341.856; 2718.875;  196.350;    0.000
341.913; 2799.875;  244.350;    0.000
341.970; 2798.875;  203.350;    0.000
342.027; 2706.875;  235.350;    0.000
342.084; 2840.875;  214.350;    0.000
342.141; 2715.875;  194.350;    0.000
342.198; 2835.875;  194.350;    0.000
342.255; 2729.875;  219.350;    0.000
342.313; 2675.875;  195.350;    0.000
342.370; 2676.875;  207.350;    0.000
342.427; 2791.875;  217.350;    0.000
342.484; 2831.875;  213.350;    0.000
342.541; 2796.875;  215.350;    0.000
342.598; 2733.875;  247.350;    0.000
342.655; 2754.875;  205.350;    0.000
342.712; 2759.875;  226.350;    0.000
342.769; 2719.875;  212.350;    0.000
342.826; 2836.875;  203.350;    0.000
342.883; 2720.875;  207.350;    0.000
342.940; 2781.875;  204.350;    0.000
342.997; 2847.875;  237.350;    0.000
343.054; 2937.875;  210.350;    0.000
343.111; 2804.875;  209.350;    0.000
343.168; 2764.875;  201.350;    0.000
343.225; 2816.875;  208.350;    0.000
343.282; 2811.875;  216.350;    0.000
343.339; 2904.875;  237.350;    0.000
343.395; 2822.875;  218.350;    0.000
343.452; 2982.875;  234.350;    0.000
343.509; 2954.875;  214.350;    0.000
343.566; 3019.875;  222.350;    0.000
343.623; 3108.875;  226.350;    0.000
343.680; 3013.875;  245.350;    0.000
343.737; 3139.875;  209.350;    0.000
343.794; 3119.875;  227.350;    0.000
343.850; 3141.875;  197.350;    0.000
343.907; 3102.875;  211.350;    0.000
343.964; 3188.875;  190.350;    0.000
344.021; 3193.875;  252.350;    0.000
344.078; 3177.875;  261.350;    0.000
344.134; 3196.875;  206.350;    0.000
344.191; 3117.875;  231.350;    0.000
344.248; 3104.875;  225.350;    0.000
344.305; 3178.875;  210.350;    0.000
344.361; 2966.875;  194.350;    0.000
344.418; 3120.875;  219.350;    0.000
344.475; 3086.875;  245.350;    0.000
344.532; 3000.875;  238.350;    0.000
344.588; 2995.875;  235.350;    0.000
344.645; 3073.875;  229.350;    0.000
344.702; 2994.875;  145.350;    0.000
344.758; 3077.875;  240.350;    0.000
344.815; 3054.875;  215.350;    0.000
344.872; 2937.875;  203.350;    0.000
344.928; 3012.875;  208.350;    0.000
344.985; 3011.875;  216.350;    0.000
345.042; 2940.875;  234.350;    0.000
345.098; 2907.875;  183.350;    0.000
345.155; 3062.875;  241.350;    0.000
345.212; 3020.875;  222.350;    0.000
345.268; 3019.875;  234.350;    0.000
345.325; 2960.875;  181.350;    0.000
345.381; 2931.875;  251.350;    0.000
345.438; 2931.875;  256.350;    0.000
345.495; 2942.875;  247.350;    0.000
345.551; 2977.875;  231.350;    0.000
345.608; 2956.875;  206.350;    0.000
345.664; 2999.875;  201.350;    0.000
345.721; 2959.875;  216.350;    0.000
345.777; 2961.875;  195.350;    0.000
345.834; 2892.875;  195.350;    0.000
345.890; 2844.875;  227.350;    0.000
345.947; 2877.875;  240.350;    0.000
346.003; 2937.875;  248.350;    0.000
346.060; 2876.875;  213.350;    0.000
346.116; 3016.875;  225.350;    0.000
346.173; 2966.875;  199.350;    0.000
346.229; 3042.875;  264.350;    0.000
346.285; 3018.875;  246.350;    0.000
346.342; 2968.875;  240.350;    0.000
346.398; 2998.875;  222.350;    0.000
346.455; 2923.875;  231.350;    0.000
346.511; 2987.875;  214.350;    0.000
346.567; 3005.875;  231.350;    0.000
346.624; 3096.875;  222.350;    0.000
346.680; 2919.875;  197.350;    0.000
346.737; 3025.875;  225.350;    0.000
346.793; 2893.875;  255.350;    0.000
346.849; 3032.875;  245.350;    0.000
346.906; 2946.875;  221.350;    0.000
346.962; 3029.875;  260.350;    0.000
347.018; 3026.875;  238.350;    0.000
347.074; 2972.875;  257.350;    0.000
347.131; 3028.875;  200.350;    0.000
347.187; 3095.875;  232.350;    0.000
347.243; 3054.875;  240.350;    0.000
347.300; 2999.875;  249.350;    0.000
347.356; 3022.875;  250.350;    0.000
347.412; 2976.875;  252.350;    0.000
347.468; 3025.875;  254.350;    0.000
347.524; 3057.875;  280.350;    0.000
347.581; 3025.875;  228.350;    0.000
347.637; 3135.875;  261.350;    0.000
347.693; 3074.875;  238.350;    0.000
347.749; 3096.875;  261.350;    0.000
347.805; 3012.875;  238.350;    0.000
347.862; 3096.875;  246.350;    0.000
347.918; 3039.875;  256.350;    0.000
347.974; 3123.875;  277.350;    0.000
348.030; 3078.875;  242.350;    0.000
348.086; 3112.875;  223.350;    0.000
348.142; 3088.875;  215.350;    0.000
348.198; 3095.875;  272.350;    0.000
348.254; 3149.875;  292.350;    0.000
348.311; 3109.875;  235.350;    0.000
348.367; 3170.875;  263.350;    0.000
348.423; 3146.875;  193.350;    0.000
348.479; 3009.875;  266.350;    0.000
348.535; 3092.875;  238.350;    0.000
348.591; 3118.875;  237.350;    0.000
348.647; 3025.875;  239.350;    0.000
348.703; 3081.875;  240.350;    0.000
348.759; 3092.875;  253.350;    0.000
348.815; 3086.875;  255.350;    0.000
348.871; 3013.875;  256.350;    0.000
348.927; 3016.875;  261.350;    0.000
348.983; 3078.875;  258.350;    0.000
349.039; 3056.875;  204.350;    0.000
349.095; 3177.875;  215.350;    0.000
349.151; 3028.875;  230.350;    0.000
349.207; 3172.875;  216.350;    0.000
349.263; 3221.875;  235.350;    0.000
349.319; 3136.875;  244.350;    0.000
349.374; 3036.875;  213.350;    0.000
349.430; 3166.875;  241.350;    0.000
349.486; 3126.875;  248.350;    0.000
349.542; 3222.875;  259.350;    0.000
349.598; 3134.875;  208.350;    0.000
349.654; 3060.875;  242.350;    0.000
349.710; 3175.875;  246.350;    0.000
349.766; 3221.875;  226.350;    0.000
349.821; 3143.875;  227.350;    0.000
349.877; 3211.875;  226.350;    0.000
349.933; 3154.875;  249.350;    0.000
349.989; 3185.875;  263.350;    0.000
350.045; 3176.875;  267.350;    0.000
350.100; 3191.875;  219.350;    0.000
350.156; 3087.875;  207.350;    0.000
350.212; 3199.875;  230.350;    0.000
350.268; 3130.875;  223.350;    0.000
350.323; 3130.875;  217.350;    0.000
350.379; 3101.875;  227.350;    0.000
350.435; 3183.875;  219.350;    0.000
350.491; 3119.875;  195.350;    0.000
350.546; 3095.875;  229.350;    0.000
350.602; 3095.875;  222.350;    0.000
350.658; 3172.875;  225.350;    0.000
350.713; 3117.875;  231.350;    0.000
350.769; 3021.875;  193.350;    0.000
350.825; 3047.875;  182.350;    0.000
350.880; 3077.875;  193.350;    0.000
350.936; 3114.875;  222.350;    0.000
350.992; 3080.875;  217.350;    0.000
351.047; 3092.875;  226.350;    0.000
351.103; 3087.875;  187.350;    0.000
351.158; 3080.875;  212.350;    0.000
351.214; 3041.875;  207.350;    0.000
351.270; 3040.875;  194.350;    0.000
351.325; 3058.875;  213.350;    0.000
351.381; 3101.875;  223.350;    0.000
351.436; 3160.875;  222.350;    0.000
351.492; 3166.875;  219.350;    0.000
351.547; 3102.875;  205.350;    0.000
351.603; 3273.875;  218.350;    0.000
351.658; 3146.875;  199.350;    0.000
351.714; 3070.875;  201.350;    0.000
351.769; 3157.875;  209.350;    0.000
351.825; 3031.875;  226.350;    0.000
351.880; 3096.875;  189.350;    0.000
351.936; 3245.875;  201.350;    0.000
351.991; 3225.875;  220.350;    0.000
352.047; 3160.875;  232.350;    0.000
352.102; 3139.875;  185.350;    0.000
352.158; 3168.875;  228.350;    0.000
352.213; 3088.875;  204.350;    0.000
352.268; 3134.875;  220.350;    0.000
352.324; 3178.875;  206.350;    0.000
352.379; 3195.875;  182.350;    0.000
352.434; 3062.875;  214.350;    0.000
352.490; 3152.875;  250.350;    0.000
352.545; 3173.875;  290.350;    0.000
352.601; 3151.875;  247.350;    0.000
352.656; 3103.875;  203.350;    0.000
352.711; 3111.875;  197.350;    0.000
352.767; 3068.875;  169.350;    0.000
352.822; 3150.875;  191.350;    0.000
352.877; 3207.875;  235.350;    0.000
352.932; 3159.875;  231.350;    0.000
352.988; 3087.875;  224.350;    0.000
353.043; 3254.875;  226.350;    0.000
353.098; 3133.875;  227.350;    0.000
353.153; 3159.875;  239.350;    0.000
353.209; 3181.875;  217.350;    0.000
353.264; 3147.875;  198.350;    0.000
353.319; 3125.875;  247.350;    0.000
353.374; 3202.875;  199.350;    0.000
353.430; 3131.875;  247.350;    0.000
353.485; 3138.875;  242.350;    0.000
353.540; 3125.875;  237.350;    0.000
353.595; 3048.875;  233.350;    0.000
353.650; 3071.875;  221.350;    0.000
353.705; 3205.875;  259.350;    0.000
353.761; 3125.875;  223.350;    0.000
353.816; 3282.875;  234.350;    0.000
353.871; 3136.875;  226.350;    0.000
353.926; 3281.875;  232.350;    0.000
353.981; 3240.875;  245.350;    0.000
354.036; 3202.875;  247.350;    0.000
354.091; 3171.875;  233.350;    0.000
354.146; 3140.875;  253.350;    0.000
354.201; 3146.875;  236.350;    0.000
354.256; 3142.875;  210.350;    0.000
354.311; 3217.875;  279.350;    0.000
354.367; 3231.875;  208.350;    0.000
354.422; 3124.875;  228.350;    0.000
354.477; 3121.875;  202.350;    0.000
354.532; 3237.875;  215.350;    0.000
354.587; 3256.875;  249.350;    0.000
354.642; 3219.875;  206.350;    0.000
354.697; 3144.875;  226.350;    0.000
354.751; 3172.875;  241.350;    0.000
354.806; 3160.875;  249.350;    0.000
354.861; 3218.875;  216.350;    0.000
354.916; 3207.875;  249.350;    0.000
354.971; 3246.875;  217.350;    0.000
355.026; 3166.875;  236.350;    0.000
355.081; 3210.875;  242.350;    0.000
355.136; 3187.875;  216.350;    0.000
355.191; 3165.875;  216.350;    0.000
355.246; 3217.875;  258.350;    0.000
355.301; 3245.875;  250.350;    0.000
355.355; 3187.875;  251.350;    0.000
355.410; 3283.875;  216.350;    0.000
355.465; 3238.875;  224.350;    0.000
355.520; 3286.875;  221.350;    0.000
355.575; 3230.875;  255.350;    0.000
355.630; 3221.875;  225.350;    0.000
355.684; 3231.875;  210.350;    0.000
355.739; 3237.875;  232.350;    0.000
355.794; 3183.875;  202.350;    0.000
355.849; 3145.875;  211.350;    0.000
355.904; 3110.875;  226.350;    0.000
355.958; 3255.875;  191.350;    0.000
356.013; 3256.875;  208.350;    0.000
356.068; 3189.875;  229.350;    0.000
356.123; 3288.875;  243.350;    0.000
356.177; 3213.875;  227.350;    0.000
356.232; 3199.875;  243.350;    0.000
356.287; 3258.875;  216.350;    0.000
356.341; 3266.875;  242.350;    0.000
356.396; 3260.875;  175.350;    0.000
356.451; 3260.875;  271.350;    0.000
356.505; 3253.875;  225.350;    0.000
356.560; 3201.875;  260.350;    0.000
356.615; 3213.875;  213.350;    0.000
356.669; 3204.875;  213.350;    0.000
356.724; 3182.875;  221.350;    0.000
356.778; 3230.875;  232.350;    0.000
356.833; 3232.875;  178.350;    0.000
356.888; 3282.875;  236.350;    0.000
356.942; 3268.875;  224.350;    0.000
356.997; 3333.875;  228.350;    0.000
357.051; 3189.875;  226.350;    0.000
357.106; 3308.875;  185.350;    0.000
357.160; 3191.875;  202.350;    0.000
357.215; 3102.875;  232.350;    0.000
357.269; 3204.875;  224.350;    0.000
357.324; 3308.875;  219.350;    0.000
357.378; 3222.875;  196.350;    0.000
357.433; 3245.875;  241.350;    0.000
357.487; 3321.875;  244.350;    0.000
357.542; 3204.875;  210.350;    0.000
357.596; 3220.875;  231.350;    0.000
357.651; 3289.875;  248.350;    0.000
357.705; 3208.875;  232.350;    0.000
357.760; 3206.875;  224.350;    0.000
357.814; 3222.875;  221.350;    0.000
357.868; 3270.875;  207.350;    0.000
357.923; 3236.875;  234.350;    0.000
357.977; 3208.875;  218.350;    0.000
358.032; 3299.875;  244.350;    0.000
358.086; 3331.875;  246.350;    0.000
358.140; 3205.875;  235.350;    0.000
358.195; 3270.875;  237.350;    0.000
358.249; 3224.875;  233.350;    0.000
358.303; 3219.875;  254.350;    0.000
358.358; 3181.875;  217.350;    0.000
358.412; 3164.875;  245.350;    0.000
358.466; 3107.875;  230.350;    0.000
358.521; 3208.875;  214.350;    0.000
358.575; 3275.875;  243.350;    0.000
358.629; 3198.875;  230.350;    0.000
358.683; 3242.875;  232.350;    0.000
358.738; 3193.875;  249.350;    0.000
358.792; 3166.875;  249.350;    0.000
358.846; 3223.875;  271.350;    0.000
358.900; 3247.875;  265.350;    0.000
358.954; 3221.875;  236.350;    0.000
359.009; 3148.875;  254.350;    0.000
359.063; 3249.875;  216.350;    0.000
359.117; 3241.875;  245.350;    0.000
359.171; 3309.875;  252.350;    0.000
359.225; 3238.875;  240.350;    0.000
359.280; 3160.875;  239.350;    0.000
359.334; 3338.875;  234.350;    0.000
359.388; 3414.875;  258.350;    0.000
359.442; 3416.875;  220.350;    0.000
359.496; 3225.875;  206.350;    0.000
359.550; 3244.875;  279.350;    0.000
359.604; 3271.875;  263.350;    0.000
359.658; 3235.875;  251.350;    0.000
359.712; 3118.875;  244.350;    0.000
359.766; 3304.875;  217.350;    0.000
359.820; 3190.875;  235.350;    0.000
359.875; 3213.875;  249.350;    0.000
359.929; 3209.875;  269.350;    0.000
359.983; 3159.875;  240.350;    0.000
360.037; 3138.875;  252.350;    0.000
360.091; 3205.875;  271.350;    0.000
360.145; 3172.875;  222.350;    0.000
360.199; 3128.875;  302.350;    0.000
360.253; 3181.875;  234.350;    0.000
360.306; 3159.875;  258.350;    0.000
360.360; 3122.875;  249.350;    0.000
360.414; 3244.875;  231.350;    0.000
360.468; 3286.875;  261.350;    0.000
360.522; 3236.875;  277.350;    0.000
360.576; 3183.875;  273.350;    0.000
360.630; 3259.875;  264.350;    0.000
360.684; 3300.875;  223.350;    0.000
360.738; 3129.875;  266.350;    0.000
360.792; 3212.875;  252.350;    0.000
360.846; 3197.875;  234.350;    0.000
360.899; 3269.875;  296.350;    0.000
360.953; 3208.875;  273.350;    0.000
361.007; 3282.875;  251.350;    0.000
361.061; 3228.875;  250.350;    0.000
361.115; 3278.875;  267.350;    0.000
361.168; 3206.875;  308.350;    0.000
361.222; 3200.875;  246.350;    0.000
361.276; 3231.875;  261.350;    0.000
361.330; 3320.875;  233.350;    0.000
361.384; 3241.875;  269.350;    0.000
361.437; 3207.875;  270.350;    0.000
361.491; 3200.875;  263.350;    0.000
361.545; 3273.875;  288.350;    0.000
361.599; 3242.875;  270.350;    0.000
361.652; 3186.875;  256.350;    0.000
361.706; 3277.875;  263.350;    0.000
361.760; 3088.875;  237.350;    0.000
361.813; 3230.875;  278.350;    0.000
361.867; 3259.875;  317.350;    0.000
361.921; 3165.875;  260.350;    0.000
361.974; 3140.875;  239.350;    0.000
362.028; 3282.875;  266.350;    0.000
362.082; 3223.875;  269.350;    0.000
362.135; 3255.875;  262.350;    0.000
362.189; 3256.875;  258.350;    0.000
362.242; 3162.875;  273.350;    0.000
362.296; 3153.875;  261.350;    0.000
362.350; 3155.875;  272.350;    0.000
362.403; 3211.875;  291.350;    0.000
362.457; 3194.875;  253.350;    0.000
362.510; 3229.875;  266.350;    0.000
362.564; 3162.875;  260.350;    0.000
362.617; 3247.875;  280.350;    0.000
362.671; 3167.875;  281.350;    0.000
362.724; 3195.875;  234.350;    0.000
362.778; 3218.875;  311.350;    0.000
362.831; 3197.875;  276.350;    0.000
362.885; 3227.875;  288.350;    0.000
362.938; 3049.875;  284.350;    0.000
362.992;  347.875;  245.350;    0.000
363.045;  289.875;  277.350;    0.000
363.099;  286.875;  246.350;    0.000
363.152;  281.875;  290.350;    0.000
363.205;  266.875;  256.350;    0.000
363.259;  297.875;  238.350;    0.000
363.312;  308.875;  290.350;    0.000
363.366;  289.875;  287.350;    0.000
363.419;  278.875;  279.350;    0.000
363.472;  269.875;  304.350;    0.000
363.526;  276.875;  305.350;    0.000
363.579;  286.875;  281.350;    0.000
363.632;  280.875;  279.350;    0.000
363.686;  257.875;  277.350;    0.000
363.739;  242.875;  268.350;    0.000
363.792;  274.875;  274.350;    0.000

