
Integration time [ms]:   0.300
Averaging Nr. [scans]: 1
Smoothing Nr. [pixels]: 0
Data measured with spectrometer [name]: NIR
Wave   ;Sample   ;Dark     ;Reference
[nm]   ;[counts] ;[counts] ;[counts] 

691.496;  -37.700;  155.525;    0.000
691.696;  -16.700;  186.525;    0.000
691.896;  -92.700;  113.525;    0.000
692.096;  -27.700;  169.525;    0.000
692.296;  -75.700;  119.525;    0.000
692.496;  -66.700;  182.525;    0.000
692.695;  -84.700;  119.525;    0.000
692.895;  -20.700;  183.525;    0.000
693.095;  -55.700;  119.525;    0.000
693.295;    8.300;  156.525;    0.000
693.495;  -43.700;  145.525;    0.000
693.695;  -18.700;  144.525;    0.000
693.894;  -46.700;  174.525;    0.000
694.094;  -33.700;  148.525;    0.000
694.294;  -55.700;  114.525;    0.000
694.494;  220.300;  137.525;    0.000
694.693; 2542.300;  112.525;    0.000
694.893; 2674.300;   85.525;    0.000
695.093; 2707.300;  152.525;    0.000
695.293; 2850.300;  159.525;    0.000
695.492; 2762.300;  131.525;    0.000
695.692; 2785.300;  134.525;    0.000
695.891; 2743.300;  161.525;    0.000
696.091; 2805.300;  180.525;    0.000
696.291; 2913.300;  120.525;    0.000
696.490; 2869.300;  146.525;    0.000
696.690; 2972.300;  145.525;    0.000
696.889; 2961.300;  171.525;    0.000
697.089; 2848.300;   98.525;    0.000
697.288; 2968.300;  172.525;    0.000
697.488; 2922.300;  137.525;    0.000
697.687; 2924.300;  171.525;    0.000
697.887; 2880.300;  142.525;    0.000
698.086; 2910.300;  159.525;    0.000
698.286; 2934.300;  122.525;    0.000
698.485; 2989.300;  121.525;    0.000
698.684; 2858.300;   94.525;    0.000
698.884; 2906.300;  131.525;    0.000
699.083; 2835.300;  112.525;    0.000
699.282; 2857.300;  119.525;    0.000
699.482; 2852.300;  117.525;    0.000
699.681; 2955.300;  115.525;    0.000
699.880; 2967.300;  166.525;    0.000
700.080; 3057.300;  194.525;    0.000
700.279; 2978.300;   98.525;    0.000
700.478; 3020.300;  159.525;    0.000
700.677; 2999.300;  134.525;    0.000
700.877; 2997.300;  171.525;    0.000
701.076; 3114.300;  141.525;    0.000
701.275; 2963.300;  119.525;    0.000
701.474; 2906.300;  132.525;    0.000
701.673; 2923.300;  141.525;    0.000
701.872; 2948.300;  158.525;    0.000
702.071; 2995.300;  129.525;    0.000
702.271; 2995.300;  122.525;    0.000
702.470; 3007.300;  158.525;    0.000
702.669; 2937.300;  145.525;    0.000
702.868; 3070.300;  135.525;    0.000
703.067; 3047.300;  169.525;    0.000
703.266; 3131.300;  125.525;    0.000
703.465; 3041.300;  153.525;    0.000
703.664; 3060.300;  113.525;    0.000
703.863; 3049.300;  170.525;    0.000
704.062; 3023.300;  115.525;    0.000
704.260; 3149.300;  133.525;    0.000
704.459; 3038.300;  123.525;    0.000
704.658; 2970.300;  105.525;    0.000
704.857; 3104.300;  125.525;    0.000
705.056; 3089.300;  108.525;    0.000
705.255; 3068.300;  117.525;    0.000
705.454; 2997.300;  126.525;    0.000
705.652; 3063.300;  137.525;    0.000
705.851; 3116.300;   95.525;    0.000
706.050; 3114.300;  120.525;    0.000
706.249; 3044.300;   81.525;    0.000
706.447; 3118.300;  105.525;    0.000
706.646; 3099.300;  107.525;    0.000
706.845; 3072.300;  104.525;    0.000
707.043; 3117.300;  136.525;    0.000
707.242; 3134.300;   89.525;    0.000
707.441; 3123.300;  147.525;    0.000
707.639; 3205.300;  156.525;    0.000
707.838; 3192.300;  114.525;    0.000
708.037; 3136.300;  100.525;    0.000
708.235; 3065.300;  103.525;    0.000
708.434; 3033.300;  102.525;    0.000
708.632; 3178.300;  100.525;    0.000
708.831; 3188.300;  121.525;    0.000
709.029; 3170.300;  102.525;    0.000
709.228; 3194.300;   88.525;    0.000
709.426; 3256.300;  135.525;    0.000
709.625; 3165.300;  128.525;    0.000
709.823; 3206.300;  123.525;    0.000
710.022; 3185.300;  137.525;    0.000
710.220; 3259.300;  134.525;    0.000
710.418; 3264.300;  122.525;    0.000
710.617; 3176.300;   64.525;    0.000
710.815; 3253.300;   94.525;    0.000
711.013; 3246.300;  127.525;    0.000
711.212; 3231.300;  105.525;    0.000
711.410; 3304.300;  117.525;    0.000
711.608; 3266.300;  114.525;    0.000
711.807; 3332.300;  119.525;    0.000
712.005; 3199.300;   92.525;    0.000
712.203; 3313.300;   95.525;    0.000
712.401; 3168.300;  107.525;    0.000
712.599; 3375.300;  127.525;    0.000
712.798; 3286.300;  120.525;    0.000
712.996; 3297.300;   76.525;    0.000
713.194; 3306.300;  118.525;    0.000
713.392; 3328.300;   60.525;    0.000
713.590; 3351.300;   92.525;    0.000
713.788; 3419.300;  110.525;    0.000
713.986; 3364.300;  130.525;    0.000
714.184; 3431.300;   71.525;    0.000
714.382; 3442.300;   86.525;    0.000
714.580; 3489.300;   74.525;    0.000
714.778; 3569.300;  133.525;    0.000
714.976; 3466.300;   81.525;    0.000
715.174; 3593.300;  100.525;    0.000
715.372; 3801.300;  141.525;    0.000
715.570; 3876.300;   73.525;    0.000
715.768; 4062.300;  119.525;    0.000
715.966; 4075.300;   81.525;    0.000
716.164; 4128.300;  130.525;    0.000
716.362; 4036.300;  125.525;    0.000
716.560; 4000.300;  109.525;    0.000
716.758; 3943.300;   96.525;    0.000
716.955; 3923.300;   83.525;    0.000
717.153; 3828.300;   87.525;    0.000
717.351; 3846.300;  123.525;    0.000
717.549; 3794.300;  121.525;    0.000
717.746; 3805.300;  128.525;    0.000
717.944; 3773.300;  132.525;    0.000
718.142; 3682.300;  120.525;    0.000
718.340; 3743.300;   94.525;    0.000
718.537; 3691.300;   95.525;    0.000
718.735; 3834.300;  152.525;    0.000
718.933; 3694.300;  124.525;    0.000
719.130; 3709.300;  114.525;    0.000
719.328; 3687.300;   63.525;    0.000
719.525; 3715.300;  146.525;    0.000
719.723; 3711.300;   96.525;    0.000
719.920; 3753.300;  120.525;    0.000
720.118; 3672.300;   59.525;    0.000
720.316; 3669.300;  116.525;    0.000
720.513; 3715.300;  127.525;    0.000
720.711; 3693.300;  110.525;    0.000
720.908; 3664.300;   92.525;    0.000
721.105; 3760.300;  138.525;    0.000
721.303; 3668.300;   90.525;    0.000
721.500; 3867.300;  126.525;    0.000
721.698; 3630.300;  103.525;    0.000
721.895; 3706.300;  206.525;    0.000
722.092; 3686.300;   63.525;    0.000
722.290; 3708.300;  123.525;    0.000
722.487; 3743.300;  137.525;    0.000
722.684; 3653.300;  126.525;    0.000
722.882; 3681.300;  119.525;    0.000
723.079; 3695.300;  132.525;    0.000
723.276; 3718.300;   98.525;    0.000
723.473; 3653.300;   97.525;    0.000
723.671; 3638.300;   43.525;    0.000
723.868; 3742.300;  142.525;    0.000
724.065; 3645.300;  102.525;    0.000
724.262; 3813.300;  119.525;    0.000
724.459; 3744.300;   73.525;    0.000
724.656; 3753.300;  128.525;    0.000
724.854; 3729.300;  135.525;    0.000
725.051; 3814.300;   81.525;    0.000
725.248; 3774.300;   88.525;    0.000
725.445; 3792.300;  129.525;    0.000
725.642; 3742.300;   76.525;    0.000
725.839; 3812.300;  134.525;    0.000
726.036; 3801.300;  101.525;    0.000
726.233; 3733.300;   68.525;    0.000
726.430; 3782.300;  121.525;    0.000
726.627; 3833.300;  136.525;    0.000
726.824; 3826.300;   87.525;    0.000
727.021; 3860.300;  141.525;    0.000
727.218; 3778.300;   92.525;    0.000
727.414; 3799.300;  121.525;    0.000
727.611; 3800.300;  100.525;    0.000
727.808; 3839.300;  130.525;    0.000
728.005; 3914.300;   83.525;    0.000
728.202; 3847.300;  120.525;    0.000
728.399; 3851.300;   75.525;    0.000
728.595; 3860.300;  148.525;    0.000
728.792; 3881.300;   79.525;    0.000
728.989; 3927.300;   86.525;    0.000
729.186; 3871.300;   80.525;    0.000
729.382; 3941.300;   72.525;    0.000
729.579; 3920.300;  112.525;    0.000
729.776; 3858.300;  106.525;    0.000
729.972; 3907.300;   77.525;    0.000
730.169; 3749.300;  118.525;    0.000
730.366; 3810.300;   92.525;    0.000
730.562; 3988.300;  104.525;    0.000
730.759; 3889.300;   95.525;    0.000
730.955; 3903.300;   85.525;    0.000
731.152; 3868.300;   79.525;    0.000
731.348; 3921.300;   72.525;    0.000
731.545; 3948.300;   56.525;    0.000
731.741; 3762.300;  106.525;    0.000
731.938; 4039.300;  113.525;    0.000
732.134; 3846.300;  106.525;    0.000
732.331; 3794.300;   82.525;    0.000
732.527; 3984.300;   80.525;    0.000
732.724; 4011.300;   97.525;    0.000
732.920; 3913.300;  127.525;    0.000
733.116; 3941.300;  115.525;    0.000
733.313; 3959.300;  153.525;    0.000
733.509; 3964.300;   76.525;    0.000
733.705; 4031.300;  159.525;    0.000
733.902; 3944.300;   82.525;    0.000
734.098; 3982.300;   70.525;    0.000
734.294; 3989.300;  105.525;    0.000
734.490; 3978.300;  110.525;    0.000
734.687; 3971.300;  102.525;    0.000
734.883; 4076.300;   77.525;    0.000
735.079; 4003.300;   93.525;    0.000
735.275; 4058.300;  109.525;    0.000
735.471; 4071.300;   99.525;    0.000
735.667; 4035.300;  107.525;    0.000
735.863; 4012.300;   89.525;    0.000
736.060; 4149.300;  105.525;    0.000
736.256; 4017.300;  113.525;    0.000
736.452; 4133.300;   90.525;    0.000
736.648; 4047.300;   88.525;    0.000
736.844; 4160.300;  129.525;    0.000
737.040; 4166.300;  139.525;    0.000
737.236; 4108.300;  129.525;    0.000
737.432; 4066.300;   67.525;    0.000
737.628; 4179.300;  104.525;    0.000
737.824; 4146.300;  111.525;    0.000
738.019; 4205.300;  116.525;    0.000
738.215; 4200.300;  135.525;    0.000
738.411; 4161.300;  118.525;    0.000
738.607; 4085.300;   58.525;    0.000
738.803; 4229.300;   32.525;    0.000
738.999; 4182.300;  120.525;    0.000
739.195; 4226.300;   76.525;    0.000
739.390; 4278.300;  119.525;    0.000
739.586; 4306.300;   83.525;    0.000
739.782; 4408.300;  134.525;    0.000
739.978; 4263.300;  122.525;    0.000
740.173; 4269.300;   96.525;    0.000
740.369; 4389.300;   86.525;    0.000
740.565; 4365.300;  122.525;    0.000
740.760; 4398.300;   99.525;    0.000
740.956; 4305.300;  137.525;    0.000
741.152; 4310.300;  108.525;    0.000
741.347; 4384.300;   65.525;    0.000
741.543; 4508.300;   73.525;    0.000
741.738; 4553.300;  142.525;    0.000
741.934; 4654.300;  131.525;    0.000
742.129; 4817.300;   66.525;    0.000
742.325; 5304.300;  143.525;    0.000
742.520; 5720.300;  119.525;    0.000
742.716; 5444.300;  109.525;    0.000
742.911; 5191.300;   62.525;    0.000
743.107; 5154.300;  119.525;    0.000
743.302; 5144.300;   78.525;    0.000
743.498; 5064.300;  130.525;    0.000
743.693; 5172.300;   75.525;    0.000
743.888; 5443.300;  135.525;    0.000
744.084; 5993.300;  106.525;    0.000
744.279; 7150.300;  101.525;    0.000
744.474; 7180.300;   91.525;    0.000
744.670; 6642.300;  144.525;    0.000
744.865; 6073.300;  128.525;    0.000
745.060; 5912.300;   63.525;    0.000
745.255; 5751.300;  155.525;    0.000
745.451; 5552.300;  110.525;    0.000
745.646; 5565.300;  150.525;    0.000
745.841; 5582.300;  128.525;    0.000
746.036; 5536.300;  110.525;    0.000
746.231; 5781.300;  126.525;    0.000
746.426; 5882.300;   83.525;    0.000
746.622; 6554.300;  157.525;    0.000
746.817; 8289.300;  112.525;    0.000
747.012; 9150.300;  115.525;    0.000
747.207; 8404.300;  161.525;    0.000
747.402; 7673.300;   88.525;    0.000
747.597; 7015.300;  103.525;    0.000
747.792; 6768.300;  152.525;    0.000
747.987; 6513.300;   80.525;    0.000
748.182; 6392.300;   89.525;    0.000
748.377; 6074.300;  104.525;    0.000
748.572; 6049.300;  138.525;    0.000
748.767; 5828.300;  100.525;    0.000
748.961; 5788.300;  106.525;    0.000
749.156; 5524.300;  113.525;    0.000
749.351; 5455.300;  116.525;    0.000
749.546; 5198.300;  107.525;    0.000
749.741; 5274.300;  102.525;    0.000
749.936; 5178.300;  105.525;    0.000
750.130; 5238.300;  111.525;    0.000
750.325; 5183.300;   72.525;    0.000
750.520; 5119.300;   96.525;    0.000
750.715; 5079.300;  135.525;    0.000
750.909; 5053.300;  107.525;    0.000
751.104; 5007.300;  106.525;    0.000
751.299; 4959.300;  144.525;    0.000
751.493; 5089.300;  116.525;    0.000
751.688; 4863.300;   96.525;    0.000
751.882; 4818.300;   92.525;    0.000
752.077; 4955.300;  109.525;    0.000
752.272; 4823.300;   96.525;    0.000
752.466; 4788.300;  110.525;    0.000
752.661; 4737.300;  120.525;    0.000
752.855; 4567.300;   70.525;    0.000
753.050; 4779.300;  129.525;    0.000
753.244; 4741.300;  126.525;    0.000
753.439; 4702.300;  115.525;    0.000
753.633; 4748.300;  120.525;    0.000
753.828; 4637.300;  129.525;    0.000
754.022; 4629.300;  139.525;    0.000
754.216; 4614.300;  121.525;    0.000
754.411; 4635.300;  108.525;    0.000
754.605; 4734.300;   94.525;    0.000
754.799; 4690.300;  125.525;    0.000
754.994; 4678.300;  160.525;    0.000
755.188; 4609.300;  151.525;    0.000
755.382; 4587.300;  102.525;    0.000
755.576; 4631.300;  103.525;    0.000
755.771; 4587.300;   99.525;    0.000
755.965; 4611.300;  158.525;    0.000
756.159; 4502.300;   96.525;    0.000
756.353; 4533.300;  157.525;    0.000
756.547; 4547.300;  132.525;    0.000
756.742; 4445.300;  106.525;    0.000
756.936; 4541.300;  113.525;    0.000
757.130; 4615.300;  114.525;    0.000
757.324; 4484.300;  111.525;    0.000
757.518; 4667.300;  142.525;    0.000
757.712; 4574.300;  137.525;    0.000
757.906; 4636.300;   93.525;    0.000
758.100; 4575.300;  119.525;    0.000
758.294; 4608.300;  132.525;    0.000
758.488; 4565.300;  153.525;    0.000
758.682; 4585.300;  101.525;    0.000
758.876; 4448.300;  129.525;    0.000
759.070; 4435.300;  168.525;    0.000
759.264; 4654.300;   96.525;    0.000
759.458; 4440.300;  117.525;    0.000
759.651; 4514.300;  135.525;    0.000
759.845; 4582.300;  127.525;    0.000
760.039; 4481.300;  120.525;    0.000
760.233; 4539.300;  124.525;    0.000
760.427; 4514.300;  115.525;    0.000
760.620; 4581.300;  130.525;    0.000
760.814; 4471.300;  102.525;    0.000
761.008; 4616.300;  174.525;    0.000
761.202; 4527.300;  132.525;    0.000
761.395; 4527.300;  126.525;    0.000
761.589; 4446.300;  133.525;    0.000
761.783; 4533.300;  147.525;    0.000
761.976; 4482.300;  147.525;    0.000
762.170; 4515.300;  174.525;    0.000
762.363; 4623.300;   97.525;    0.000
762.557; 4593.300;  141.525;    0.000
762.750; 4550.300;  112.525;    0.000
762.944; 4485.300;  110.525;    0.000
763.138; 4595.300;  125.525;    0.000
763.331; 4577.300;  101.525;    0.000
763.524; 4584.300;  101.525;    0.000
763.718; 4703.300;  156.525;    0.000
763.911; 4670.300;  143.525;    0.000
764.105; 4547.300;  139.525;    0.000
764.298; 4662.300;   89.525;    0.000
764.492; 4386.300;  111.525;    0.000
764.685; 4515.300;  136.525;    0.000
764.878; 4487.300;  146.525;    0.000
765.072; 4603.300;  110.525;    0.000
765.265; 4617.300;  141.525;    0.000
765.458; 4661.300;   82.525;    0.000
765.651; 4635.300;  144.525;    0.000
765.845; 4737.300;   79.525;    0.000
766.038; 4757.300;  123.525;    0.000
766.231; 5278.300;  125.525;    0.000
766.424; 7810.300;  131.525;    0.000
766.617; 7953.300;   62.525;    0.000
766.811; 5116.300;  142.525;    0.000
767.004; 4862.300;  134.525;    0.000
767.197; 4829.300;  147.525;    0.000
767.390; 4677.300;  100.525;    0.000
767.583; 4796.300;  121.525;    0.000
767.776; 4834.300;   91.525;    0.000
767.969; 4715.300;  113.525;    0.000
768.162; 4808.300;  170.525;    0.000
768.355; 4704.300;  134.525;    0.000
768.548; 4798.300;  177.525;    0.000
768.741; 4719.300;   96.525;    0.000
768.934; 4863.300;  143.525;    0.000
769.127; 4842.300;  147.525;    0.000
769.320; 4878.300;   93.525;    0.000
769.513; 5001.300;  137.525;    0.000
769.706; 5581.300;   96.525;    0.000
769.898; 7659.300;  118.525;    0.000
770.091; 6159.300;  138.525;    0.000
770.284; 5055.300;  133.525;    0.000
770.477; 5050.300;  137.525;    0.000
770.670; 5016.300;  124.525;    0.000
770.862; 5003.300;  125.525;    0.000
771.055; 5121.300;  135.525;    0.000
771.248; 5103.300;  109.525;    0.000
771.441; 5123.300;  141.525;    0.000
771.633; 5170.300;  142.525;    0.000
771.826; 5221.300;  123.525;    0.000
772.018; 5224.300;  136.525;    0.000
772.211; 5233.300;  145.525;    0.000
772.404; 5403.300;  127.525;    0.000
772.596; 5289.300;  193.525;    0.000
772.789; 5426.300;   64.525;    0.000
772.981; 5460.300;  142.525;    0.000
773.174; 5520.300;  105.525;    0.000
773.366; 5555.300;  166.525;    0.000
773.559; 5614.300;  125.525;    0.000
773.751; 5717.300;  126.525;    0.000
773.944; 5884.300;  147.525;    0.000
774.136; 5914.300;  155.525;    0.000
774.329; 6177.300;  127.525;    0.000
774.521; 6181.300;  133.525;    0.000
774.713; 6218.300;  139.525;    0.000
774.906; 6444.300;  170.525;    0.000
775.098; 6795.300;  144.525;    0.000
775.290; 7144.300;  162.525;    0.000
775.483; 7400.300;  137.525;    0.000
775.675; 7759.300;  148.525;    0.000
775.867; 8164.300;   81.525;    0.000
776.059; 9037.300;  134.525;    0.000
776.251; 9844.300;  137.525;    0.000
776.444;11116.300;  155.525;    0.000
776.636;12717.300;  148.525;    0.000
776.828;15602.300;  129.525;    0.000
777.020;21736.301;  133.525;    0.000
777.212;31380.301;  137.525;    0.000
777.404;35098.301;  124.525;    0.000
777.596;32810.301;  142.525;    0.000
777.788;24925.301;  155.525;    0.000
777.980;18962.301;  119.525;    0.000
778.172;15892.300;  129.525;    0.000
778.364;13715.300;  122.525;    0.000
778.556;12123.300;  129.525;    0.000
778.748;10842.300;  178.525;    0.000
778.940;10019.300;  128.525;    0.000
779.132; 9306.300;  145.525;    0.000
779.324; 8681.300;   89.525;    0.000
779.516; 8049.300;  161.525;    0.000
779.708; 7823.300;  183.525;    0.000
779.900; 7399.300;  124.525;    0.000
780.091; 7051.300;  143.525;    0.000
780.283; 6790.300;  135.525;    0.000
780.475; 6648.300;  129.525;    0.000
780.667; 6375.300;  178.525;    0.000
780.859; 6207.300;  146.525;    0.000
781.050; 6057.300;  156.525;    0.000
781.242; 5927.300;  138.525;    0.000
781.434; 5826.300;  117.525;    0.000
781.625; 5739.300;  161.525;    0.000
781.817; 5685.300;  127.525;    0.000
782.008; 5406.300;  138.525;    0.000
782.200; 5427.300;  139.525;    0.000
782.392; 5401.300;  179.525;    0.000
782.583; 5289.300;  137.525;    0.000
782.775; 5262.300;  162.525;    0.000
782.966; 5205.300;  159.525;    0.000
783.158; 5235.300;  118.525;    0.000
783.349; 5166.300;  160.525;    0.000
783.541; 5056.300;  139.525;    0.000
783.732; 5021.300;  145.525;    0.000
783.924; 4914.300;  146.525;    0.000
784.115; 4945.300;  125.525;    0.000
784.306; 4861.300;  118.525;    0.000
784.498; 4882.300;  144.525;    0.000
784.689; 4884.300;  145.525;    0.000
784.880; 4895.300;  137.525;    0.000
785.072; 4770.300;  157.525;    0.000
785.263; 4842.300;  149.525;    0.000
785.454; 4719.300;  128.525;    0.000
785.645; 4634.300;  131.525;    0.000
785.837; 4733.300;  137.525;    0.000
786.028; 4701.300;  161.525;    0.000
786.219; 4659.300;  155.525;    0.000
786.410; 4699.300;  146.525;    0.000
786.601; 4739.300;  120.525;    0.000
786.792; 4732.300;  179.525;    0.000
786.984; 4746.300;  113.525;    0.000
787.175; 4679.300;  156.525;    0.000
787.366; 4641.300;  131.525;    0.000
787.557; 4663.300;  138.525;    0.000
787.748; 4590.300;  112.525;    0.000
787.939; 4601.300;  115.525;    0.000
788.130; 4711.300;  150.525;    0.000
788.321; 4582.300;  122.525;    0.000
788.512; 4711.300;  147.525;    0.000
788.703; 4711.300;  126.525;    0.000
788.894; 4822.300;   80.525;    0.000
789.084; 4753.300;  127.525;    0.000
789.275; 4699.300;  141.525;    0.000
789.466; 4669.300;  108.525;    0.000
789.657; 4695.300;  137.525;    0.000
789.848; 4751.300;  126.525;    0.000
790.039; 4584.300;  144.525;    0.000
790.229; 4685.300;  105.525;    0.000
790.420; 4758.300;   96.525;    0.000
790.611; 4721.300;  171.525;    0.000
790.801; 4677.300;   89.525;    0.000
790.992; 4828.300;  140.525;    0.000
791.183; 4718.300;  143.525;    0.000
791.373; 4623.300;  128.525;    0.000
791.564; 4678.300;   96.525;    0.000
791.755; 4726.300;  111.525;    0.000
791.945; 4594.300;  112.525;    0.000
792.136; 4659.300;  124.525;    0.000
792.326; 4775.300;   88.525;    0.000
792.517; 4759.300;  130.525;    0.000
792.707; 4737.300;  144.525;    0.000
792.898; 4823.300;  120.525;    0.000
793.088; 4883.300;  106.525;    0.000
793.279; 4877.300;  104.525;    0.000
793.469; 4947.300;  103.525;    0.000
793.660; 4936.300;  120.525;    0.000
793.850; 5153.300;  106.525;    0.000
794.040; 5255.300;  135.525;    0.000
794.231; 5450.300;   80.525;    0.000
794.421; 5825.300;  120.525;    0.000
794.611; 6390.300;  154.525;    0.000
794.802; 7274.300;  103.525;    0.000
794.992; 7551.300;  120.525;    0.000
795.182; 7697.300;  156.525;    0.000
795.372; 7416.300;  104.525;    0.000
795.563; 6917.300;  153.525;    0.000
795.753; 6257.300;  112.525;    0.000
795.943; 6039.300;  128.525;    0.000
796.133; 5582.300;  128.525;    0.000
796.323; 5362.300;  152.525;    0.000
796.513; 5198.300;  123.525;    0.000
796.703; 5254.300;  134.525;    0.000
796.893; 5169.300;  120.525;    0.000
797.083; 5015.300;  136.525;    0.000
797.273; 4979.300;  128.525;    0.000
797.463; 4891.300;  140.525;    0.000
797.653; 4775.300;   75.525;    0.000
797.843; 4716.300;  114.525;    0.000
798.033; 4759.300;   90.525;    0.000
798.223; 4507.300;  136.525;    0.000
798.413; 4549.300;  164.525;    0.000
798.603; 4363.300;  150.525;    0.000
798.793; 4446.300;  137.525;    0.000
798.983; 4371.300;  119.525;    0.000
799.172; 4349.300;  136.525;    0.000
799.362; 4392.300;  138.525;    0.000
799.552; 4333.300;  123.525;    0.000
799.742; 4265.300;  117.525;    0.000
799.932; 4235.300;  108.525;    0.000
800.121; 4228.300;  152.525;    0.000
800.311; 4336.300;  117.525;    0.000
800.501; 4048.300;  100.525;    0.000
800.690; 4174.300;  139.525;    0.000
800.880; 4223.300;  138.525;    0.000
801.070; 4200.300;  120.525;    0.000
801.259; 4066.300;  143.525;    0.000
801.449; 4186.300;  110.525;    0.000
801.638; 4265.300;  140.525;    0.000
801.828; 4223.300;  103.525;    0.000
802.017; 4304.300;   78.525;    0.000
802.207; 4111.300;  126.525;    0.000
802.396; 4167.300;  151.525;    0.000
802.586; 4122.300;  106.525;    0.000
802.775; 4155.300;  152.525;    0.000
802.965; 4098.300;  117.525;    0.000
803.154; 4077.300;  171.525;    0.000
803.343; 4017.300;  126.525;    0.000
803.533; 4153.300;  135.525;    0.000
803.722; 4117.300;  144.525;    0.000
803.911; 4039.300;  109.525;    0.000
804.101; 4224.300;  146.525;    0.000
804.290; 4126.300;  115.525;    0.000
804.479; 4162.300;  128.525;    0.000
804.668; 4140.300;  156.525;    0.000
804.857; 4105.300;  151.525;    0.000
805.047; 4072.300;  131.525;    0.000
805.236; 4103.300;  144.525;    0.000
805.425; 4091.300;  160.525;    0.000
805.614; 4154.300;  112.525;    0.000
805.803; 4278.300;  120.525;    0.000
805.992; 4030.300;  148.525;    0.000
806.181; 4065.300;  108.525;    0.000
806.370; 4217.300;  142.525;    0.000
806.559; 4195.300;  116.525;    0.000
806.748; 4145.300;  108.525;    0.000
806.937; 4243.300;  110.525;    0.000
807.126; 4122.300;  126.525;    0.000
807.315; 4104.300;  121.525;    0.000
807.504; 4149.300;  102.525;    0.000
807.693; 4180.300;  134.525;    0.000
807.882; 4143.300;  135.525;    0.000
808.071; 4145.300;  135.525;    0.000
808.260; 4202.300;   93.525;    0.000
808.448; 4224.300;  151.525;    0.000
808.637; 4286.300;  105.525;    0.000
808.826; 4215.300;  178.525;    0.000
809.015; 4256.300;  152.525;    0.000
809.203; 4357.300;  147.525;    0.000
809.392; 4184.300;  144.525;    0.000
809.581; 4413.300;  167.525;    0.000
809.770; 4393.300;  151.525;    0.000
809.958; 4334.300;  128.525;    0.000
810.147; 4250.300;  152.525;    0.000
810.335; 4272.300;  160.525;    0.000
810.524; 4368.300;  130.525;    0.000
810.713; 4550.300;  128.525;    0.000
810.901; 4579.300;  140.525;    0.000
811.090; 4529.300;  152.525;    0.000
811.278; 4542.300;  126.525;    0.000
811.467; 4618.300;  161.525;    0.000
811.655; 4761.300;  184.525;    0.000
811.844; 4593.300;  148.525;    0.000
812.032; 4848.300;  138.525;    0.000
812.220; 4883.300;  157.525;    0.000
812.409; 4769.300;  143.525;    0.000
812.597; 4880.300;  124.525;    0.000
812.785; 4832.300;  170.525;    0.000
812.974; 4942.300;  135.525;    0.000
813.162; 4891.300;  135.525;    0.000
813.350; 5016.300;  182.525;    0.000
813.539; 5052.300;  126.525;    0.000
813.727; 5214.300;  127.525;    0.000
813.915; 5091.300;  140.525;    0.000
814.103; 5237.300;  176.525;    0.000
814.291; 5348.300;  115.525;    0.000
814.479; 5366.300;  119.525;    0.000
814.668; 5445.300;  134.525;    0.000
814.856; 5503.300;  120.525;    0.000
815.044; 5608.300;  164.525;    0.000
815.232; 5670.300;  146.525;    0.000
815.420; 5887.300;  154.525;    0.000
815.608; 5866.300;  137.525;    0.000
815.796; 6051.300;  108.525;    0.000
815.984; 6288.300;  134.525;    0.000
816.172; 6529.300;  123.525;    0.000
816.360; 6625.300;  181.525;    0.000
816.548; 7079.300;  139.525;    0.000
816.736; 7295.300;  138.525;    0.000
816.924; 7752.300;  151.525;    0.000
817.111; 8176.300;  156.525;    0.000
817.299; 8932.300;  147.525;    0.000
817.487; 9651.300;  188.525;    0.000
817.675;10773.300;  129.525;    0.000
817.863;12674.300;  128.525;    0.000
818.050;17244.301;  110.525;    0.000
818.238;29254.301;  166.525;    0.000
818.426;39453.301;  136.525;    0.000
818.613;30566.301;  143.525;    0.000
818.801;24943.301;  150.525;    0.000
818.989;23720.301;  179.525;    0.000
819.176;25709.301;  123.525;    0.000
819.364;35760.301;  148.525;    0.000
819.552;47527.301;   86.525;    0.000
819.739;37633.301;  169.525;    0.000
819.927;28870.301;  130.525;    0.000
820.114;23896.301;  144.525;    0.000
820.302;20868.301;  166.525;    0.000
820.489;18305.301;  145.525;    0.000
820.677;16624.301;  101.525;    0.000
820.864;15593.300;  149.525;    0.000
821.052;15290.300;  130.525;    0.000
821.239;14912.300;  147.525;    0.000
821.426;14868.300;  121.525;    0.000
821.614;16156.300;  187.525;    0.000
821.801;16646.301;  105.525;    0.000
821.988;14877.300;  167.525;    0.000
822.176;14316.300;  130.525;    0.000
822.363;14012.300;  143.525;    0.000
822.550;13244.300;  108.525;    0.000
822.737;12085.300;  109.525;    0.000
822.924;11462.300;  156.525;    0.000
823.112;10934.300;  123.525;    0.000
823.299;10260.300;  128.525;    0.000
823.486; 9876.300;  138.525;    0.000
823.673; 9360.300;  125.525;    0.000
823.860; 9019.300;  138.525;    0.000
824.047; 8917.300;  122.525;    0.000
824.234; 9508.300;  134.525;    0.000
824.421; 9562.300;   95.525;    0.000
824.608; 8676.300;  151.525;    0.000
824.795; 8231.300;  117.525;    0.000
824.982; 7870.300;  143.525;    0.000
825.169; 7312.300;   83.525;    0.000
825.356; 7019.300;  126.525;    0.000
825.543; 6810.300;   92.525;    0.000
825.730; 6513.300;  113.525;    0.000
825.917; 6389.300;  142.525;    0.000
826.104; 6186.300;  182.525;    0.000
826.290; 5939.300;  137.525;    0.000
826.477; 5845.300;  126.525;    0.000
826.664; 5662.300;  135.525;    0.000
826.851; 5454.300;  139.525;    0.000
827.038; 5429.300;  135.525;    0.000
827.224; 5349.300;  143.525;    0.000
827.411; 5414.300;  153.525;    0.000
827.598; 5157.300;  122.525;    0.000
827.784; 5113.300;  138.525;    0.000
827.971; 5064.300;  134.525;    0.000
828.157; 4902.300;  152.525;    0.000
828.344; 4819.300;  135.525;    0.000
828.531; 4850.300;  137.525;    0.000
828.717; 4654.300;  117.525;    0.000
828.904; 4556.300;  127.525;    0.000
829.090; 4575.300;  172.525;    0.000
829.277; 4491.300;  144.525;    0.000
829.463; 4367.300;  159.525;    0.000
829.650; 4367.300;  187.525;    0.000
829.836; 4274.300;  138.525;    0.000
830.022; 4229.300;  196.525;    0.000
830.209; 4235.300;  118.525;    0.000
830.395; 4193.300;  148.525;    0.000
830.581; 4211.300;  108.525;    0.000
830.768; 4103.300;  137.525;    0.000
830.954; 4062.300;  162.525;    0.000
831.140; 3999.300;  117.525;    0.000
831.327; 4008.300;  176.525;    0.000
831.513; 4043.300;  162.525;    0.000
831.699; 3959.300;  157.525;    0.000
831.885; 3847.300;  153.525;    0.000
832.071; 3765.300;  123.525;    0.000
832.257; 3904.300;  142.525;    0.000
832.444; 3741.300;  165.525;    0.000
832.630; 3685.300;  159.525;    0.000
832.816; 3683.300;  145.525;    0.000
833.002; 3708.300;  120.525;    0.000
833.188; 3650.300;  145.525;    0.000
833.374; 3606.300;  137.525;    0.000
833.560; 3552.300;  152.525;    0.000
833.746; 3567.300;  139.525;    0.000
833.932; 3586.300;  170.525;    0.000
834.118; 3477.300;  111.525;    0.000
834.303; 3487.300;  141.525;    0.000
834.489; 3412.300;  146.525;    0.000
834.675; 3573.300;  156.525;    0.000
834.861; 3411.300;   87.525;    0.000
835.047; 3460.300;  134.525;    0.000
835.233; 3327.300;   89.525;    0.000
835.418; 3408.300;  145.525;    0.000
835.604; 3346.300;  136.525;    0.000
835.790; 3311.300;  132.525;    0.000
835.976; 3304.300;  161.525;    0.000
836.161; 3301.300;  157.525;    0.000
836.347; 3260.300;  147.525;    0.000
836.533; 3317.300;  116.525;    0.000
836.718; 3303.300;  168.525;    0.000
836.904; 3356.300;  199.525;    0.000
837.089; 3226.300;  165.525;    0.000
837.275; 3304.300;  166.525;    0.000
837.460; 3210.300;  144.525;    0.000
837.646; 3331.300;  164.525;    0.000
837.831; 3206.300;  122.525;    0.000
838.017; 3231.300;  163.525;    0.000
838.202; 3202.300;  139.525;    0.000
838.388; 3235.300;  174.525;    0.000
838.573; 3297.300;  140.525;    0.000
838.759; 3239.300;  167.525;    0.000
838.944; 3175.300;  142.525;    0.000
839.129; 3139.300;  164.525;    0.000
839.315; 3137.300;  129.525;    0.000
839.500; 3192.300;  150.525;    0.000
839.685; 3161.300;  118.525;    0.000
839.870; 3147.300;  177.525;    0.000
840.056; 3171.300;  144.525;    0.000
840.241; 3116.300;  121.525;    0.000
840.426; 3160.300;  131.525;    0.000
840.611; 3186.300;  177.525;    0.000
840.796; 3209.300;  173.525;    0.000
840.981; 3351.300;  156.525;    0.000
841.166; 3220.300;  145.525;    0.000
841.352; 3368.300;  150.525;    0.000
841.537; 3289.300;  143.525;    0.000
841.722; 3310.300;  165.525;    0.000
841.907; 3277.300;  184.525;    0.000
842.092; 3398.300;  171.525;    0.000
842.277; 3410.300;  155.525;    0.000
842.461; 3498.300;  152.525;    0.000
842.646; 3529.300;  107.525;    0.000
842.831; 3494.300;  160.525;    0.000
843.016; 3687.300;  160.525;    0.000
843.201; 3689.300;  164.525;    0.000
843.386; 3853.300;  134.525;    0.000
843.571; 4048.300;  132.525;    0.000
843.755; 4125.300;  158.525;    0.000
843.940; 4485.300;  152.525;    0.000
844.125; 5000.300;  154.525;    0.000
844.310; 5870.300;  147.525;    0.000
844.494; 7440.300;  158.525;    0.000
844.679; 9702.300;  173.525;    0.000
844.864; 9658.300;  152.525;    0.000
845.048; 8132.300;  139.525;    0.000
845.233; 6921.300;  200.525;    0.000
845.418; 6046.300;  139.525;    0.000
845.602; 5461.300;  147.525;    0.000
845.787; 5061.300;  148.525;    0.000
845.971; 4698.300;  170.525;    0.000
846.156; 4380.300;  136.525;    0.000
846.340; 4223.300;  146.525;    0.000
846.525; 4044.300;  188.525;    0.000
846.709; 3868.300;  128.525;    0.000
846.893; 3775.300;  151.525;    0.000
847.078; 3614.300;  164.525;    0.000
847.262; 3451.300;  155.525;    0.000
847.447; 3408.300;  114.525;    0.000
847.631; 3272.300;  148.525;    0.000
847.815; 3299.300;  114.525;    0.000
848.000; 3235.300;  134.525;    0.000
848.184; 3199.300;  154.525;    0.000
848.368; 3208.300;  145.525;    0.000
848.552; 3070.300;  122.525;    0.000
848.736; 3045.300;  139.525;    0.000
848.921; 3055.300;  143.525;    0.000
849.105; 3055.300;  145.525;    0.000
849.289; 2912.300;  173.525;    0.000
849.473; 2955.300;  147.525;    0.000
849.657; 2834.300;  144.525;    0.000
849.841; 2915.300;  168.525;    0.000
850.025; 2883.300;  205.525;    0.000
850.209; 2778.300;  171.525;    0.000
850.393; 2753.300;  130.525;    0.000
850.577; 2789.300;  146.525;    0.000
850.761; 2831.300;  188.525;    0.000
850.945; 2751.300;  137.525;    0.000
851.129; 2837.300;  192.525;    0.000
851.313; 2776.300;  199.525;    0.000
851.497; 2612.300;  165.525;    0.000
851.680; 2765.300;  196.525;    0.000
851.864; 2771.300;  169.525;    0.000
852.048; 2716.300;  156.525;    0.000
852.232; 2736.300;  150.525;    0.000
852.416; 2816.300;  219.525;    0.000
852.599; 2730.300;  168.525;    0.000
852.783; 2689.300;  165.525;    0.000
852.967; 2748.300;  166.525;    0.000
853.150; 2730.300;  191.525;    0.000
853.334; 2626.300;  158.525;    0.000
853.518; 2603.300;  168.525;    0.000
853.701; 2694.300;  125.525;    0.000
853.885; 2656.300;  165.525;    0.000
854.068; 2607.300;  142.525;    0.000
854.252; 2591.300;  167.525;    0.000
854.435; 2653.300;  146.525;    0.000
854.619; 2689.300;  163.525;    0.000
854.802; 2630.300;  167.525;    0.000
854.986; 2625.300;  163.525;    0.000
855.169; 2507.300;  146.525;    0.000
855.353; 2716.300;  183.525;    0.000
855.536; 2576.300;  140.525;    0.000
855.719; 2595.300;  168.525;    0.000
855.903; 2664.300;  170.525;    0.000
856.086; 2619.300;  145.525;    0.000
856.269; 2682.300;  126.525;    0.000
856.452; 2696.300;  142.525;    0.000
856.636; 2769.300;  140.525;    0.000
856.819; 2862.300;  127.525;    0.000
857.002; 2995.300;  165.525;    0.000
857.185; 2931.300;  111.525;    0.000
857.368; 2848.300;  143.525;    0.000
857.552; 2724.300;  174.525;    0.000
857.735; 2751.300;  194.525;    0.000
857.918; 2757.300;  171.525;    0.000
858.101; 2715.300;  142.525;    0.000
858.284; 2818.300;  118.525;    0.000
858.467; 2842.300;  163.525;    0.000
858.650; 2905.300;  149.525;    0.000
858.833; 2958.300;  120.525;    0.000
859.016; 2927.300;  169.525;    0.000
859.199; 2937.300;  121.525;    0.000
859.382; 3229.300;  184.525;    0.000
859.564; 3450.300;  139.525;    0.000
859.747; 3395.300;  126.525;    0.000
859.930; 3223.300;  109.525;    0.000
860.113; 3184.300;  137.525;    0.000
860.296; 3102.300;  182.525;    0.000
860.478; 2947.300;  136.525;    0.000
860.661; 3085.300;  157.525;    0.000
860.844; 3063.300;  129.525;    0.000
861.027; 2908.300;  163.525;    0.000
861.209; 2917.300;  151.525;    0.000
861.392; 3013.300;  124.525;    0.000
861.575; 2988.300;  163.525;    0.000
861.757; 2955.300;  205.525;    0.000
861.940; 3026.300;  180.525;    0.000
862.122; 2996.300;  148.525;    0.000
862.305; 3074.300;  128.525;    0.000
862.487; 3204.300;  172.525;    0.000
862.670; 3389.300;  123.525;    0.000
862.852; 3811.300;  126.525;    0.000
863.035; 4670.300;  174.525;    0.000
863.217; 4431.300;  160.525;    0.000
863.400; 4212.300;  164.525;    0.000
863.582; 3974.300;  118.525;    0.000
863.764; 3781.300;  143.525;    0.000
863.947; 3549.300;  137.525;    0.000
864.129; 3517.300;  166.525;    0.000
864.311; 3354.300;  128.525;    0.000
864.493; 3347.300;  153.525;    0.000
864.676; 3474.300;  156.525;    0.000
864.858; 3334.300;  159.525;    0.000
865.040; 3248.300;  163.525;    0.000
865.222; 3279.300;  138.525;    0.000
865.404; 3369.300;  157.525;    0.000
865.587; 3459.300;  184.525;    0.000
865.769; 3577.300;  178.525;    0.000
865.951; 3600.300;  104.525;    0.000
866.133; 3647.300;  147.525;    0.000
866.315; 3634.300;  141.525;    0.000
866.497; 3729.300;  132.525;    0.000
866.679; 3726.300;  139.525;    0.000
866.861; 3818.300;  118.525;    0.000
867.043; 4161.300;  154.525;    0.000
867.225; 4225.300;  147.525;    0.000
867.407; 4524.300;  158.525;    0.000
867.589; 5103.300;  172.525;    0.000
867.770; 6017.300;  159.525;    0.000
867.952; 8222.300;  149.525;    0.000
868.134;10352.300;  156.525;    0.000
868.316;10416.300;  171.525;    0.000
868.498;10037.300;  200.525;    0.000
868.679; 8668.300;  174.525;    0.000
868.861; 7467.300;  175.525;    0.000
869.043; 6316.300;  174.525;    0.000
869.224; 5666.300;  122.525;    0.000
869.406; 5232.300;  166.525;    0.000
869.588; 4932.300;  143.525;    0.000
869.769; 4709.300;  152.525;    0.000
869.951; 4578.300;  165.525;    0.000
870.132; 4579.300;  115.525;    0.000
870.314; 4968.300;  139.525;    0.000
870.495; 5118.300;  168.525;    0.000
870.677; 4778.300;  188.525;    0.000
870.858; 4511.300;  123.525;    0.000
871.040; 4779.300;  170.525;    0.000
871.221; 5168.300;  148.525;    0.000
871.403; 5045.300;  140.525;    0.000
871.584; 4601.300;  174.525;    0.000
871.765; 4803.300;  168.525;    0.000
871.947; 5057.300;  191.525;    0.000
872.128; 4496.300;  132.525;    0.000
872.309; 4102.300;  140.525;    0.000
872.491; 3780.300;  157.525;    0.000
872.672; 3511.300;  130.525;    0.000
872.853; 3628.300;  148.525;    0.000
873.034; 3458.300;  138.525;    0.000
873.215; 3277.300;  152.525;    0.000
873.396; 3100.300;  149.525;    0.000
873.578; 2999.300;  173.525;    0.000
873.759; 3008.300;  158.525;    0.000
873.940; 2917.300;  147.525;    0.000
874.121; 2800.300;  136.525;    0.000
874.302; 2750.300;  151.525;    0.000
874.483; 2683.300;  137.525;    0.000
874.664; 2730.300;  163.525;    0.000
874.845; 2756.300;  124.525;    0.000
875.026; 2694.300;  134.525;    0.000
875.207; 2537.300;  164.525;    0.000
875.388; 2557.300;  163.525;    0.000
875.568; 2553.300;  176.525;    0.000
875.749; 2620.300;  108.525;    0.000
875.930; 2623.300;  191.525;    0.000
876.111; 2458.300;  170.525;    0.000
876.292; 2514.300;  180.525;    0.000
876.472; 2434.300;  150.525;    0.000
876.653; 2428.300;  162.525;    0.000
876.834; 2385.300;  176.525;    0.000
877.015; 2461.300;  203.525;    0.000
877.195; 2389.300;  178.525;    0.000
877.376; 2395.300;  141.525;    0.000
877.556; 2370.300;  135.525;    0.000
877.737; 2346.300;  174.525;    0.000
877.918; 2390.300;  150.525;    0.000
878.098; 2288.300;  133.525;    0.000
878.279; 2373.300;  129.525;    0.000
878.459; 2373.300;  162.525;    0.000
878.640; 2389.300;  187.525;    0.000
878.820; 2205.300;  151.525;    0.000
879.000; 2158.300;  159.525;    0.000
879.181; 2264.300;  171.525;    0.000
879.361; 2258.300;  167.525;    0.000
879.542; 2208.300;  126.525;    0.000
879.722; 2198.300;  152.525;    0.000
879.902; 2185.300;  144.525;    0.000
880.083; 2316.300;  154.525;    0.000
880.263; 2381.300;  148.525;    0.000
880.443; 2378.300;  185.525;    0.000
880.623; 2785.300;  172.525;    0.000
880.803; 2964.300;  152.525;    0.000
880.984; 2740.300;  165.525;    0.000
881.164; 2562.300;  164.525;    0.000
881.344; 2521.300;  141.525;    0.000
881.524; 2424.300;  160.525;    0.000
881.704; 2476.300;  164.525;    0.000
881.884; 2454.300;  159.525;    0.000
882.064; 2625.300;  158.525;    0.000
882.244; 2616.300;  147.525;    0.000
882.424; 2528.300;  160.525;    0.000
882.604; 2434.300;  150.525;    0.000
882.784; 2343.300;  138.525;    0.000
882.964; 2400.300;  157.525;    0.000
883.144; 2270.300;  128.525;    0.000
883.324; 2344.300;  220.525;    0.000
883.504; 2321.300;  177.525;    0.000
883.683; 2237.300;  159.525;    0.000
883.863; 2256.300;  143.525;    0.000
884.043; 2107.300;  156.525;    0.000
884.223; 2168.300;  152.525;    0.000
884.402; 2184.300;  169.525;    0.000
884.582; 2154.300;  162.525;    0.000
884.762; 2190.300;  172.525;    0.000
884.941; 2169.300;  220.525;    0.000
885.121; 2032.300;  128.525;    0.000
885.301; 2102.300;  141.525;    0.000
885.480; 2127.300;  141.525;    0.000
885.660; 2105.300;  132.525;    0.000
885.839; 2128.300;  146.525;    0.000
886.019; 2158.300;  170.525;    0.000
886.198; 2079.300;  143.525;    0.000
886.378; 2081.300;  159.525;    0.000
886.557; 2004.300;  148.525;    0.000
886.737; 2148.300;  125.525;    0.000
886.916; 2091.300;  177.525;    0.000
887.095; 2019.300;  186.525;    0.000
887.275; 2012.300;  134.525;    0.000
887.454; 2090.300;  148.525;    0.000
887.633; 1980.300;  171.525;    0.000
887.813; 2023.300;  187.525;    0.000
887.992; 2037.300;  157.525;    0.000
888.171; 1898.300;  143.525;    0.000
888.350; 2051.300;  182.525;    0.000
888.530; 1994.300;  142.525;    0.000
888.709; 2049.300;  160.525;    0.000
888.888; 2062.300;  197.525;    0.000
889.067; 2005.300;  126.525;    0.000
889.246; 2055.300;  197.525;    0.000
889.425; 2061.300;  161.525;    0.000
889.604; 2018.300;  180.525;    0.000
889.783; 2121.300;  135.525;    0.000
889.962; 1922.300;  107.525;    0.000
890.141; 2013.300;  167.525;    0.000
890.320; 2034.300;  149.525;    0.000
890.499; 2029.300;  194.525;    0.000
890.678; 2020.300;  138.525;    0.000
890.857; 2045.300;  146.525;    0.000
891.036; 1960.300;  178.525;    0.000
891.214; 1963.300;  151.525;    0.000
891.393; 2034.300;  137.525;    0.000
891.572; 2080.300;  177.525;    0.000
891.751; 1992.300;  149.525;    0.000
891.930; 1984.300;  189.525;    0.000
892.108; 2001.300;  136.525;    0.000
892.287; 1987.300;  129.525;    0.000
892.466; 2024.300;  163.525;    0.000
892.644; 1980.300;  147.525;    0.000
892.823; 2006.300;  127.525;    0.000
893.001; 2020.300;  192.525;    0.000
893.180; 2013.300;  157.525;    0.000
893.359; 1944.300;  176.525;    0.000
893.537; 2016.300;  146.525;    0.000
893.716; 2061.300;  154.525;    0.000
893.894; 1992.300;  166.525;    0.000
894.073; 2004.300;  163.525;    0.000
894.251; 1980.300;  166.525;    0.000
894.429; 1972.300;  149.525;    0.000
894.608; 2030.300;  141.525;    0.000
894.786; 2012.300;  139.525;    0.000
894.964; 2010.300;  180.525;    0.000
895.143; 1996.300;  193.525;    0.000
895.321; 2008.300;  163.525;    0.000
895.499; 2067.300;  163.525;    0.000
895.677; 2004.300;  194.525;    0.000
895.856; 1993.300;  176.525;    0.000
896.034; 1994.300;  173.525;    0.000
896.212; 2012.300;  180.525;    0.000
896.390; 1987.300;  146.525;    0.000
896.568; 2002.300;  167.525;    0.000
896.746; 1942.300;  158.525;    0.000
896.924; 2059.300;  163.525;    0.000
897.102; 1974.300;  170.525;    0.000
897.280; 2009.300;  159.525;    0.000
897.458; 2027.300;  182.525;    0.000
897.636; 1999.300;  151.525;    0.000
897.814; 2051.300;  130.525;    0.000
897.992; 2099.300;  213.525;    0.000
898.170; 1990.300;  164.525;    0.000
898.348; 2023.300;  159.525;    0.000
898.526; 2017.300;  182.525;    0.000
898.704; 2099.300;  209.525;    0.000
898.882; 2045.300;  145.525;    0.000
899.059; 2045.300;  172.525;    0.000
899.237; 2103.300;  172.525;    0.000
899.415; 2066.300;  211.525;    0.000
899.593; 2063.300;  151.525;    0.000
899.770; 2090.300;  147.525;    0.000
899.948; 2046.300;  218.525;    0.000
900.125; 2131.300;  166.525;    0.000
900.303; 2061.300;  146.525;    0.000
900.481; 2083.300;  174.525;    0.000
900.658; 2141.300;  198.525;    0.000
900.836; 2139.300;  125.525;    0.000
901.013; 2143.300;  197.525;    0.000
901.191; 2196.300;  181.525;    0.000
901.368; 2179.300;  185.525;    0.000
901.546; 2130.300;  197.525;    0.000
901.723; 2241.300;  205.525;    0.000
901.901; 2207.300;  187.525;    0.000
902.078; 2358.300;  163.525;    0.000
902.255; 2227.300;  141.525;    0.000
902.433; 2269.300;  183.525;    0.000
902.610; 2362.300;  181.525;    0.000
902.787; 2309.300;  174.525;    0.000
902.964; 2347.300;  174.525;    0.000
903.142; 2363.300;  141.525;    0.000
903.319; 2420.300;  214.525;    0.000
903.496; 2517.300;  187.525;    0.000
903.673; 2490.300;  183.525;    0.000
903.850; 2539.300;  125.525;    0.000
904.027; 2567.300;  197.525;    0.000
904.204; 2676.300;  197.525;    0.000
904.381; 2806.300;  196.525;    0.000
904.558; 3221.300;  176.525;    0.000
904.735; 3469.300;  179.525;    0.000
904.912; 3491.300;  203.525;    0.000
905.089; 3514.300;  159.525;    0.000
905.266; 3267.300;  176.525;    0.000
905.443; 3090.300;  184.525;    0.000
905.620; 2926.300;  168.525;    0.000
905.797; 2935.300;  214.525;    0.000
905.974; 2755.300;  154.525;    0.000
906.151; 2669.300;  132.525;    0.000
906.327; 2821.300;  192.525;    0.000
906.504; 2731.300;  186.525;    0.000
906.681; 2605.300;  171.525;    0.000
906.858; 2549.300;  181.525;    0.000
907.034; 2514.300;  164.525;    0.000
907.211; 2534.300;  184.525;    0.000
907.388; 2449.300;  177.525;    0.000
907.564; 2430.300;  150.525;    0.000
907.741; 2360.300;  195.525;    0.000
907.917; 2413.300;  190.525;    0.000
908.094; 2389.300;  214.525;    0.000
908.271; 2266.300;  173.525;    0.000
908.447; 2305.300;  229.525;    0.000
908.623; 2190.300;  162.525;    0.000
908.800; 2242.300;  195.525;    0.000
908.976; 2240.300;  171.525;    0.000
909.153; 2369.300;  167.525;    0.000
909.329; 2278.300;  227.525;    0.000
909.505; 2179.300;  167.525;    0.000
909.682; 2227.300;  174.525;    0.000
909.858; 2198.300;  158.525;    0.000
910.034; 2168.300;  188.525;    0.000
910.211; 2105.300;  158.525;    0.000
910.387; 2243.300;  208.525;    0.000
910.563; 2091.300;  203.525;    0.000
910.739; 2127.300;  201.525;    0.000
910.915; 2026.300;  170.525;    0.000
911.091; 2132.300;  171.525;    0.000
911.268; 2095.300;  220.525;    0.000
911.444; 2067.300;  202.525;    0.000
911.620; 2093.300;  175.525;    0.000
911.796; 2119.300;  175.525;    0.000
911.972; 2088.300;  164.525;    0.000
912.148; 2065.300;  174.525;    0.000
912.324; 2111.300;  155.525;    0.000
912.500; 2044.300;  156.525;    0.000
912.676; 2075.300;  138.525;    0.000
912.851; 2082.300;  158.525;    0.000
913.027; 2192.300;  161.525;    0.000
913.203; 2059.300;  168.525;    0.000
913.379; 2120.300;  172.525;    0.000
913.555; 2141.300;  193.525;    0.000
913.730; 2047.300;  149.525;    0.000
913.906; 2088.300;  159.525;    0.000
914.082; 2117.300;  184.525;    0.000
914.258; 2130.300;  194.525;    0.000
914.433; 2100.300;  175.525;    0.000
914.609; 2069.300;  175.525;    0.000
914.784; 2090.300;  170.525;    0.000
914.960; 2168.300;  212.525;    0.000
915.136; 2099.300;  157.525;    0.000
915.311; 2090.300;  204.525;    0.000
915.487; 2126.300;  180.525;    0.000
915.662; 2179.300;  203.525;    0.000
915.838; 2096.300;  194.525;    0.000
916.013; 2179.300;  217.525;    0.000
916.189; 2131.300;  196.525;    0.000
916.364; 2135.300;  236.525;    0.000
916.539; 2205.300;  192.525;    0.000
916.715; 2066.300;  181.525;    0.000
916.890; 2087.300;  185.525;    0.000
917.065; 2163.300;  166.525;    0.000
917.240; 2117.300;  182.525;    0.000
917.416; 2126.300;  188.525;    0.000
917.591; 2115.300;  185.525;    0.000
917.766; 2123.300;  187.525;    0.000
917.941; 2119.300;  181.525;    0.000
918.116; 2094.300;  207.525;    0.000
918.292; 2135.300;  140.525;    0.000
918.467; 2151.300;  187.525;    0.000
918.642; 2187.300;  208.525;    0.000
918.817; 2199.300;  203.525;    0.000
918.992; 2141.300;  162.525;    0.000
919.167; 2131.300;  206.525;    0.000
919.342; 2133.300;  188.525;    0.000
919.517; 2231.300;  190.525;    0.000
919.692; 2145.300;  174.525;    0.000
919.867; 2162.300;  181.525;    0.000
920.041; 2279.300;  179.525;    0.000
920.216; 2304.300;  186.525;    0.000
920.391; 2349.300;  209.525;    0.000
920.566; 2286.300;  205.525;    0.000
920.741; 2355.300;  205.525;    0.000
920.915; 2533.300;  206.525;    0.000
921.090; 2648.300;  219.525;    0.000
921.265; 3114.300;  185.525;    0.000
921.439; 3551.300;  171.525;    0.000
921.614; 3237.300;  197.525;    0.000
921.789; 2930.300;  189.525;    0.000
921.963; 2718.300;  210.525;    0.000
922.138; 2671.300;  171.525;    0.000
922.312; 2731.300;  194.525;    0.000
922.487; 2574.300;  231.525;    0.000
922.661; 2699.300;  179.525;    0.000
922.836; 3037.300;  213.525;    0.000
923.010; 3095.300;  182.525;    0.000
923.185; 2957.300;  239.525;    0.000
923.359; 2845.300;  200.525;    0.000
923.534; 2797.300;  232.525;    0.000
923.708; 2844.300;  221.525;    0.000
923.882; 3023.300;  193.525;    0.000
924.057; 2866.300;  204.525;    0.000
924.231; 2744.300;  172.525;    0.000
924.405; 2678.300;  202.525;    0.000
924.579; 2704.300;  207.525;    0.000
924.753; 2647.300;  167.525;    0.000
924.928; 2549.300;  202.525;    0.000
925.102; 2542.300;  200.525;    0.000
925.276; 2533.300;  185.525;    0.000
925.450; 2566.300;  170.525;    0.000
925.624; 2555.300;  176.525;    0.000
925.798; 2706.300;  221.525;    0.000
925.972; 2773.300;  162.525;    0.000
926.146; 2874.300;  207.525;    0.000
926.320; 3043.300;  185.525;    0.000
926.494; 3203.300;  192.525;    0.000
926.668; 3337.300;  179.525;    0.000
926.842; 3450.300;  181.525;    0.000
927.016; 3469.300;  224.525;    0.000
927.190; 3443.300;  193.525;    0.000
927.363; 3237.300;  194.525;    0.000
927.537; 3282.300;  210.525;    0.000
927.711; 3181.300;  153.525;    0.000
927.885; 3076.300;  184.525;    0.000
928.058; 3047.300;  197.525;    0.000
928.232; 3038.300;  219.525;    0.000
928.406; 2941.300;  175.525;    0.000
928.579; 2920.300;  179.525;    0.000
928.753; 2932.300;  208.525;    0.000
928.927; 2729.300;  163.525;    0.000
929.100; 2721.300;  138.525;    0.000
929.274; 2648.300;  160.525;    0.000
929.447; 2558.300;  152.525;    0.000
929.621; 2680.300;  168.525;    0.000
929.794; 2700.300;  152.525;    0.000
929.968; 2606.300;  163.525;    0.000
930.141; 2546.300;  164.525;    0.000
930.315; 2429.300;  170.525;    0.000
930.488; 2508.300;  216.525;    0.000
930.661; 2474.300;  184.525;    0.000
930.835; 2357.300;  156.525;    0.000
931.008; 2397.300;  206.525;    0.000
931.181; 2412.300;  163.525;    0.000
931.354; 2332.300;  198.525;    0.000
931.528; 2381.300;  156.525;    0.000
931.701; 2310.300;  170.525;    0.000
931.874; 2246.300;  167.525;    0.000
932.047; 2276.300;  146.525;    0.000
932.220; 2286.300;  159.525;    0.000
932.393; 2228.300;  186.525;    0.000
932.566; 2209.300;  147.525;    0.000
932.739; 2235.300;  192.525;    0.000
932.912; 2222.300;  197.525;    0.000
933.085; 2203.300;  176.525;    0.000
933.258; 2208.300;  171.525;    0.000
933.431; 2210.300;  150.525;    0.000
933.604; 2135.300;  176.525;    0.000
933.777; 2243.300;  215.525;    0.000
933.950; 2129.300;  164.525;    0.000
934.123; 2178.300;  174.525;    0.000
934.296; 2197.300;  203.525;    0.000
934.468; 2159.300;  208.525;    0.000
934.641; 2143.300;  182.525;    0.000
934.814; 2114.300;  170.525;    0.000
934.987; 2133.300;  183.525;    0.000
935.159; 2134.300;  154.525;    0.000
935.332; 2155.300;  178.525;    0.000
935.505; 2137.300;  213.525;    0.000
935.677; 2137.300;  173.525;    0.000
935.850; 2126.300;  190.525;    0.000
936.022; 2127.300;  205.525;    0.000
936.195; 2213.300;  201.525;    0.000
936.367; 2098.300;  189.525;    0.000
936.540; 2114.300;  179.525;    0.000
936.712; 2169.300;  195.525;    0.000
936.885; 2189.300;  207.525;    0.000
937.057; 2136.300;  163.525;    0.000
937.229; 2131.300;  175.525;    0.000
937.402; 2199.300;  168.525;    0.000
937.574; 2232.300;  136.525;    0.000
937.746; 2236.300;  166.525;    0.000
937.919; 2282.300;  178.525;    0.000
938.091; 2409.300;  192.525;    0.000
938.263; 2469.300;  164.525;    0.000
938.435; 2722.300;  204.525;    0.000
938.608; 2972.300;  153.525;    0.000
938.780; 3325.300;  159.525;    0.000
938.952; 3438.300;  160.525;    0.000
939.124; 3478.300;  156.525;    0.000
939.296; 3831.300;  110.525;    0.000
939.468; 3892.300;  135.525;    0.000
939.640; 3622.300;  144.525;    0.000
939.812; 3309.300;  232.525;    0.000
939.984; 3071.300;  128.525;    0.000
940.156; 2859.300;  195.525;    0.000
940.328; 2806.300;  226.525;    0.000
940.500; 2615.300;  146.525;    0.000
940.672; 2568.300;  190.525;    0.000
940.843; 2457.300;  156.525;    0.000
941.015; 2485.300;  200.525;    0.000
941.187; 2337.300;  159.525;    0.000
941.359; 2407.300;  183.525;    0.000
941.531; 2468.300;  137.525;    0.000
941.702; 2386.300;  186.525;    0.000
941.874; 2338.300;  164.525;    0.000
942.046; 2258.300;  202.525;    0.000
942.217; 2291.300;  146.525;    0.000
942.389; 2254.300;  165.525;    0.000
942.560; 2211.300;  191.525;    0.000
942.732; 2147.300;  240.525;    0.000
942.904; 2161.300;  173.525;    0.000
943.075; 2061.300;  157.525;    0.000
943.247; 2061.300;  155.525;    0.000
943.418; 2003.300;  164.525;    0.000
943.589; 2141.300;  150.525;    0.000
943.761; 2052.300;  143.525;    0.000
943.932; 2062.300;  151.525;    0.000
944.104; 2120.300;  194.525;    0.000
944.275; 2035.300;  154.525;    0.000
944.446; 2008.300;  169.525;    0.000
944.617; 1972.300;  138.525;    0.000
944.789; 2021.300;  158.525;    0.000
944.960; 2014.300;  197.525;    0.000
945.131; 1949.300;  139.525;    0.000
945.302; 1938.300;  169.525;    0.000
945.473; 1972.300;  149.525;    0.000
945.645; 2034.300;  171.525;    0.000
945.816; 2053.300;  167.525;    0.000
945.987; 1946.300;  156.525;    0.000
946.158; 2015.300;  185.525;    0.000
946.329; 2030.300;  201.525;    0.000
946.500; 1983.300;  182.525;    0.000
946.671; 1892.300;  156.525;    0.000
946.842; 1957.300;  190.525;    0.000
947.013; 1945.300;  159.525;    0.000
947.183; 1965.300;  209.525;    0.000
947.354; 1951.300;  171.525;    0.000
947.525; 1950.300;  180.525;    0.000
947.696; 1926.300;  163.525;    0.000
947.867; 1950.300;  168.525;    0.000
948.037; 1824.300;  153.525;    0.000
948.208; 1901.300;  178.525;    0.000
948.379; 1971.300;  192.525;    0.000
948.550; 1917.300;  180.525;    0.000
948.720; 1937.300;  196.525;    0.000
948.891; 1858.300;  173.525;    0.000
949.061; 1892.300;  207.525;    0.000
949.232; 1797.300;  176.525;    0.000
949.403; 1884.300;  152.525;    0.000
949.573; 1864.300;  186.525;    0.000
949.744; 1813.300;  181.525;    0.000
949.914; 1810.300;  174.525;    0.000
950.085; 1856.300;  146.525;    0.000
950.255; 1786.300;  162.525;    0.000
950.425; 1864.300;  189.525;    0.000
950.596; 1792.300;  175.525;    0.000
950.766; 1869.300;  209.525;    0.000
950.936; 1898.300;  201.525;    0.000
951.107; 1729.300;  141.525;    0.000
951.277; 1776.300;  211.525;    0.000
951.447; 1860.300;  218.525;    0.000
951.617; 1814.300;  191.525;    0.000
951.788; 1837.300;  193.525;    0.000
951.958; 1780.300;  217.525;    0.000
952.128; 1830.300;  192.525;    0.000
952.298; 1882.300;  237.525;    0.000
952.468; 1879.300;  194.525;    0.000
952.638; 1802.300;  201.525;    0.000
952.808; 1746.300;  203.525;    0.000
952.978; 1847.300;  216.525;    0.000
953.148; 1785.300;  209.525;    0.000
953.318; 1795.300;  213.525;    0.000
953.488; 1711.300;  161.525;    0.000
953.658; 1829.300;  222.525;    0.000
953.828; 1763.300;  196.525;    0.000
953.998; 1820.300;  227.525;    0.000
954.167; 1785.300;  163.525;    0.000
954.337; 1771.300;  201.525;    0.000
954.507; 1668.300;  227.525;    0.000
954.677; 1725.300;  204.525;    0.000
954.846; 1774.300;  210.525;    0.000
955.016; 1742.300;  198.525;    0.000
955.186; 1805.300;  203.525;    0.000
955.355; 1760.300;  198.525;    0.000
955.525; 1742.300;  198.525;    0.000
955.695; 1723.300;  187.525;    0.000
955.864; 1687.300;  243.525;    0.000
956.034; 1740.300;  192.525;    0.000
956.203; 1724.300;  259.525;    0.000
956.373; 1723.300;  185.525;    0.000
956.542; 1747.300;  230.525;    0.000
956.711; 1767.300;  218.525;    0.000
956.881; 1688.300;  232.525;    0.000
957.050; 1766.300;  246.525;    0.000
957.220; 1655.300;  229.525;    0.000
957.389; 1691.300;  211.525;    0.000
957.558; 1659.300;  173.525;    0.000
957.727; 1700.300;  226.525;    0.000
957.897; 1679.300;  209.525;    0.000
958.066; 1723.300;  217.525;    0.000
958.235; 1651.300;  160.525;    0.000
958.404; 1715.300;  199.525;    0.000
958.573; 1658.300;  223.525;    0.000
958.743; 1685.300;  189.525;    0.000
958.912; 1695.300;  199.525;    0.000
959.081; 1645.300;  216.525;    0.000
959.250; 1775.300;  192.525;    0.000
959.419; 1681.300;  216.525;    0.000
959.588; 1656.300;  209.525;    0.000
959.757; 1681.300;  194.525;    0.000
959.926; 1620.300;  200.525;    0.000
960.094; 1675.300;  174.525;    0.000
960.263; 1724.300;  218.525;    0.000
960.432; 1620.300;  173.525;    0.000
960.601; 1580.300;  177.525;    0.000
960.770; 1606.300;  188.525;    0.000
960.939; 1631.300;  167.525;    0.000
961.107; 1632.300;  195.525;    0.000
961.276; 1634.300;  183.525;    0.000
961.445; 1624.300;  195.525;    0.000
961.613; 1635.300;  198.525;    0.000
961.782; 1679.300;  224.525;    0.000
961.951; 1628.300;  178.525;    0.000
962.119; 1611.300;  214.525;    0.000
962.288; 1514.300;  174.525;    0.000
962.456; 1585.300;  197.525;    0.000
962.625; 1635.300;  212.525;    0.000
962.793; 1536.300;  183.525;    0.000
962.962; 1629.300;  189.525;    0.000
963.130; 1597.300;  151.525;    0.000
963.298; 1622.300;  197.525;    0.000
963.467; 1681.300;  202.525;    0.000
963.635; 1674.300;  172.525;    0.000
963.803; 1644.300;  203.525;    0.000
963.972; 1682.300;  204.525;    0.000
964.140; 1599.300;  193.525;    0.000
964.308; 1600.300;  159.525;    0.000
964.477; 1653.300;  142.525;    0.000
964.645; 1596.300;  202.525;    0.000
964.813; 1647.300;  158.525;    0.000
964.981; 1671.300;  179.525;    0.000
965.149; 1604.300;  176.525;    0.000
965.317; 1640.300;  229.525;    0.000
965.485; 1614.300;  179.525;    0.000
965.653; 1651.300;  205.525;    0.000
965.821; 1615.300;  196.525;    0.000
965.989; 1622.300;  202.525;    0.000
966.157; 1594.300;  199.525;    0.000
966.325; 1679.300;  178.525;    0.000
966.493; 1585.300;  177.525;    0.000
966.661; 1607.300;  172.525;    0.000
966.829; 1573.300;  167.525;    0.000
966.996; 1605.300;  202.525;    0.000
967.164; 1675.300;  175.525;    0.000
967.332; 1672.300;  207.525;    0.000
967.500; 1673.300;  170.525;    0.000
967.667; 1632.300;  222.525;    0.000
967.835; 1630.300;  245.525;    0.000
968.003; 1587.300;  180.525;    0.000
968.170; 1704.300;  222.525;    0.000
968.338; 1624.300;  183.525;    0.000
968.505; 1716.300;  197.525;    0.000
968.673; 1649.300;  209.525;    0.000
968.841; 1643.300;  162.525;    0.000
969.008; 1648.300;  187.525;    0.000
969.175; 1638.300;  204.525;    0.000
969.343; 1564.300;  157.525;    0.000
969.510; 1684.300;  189.525;    0.000
969.678; 1615.300;  153.525;    0.000
969.845; 1594.300;  190.525;    0.000
970.012; 1571.300;  162.525;    0.000
970.180; 1640.300;  223.525;    0.000
970.347; 1614.300;  195.525;    0.000
970.514; 1609.300;  185.525;    0.000
970.681; 1567.300;  187.525;    0.000
970.849; 1591.300;  183.525;    0.000
971.016; 1566.300;  168.525;    0.000
971.183; 1655.300;  160.525;    0.000
971.350; 1668.300;  193.525;    0.000
971.517; 1645.300;  202.525;    0.000
971.684; 1673.300;  242.525;    0.000
971.851; 1671.300;  192.525;    0.000
972.018; 1597.300;  194.525;    0.000
972.185; 1672.300;  193.525;    0.000
972.352; 1694.300;  187.525;    0.000
972.519; 1632.300;  233.525;    0.000
972.686; 1607.300;  186.525;    0.000
972.853; 1648.300;  165.525;    0.000
973.020; 1620.300;  183.525;    0.000
973.186; 1683.300;  186.525;    0.000
973.353; 1602.300;  177.525;    0.000
973.520; 1661.300;  203.525;    0.000
973.687; 1672.300;  211.525;    0.000
973.853; 1660.300;  194.525;    0.000
974.020; 1627.300;  201.525;    0.000
974.187; 1641.300;  187.525;    0.000
974.353; 1612.300;  188.525;    0.000
974.520; 1602.300;  136.525;    0.000
974.687; 1648.300;  169.525;    0.000
974.853; 1639.300;  207.525;    0.000
975.020; 1552.300;  190.525;    0.000
975.186; 1584.300;  182.525;    0.000
975.353; 1589.300;  202.525;    0.000
975.519; 1540.300;  189.525;    0.000
975.685; 1627.300;  176.525;    0.000
975.852; 1602.300;  175.525;    0.000
976.018; 1514.300;  155.525;    0.000
976.184; 1586.300;  179.525;    0.000
976.351; 1620.300;  191.525;    0.000
976.517; 1629.300;  246.525;    0.000
976.683; 1643.300;  222.525;    0.000
976.849; 1491.300;  216.525;    0.000
977.016; 1557.300;  212.525;    0.000
977.182; 1542.300;  192.525;    0.000
977.348; 1540.300;  145.525;    0.000
977.514; 1525.300;  195.525;    0.000
977.680; 1589.300;  210.525;    0.000
977.846; 1574.300;  172.525;    0.000
978.012; 1543.300;  190.525;    0.000
978.178; 1618.300;  201.525;    0.000
978.344; 1490.300;  190.525;    0.000
978.510; 1528.300;  199.525;    0.000
978.676; 1517.300;  174.525;    0.000
978.842; 1511.300;  195.525;    0.000
979.008; 1561.300;  205.525;    0.000
979.174; 1551.300;  187.525;    0.000
979.340; 1616.300;  194.525;    0.000
979.505; 1560.300;  221.525;    0.000
979.671; 1525.300;  178.525;    0.000
979.837; 1582.300;  215.525;    0.000
980.003; 1573.300;  176.525;    0.000
980.168; 1568.300;  185.525;    0.000
980.334; 1502.300;  165.525;    0.000
980.499; 1580.300;  231.525;    0.000
980.665; 1559.300;  238.525;    0.000
980.831; 1622.300;  194.525;    0.000
980.996; 1492.300;  169.525;    0.000
981.162; 1647.300;  199.525;    0.000
981.327; 1568.300;  158.525;    0.000
981.493; 1525.300;  193.525;    0.000
981.658; 1581.300;  181.525;    0.000
981.823; 1580.300;  199.525;    0.000
981.989; 1559.300;  186.525;    0.000
982.154; 1596.300;  225.525;    0.000
982.319; 1532.300;  191.525;    0.000
982.485; 1642.300;  205.525;    0.000
982.650; 1642.300;  234.525;    0.000
982.815; 1605.300;  193.525;    0.000
982.980; 1656.300;  177.525;    0.000
983.146; 1610.300;  212.525;    0.000
983.311; 1549.300;  177.525;    0.000
983.476; 1561.300;  185.525;    0.000
983.641; 1554.300;  149.525;    0.000
983.806; 1502.300;  175.525;    0.000
983.971; 1551.300;  234.525;    0.000
984.136; 1518.300;  191.525;    0.000
984.301; 1492.300;  215.525;    0.000
984.466; 1623.300;  207.525;    0.000
984.631; 1551.300;  206.525;    0.000
984.796; 1567.300;  229.525;    0.000
984.961; 1585.300;  220.525;    0.000
985.126; 1714.300;  204.525;    0.000
985.291; 1649.300;  210.525;    0.000
985.455; 1567.300;  193.525;    0.000
985.620; 1513.300;  207.525;    0.000
985.785; 1494.300;  188.525;    0.000
985.950; 1591.300;  168.525;    0.000
986.114; 1558.300;  239.525;    0.000
986.279; 1593.300;  223.525;    0.000
986.444; 1594.300;  154.525;    0.000
986.608; 1581.300;  232.525;    0.000
986.773; 1615.300;  214.525;    0.000
986.937; 1711.300;  220.525;    0.000
987.102; 1638.300;  224.525;    0.000
987.266; 1523.300;  157.525;    0.000
987.431; 1624.300;  246.525;    0.000
987.595; 1673.300;  203.525;    0.000
987.760; 1575.300;  202.525;    0.000
987.924; 1621.300;  208.525;    0.000
988.088; 1519.300;  169.525;    0.000
988.253; 1634.300;  237.525;    0.000
988.417; 1504.300;  202.525;    0.000
988.581; 1585.300;  215.525;    0.000
988.746; 1522.300;  210.525;    0.000
988.910; 1565.300;  191.525;    0.000
989.074; 1613.300;  197.525;    0.000
989.238; 1576.300;  191.525;    0.000
989.402; 1596.300;  222.525;    0.000
989.566; 1615.300;  221.525;    0.000
989.731; 1560.300;  216.525;    0.000
989.895; 1552.300;  183.525;    0.000
990.059; 1538.300;  150.525;    0.000
990.223; 1580.300;  183.525;    0.000
990.387; 1581.300;  241.525;    0.000
990.551; 1574.300;  198.525;    0.000
990.714; 1524.300;  176.525;    0.000
990.878; 1579.300;  203.525;    0.000
991.042; 1512.300;  146.525;    0.000
991.206; 1572.300;  199.525;    0.000
991.370; 1583.300;  223.525;    0.000
991.534; 1518.300;  158.525;    0.000
991.697; 1521.300;  182.525;    0.000
991.861; 1546.300;  195.525;    0.000
992.025; 1582.300;  206.525;    0.000
992.188; 1569.300;  174.525;    0.000
992.352; 1503.300;  183.525;    0.000
992.516; 1594.300;  181.525;    0.000
992.679; 1555.300;  162.525;    0.000
992.843; 1585.300;  173.525;    0.000
993.006; 1430.300;  189.525;    0.000
993.170; 1581.300;  200.525;    0.000
993.333; 1499.300;  167.525;    0.000
993.497; 1543.300;  217.525;    0.000
993.660; 1534.300;  179.525;    0.000
993.824; 1575.300;  195.525;    0.000
993.987; 1586.300;  186.525;    0.000
994.150; 1491.300;  164.525;    0.000
994.314; 1559.300;  215.525;    0.000
994.477; 1577.300;  186.525;    0.000
994.640; 1573.300;  192.525;    0.000
994.803; 1571.300;  215.525;    0.000
994.967; 1575.300;  208.525;    0.000
995.130; 1565.300;  196.525;    0.000
995.293; 1578.300;  221.525;    0.000
995.456; 1522.300;  164.525;    0.000
995.619; 1583.300;  224.525;    0.000
995.782; 1551.300;  184.525;    0.000
995.945; 1538.300;  220.525;    0.000
996.108; 1563.300;  187.525;    0.000
996.271; 1549.300;  192.525;    0.000
996.434; 1477.300;  162.525;    0.000
996.597; 1535.300;  148.525;    0.000
996.760; 1501.300;  186.525;    0.000
996.923; 1489.300;  154.525;    0.000
997.086; 1510.300;  156.525;    0.000
997.248; 1576.300;  215.525;    0.000
997.411; 1547.300;  160.525;    0.000
997.574; 1490.300;  159.525;    0.000
997.737; 1570.300;  179.525;    0.000
997.899; 1531.300;  184.525;    0.000
998.062; 1488.300;  180.525;    0.000
998.225; 1577.300;  168.525;    0.000
998.387; 1523.300;  192.525;    0.000
998.550; 1481.300;  178.525;    0.000
998.712; 1579.300;  192.525;    0.000
998.875; 1546.300;  230.525;    0.000
999.037; 1578.300;  200.525;    0.000
999.200; 1609.300;  196.525;    0.000
999.362; 1518.300;  173.525;    0.000
999.525; 1507.300;  196.525;    0.000
999.687; 1503.300;  159.525;    0.000
999.849; 1489.300;  180.525;    0.000
1000.012; 1484.300;  210.525;    0.000
1000.174; 1515.300;  175.525;    0.000
1000.336; 1575.300;  174.525;    0.000
1000.499; 1535.300;  180.525;    0.000
1000.661; 1534.300;  204.525;    0.000
1000.823; 1610.300;  181.525;    0.000
1000.985; 1517.300;  178.525;    0.000
1001.147; 1595.300;  215.525;    0.000
1001.309; 1545.300;  212.525;    0.000
1001.471; 1627.300;  192.525;    0.000
1001.633; 1609.300;  207.525;    0.000
1001.796; 1664.300;  211.525;    0.000
1001.958; 1683.300;  200.525;    0.000
1002.119; 1610.300;  210.525;    0.000
1002.281; 1753.300;  204.525;    0.000
1002.443; 1802.300;  230.525;    0.000
1002.605; 1884.300;  178.525;    0.000
1002.767; 1973.300;  228.525;    0.000
1002.929; 1963.300;  199.525;    0.000
1003.091; 2098.300;  220.525;    0.000
1003.252; 2293.300;  219.525;    0.000
1003.414; 2312.300;  213.525;    0.000
1003.576; 2408.300;  202.525;    0.000
1003.738; 2495.300;  184.525;    0.000
1003.899; 2565.300;  218.525;    0.000
1004.061; 2728.300;  210.525;    0.000
1004.222; 2842.300;  179.525;    0.000
1004.384; 2970.300;  183.525;    0.000
1004.546; 3021.300;  206.525;    0.000
1004.707; 3034.300;  191.525;    0.000
1004.869; 3156.300;  197.525;    0.000
1005.030; 2961.300;  186.525;    0.000
1005.191; 2953.300;  188.525;    0.000
1005.353; 2802.300;  215.525;    0.000
1005.514; 2719.300;  184.525;    0.000
1005.675; 2632.300;  209.525;    0.000
1005.837; 2538.300;  239.525;    0.000
1005.998; 2462.300;  218.525;    0.000
1006.159; 2521.300;  212.525;    0.000
1006.321; 2539.300;  220.525;    0.000
1006.482; 2594.300;  201.525;    0.000
1006.643; 2697.300;  222.525;    0.000
1006.804; 2795.300;  191.525;    0.000
1006.965; 2848.300;  214.525;    0.000
1007.126; 2853.300;  214.525;    0.000
1007.287; 2877.300;  243.525;    0.000
1007.448; 2942.300;  251.525;    0.000
1007.609; 2679.300;  244.525;    0.000
1007.770; 2730.300;  211.525;    0.000
1007.931; 2732.300;  225.525;    0.000
1008.092; 2866.300;  188.525;    0.000
1008.253; 2875.300;  224.525;    0.000
1008.414; 2825.300;  198.525;    0.000
1008.575; 2955.300;  244.525;    0.000
1008.736; 2932.300;  219.525;    0.000
1008.896; 2921.300;  206.525;    0.000
1009.057; 2969.300;  258.525;    0.000
1009.218; 2774.300;  209.525;    0.000
1009.379; 2883.300;  204.525;    0.000
1009.539; 2990.300;  242.525;    0.000
1009.700; 3002.300;  205.525;    0.000
1009.860; 2974.300;  211.525;    0.000
1010.021; 2975.300;  219.525;    0.000
1010.182; 2947.300;  206.525;    0.000
1010.342; 2871.300;  219.525;    0.000
1010.503; 2949.300;  231.525;    0.000
1010.663; 3191.300;  260.525;    0.000
1010.823; 3093.300;  200.525;    0.000
1010.984; 3333.300;  189.525;    0.000
1011.144; 3257.300;  234.525;    0.000
1011.305; 3272.300;  212.525;    0.000
1011.465; 3369.300;  202.525;    0.000
1011.625; 3494.300;  236.525;    0.000
1011.785; 3562.300;  203.525;    0.000
1011.946; 3386.300;  195.525;    0.000
1012.106; 3430.300;  176.525;    0.000
1012.266; 3440.300;  211.525;    0.000
1012.426; 3411.300;  244.525;    0.000
1012.586; 3577.300;  202.525;    0.000
1012.746; 3421.300;  234.525;    0.000
1012.906; 3333.300;  246.525;    0.000
1013.066; 3456.300;  232.525;    0.000
1013.226; 3571.300;  248.525;    0.000
1013.386; 3398.300;  231.525;    0.000
1013.546; 3334.300;  233.525;    0.000
1013.706; 3378.300;  211.525;    0.000
1013.866; 3390.300;  240.525;    0.000
1014.026; 3337.300;  188.525;    0.000
1014.186; 3439.300;  186.525;    0.000
1014.346; 3269.300;  203.525;    0.000
1014.505; 3495.300;  238.525;    0.000
1014.665; 3517.300;  206.525;    0.000
1014.825; 3490.300;  200.525;    0.000
1014.985; 3455.300;  215.525;    0.000
1015.144; 3720.300;  250.525;    0.000
1015.304; 3929.300;  195.525;    0.000
1015.464; 3836.300;  237.525;    0.000
1015.623; 3639.300;  232.525;    0.000
1015.783; 3993.300;  220.525;    0.000
1015.942; 4606.300;  219.525;    0.000
1016.102; 4232.300;  202.525;    0.000
1016.261; 4078.300;  225.525;    0.000
1016.420; 4685.300;  246.525;    0.000
1016.580; 5082.300;  226.525;    0.000
1016.739; 4841.300;  214.525;    0.000
1016.899; 4776.300;  205.525;    0.000
1017.058; 5013.300;  217.525;    0.000
1017.217; 5250.300;  199.525;    0.000
1017.376; 4951.300;  219.525;    0.000
1017.536; 4392.300;  209.525;    0.000
1017.695; 4590.300;  213.525;    0.000
1017.854; 4628.300;  187.525;    0.000
1018.013; 4433.300;  222.525;    0.000
1018.172; 4109.300;  204.525;    0.000
1018.331; 4352.300;  195.525;    0.000
1018.490; 4679.300;  213.525;    0.000
1018.649; 4958.300;  216.525;    0.000
1018.808; 4940.300;  227.525;    0.000
1018.967; 5044.300;  206.525;    0.000
1019.126; 5024.300;  206.525;    0.000
1019.285; 5347.300;  219.525;    0.000
1019.444; 5017.300;  218.525;    0.000
1019.603; 4760.300;  206.525;    0.000
1019.762; 4612.300;  189.525;    0.000
1019.921; 4760.300;  217.525;    0.000
1020.079; 5105.300;  200.525;    0.000
1020.238; 5212.300;  219.525;    0.000
1020.397; 5150.300;  227.525;    0.000
1020.555; 4800.300;  207.525;    0.000
1020.714; 4892.300;  253.525;    0.000
1020.873; 5164.300;  230.525;    0.000
1021.031; 5434.300;  232.525;    0.000
1021.190; 4911.300;  226.525;    0.000
1021.348; 4908.300;  224.525;    0.000
1021.507; 5446.300;  215.525;    0.000
1021.665; 5800.300;  233.525;    0.000
1021.824; 5379.300;  196.525;    0.000
1021.982; 4997.300;  215.525;    0.000
1022.141; 4984.300;  200.525;    0.000
1022.299; 5743.300;  200.525;    0.000
1022.457; 5996.300;  179.525;    0.000
1022.616; 5425.300;  226.525;    0.000
1022.774; 5040.300;  216.525;    0.000
1022.932; 5266.300;  212.525;    0.000
1023.090; 6055.300;  220.525;    0.000
1023.249; 5928.300;  194.525;    0.000
1023.407; 5574.300;  227.525;    0.000
1023.565; 5046.300;  190.525;    0.000
1023.723; 5483.300;  190.525;    0.000
1023.881; 6069.300;  214.525;    0.000
1024.039; 6306.300;  179.525;    0.000
1024.197; 5655.300;  274.525;    0.000
1024.355; 5153.300;  269.525;    0.000
1024.513; 5505.300;  259.525;    0.000
1024.671; 6260.300;  211.525;    0.000
1024.829; 6559.300;  230.525;    0.000
1024.987; 5867.300;  239.525;    0.000
1025.145; 5180.300;  231.525;    0.000
1025.302; 5532.300;  212.525;    0.000
1025.460; 6448.300;  224.525;    0.000
1025.618; 6831.300;  217.525;    0.000
1025.776; 6107.300;  232.525;    0.000
1025.933; 5406.300;  212.525;    0.000
1026.091; 5554.300;  214.525;    0.000
1026.249; 6252.300;  224.525;    0.000
1026.406; 6745.300;  219.525;    0.000
1026.564; 6569.300;  262.525;    0.000
1026.721; 5923.300;  206.525;    0.000
1026.879; 5395.300;  227.525;    0.000
1027.036; 6110.300;  234.525;    0.000
1027.194; 6756.300;  256.525;    0.000
1027.351; 6884.300;  229.525;    0.000
1027.509; 6291.300;  253.525;    0.000
1027.666; 5851.300;  248.525;    0.000
1027.823; 6207.300;  215.525;    0.000
1027.981; 6480.300;  248.525;    0.000
1028.138; 7096.300;  257.525;    0.000
1028.295; 6477.300;  215.525;    0.000
1028.452; 6065.300;  236.525;    0.000
1028.609; 6067.300;  240.525;    0.000
1028.767; 6524.300;  258.525;    0.000
1028.924; 6832.300;  211.525;    0.000
1029.081; 6680.300;  226.525;    0.000
1029.238; 6796.300;  228.525;    0.000
1029.395; 6313.300;  264.525;    0.000
1029.552; 6330.300;  227.525;    0.000
1029.709; 6872.300;  232.525;    0.000
1029.866; 7040.300;  223.525;    0.000
1030.023; 6740.300;  220.525;    0.000
1030.180; 6268.300;  222.525;    0.000
1030.337; 6385.300;  224.525;    0.000
1030.494; 6692.300;  228.525;    0.000
1030.650; 6988.300;  242.525;    0.000
1030.807; 7300.300;  214.525;    0.000
1030.964; 6790.300;  207.525;    0.000
1031.121; 6724.300;  236.525;    0.000
1031.277; 6404.300;  206.525;    0.000
1031.434; 6788.300;  249.525;    0.000
1031.591; 7304.300;  253.525;    0.000
1031.747; 7365.300;  240.525;    0.000
1031.904; 7234.300;  212.525;    0.000
1032.060; 6828.300;  185.525;    0.000
1032.217; 6638.300;  201.525;    0.000
1032.373; 7566.300;  207.525;    0.000
1032.530; 7728.300;  226.525;    0.000
1032.686; 8387.300;  226.525;    0.000
1032.843; 8130.300;  203.525;    0.000
1032.999; 7809.300;  233.525;    0.000
1033.155; 8083.300;  232.525;    0.000
1033.312; 7974.300;  239.525;    0.000
1033.468; 9617.300;  207.525;    0.000
1033.624; 9987.300;  238.525;    0.000
1033.780;10434.300;  255.525;    0.000
1033.937;10111.300;  188.525;    0.000
1034.093; 9351.300;  244.525;    0.000
1034.249; 9714.300;  182.525;    0.000
1034.405; 9901.300;  251.525;    0.000
1034.561;10523.300;  250.525;    0.000
1034.717;11319.300;  208.525;    0.000
1034.873;10829.300;  210.525;    0.000
1035.029;11211.300;  245.525;    0.000
1035.185;10698.300;  230.525;    0.000
1035.341;10229.300;  209.525;    0.000
1035.497;11003.300;  244.525;    0.000
1035.653;11340.300;  229.525;    0.000
1035.809;12611.300;  275.525;    0.000
1035.964;13151.300;  203.525;    0.000
1036.120;12170.300;  215.525;    0.000
1036.276;11991.300;  228.525;    0.000
1036.432;11870.300;  183.525;    0.000
1036.587;11083.300;  214.525;    0.000
1036.743;12179.300;  240.525;    0.000
1036.899;13207.300;  202.525;    0.000
1037.054;13515.300;  182.525;    0.000
1037.210;14795.300;  228.525;    0.000
1037.365;15073.300;  239.525;    0.000
1037.521;13703.300;  230.525;    0.000
1037.676;13607.300;  217.525;    0.000
1037.832;12845.300;  235.525;    0.000
1037.987;12559.300;  210.525;    0.000
1038.143;13330.300;  206.525;    0.000
1038.298;15599.300;  177.525;    0.000
1038.453;15295.300;  215.525;    0.000
1038.609;16346.300;  210.525;    0.000
1038.764;16339.300;  227.525;    0.000
1038.919;14599.300;  197.525;    0.000
1039.074;15033.300;  183.525;    0.000
1039.229;14409.300;  218.525;    0.000
1039.385;14251.300;  251.525;    0.000
1039.540;14857.300;  222.525;    0.000
1039.695;16339.300;  215.525;    0.000
1039.850;17534.301;  204.525;    0.000
1040.005;18242.301;  241.525;    0.000
1040.160;19159.301;  180.525;    0.000
1040.315;18554.301;  197.525;    0.000
1040.470;17099.301;  180.525;    0.000
1040.625;17003.301;  196.525;    0.000
1040.780;17657.301;  245.525;    0.000
1040.935;17103.301;  204.525;    0.000
1041.089;17775.301;  213.525;    0.000
1041.244;19787.301;  200.525;    0.000
1041.399;20423.301;  212.525;    0.000
1041.554;21338.301;  239.525;    0.000
1041.708;23721.301;  238.525;    0.000
1041.863;23411.301;  213.525;    0.000
1042.018;22415.301;  236.525;    0.000
1042.172;22187.301;  238.525;    0.000
1042.327;21175.301;  254.525;    0.000
1042.481;21116.301;  197.525;    0.000
1042.636;21529.301;  205.525;    0.000
1042.791;20703.301;  218.525;    0.000
1042.945;24683.301;  261.525;    0.000
1043.099;28729.301;  201.525;    0.000
1043.254;26454.301;  191.525;    0.000
1043.408;27724.301;  279.525;    0.000
1043.563;29979.301;  203.525;    0.000
1043.717;27339.301;  229.525;    0.000
1043.871;25830.301;  213.525;    0.000
1044.025;25627.301;  240.525;    0.000
1044.180;24980.301;  220.525;    0.000
1044.334;26183.301;  268.525;    0.000
1044.488;27683.301;  261.525;    0.000
1044.642;28089.301;  205.525;    0.000
1044.796;31339.301;  240.525;    0.000
1044.950;35526.301;  258.525;    0.000
1045.104;37309.301;  218.525;    0.000
1045.258;37567.301;  213.525;    0.000
1045.412;35870.301;  223.525;    0.000
1045.566;36381.301;  240.525;    0.000
1045.720;34447.301;  235.525;    0.000
1045.874;32240.301;  221.525;    0.000
1046.028;31197.301;  247.525;    0.000
1046.182;29771.301;  200.525;    0.000
1046.336;31568.301;  220.525;    0.000
1046.489;32771.301;  228.525;    0.000
1046.643;33850.301;  249.525;    0.000
1046.797;37304.301;  230.525;    0.000
1046.951;36765.301;  234.525;    0.000
1047.104;38578.301;  262.525;    0.000
1047.258;41297.301;  210.525;    0.000
1047.411;42027.301;  235.525;    0.000
1047.565;40844.301;  237.525;    0.000
1047.719;41802.301;  237.525;    0.000
1047.872;39815.301;  225.525;    0.000
1048.026;36766.301;  237.525;    0.000
1048.179;37095.301;  220.525;    0.000
1048.332;37990.301;  219.525;    0.000
1048.486;37451.301;  195.525;    0.000
1048.639;36607.301;  213.525;    0.000
1048.792;37167.301;  245.525;    0.000
1048.946;40363.301;  234.525;    0.000
1049.099;43947.301;  226.525;    0.000
1049.252;44233.301;  282.525;    0.000
1049.406;39655.301;  255.525;    0.000
1049.559;43415.301;  223.525;    0.000
1049.712;48571.301;  253.525;    0.000
1049.865;51873.301;  271.525;    0.000
1050.018;49854.301;  241.525;    0.000
1050.171;45163.301;  202.525;    0.000
1050.324;42937.301;  250.525;    0.000
1050.477;45739.301;  251.525;    0.000
1050.630;49290.301;  216.525;    0.000
1050.783;51157.301;  205.525;    0.000
1050.936;46453.301;  219.525;    0.000
1051.089;43792.301;  247.525;    0.000
1051.242;45635.301;  238.525;    0.000
1051.394;50609.301;  252.525;    0.000
1051.547;52658.301;  245.525;    0.000
1051.700;50286.301;  206.525;    0.000
1051.853;47498.301;  270.525;    0.000
1052.005;49375.301;  245.525;    0.000
1052.158;57370.301;  290.525;    0.000
1052.311;63083.301;  237.525;    0.000
1052.463;60463.301;  271.525;    0.000
1052.616;52825.301;  255.525;    0.000
1052.768;47383.301;  257.525;    0.000
1052.921;45827.301;  289.525;    0.000
1053.073;50849.301;  287.525;    0.000
1053.226;55589.301;  268.525;    0.000
1053.378;63314.301;  294.525;    0.000
1053.531;65115.301;  255.525;    0.000
1053.683;61587.301;  293.525;    0.000
1053.835;52902.301;  274.525;    0.000
1053.988;42662.301;  282.525;    0.000
1054.140; 7367.300;  291.525;    0.000
1054.292; 1769.300;  292.525;    0.000
1054.444; 1409.300;  299.525;    0.000
1054.596; 1277.300;  319.525;    0.000
1054.749; 1135.300;  295.525;    0.000
1054.901; 1049.300;  266.525;    0.000
1055.053;  994.300;  300.525;    0.000
1055.205;  992.300;  290.525;    0.000
1055.357;  926.300;  304.525;    0.000
1055.509;  867.300;  292.525;    0.000
1055.661;  866.300;  339.525;    0.000
1055.813;  863.300;  306.525;    0.000
1055.965;  816.300;  293.525;    0.000
1056.116;  847.300;  300.525;    0.000
1056.268;  799.300;  306.525;    0.000
1056.420;  891.300;  288.525;    0.000

