
Integration time [ms]:   0.300
Averaging Nr. [scans]: 1
Smoothing Nr. [pixels]: 0
Data measured with spectrometer [name]: VIS
Wave   ;Sample   ;Dark     ;Reference
[nm]   ;[counts] ;[counts] ;[counts] 

450.961;  219.375;  204.125;    0.000
451.100;  240.375;  219.125;    0.000
451.239;  200.375;  196.125;    0.000
451.377;  243.375;  252.125;    0.000
451.516;  209.375;  215.125;    0.000
451.655;  209.375;  214.125;    0.000
451.794;  216.375;  241.125;    0.000
451.932;  218.375;  242.125;    0.000
452.071;  231.375;  204.125;    0.000
452.210;  214.375;  243.125;    0.000
452.348;  244.375;  241.125;    0.000
452.487;  220.375;  246.125;    0.000
452.626;  215.375;  235.125;    0.000
452.764;  245.375;  230.125;    0.000
452.903;  241.375;  199.125;    0.000
453.042;  238.375;  178.125;    0.000
453.180; 2480.375;  291.125;    0.000
453.319; 2561.375;  335.125;    0.000
453.458; 2466.375;  245.125;    0.000
453.596; 2574.375;  325.125;    0.000
453.735; 2579.375;  291.125;    0.000
453.873; 2624.375;  295.125;    0.000
454.012; 2536.375;  291.125;    0.000
454.150; 2609.375;  292.125;    0.000
454.289; 2661.375;  328.125;    0.000
454.427; 2715.375;  295.125;    0.000
454.566; 2738.375;  295.125;    0.000
454.704; 2790.375;  301.125;    0.000
454.843; 2760.375;  278.125;    0.000
454.981; 2844.375;  306.125;    0.000
455.120; 2769.375;  237.125;    0.000
455.258; 2917.375;  325.125;    0.000
455.397; 2841.375;  276.125;    0.000
455.535; 2832.375;  269.125;    0.000
455.674; 2894.375;  259.125;    0.000
455.812; 2918.375;  264.125;    0.000
455.951; 2950.375;  286.125;    0.000
456.089; 2950.375;  302.125;    0.000
456.227; 3034.375;  230.125;    0.000
456.366; 3067.375;  303.125;    0.000
456.504; 3095.375;  316.125;    0.000
456.642; 3157.375;  309.125;    0.000
456.781; 3189.375;  299.125;    0.000
456.919; 3049.375;  281.125;    0.000
457.057; 3205.375;  253.125;    0.000
457.196; 3125.375;  268.125;    0.000
457.334; 3298.375;  292.125;    0.000
457.472; 3292.375;  287.125;    0.000
457.610; 3388.375;  300.125;    0.000
457.749; 3464.375;  342.125;    0.000
457.887; 3456.375;  310.125;    0.000
458.025; 3481.375;  310.125;    0.000
458.163; 3548.375;  323.125;    0.000
458.301; 3542.375;  336.125;    0.000
458.440; 3666.375;  297.125;    0.000
458.578; 3714.375;  295.125;    0.000
458.716; 3740.375;  309.125;    0.000
458.854; 3768.375;  335.125;    0.000
458.992; 3869.375;  244.125;    0.000
459.130; 3727.375;  370.125;    0.000
459.269; 3967.375;  313.125;    0.000
459.407; 3906.375;  370.125;    0.000
459.545; 3970.375;  341.125;    0.000
459.683; 4036.375;  336.125;    0.000
459.821; 4025.375;  311.125;    0.000
459.959; 4205.375;  330.125;    0.000
460.097; 4135.375;  355.125;    0.000
460.235; 4195.375;  348.125;    0.000
460.373; 4168.375;  338.125;    0.000
460.511; 4246.375;  361.125;    0.000
460.649; 4206.375;  295.125;    0.000
460.787; 4361.375;  325.125;    0.000
460.925; 4323.375;  266.125;    0.000
461.063; 4278.375;  365.125;    0.000
461.201; 4299.375;  334.125;    0.000
461.339; 4425.375;  341.125;    0.000
461.477; 4372.375;  304.125;    0.000
461.615; 4433.375;  311.125;    0.000
461.753; 4521.375;  342.125;    0.000
461.891; 4537.375;  333.125;    0.000
462.029; 4648.375;  336.125;    0.000
462.166; 4732.375;  272.125;    0.000
462.304; 4804.375;  313.125;    0.000
462.442; 4880.375;  313.125;    0.000
462.580; 4830.375;  328.125;    0.000
462.718; 4780.375;  358.125;    0.000
462.856; 4820.375;  302.125;    0.000
462.993; 4900.375;  360.125;    0.000
463.131; 4852.375;  280.125;    0.000
463.269; 4841.375;  312.125;    0.000
463.407; 4754.375;  263.125;    0.000
463.545; 4710.375;  253.125;    0.000
463.682; 4710.375;  296.125;    0.000
463.820; 4950.375;  308.125;    0.000
463.958; 5026.375;  300.125;    0.000
464.095; 5179.375;  289.125;    0.000
464.233; 5261.375;  340.125;    0.000
464.371; 5173.375;  300.125;    0.000
464.509; 5093.375;  266.125;    0.000
464.646; 5149.375;  294.125;    0.000
464.784; 5123.375;  284.125;    0.000
464.921; 5010.375;  350.125;    0.000
465.059; 5042.375;  256.125;    0.000
465.197; 4946.375;  289.125;    0.000
465.334; 4842.375;  287.125;    0.000
465.472; 4687.375;  322.125;    0.000
465.609; 4865.375;  311.125;    0.000
465.747; 4635.375;  336.125;    0.000
465.885; 4671.375;  308.125;    0.000
466.022; 4673.375;  299.125;    0.000
466.160; 4607.375;  293.125;    0.000
466.297; 4622.375;  317.125;    0.000
466.435; 4549.375;  336.125;    0.000
466.572; 4589.375;  282.125;    0.000
466.710; 4612.375;  299.125;    0.000
466.847; 4651.375;  288.125;    0.000
466.985; 4591.375;  274.125;    0.000
467.122; 4502.375;  302.125;    0.000
467.260; 4520.375;  271.125;    0.000
467.397; 4640.375;  263.125;    0.000
467.534; 4669.375;  320.125;    0.000
467.672; 4411.375;  309.125;    0.000
467.809; 4541.375;  275.125;    0.000
467.947; 4576.375;  319.125;    0.000
468.084; 4484.375;  309.125;    0.000
468.221; 4530.375;  302.125;    0.000
468.359; 4595.375;  286.125;    0.000
468.496; 4638.375;  293.125;    0.000
468.633; 4472.375;  273.125;    0.000
468.771; 4550.375;  296.125;    0.000
468.908; 4631.375;  277.125;    0.000
469.045; 4599.375;  303.125;    0.000
469.183; 4727.375;  314.125;    0.000
469.320; 4598.375;  278.125;    0.000
469.457; 4715.375;  308.125;    0.000
469.594; 4801.375;  272.125;    0.000
469.732; 4689.375;  321.125;    0.000
469.869; 4813.375;  299.125;    0.000
470.006; 4805.375;  267.125;    0.000
470.143; 4889.375;  298.125;    0.000
470.280; 4768.375;  272.125;    0.000
470.417; 4924.375;  314.125;    0.000
470.555; 4796.375;  305.125;    0.000
470.692; 4860.375;  309.125;    0.000
470.829; 4838.375;  311.125;    0.000
470.966; 4746.375;  260.125;    0.000
471.103; 4816.375;  267.125;    0.000
471.240; 4852.375;  290.125;    0.000
471.377; 4944.375;  290.125;    0.000
471.514; 4733.375;  295.125;    0.000
471.651; 4649.375;  300.125;    0.000
471.789; 4694.375;  281.125;    0.000
471.926; 4694.375;  291.125;    0.000
472.063; 4704.375;  305.125;    0.000
472.200; 4698.375;  285.125;    0.000
472.337; 4726.375;  288.125;    0.000
472.474; 4695.375;  276.125;    0.000
472.611; 4681.375;  309.125;    0.000
472.748; 4568.375;  280.125;    0.000
472.884; 4669.375;  300.125;    0.000
473.021; 4607.375;  280.125;    0.000
473.158; 4587.375;  304.125;    0.000
473.295; 4662.375;  308.125;    0.000
473.432; 4718.375;  294.125;    0.000
473.569; 4614.375;  288.125;    0.000
473.706; 4607.375;  254.125;    0.000
473.843; 4585.375;  282.125;    0.000
473.980; 4661.375;  286.125;    0.000
474.117; 4647.375;  257.125;    0.000
474.253; 4777.375;  298.125;    0.000
474.390; 4637.375;  253.125;    0.000
474.527; 4670.375;  271.125;    0.000
474.664; 4646.375;  257.125;    0.000
474.801; 4681.375;  296.125;    0.000
474.937; 4572.375;  263.125;    0.000
475.074; 4630.375;  262.125;    0.000
475.211; 4663.375;  299.125;    0.000
475.348; 4827.375;  308.125;    0.000
475.484; 4760.375;  278.125;    0.000
475.621; 4732.375;  287.125;    0.000
475.758; 4749.375;  231.125;    0.000
475.894; 4737.375;  295.125;    0.000
476.031; 4665.375;  290.125;    0.000
476.168; 4764.375;  287.125;    0.000
476.304; 4744.375;  331.125;    0.000
476.441; 4738.375;  301.125;    0.000
476.578; 4678.375;  263.125;    0.000
476.714; 4854.375;  261.125;    0.000
476.851; 4752.375;  247.125;    0.000
476.987; 4792.375;  297.125;    0.000
477.124; 4827.375;  296.125;    0.000
477.261; 4851.375;  299.125;    0.000
477.397; 4663.375;  292.125;    0.000
477.534; 4898.375;  289.125;    0.000
477.670; 4860.375;  268.125;    0.000
477.807; 4867.375;  234.125;    0.000
477.943; 4989.375;  279.125;    0.000
478.080; 5059.375;  276.125;    0.000
478.216; 4921.375;  248.125;    0.000
478.353; 5164.375;  296.125;    0.000
478.489; 5169.375;  267.125;    0.000
478.626; 5184.375;  243.125;    0.000
478.762; 5165.375;  252.125;    0.000
478.898; 5246.375;  266.125;    0.000
479.035; 5114.375;  290.125;    0.000
479.171; 5146.375;  247.125;    0.000
479.308; 5078.375;  283.125;    0.000
479.444; 5080.375;  244.125;    0.000
479.580; 5117.375;  259.125;    0.000
479.717; 5297.375;  301.125;    0.000
479.853; 5101.375;  257.125;    0.000
479.989; 5221.375;  249.125;    0.000
480.126; 5294.375;  218.125;    0.000
480.262; 5328.375;  275.125;    0.000
480.398; 5312.375;  246.125;    0.000
480.535; 5298.375;  246.125;    0.000
480.671; 5296.375;  272.125;    0.000
480.807; 5255.375;  281.125;    0.000
480.943; 5248.375;  233.125;    0.000
481.080; 5156.375;  303.125;    0.000
481.216; 5173.375;  229.125;    0.000
481.352; 5282.375;  240.125;    0.000
481.488; 5137.375;  284.125;    0.000
481.624; 5178.375;  236.125;    0.000
481.760; 5286.375;  255.125;    0.000
481.897; 5180.375;  206.125;    0.000
482.033; 5145.375;  254.125;    0.000
482.169; 5124.375;  268.125;    0.000
482.305; 5207.375;  214.125;    0.000
482.441; 5145.375;  225.125;    0.000
482.577; 5228.375;  251.125;    0.000
482.713; 5180.375;  221.125;    0.000
482.849; 5078.375;  218.125;    0.000
482.985; 5171.375;  245.125;    0.000
483.121; 5120.375;  224.125;    0.000
483.258; 5122.375;  249.125;    0.000
483.394; 5142.375;  224.125;    0.000
483.530; 5095.375;  247.125;    0.000
483.665; 5155.375;  256.125;    0.000
483.801; 5100.375;  220.125;    0.000
483.937; 5025.375;  200.125;    0.000
484.073; 5179.375;  272.125;    0.000
484.209; 5145.375;  243.125;    0.000
484.345; 5281.375;  274.125;    0.000
484.481; 5166.375;  264.125;    0.000
484.617; 5284.375;  270.125;    0.000
484.753; 5259.375;  244.125;    0.000
484.889; 5270.375;  293.125;    0.000
485.025; 5248.375;  257.125;    0.000
485.161; 5361.375;  264.125;    0.000
485.296; 5340.375;  247.125;    0.000
485.432; 5343.375;  240.125;    0.000
485.568; 5263.375;  240.125;    0.000
485.704; 5396.375;  232.125;    0.000
485.840; 5236.375;  280.125;    0.000
485.975; 5372.375;  253.125;    0.000
486.111; 5275.375;  250.125;    0.000
486.247; 5387.375;  272.125;    0.000
486.383; 5342.375;  258.125;    0.000
486.518; 5388.375;  256.125;    0.000
486.654; 5306.375;  250.125;    0.000
486.790; 5385.375;  259.125;    0.000
486.926; 5257.375;  256.125;    0.000
487.061; 5219.375;  267.125;    0.000
487.197; 5382.375;  224.125;    0.000
487.333; 5227.375;  265.125;    0.000
487.468; 5322.375;  223.125;    0.000
487.604; 5334.375;  298.125;    0.000
487.740; 5241.375;  261.125;    0.000
487.875; 5339.375;  278.125;    0.000
488.011; 5403.375;  292.125;    0.000
488.146; 5325.375;  239.125;    0.000
488.282; 5325.375;  265.125;    0.000
488.417; 5400.375;  286.125;    0.000
488.553; 5293.375;  271.125;    0.000
488.688; 5339.375;  252.125;    0.000
488.824; 5324.375;  239.125;    0.000
488.960; 5384.375;  266.125;    0.000
489.095; 5388.375;  229.125;    0.000
489.230; 5440.375;  247.125;    0.000
489.366; 5393.375;  260.125;    0.000
489.501; 5480.375;  257.125;    0.000
489.637; 5418.375;  233.125;    0.000
489.772; 5404.375;  254.125;    0.000
489.908; 5494.375;  235.125;    0.000
490.043; 5494.375;  266.125;    0.000
490.178; 5528.375;  228.125;    0.000
490.314; 5549.375;  310.125;    0.000
490.449; 5478.375;  251.125;    0.000
490.585; 5423.375;  221.125;    0.000
490.720; 5361.375;  203.125;    0.000
490.855; 5506.375;  266.125;    0.000
490.991; 5298.375;  249.125;    0.000
491.126; 5595.375;  313.125;    0.000
491.261; 5505.375;  284.125;    0.000
491.396; 5492.375;  225.125;    0.000
491.532; 5535.375;  227.125;    0.000
491.667; 5453.375;  210.125;    0.000
491.802; 5507.375;  214.125;    0.000
491.937; 5666.375;  246.125;    0.000
492.073; 5540.375;  250.125;    0.000
492.208; 5527.375;  267.125;    0.000
492.343; 5566.375;  245.125;    0.000
492.478; 5615.375;  271.125;    0.000
492.613; 5609.375;  253.125;    0.000
492.749; 5614.375;  249.125;    0.000
492.884; 5693.375;  217.125;    0.000
493.019; 5563.375;  244.125;    0.000
493.154; 5571.375;  265.125;    0.000
493.289; 5592.375;  266.125;    0.000
493.424; 5551.375;  226.125;    0.000
493.559; 5484.375;  222.125;    0.000
493.694; 5443.375;  218.125;    0.000
493.829; 5523.375;  246.125;    0.000
493.964; 5482.375;  243.125;    0.000
494.099; 5521.375;  269.125;    0.000
494.234; 5636.375;  249.125;    0.000
494.369; 5589.375;  279.125;    0.000
494.504; 5615.375;  261.125;    0.000
494.639; 5483.375;  289.125;    0.000
494.774; 5520.375;  252.125;    0.000
494.909; 5610.375;  250.125;    0.000
495.044; 5518.375;  207.125;    0.000
495.179; 5479.375;  266.125;    0.000
495.314; 5651.375;  228.125;    0.000
495.449; 5580.375;  262.125;    0.000
495.584; 5625.375;  281.125;    0.000
495.719; 5619.375;  251.125;    0.000
495.854; 5521.375;  237.125;    0.000
495.988; 5657.375;  238.125;    0.000
496.123; 5630.375;  255.125;    0.000
496.258; 5602.375;  264.125;    0.000
496.393; 5639.375;  253.125;    0.000
496.528; 5708.375;  244.125;    0.000
496.663; 5760.375;  267.125;    0.000
496.797; 5799.375;  271.125;    0.000
496.932; 5873.375;  262.125;    0.000
497.067; 6061.375;  260.125;    0.000
497.202; 5932.375;  264.125;    0.000
497.336; 5924.375;  243.125;    0.000
497.471; 6245.375;  251.125;    0.000
497.606; 6196.375;  219.125;    0.000
497.740; 6270.375;  264.125;    0.000
497.875; 6534.375;  252.125;    0.000
498.010; 6770.375;  241.125;    0.000
498.144; 6824.375;  261.125;    0.000
498.279; 6686.375;  221.125;    0.000
498.414; 6989.375;  246.125;    0.000
498.548; 7017.375;  212.125;    0.000
498.683; 7031.375;  260.125;    0.000
498.817; 7254.375;  244.125;    0.000
498.952; 7255.375;  252.125;    0.000
499.087; 7518.375;  251.125;    0.000
499.221; 7672.375;  282.125;    0.000
499.356; 7725.375;  264.125;    0.000
499.490; 7789.375;  280.125;    0.000
499.625; 8061.375;  256.125;    0.000
499.759; 8399.375;  253.125;    0.000
499.894; 8618.375;  261.125;    0.000
500.028; 8722.375;  304.125;    0.000
500.162; 8976.375;  272.125;    0.000
500.297; 8942.375;  274.125;    0.000
500.431; 9223.375;  320.125;    0.000
500.566; 9139.375;  268.125;    0.000
500.700; 9145.375;  280.125;    0.000
500.835; 8992.375;  288.125;    0.000
500.969; 8697.375;  253.125;    0.000
501.103; 8509.375;  234.125;    0.000
501.238; 8191.375;  302.125;    0.000
501.372; 7896.375;  292.125;    0.000
501.506; 7778.375;  222.125;    0.000
501.641; 7406.375;  274.125;    0.000
501.775; 7072.375;  245.125;    0.000
501.909; 6933.375;  283.125;    0.000
502.043; 6938.375;  252.125;    0.000
502.178; 6757.375;  293.125;    0.000
502.312; 6601.375;  223.125;    0.000
502.446; 6520.375;  292.125;    0.000
502.580; 6354.375;  253.125;    0.000
502.715; 6445.375;  282.125;    0.000
502.849; 6220.375;  258.125;    0.000
502.983; 6280.375;  267.125;    0.000
503.117; 6188.375;  226.125;    0.000
503.251; 5967.375;  260.125;    0.000
503.385; 6010.375;  291.125;    0.000
503.520; 5948.375;  279.125;    0.000
503.654; 5748.375;  229.125;    0.000
503.788; 5644.375;  259.125;    0.000
503.922; 5601.375;  246.125;    0.000
504.056; 5587.375;  269.125;    0.000
504.190; 5600.375;  265.125;    0.000
504.324; 5702.375;  298.125;    0.000
504.458; 5548.375;  235.125;    0.000
504.592; 5390.375;  275.125;    0.000
504.726; 5371.375;  226.125;    0.000
504.860; 5348.375;  298.125;    0.000
504.994; 5287.375;  253.125;    0.000
505.128; 5146.375;  283.125;    0.000
505.262; 5115.375;  255.125;    0.000
505.396; 5145.375;  219.125;    0.000
505.530; 5044.375;  279.125;    0.000
505.664; 4887.375;  306.125;    0.000
505.798; 4931.375;  297.125;    0.000
505.932; 4849.375;  273.125;    0.000
506.066; 4870.375;  271.125;    0.000
506.199; 4816.375;  273.125;    0.000
506.333; 4765.375;  227.125;    0.000
506.467; 4627.375;  302.125;    0.000
506.601; 4564.375;  254.125;    0.000
506.735; 4689.375;  299.125;    0.000
506.869; 4706.375;  278.125;    0.000
507.002; 4608.375;  259.125;    0.000
507.136; 4495.375;  285.125;    0.000
507.270; 4624.375;  255.125;    0.000
507.404; 4504.375;  273.125;    0.000
507.537; 4381.375;  245.125;    0.000
507.671; 4390.375;  251.125;    0.000
507.805; 4387.375;  286.125;    0.000
507.939; 4474.375;  261.125;    0.000
508.072; 4478.375;  298.125;    0.000
508.206; 4416.375;  238.125;    0.000
508.340; 4401.375;  289.125;    0.000
508.473; 4341.375;  255.125;    0.000
508.607; 4355.375;  266.125;    0.000
508.740; 4389.375;  253.125;    0.000
508.874; 4234.375;  233.125;    0.000
509.008; 4322.375;  274.125;    0.000
509.141; 4360.375;  235.125;    0.000
509.275; 4239.375;  225.125;    0.000
509.408; 4262.375;  254.125;    0.000
509.542; 4187.375;  244.125;    0.000
509.675; 4211.375;  263.125;    0.000
509.809; 4190.375;  271.125;    0.000
509.942; 4267.375;  246.125;    0.000
510.076; 4273.375;  221.125;    0.000
510.209; 4185.375;  270.125;    0.000
510.343; 4267.375;  265.125;    0.000
510.476; 4209.375;  291.125;    0.000
510.610; 4057.375;  251.125;    0.000
510.743; 4136.375;  304.125;    0.000
510.877; 4144.375;  259.125;    0.000
511.010; 4091.375;  274.125;    0.000
511.143; 4048.375;  255.125;    0.000
511.277; 4128.375;  267.125;    0.000
511.410; 4008.375;  270.125;    0.000
511.543; 4040.375;  231.125;    0.000
511.677; 3999.375;  275.125;    0.000
511.810; 4064.375;  265.125;    0.000
511.943; 4050.375;  231.125;    0.000
512.077; 3994.375;  225.125;    0.000
512.210; 4042.375;  235.125;    0.000
512.343; 4127.375;  251.125;    0.000
512.476; 4036.375;  260.125;    0.000
512.610; 4083.375;  289.125;    0.000
512.743; 4003.375;  270.125;    0.000
512.876; 4059.375;  289.125;    0.000
513.009; 4113.375;  293.125;    0.000
513.142; 4128.375;  282.125;    0.000
513.276; 4011.375;  244.125;    0.000
513.409; 4027.375;  277.125;    0.000
513.542; 3971.375;  254.125;    0.000
513.675; 4040.375;  258.125;    0.000
513.808; 3946.375;  243.125;    0.000
513.941; 4029.375;  274.125;    0.000
514.074; 4027.375;  296.125;    0.000
514.207; 4051.375;  267.125;    0.000
514.340; 4040.375;  283.125;    0.000
514.474; 4079.375;  255.125;    0.000
514.607; 4100.375;  291.125;    0.000
514.740; 4075.375;  296.125;    0.000
514.873; 4105.375;  275.125;    0.000
515.006; 4278.375;  313.125;    0.000
515.139; 4233.375;  253.125;    0.000
515.272; 4266.375;  263.125;    0.000
515.404; 4309.375;  258.125;    0.000
515.537; 4354.375;  285.125;    0.000
515.670; 4335.375;  286.125;    0.000
515.803; 4272.375;  266.125;    0.000
515.936; 4361.375;  251.125;    0.000
516.069; 4360.375;  231.125;    0.000
516.202; 4359.375;  278.125;    0.000
516.335; 4537.375;  295.125;    0.000
516.468; 4620.375;  239.125;    0.000
516.600; 5144.375;  229.125;    0.000
516.733; 6194.375;  301.125;    0.000
516.866; 6369.375;  287.125;    0.000
516.999; 5960.375;  265.125;    0.000
517.132; 6882.375;  291.125;    0.000
517.264; 9206.375;  262.125;    0.000
517.397; 9191.375;  292.125;    0.000
517.530; 7208.375;  299.125;    0.000
517.663; 6120.375;  268.125;    0.000
517.795; 5889.375;  323.125;    0.000
517.928; 5573.375;  281.125;    0.000
518.061; 5653.375;  242.125;    0.000
518.193; 6952.375;  279.125;    0.000
518.326;10624.375;  288.125;    0.000
518.459;11544.375;  251.125;    0.000
518.591; 9150.375;  314.125;    0.000
518.724; 6850.375;  279.125;    0.000
518.857; 5888.375;  245.125;    0.000
518.989; 5508.375;  290.125;    0.000
519.122; 5136.375;  319.125;    0.000
519.254; 4939.375;  295.125;    0.000
519.387; 4815.375;  271.125;    0.000
519.519; 4588.375;  312.125;    0.000
519.652; 4548.375;  289.125;    0.000
519.784; 4330.375;  311.125;    0.000
519.917; 4315.375;  283.125;    0.000
520.049; 4315.375;  281.125;    0.000
520.182; 4264.375;  242.125;    0.000
520.314; 4244.375;  310.125;    0.000
520.447; 4113.375;  215.125;    0.000
520.579; 4157.375;  277.125;    0.000
520.712; 4129.375;  224.125;    0.000
520.844; 4102.375;  293.125;    0.000
520.976; 4034.375;  281.125;    0.000
521.109; 3970.375;  279.125;    0.000
521.241; 3950.375;  318.125;    0.000
521.373; 3806.375;  242.125;    0.000
521.506; 3853.375;  246.125;    0.000
521.638; 3769.375;  312.125;    0.000
521.770; 3839.375;  257.125;    0.000
521.903; 3825.375;  295.125;    0.000
522.035; 3717.375;  283.125;    0.000
522.167; 3764.375;  281.125;    0.000
522.300; 3756.375;  262.125;    0.000
522.432; 3719.375;  272.125;    0.000
522.564; 3612.375;  277.125;    0.000
522.696; 3610.375;  295.125;    0.000
522.828; 3656.375;  284.125;    0.000
522.961; 3596.375;  295.125;    0.000
523.093; 3709.375;  282.125;    0.000
523.225; 3664.375;  270.125;    0.000
523.357; 3601.375;  285.125;    0.000
523.489; 3578.375;  292.125;    0.000
523.621; 3578.375;  285.125;    0.000
523.753; 3504.375;  273.125;    0.000
523.885; 3532.375;  271.125;    0.000
524.018; 3372.375;  276.125;    0.000
524.150; 3539.375;  320.125;    0.000
524.282; 3543.375;  304.125;    0.000
524.414; 3536.375;  302.125;    0.000
524.546; 3400.375;  305.125;    0.000
524.678; 3478.375;  264.125;    0.000
524.810; 3415.375;  258.125;    0.000
524.942; 3387.375;  252.125;    0.000
525.074; 3368.375;  275.125;    0.000
525.206; 3426.375;  286.125;    0.000
525.338; 3369.375;  280.125;    0.000
525.469; 3391.375;  267.125;    0.000
525.601; 3417.375;  266.125;    0.000
525.733; 3400.375;  283.125;    0.000
525.865; 3363.375;  273.125;    0.000
525.997; 3324.375;  286.125;    0.000
526.129; 3423.375;  249.125;    0.000
526.261; 3282.375;  233.125;    0.000
526.393; 3300.375;  257.125;    0.000
526.524; 3269.375;  184.125;    0.000
526.656; 3282.375;  259.125;    0.000
526.788; 3321.375;  268.125;    0.000
526.920; 3289.375;  262.125;    0.000
527.052; 3264.375;  250.125;    0.000
527.183; 3264.375;  264.125;    0.000
527.315; 3347.375;  301.125;    0.000
527.447; 3328.375;  262.125;    0.000
527.578; 3222.375;  267.125;    0.000
527.710; 3288.375;  299.125;    0.000
527.842; 3184.375;  266.125;    0.000
527.973; 3289.375;  240.125;    0.000
528.105; 3238.375;  275.125;    0.000
528.237; 3253.375;  239.125;    0.000
528.368; 3228.375;  275.125;    0.000
528.500; 3224.375;  271.125;    0.000
528.632; 3258.375;  252.125;    0.000
528.763; 3271.375;  253.125;    0.000
528.895; 3270.375;  259.125;    0.000
529.026; 3280.375;  209.125;    0.000
529.158; 3226.375;  291.125;    0.000
529.289; 3255.375;  280.125;    0.000
529.421; 3325.375;  274.125;    0.000
529.552; 3271.375;  253.125;    0.000
529.684; 3298.375;  310.125;    0.000
529.815; 3311.375;  305.125;    0.000
529.947; 3333.375;  234.125;    0.000
530.078; 3246.375;  259.125;    0.000
530.210; 3189.375;  264.125;    0.000
530.341; 3267.375;  267.125;    0.000
530.472; 3237.375;  232.125;    0.000
530.604; 3216.375;  293.125;    0.000
530.735; 3211.375;  275.125;    0.000
530.867; 3304.375;  280.125;    0.000
530.998; 3229.375;  295.125;    0.000
531.129; 3250.375;  274.125;    0.000
531.260; 3278.375;  272.125;    0.000
531.392; 3265.375;  275.125;    0.000
531.523; 3376.375;  244.125;    0.000
531.654; 3332.375;  289.125;    0.000
531.786; 3413.375;  259.125;    0.000
531.917; 3441.375;  286.125;    0.000
532.048; 3254.375;  293.125;    0.000
532.179; 3294.375;  288.125;    0.000
532.311; 3346.375;  296.125;    0.000
532.442; 3274.375;  277.125;    0.000
532.573; 3318.375;  273.125;    0.000
532.704; 3313.375;  308.125;    0.000
532.835; 3301.375;  308.125;    0.000
532.966; 3263.375;  274.125;    0.000
533.097; 3209.375;  310.125;    0.000
533.229; 3265.375;  294.125;    0.000
533.360; 3268.375;  324.125;    0.000
533.491; 3258.375;  278.125;    0.000
533.622; 3327.375;  319.125;    0.000
533.753; 3362.375;  303.125;    0.000
533.884; 3302.375;  269.125;    0.000
534.015; 3274.375;  266.125;    0.000
534.146; 3309.375;  283.125;    0.000
534.277; 3367.375;  299.125;    0.000
534.408; 3321.375;  265.125;    0.000
534.539; 3361.375;  310.125;    0.000
534.670; 3291.375;  319.125;    0.000
534.801; 3258.375;  281.125;    0.000
534.932; 3237.375;  239.125;    0.000
535.063; 3220.375;  276.125;    0.000
535.194; 3304.375;  361.125;    0.000
535.324; 3271.375;  283.125;    0.000
535.455; 3195.375;  282.125;    0.000
535.586; 3340.375;  331.125;    0.000
535.717; 3228.375;  262.125;    0.000
535.848; 3198.375;  308.125;    0.000
535.979; 3191.375;  273.125;    0.000
536.109; 3175.375;  277.125;    0.000
536.240; 3168.375;  293.125;    0.000
536.371; 3256.375;  295.125;    0.000
536.502; 3265.375;  330.125;    0.000
536.632; 3197.375;  280.125;    0.000
536.763; 3143.375;  332.125;    0.000
536.894; 3182.375;  334.125;    0.000
537.025; 3084.375;  295.125;    0.000
537.155; 3274.375;  321.125;    0.000
537.286; 3128.375;  292.125;    0.000
537.417; 3175.375;  314.125;    0.000
537.547; 3155.375;  287.125;    0.000
537.678; 3164.375;  287.125;    0.000
537.808; 3103.375;  278.125;    0.000
537.939; 3120.375;  304.125;    0.000
538.070; 3101.375;  303.125;    0.000
538.200; 3117.375;  279.125;    0.000
538.331; 3120.375;  321.125;    0.000
538.461; 3075.375;  313.125;    0.000
538.592; 3140.375;  290.125;    0.000
538.722; 3142.375;  285.125;    0.000
538.853; 3124.375;  261.125;    0.000
538.983; 3020.375;  280.125;    0.000
539.114; 3049.375;  310.125;    0.000
539.244; 3088.375;  281.125;    0.000
539.375; 3121.375;  292.125;    0.000
539.505; 3206.375;  286.125;    0.000
539.636; 3048.375;  276.125;    0.000
539.766; 3220.375;  287.125;    0.000
539.896; 3094.375;  292.125;    0.000
540.027; 3146.375;  262.125;    0.000
540.157; 3157.375;  269.125;    0.000
540.287; 3152.375;  282.125;    0.000
540.418; 3150.375;  269.125;    0.000
540.548; 3103.375;  328.125;    0.000
540.678; 3147.375;  271.125;    0.000
540.809; 3200.375;  272.125;    0.000
540.939; 3134.375;  299.125;    0.000
541.069; 3109.375;  266.125;    0.000
541.200; 3175.375;  242.125;    0.000
541.330; 3137.375;  257.125;    0.000
541.460; 3138.375;  270.125;    0.000
541.590; 3121.375;  287.125;    0.000
541.720; 3176.375;  255.125;    0.000
541.851; 3175.375;  273.125;    0.000
541.981; 3188.375;  244.125;    0.000
542.111; 3215.375;  263.125;    0.000
542.241; 3286.375;  271.125;    0.000
542.371; 3236.375;  263.125;    0.000
542.501; 3343.375;  274.125;    0.000
542.631; 3290.375;  288.125;    0.000
542.761; 3367.375;  261.125;    0.000
542.891; 3393.375;  253.125;    0.000
543.021; 3366.375;  249.125;    0.000
543.151; 3493.375;  261.125;    0.000
543.281; 3435.375;  256.125;    0.000
543.411; 3437.375;  290.125;    0.000
543.542; 3276.375;  278.125;    0.000
543.671; 3249.375;  238.125;    0.000
543.801; 3358.375;  256.125;    0.000
543.931; 3325.375;  254.125;    0.000
544.061; 3252.375;  237.125;    0.000
544.191; 3284.375;  245.125;    0.000
544.321; 3312.375;  267.125;    0.000
544.451; 3301.375;  262.125;    0.000
544.581; 3278.375;  221.125;    0.000
544.711; 3430.375;  252.125;    0.000
544.841; 3410.375;  264.125;    0.000
544.970; 3468.375;  315.125;    0.000
545.100; 3410.375;  245.125;    0.000
545.230; 3519.375;  276.125;    0.000
545.360; 3559.375;  278.125;    0.000
545.490; 3511.375;  268.125;    0.000
545.619; 3460.375;  237.125;    0.000
545.749; 3345.375;  228.125;    0.000
545.879; 3319.375;  234.125;    0.000
546.009; 3337.375;  287.125;    0.000
546.138; 3301.375;  222.125;    0.000
546.268; 3264.375;  228.125;    0.000
546.398; 3298.375;  244.125;    0.000
546.527; 3253.375;  233.125;    0.000
546.657; 3308.375;  189.125;    0.000
546.786; 3354.375;  247.125;    0.000
546.916; 3290.375;  244.125;    0.000
547.046; 3345.375;  214.125;    0.000
547.175; 3302.375;  242.125;    0.000
547.305; 3414.375;  252.125;    0.000
547.434; 3241.375;  191.125;    0.000
547.564; 3301.375;  208.125;    0.000
547.693; 3248.375;  213.125;    0.000
547.823; 3349.375;  209.125;    0.000
547.953; 3331.375;  250.125;    0.000
548.082; 3306.375;  231.125;    0.000
548.211; 3188.375;  226.125;    0.000
548.341; 3318.375;  254.125;    0.000
548.470; 3180.375;  266.125;    0.000
548.600; 3337.375;  229.125;    0.000
548.729; 3299.375;  225.125;    0.000
548.859; 3182.375;  185.125;    0.000
548.988; 3299.375;  225.125;    0.000
549.117; 3260.375;  241.125;    0.000
549.247; 3372.375;  236.125;    0.000
549.376; 3295.375;  220.125;    0.000
549.505; 3223.375;  254.125;    0.000
549.635; 3367.375;  268.125;    0.000
549.764; 3252.375;  194.125;    0.000
549.893; 3314.375;  232.125;    0.000
550.023; 3247.375;  222.125;    0.000
550.152; 3335.375;  223.125;    0.000
550.281; 3399.375;  210.125;    0.000
550.410; 3444.375;  197.125;    0.000
550.539; 3413.375;  222.125;    0.000
550.669; 3419.375;  245.125;    0.000
550.798; 3337.375;  265.125;    0.000
550.927; 3381.375;  249.125;    0.000
551.056; 3354.375;  184.125;    0.000
551.185; 3358.375;  247.125;    0.000
551.314; 3421.375;  258.125;    0.000
551.443; 3394.375;  224.125;    0.000
551.573; 3374.375;  204.125;    0.000
551.702; 3325.375;  220.125;    0.000
551.831; 3381.375;  287.125;    0.000
551.960; 3348.375;  259.125;    0.000
552.089; 3453.375;  222.125;    0.000
552.218; 3475.375;  254.125;    0.000
552.347; 3512.375;  260.125;    0.000
552.476; 3548.375;  251.125;    0.000
552.605; 3504.375;  229.125;    0.000
552.734; 3654.375;  261.125;    0.000
552.863; 3559.375;  225.125;    0.000
552.992; 3696.375;  202.125;    0.000
553.121; 3606.375;  193.125;    0.000
553.249; 3612.375;  224.125;    0.000
553.378; 3597.375;  274.125;    0.000
553.507; 3559.375;  248.125;    0.000
553.636; 3502.375;  203.125;    0.000
553.765; 3455.375;  224.125;    0.000
553.894; 3470.375;  246.125;    0.000
554.023; 3588.375;  229.125;    0.000
554.151; 3527.375;  216.125;    0.000
554.280; 3459.375;  223.125;    0.000
554.409; 3527.375;  240.125;    0.000
554.538; 3431.375;  277.125;    0.000
554.666; 3524.375;  244.125;    0.000
554.795; 3449.375;  240.125;    0.000
554.924; 3399.375;  257.125;    0.000
555.052; 3413.375;  266.125;    0.000
555.181; 3387.375;  244.125;    0.000
555.310; 3338.375;  262.125;    0.000
555.439; 3436.375;  260.125;    0.000
555.567; 3333.375;  234.125;    0.000
555.696; 3420.375;  237.125;    0.000
555.824; 3251.375;  232.125;    0.000
555.953; 3279.375;  279.125;    0.000
556.082; 3328.375;  234.125;    0.000
556.210; 3426.375;  235.125;    0.000
556.339; 3390.375;  198.125;    0.000
556.467; 3317.375;  216.125;    0.000
556.596; 3261.375;  273.125;    0.000
556.724; 3354.375;  245.125;    0.000
556.853; 3405.375;  241.125;    0.000
556.981; 3303.375;  219.125;    0.000
557.110; 3306.375;  242.125;    0.000
557.238; 3312.375;  202.125;    0.000
557.367; 3279.375;  254.125;    0.000
557.495; 3336.375;  260.125;    0.000
557.623; 3153.375;  207.125;    0.000
557.752; 3187.375;  219.125;    0.000
557.880; 3350.375;  209.125;    0.000
558.008; 3329.375;  243.125;    0.000
558.137; 3314.375;  244.125;    0.000
558.265; 3218.375;  221.125;    0.000
558.393; 3297.375;  297.125;    0.000
558.522; 3361.375;  232.125;    0.000
558.650; 3432.375;  299.125;    0.000
558.778; 3297.375;  210.125;    0.000
558.906; 3279.375;  240.125;    0.000
559.035; 3258.375;  252.125;    0.000
559.163; 3330.375;  246.125;    0.000
559.291; 3302.375;  213.125;    0.000
559.419; 3312.375;  221.125;    0.000
559.548; 3363.375;  208.125;    0.000
559.676; 3323.375;  254.125;    0.000
559.804; 3393.375;  213.125;    0.000
559.932; 3271.375;  208.125;    0.000
560.060; 3310.375;  276.125;    0.000
560.188; 3447.375;  278.125;    0.000
560.316; 3425.375;  217.125;    0.000
560.444; 3374.375;  254.125;    0.000
560.572; 3439.375;  226.125;    0.000
560.700; 3465.375;  282.125;    0.000
560.828; 3527.375;  211.125;    0.000
560.956; 3602.375;  264.125;    0.000
561.085; 3491.375;  295.125;    0.000
561.212; 3455.375;  229.125;    0.000
561.340; 3532.375;  259.125;    0.000
561.468; 3613.375;  253.125;    0.000
561.596; 3591.375;  240.125;    0.000
561.724; 3533.375;  259.125;    0.000
561.852; 3633.375;  224.125;    0.000
561.980; 3544.375;  251.125;    0.000
562.108; 3522.375;  214.125;    0.000
562.236; 3561.375;  258.125;    0.000
562.364; 3538.375;  237.125;    0.000
562.492; 3578.375;  228.125;    0.000
562.619; 3638.375;  223.125;    0.000
562.747; 3639.375;  263.125;    0.000
562.875; 3658.375;  257.125;    0.000
563.003; 3705.375;  216.125;    0.000
563.130; 3649.375;  190.125;    0.000
563.258; 3715.375;  225.125;    0.000
563.386; 3775.375;  259.125;    0.000
563.514; 3907.375;  264.125;    0.000
563.641; 3874.375;  230.125;    0.000
563.769; 3886.375;  257.125;    0.000
563.897; 3985.375;  210.125;    0.000
564.024; 4019.375;  221.125;    0.000
564.152; 4081.375;  256.125;    0.000
564.280; 4041.375;  225.125;    0.000
564.407; 4091.375;  262.125;    0.000
564.535; 4034.375;  235.125;    0.000
564.662; 4167.375;  238.125;    0.000
564.790; 4152.375;  248.125;    0.000
564.917; 4172.375;  214.125;    0.000
565.045; 4279.375;  253.125;    0.000
565.173; 4149.375;  225.125;    0.000
565.300; 4247.375;  261.125;    0.000
565.428; 4384.375;  218.125;    0.000
565.555; 4414.375;  245.125;    0.000
565.682; 4439.375;  242.125;    0.000
565.810; 4468.375;  228.125;    0.000
565.937; 4705.375;  230.125;    0.000
566.065; 4638.375;  251.125;    0.000
566.192; 4825.375;  196.125;    0.000
566.320; 4941.375;  217.125;    0.000
566.447; 4970.375;  224.125;    0.000
566.574; 5110.375;  221.125;    0.000
566.702; 5145.375;  221.125;    0.000
566.829; 5222.375;  252.125;    0.000
566.956; 5276.375;  214.125;    0.000
567.083; 5231.375;  204.125;    0.000
567.211; 5351.375;  216.125;    0.000
567.338; 5300.375;  228.125;    0.000
567.465; 5413.375;  208.125;    0.000
567.593; 5448.375;  205.125;    0.000
567.720; 5497.375;  194.125;    0.000
567.847; 5395.375;  268.125;    0.000
567.974; 5498.375;  198.125;    0.000
568.101; 5756.375;  224.125;    0.000
568.228; 6492.375;  236.125;    0.000
568.356; 6760.375;  207.125;    0.000
568.483; 6519.375;  220.125;    0.000
568.610; 6527.375;  181.125;    0.000
568.737; 7272.375;  216.125;    0.000
568.864; 8158.375;  258.125;    0.000
568.991; 7774.375;  203.125;    0.000
569.118; 6895.375;  232.125;    0.000
569.245; 6439.375;  192.125;    0.000
569.372; 6092.375;  226.125;    0.000
569.499; 5759.375;  211.125;    0.000
569.626; 5487.375;  247.125;    0.000
569.753; 5365.375;  248.125;    0.000
569.880; 5165.375;  226.125;    0.000
570.007; 5042.375;  215.125;    0.000
570.134; 4951.375;  205.125;    0.000
570.261; 4817.375;  187.125;    0.000
570.388; 4820.375;  258.125;    0.000
570.515; 4626.375;  241.125;    0.000
570.642; 4661.375;  211.125;    0.000
570.768; 4493.375;  228.125;    0.000
570.895; 4470.375;  229.125;    0.000
571.022; 4480.375;  203.125;    0.000
571.149; 4401.375;  206.125;    0.000
571.276; 4348.375;  191.125;    0.000
571.402; 4236.375;  218.125;    0.000
571.529; 4263.375;  192.125;    0.000
571.656; 4262.375;  209.125;    0.000
571.783; 4118.375;  181.125;    0.000
571.909; 4108.375;  251.125;    0.000
572.036; 4042.375;  225.125;    0.000
572.163; 4041.375;  214.125;    0.000
572.289; 4039.375;  252.125;    0.000
572.416; 3967.375;  220.125;    0.000
572.543; 3914.375;  225.125;    0.000
572.669; 3937.375;  226.125;    0.000
572.796; 3982.375;  231.125;    0.000
572.922; 3869.375;  258.125;    0.000
573.049; 3855.375;  202.125;    0.000
573.176; 3821.375;  254.125;    0.000
573.302; 3898.375;  215.125;    0.000
573.429; 3963.375;  251.125;    0.000
573.555; 3870.375;  221.125;    0.000
573.682; 3847.375;  227.125;    0.000
573.808; 3810.375;  259.125;    0.000
573.935; 3863.375;  233.125;    0.000
574.061; 3733.375;  241.125;    0.000
574.188; 3799.375;  238.125;    0.000
574.314; 3753.375;  221.125;    0.000
574.440; 3729.375;  221.125;    0.000
574.567; 3753.375;  216.125;    0.000
574.693; 3756.375;  224.125;    0.000
574.820; 3719.375;  199.125;    0.000
574.946; 3704.375;  248.125;    0.000
575.072; 3756.375;  220.125;    0.000
575.198; 3774.375;  262.125;    0.000
575.325; 3748.375;  232.125;    0.000
575.451; 3733.375;  225.125;    0.000
575.577; 3778.375;  216.125;    0.000
575.704; 3712.375;  248.125;    0.000
575.830; 3705.375;  227.125;    0.000
575.956; 3636.375;  206.125;    0.000
576.082; 3652.375;  222.125;    0.000
576.208; 3775.375;  206.125;    0.000
576.335; 3652.375;  256.125;    0.000
576.461; 3658.375;  247.125;    0.000
576.587; 3654.375;  219.125;    0.000
576.713; 3666.375;  215.125;    0.000
576.839; 3641.375;  225.125;    0.000
576.965; 3702.375;  230.125;    0.000
577.091; 3653.375;  235.125;    0.000
577.217; 3739.375;  235.125;    0.000
577.343; 3713.375;  233.125;    0.000
577.469; 3658.375;  242.125;    0.000
577.596; 3697.375;  241.125;    0.000
577.722; 3690.375;  255.125;    0.000
577.848; 3671.375;  235.125;    0.000
577.974; 3714.375;  210.125;    0.000
578.099; 3711.375;  239.125;    0.000
578.225; 3694.375;  258.125;    0.000
578.351; 3751.375;  209.125;    0.000
578.477; 3743.375;  255.125;    0.000
578.603; 3747.375;  213.125;    0.000
578.729; 3669.375;  221.125;    0.000
578.855; 3651.375;  209.125;    0.000
578.981; 3653.375;  206.125;    0.000
579.107; 3767.375;  221.125;    0.000
579.232; 3817.375;  206.125;    0.000
579.358; 3682.375;  226.125;    0.000
579.484; 3745.375;  244.125;    0.000
579.610; 3768.375;  261.125;    0.000
579.735; 3691.375;  270.125;    0.000
579.861; 3780.375;  255.125;    0.000
579.987; 3845.375;  249.125;    0.000
580.113; 3836.375;  260.125;    0.000
580.238; 3820.375;  206.125;    0.000
580.364; 3901.375;  249.125;    0.000
580.490; 3804.375;  225.125;    0.000
580.615; 3890.375;  266.125;    0.000
580.741; 3828.375;  224.125;    0.000
580.867; 3862.375;  251.125;    0.000
580.992; 3894.375;  270.125;    0.000
581.118; 3938.375;  248.125;    0.000
581.243; 4023.375;  251.125;    0.000
581.369; 3946.375;  192.125;    0.000
581.494; 3913.375;  259.125;    0.000
581.620; 4099.375;  245.125;    0.000
581.745; 3973.375;  232.125;    0.000
581.871; 4101.375;  243.125;    0.000
581.996; 4057.375;  216.125;    0.000
582.122; 4184.375;  263.125;    0.000
582.247; 4233.375;  254.125;    0.000
582.373; 4218.375;  232.125;    0.000
582.498; 4286.375;  275.125;    0.000
582.624; 4274.375;  260.125;    0.000
582.749; 4278.375;  251.125;    0.000
582.874; 4292.375;  245.125;    0.000
583.000; 4359.375;  278.125;    0.000
583.125; 4471.375;  211.125;    0.000
583.250; 4403.375;  246.125;    0.000
583.376; 4497.375;  259.125;    0.000
583.501; 4594.375;  254.125;    0.000
583.626; 4613.375;  209.125;    0.000
583.751; 4631.375;  239.125;    0.000
583.877; 4681.375;  255.125;    0.000
584.002; 4806.375;  263.125;    0.000
584.127; 4831.375;  205.125;    0.000
584.252; 4956.375;  196.125;    0.000
584.377; 4999.375;  249.125;    0.000
584.503; 4976.375;  219.125;    0.000
584.628; 5035.375;  243.125;    0.000
584.753; 5189.375;  250.125;    0.000
584.878; 5250.375;  208.125;    0.000
585.003; 5499.375;  234.125;    0.000
585.128; 5484.375;  207.125;    0.000
585.253; 5701.375;  219.125;    0.000
585.378; 5756.375;  205.125;    0.000
585.503; 6131.375;  256.125;    0.000
585.628; 6069.375;  217.125;    0.000
585.753; 6070.375;  213.125;    0.000
585.878; 6246.375;  147.125;    0.000
586.003; 6464.375;  256.125;    0.000
586.128; 6701.375;  214.125;    0.000
586.253; 6954.375;  254.125;    0.000
586.378; 7105.375;  252.125;    0.000
586.503; 7509.375;  219.125;    0.000
586.628; 7612.375;  226.125;    0.000
586.753; 7932.375;  237.125;    0.000
586.878; 8239.375;  185.125;    0.000
587.003; 8686.375;  248.125;    0.000
587.127; 9134.375;  237.125;    0.000
587.252; 9696.375;  221.125;    0.000
587.377;10140.375;  244.125;    0.000
587.502;10913.375;  260.125;    0.000
587.627;11533.375;  232.125;    0.000
587.751;12739.375;  250.125;    0.000
587.876;13522.375;  234.125;    0.000
588.001;14912.375;  248.125;    0.000
588.125;16504.375;  236.125;    0.000
588.250;18500.375;  192.125;    0.000
588.375;20931.375;  265.125;    0.000
588.499;23749.375;  235.125;    0.000
588.624;28266.375;  212.125;    0.000
588.749;33634.375;  214.125;    0.000
588.873;38824.375;  236.125;    0.000
588.998;43511.375;  230.125;    0.000
589.122;45222.375;  231.125;    0.000
589.247;43751.375;  250.125;    0.000
589.372;40573.375;  247.125;    0.000
589.496;40646.375;  230.125;    0.000
589.621;42545.375;  237.125;    0.000
589.745;41457.375;  277.125;    0.000
589.870;35785.375;  283.125;    0.000
589.994;29888.375;  263.125;    0.000
590.118;25537.375;  239.125;    0.000
590.243;21952.375;  218.125;    0.000
590.367;19490.375;  226.125;    0.000
590.492;17580.375;  269.125;    0.000
590.616;15804.375;  205.125;    0.000
590.740;14738.375;  243.125;    0.000
590.865;13428.375;  281.125;    0.000
590.989;12749.375;  233.125;    0.000
591.114;11924.375;  222.125;    0.000
591.238;11174.375;  204.125;    0.000
591.362;10589.375;  283.125;    0.000
591.486;10146.375;  236.125;    0.000
591.611; 9670.375;  228.125;    0.000
591.735; 9182.375;  249.125;    0.000
591.859; 8623.375;  202.125;    0.000
591.983; 8444.375;  257.125;    0.000
592.107; 8333.375;  230.125;    0.000
592.232; 7939.375;  266.125;    0.000
592.356; 7833.375;  232.125;    0.000
592.480; 7559.375;  245.125;    0.000
592.604; 7400.375;  254.125;    0.000
592.728; 7198.375;  233.125;    0.000
592.852; 7051.375;  213.125;    0.000
592.976; 6666.375;  234.125;    0.000
593.100; 6677.375;  246.125;    0.000
593.224; 6630.375;  305.125;    0.000
593.349; 6399.375;  240.125;    0.000
593.473; 6295.375;  206.125;    0.000
593.597; 6187.375;  243.125;    0.000
593.721; 6130.375;  247.125;    0.000
593.844; 5961.375;  230.125;    0.000
593.968; 5913.375;  226.125;    0.000
594.092; 5787.375;  193.125;    0.000
594.216; 5585.375;  237.125;    0.000
594.340; 5595.375;  235.125;    0.000
594.464; 5544.375;  225.125;    0.000
594.588; 5354.375;  269.125;    0.000
594.712; 5305.375;  242.125;    0.000
594.836; 5216.375;  240.125;    0.000
594.959; 5131.375;  255.125;    0.000
595.083; 4978.375;  258.125;    0.000
595.207; 4985.375;  264.125;    0.000
595.331; 4828.375;  215.125;    0.000
595.455; 4816.375;  234.125;    0.000
595.578; 4839.375;  215.125;    0.000
595.702; 4725.375;  259.125;    0.000
595.826; 4612.375;  232.125;    0.000
595.949; 4538.375;  251.125;    0.000
596.073; 4466.375;  197.125;    0.000
596.197; 4497.375;  239.125;    0.000
596.320; 4538.375;  229.125;    0.000
596.444; 4374.375;  264.125;    0.000
596.568; 4193.375;  207.125;    0.000
596.691; 4237.375;  234.125;    0.000
596.815; 4290.375;  241.125;    0.000
596.938; 4179.375;  244.125;    0.000
597.062; 4261.375;  210.125;    0.000
597.186; 4100.375;  247.125;    0.000
597.309; 4008.375;  215.125;    0.000
597.433; 4105.375;  266.125;    0.000
597.556; 4019.375;  234.125;    0.000
597.680; 3974.375;  261.125;    0.000
597.803; 3932.375;  239.125;    0.000
597.926; 3842.375;  251.125;    0.000
598.050; 3840.375;  227.125;    0.000
598.173; 3801.375;  247.125;    0.000
598.297; 3797.375;  244.125;    0.000
598.420; 3842.375;  243.125;    0.000
598.543; 3731.375;  237.125;    0.000
598.667; 3722.375;  239.125;    0.000
598.790; 3748.375;  217.125;    0.000
598.913; 3738.375;  244.125;    0.000
599.037; 3691.375;  249.125;    0.000
599.160; 3647.375;  222.125;    0.000
599.283; 3643.375;  235.125;    0.000
599.406; 3620.375;  228.125;    0.000
599.530; 3611.375;  234.125;    0.000
599.653; 3657.375;  228.125;    0.000
599.776; 3691.375;  263.125;    0.000
599.899; 3661.375;  197.125;    0.000
600.022; 3660.375;  224.125;    0.000
600.145; 3687.375;  211.125;    0.000
600.269; 3564.375;  246.125;    0.000
600.392; 3521.375;  233.125;    0.000
600.515; 3542.375;  266.125;    0.000
600.638; 3562.375;  246.125;    0.000
600.761; 3473.375;  213.125;    0.000
600.884; 3410.375;  279.125;    0.000
601.007; 3448.375;  268.125;    0.000
601.130; 3393.375;  203.125;    0.000
601.253; 3393.375;  241.125;    0.000
601.376; 3356.375;  248.125;    0.000
601.499; 3389.375;  241.125;    0.000
601.622; 3358.375;  266.125;    0.000
601.745; 3334.375;  237.125;    0.000
601.868; 3332.375;  256.125;    0.000
601.991; 3366.375;  260.125;    0.000
602.113; 3408.375;  246.125;    0.000
602.236; 3215.375;  243.125;    0.000
602.359; 3265.375;  220.125;    0.000
602.482; 3300.375;  236.125;    0.000
602.605; 3313.375;  216.125;    0.000
602.728; 3206.375;  247.125;    0.000
602.850; 3327.375;  255.125;    0.000
602.973; 3202.375;  224.125;    0.000
603.096; 3290.375;  258.125;    0.000
603.219; 3266.375;  222.125;    0.000
603.341; 3293.375;  235.125;    0.000
603.464; 3279.375;  223.125;    0.000
603.587; 3199.375;  250.125;    0.000
603.709; 3229.375;  229.125;    0.000
603.832; 3139.375;  285.125;    0.000
603.955; 3160.375;  225.125;    0.000
604.077; 3187.375;  235.125;    0.000
604.200; 3179.375;  209.125;    0.000
604.323; 3200.375;  240.125;    0.000
604.445; 3093.375;  198.125;    0.000
604.568; 3218.375;  230.125;    0.000
604.690; 3143.375;  225.125;    0.000
604.813; 3097.375;  248.125;    0.000
604.935; 3096.375;  204.125;    0.000
605.058; 3092.375;  191.125;    0.000
605.180; 3119.375;  237.125;    0.000
605.303; 3105.375;  224.125;    0.000
605.425; 3080.375;  244.125;    0.000
605.547; 3064.375;  268.125;    0.000
605.670; 3120.375;  211.125;    0.000
605.792; 3099.375;  266.125;    0.000
605.915; 3058.375;  202.125;    0.000
606.037; 3112.375;  236.125;    0.000
606.159; 3098.375;  234.125;    0.000
606.282; 3058.375;  223.125;    0.000
606.404; 2983.375;  217.125;    0.000
606.526; 3023.375;  221.125;    0.000
606.648; 2984.375;  204.125;    0.000
606.771; 3025.375;  265.125;    0.000
606.893; 3019.375;  211.125;    0.000
607.015; 2991.375;  206.125;    0.000
607.137; 3073.375;  222.125;    0.000
607.260; 3090.375;  228.125;    0.000
607.382; 3068.375;  202.125;    0.000
607.504; 3043.375;  257.125;    0.000
607.626; 2981.375;  249.125;    0.000
607.748; 3008.375;  233.125;    0.000
607.870; 2965.375;  222.125;    0.000
607.992; 3018.375;  227.125;    0.000
608.114; 2991.375;  228.125;    0.000
608.237; 3052.375;  254.125;    0.000
608.359; 2986.375;  216.125;    0.000
608.481; 2976.375;  197.125;    0.000
608.603; 2973.375;  209.125;    0.000
608.725; 3039.375;  220.125;    0.000
608.847; 2954.375;  259.125;    0.000
608.969; 2983.375;  242.125;    0.000
609.090; 2920.375;  218.125;    0.000
609.212; 2886.375;  200.125;    0.000
609.334; 2929.375;  212.125;    0.000
609.456; 2993.375;  231.125;    0.000
609.578; 2947.375;  249.125;    0.000
609.700; 2900.375;  185.125;    0.000
609.822; 2831.375;  200.125;    0.000
609.944; 3066.375;  236.125;    0.000
610.065; 2980.375;  255.125;    0.000
610.187; 2941.375;  208.125;    0.000
610.309; 2952.375;  202.125;    0.000
610.431; 2899.375;  232.125;    0.000
610.552; 2825.375;  232.125;    0.000
610.674; 2736.375;  217.125;    0.000
610.796; 2912.375;  186.125;    0.000
610.918; 2818.375;  211.125;    0.000
611.039; 2863.375;  244.125;    0.000
611.161; 2884.375;  202.125;    0.000
611.282; 2994.375;  212.125;    0.000
611.404; 2846.375;  235.125;    0.000
611.526; 2861.375;  213.125;    0.000
611.647; 2901.375;  248.125;    0.000
611.769; 2868.375;  205.125;    0.000
611.890; 2851.375;  224.125;    0.000
612.012; 2897.375;  189.125;    0.000
612.133; 2834.375;  186.125;    0.000
612.255; 2894.375;  246.125;    0.000
612.377; 2774.375;  230.125;    0.000
612.498; 2857.375;  196.125;    0.000
612.619; 2834.375;  234.125;    0.000
612.741; 2831.375;  221.125;    0.000
612.862; 2837.375;  227.125;    0.000
612.984; 2757.375;  189.125;    0.000
613.105; 2828.375;  232.125;    0.000
613.226; 2779.375;  199.125;    0.000
613.348; 2839.375;  260.125;    0.000
613.469; 2836.375;  217.125;    0.000
613.590; 2808.375;  236.125;    0.000
613.712; 2852.375;  226.125;    0.000
613.833; 2875.375;  231.125;    0.000
613.954; 2783.375;  236.125;    0.000
614.076; 2782.375;  236.125;    0.000
614.197; 2822.375;  228.125;    0.000
614.318; 2780.375;  207.125;    0.000
614.439; 2833.375;  237.125;    0.000
614.560; 2825.375;  202.125;    0.000
614.682; 2787.375;  230.125;    0.000
614.803; 2865.375;  236.125;    0.000
614.924; 2930.375;  257.125;    0.000
615.045; 2864.375;  228.125;    0.000
615.166; 2924.375;  221.125;    0.000
615.287; 3079.375;  199.125;    0.000
615.408; 3470.375;  228.125;    0.000
615.529; 3523.375;  200.125;    0.000
615.650; 3380.375;  224.125;    0.000
615.771; 3208.375;  202.125;    0.000
615.892; 3229.375;  215.125;    0.000
616.013; 3829.375;  246.125;    0.000
616.134; 4159.375;  210.125;    0.000
616.255; 4020.375;  232.125;    0.000
616.376; 3596.375;  241.125;    0.000
616.497; 3320.375;  213.125;    0.000
616.618; 3144.375;  171.125;    0.000
616.739; 3201.375;  221.125;    0.000
616.860; 3070.375;  244.125;    0.000
616.981; 3012.375;  240.125;    0.000
617.102; 2996.375;  234.125;    0.000
617.222; 2988.375;  265.125;    0.000
617.343; 2992.375;  206.125;    0.000
617.464; 2895.375;  246.125;    0.000
617.585; 2904.375;  256.125;    0.000
617.705; 2832.375;  249.125;    0.000
617.826; 2934.375;  218.125;    0.000
617.947; 2914.375;  225.125;    0.000
618.068; 2925.375;  199.125;    0.000
618.188; 2860.375;  202.125;    0.000
618.309; 2824.375;  220.125;    0.000
618.430; 2729.375;  229.125;    0.000
618.550; 2809.375;  252.125;    0.000
618.671; 2802.375;  233.125;    0.000
618.791; 2856.375;  227.125;    0.000
618.912; 2790.375;  236.125;    0.000
619.033; 2826.375;  220.125;    0.000
619.153; 2772.375;  228.125;    0.000
619.274; 2691.375;  208.125;    0.000
619.394; 2798.375;  255.125;    0.000
619.515; 2801.375;  206.125;    0.000
619.635; 2755.375;  204.125;    0.000
619.756; 2830.375;  252.125;    0.000
619.876; 2805.375;  238.125;    0.000
619.996; 2847.375;  249.125;    0.000
620.117; 2812.375;  223.125;    0.000
620.237; 2791.375;  210.125;    0.000
620.358; 2815.375;  264.125;    0.000
620.478; 2766.375;  263.125;    0.000
620.598; 2721.375;  238.125;    0.000
620.719; 2670.375;  225.125;    0.000
620.839; 2753.375;  259.125;    0.000
620.959; 2769.375;  218.125;    0.000
621.079; 2703.375;  253.125;    0.000
621.200; 2730.375;  245.125;    0.000
621.320; 2697.375;  254.125;    0.000
621.440; 2686.375;  233.125;    0.000
621.560; 2676.375;  235.125;    0.000
621.681; 2683.375;  234.125;    0.000
621.801; 2659.375;  240.125;    0.000
621.921; 2634.375;  239.125;    0.000
622.041; 2767.375;  288.125;    0.000
622.161; 2734.375;  229.125;    0.000
622.281; 2659.375;  223.125;    0.000
622.401; 2659.375;  240.125;    0.000
622.521; 2639.375;  267.125;    0.000
622.641; 2659.375;  226.125;    0.000
622.761; 2685.375;  252.125;    0.000
622.882; 2693.375;  207.125;    0.000
623.002; 2591.375;  226.125;    0.000
623.121; 2673.375;  207.125;    0.000
623.241; 2661.375;  215.125;    0.000
623.361; 2550.375;  222.125;    0.000
623.481; 2580.375;  187.125;    0.000
623.601; 2619.375;  283.125;    0.000
623.721; 2646.375;  283.125;    0.000
623.841; 2736.375;  233.125;    0.000
623.961; 2559.375;  215.125;    0.000
624.081; 2598.375;  219.125;    0.000
624.201; 2617.375;  221.125;    0.000
624.320; 2593.375;  215.125;    0.000
624.440; 2586.375;  222.125;    0.000
624.560; 2601.375;  231.125;    0.000
624.680; 2515.375;  225.125;    0.000
624.799; 2538.375;  230.125;    0.000
624.919; 2522.375;  243.125;    0.000
625.039; 2555.375;  203.125;    0.000
625.159; 2538.375;  257.125;    0.000
625.278; 2603.375;  230.125;    0.000
625.398; 2569.375;  195.125;    0.000
625.518; 2505.375;  211.125;    0.000
625.637; 2595.375;  267.125;    0.000
625.757; 2467.375;  228.125;    0.000
625.876; 2571.375;  231.125;    0.000
625.996; 2494.375;  219.125;    0.000
626.115; 2510.375;  235.125;    0.000
626.235; 2457.375;  199.125;    0.000
626.354; 2619.375;  226.125;    0.000
626.474; 2523.375;  225.125;    0.000
626.594; 2535.375;  223.125;    0.000
626.713; 2587.375;  231.125;    0.000
626.832; 2502.375;  287.125;    0.000
626.952; 2549.375;  251.125;    0.000
627.071; 2587.375;  254.125;    0.000
627.191; 2547.375;  193.125;    0.000
627.310; 2513.375;  213.125;    0.000
627.429; 2495.375;  259.125;    0.000
627.549; 2536.375;  243.125;    0.000
627.668; 2555.375;  181.125;    0.000
627.787; 2443.375;  232.125;    0.000
627.907; 2502.375;  222.125;    0.000
628.026; 2505.375;  219.125;    0.000
628.145; 2516.375;  201.125;    0.000
628.264; 2467.375;  198.125;    0.000
628.384; 2493.375;  208.125;    0.000
628.503; 2453.375;  251.125;    0.000
628.622; 2438.375;  195.125;    0.000
628.741; 2510.375;  180.125;    0.000
628.860; 2433.375;  235.125;    0.000
628.980; 2474.375;  222.125;    0.000
629.099; 2486.375;  237.125;    0.000
629.218; 2449.375;  175.125;    0.000
629.337; 2455.375;  194.125;    0.000
629.456; 2414.375;  225.125;    0.000
629.575; 2461.375;  239.125;    0.000
629.694; 2531.375;  230.125;    0.000
629.813; 2470.375;  197.125;    0.000
629.932; 2451.375;  225.125;    0.000
630.051; 2499.375;  238.125;    0.000
630.170; 2444.375;  233.125;    0.000
630.289; 2465.375;  231.125;    0.000
630.408; 2411.375;  204.125;    0.000
630.527; 2457.375;  262.125;    0.000
630.646; 2481.375;  181.125;    0.000
630.764; 2440.375;  218.125;    0.000
630.883; 2434.375;  215.125;    0.000
631.002; 2459.375;  224.125;    0.000
631.121; 2382.375;  209.125;    0.000
631.240; 2426.375;  230.125;    0.000
631.359; 2444.375;  235.125;    0.000
631.477; 2415.375;  223.125;    0.000
631.596; 2419.375;  218.125;    0.000
631.715; 2443.375;  234.125;    0.000
631.834; 2467.375;  215.125;    0.000
631.952; 2466.375;  243.125;    0.000
632.071; 2411.375;  219.125;    0.000
632.190; 2495.375;  235.125;    0.000
632.308; 2407.375;  239.125;    0.000
632.427; 2451.375;  211.125;    0.000
632.546; 2389.375;  233.125;    0.000
632.664; 2327.375;  219.125;    0.000
632.783; 2333.375;  203.125;    0.000
632.901; 2413.375;  221.125;    0.000
633.020; 2327.375;  197.125;    0.000
633.138; 2470.375;  244.125;    0.000
633.257; 2403.375;  205.125;    0.000
633.375; 2416.375;  245.125;    0.000
633.494; 2396.375;  218.125;    0.000
633.612; 2349.375;  222.125;    0.000
633.731; 2401.375;  212.125;    0.000
633.849; 2339.375;  218.125;    0.000
633.968; 2356.375;  236.125;    0.000
634.086; 2378.375;  233.125;    0.000
634.204; 2434.375;  215.125;    0.000
634.323; 2348.375;  230.125;    0.000
634.441; 2379.375;  235.125;    0.000
634.559; 2398.375;  202.125;    0.000
634.678; 2339.375;  218.125;    0.000
634.796; 2311.375;  203.125;    0.000
634.914; 2426.375;  227.125;    0.000
635.032; 2359.375;  279.125;    0.000
635.151; 2333.375;  221.125;    0.000
635.269; 2279.375;  207.125;    0.000
635.387; 2373.375;  195.125;    0.000
635.505; 2303.375;  243.125;    0.000
635.623; 2315.375;  269.125;    0.000
635.742; 2316.375;  232.125;    0.000
635.860; 2341.375;  243.125;    0.000
635.978; 2320.375;  215.125;    0.000
636.096; 2277.375;  225.125;    0.000
636.214; 2341.375;  244.125;    0.000
636.332; 2306.375;  226.125;    0.000
636.450; 2320.375;  227.125;    0.000
636.568; 2338.375;  225.125;    0.000
636.686; 2280.375;  194.125;    0.000
636.804; 2350.375;  234.125;    0.000
636.922; 2315.375;  177.125;    0.000
637.040; 2338.375;  225.125;    0.000
637.158; 2291.375;  194.125;    0.000
637.276; 2340.375;  219.125;    0.000
637.394; 2247.375;  219.125;    0.000
637.512; 2343.375;  210.125;    0.000
637.629; 2271.375;  242.125;    0.000
637.747; 2237.375;  193.125;    0.000
637.865; 2354.375;  219.125;    0.000
637.983; 2269.375;  251.125;    0.000
638.101; 2293.375;  221.125;    0.000
638.218; 2207.375;  193.125;    0.000
638.336; 2258.375;  224.125;    0.000
638.454; 2337.375;  227.125;    0.000
638.572; 2316.375;  245.125;    0.000
638.689; 2330.375;  222.125;    0.000
638.807; 2299.375;  244.125;    0.000
638.925; 2313.375;  238.125;    0.000
639.042; 2230.375;  213.125;    0.000
639.160; 2212.375;  186.125;    0.000
639.278; 2229.375;  203.125;    0.000
639.395; 2261.375;  270.125;    0.000
639.513; 2334.375;  227.125;    0.000
639.630; 2249.375;  200.125;    0.000
639.748; 2198.375;  199.125;    0.000
639.865; 2320.375;  233.125;    0.000
639.983; 2274.375;  181.125;    0.000
640.100; 2303.375;  219.125;    0.000
640.218; 2308.375;  234.125;    0.000
640.335; 2281.375;  233.125;    0.000
640.453; 2278.375;  202.125;    0.000
640.570; 2265.375;  214.125;    0.000
640.688; 2271.375;  215.125;    0.000
640.805; 2234.375;  229.125;    0.000
640.922; 2292.375;  244.125;    0.000
641.040; 2283.375;  233.125;    0.000
641.157; 2244.375;  199.125;    0.000
641.274; 2283.375;  205.125;    0.000
641.391; 2301.375;  244.125;    0.000
641.509; 2274.375;  184.125;    0.000
641.626; 2279.375;  244.125;    0.000
641.743; 2276.375;  221.125;    0.000
641.860; 2263.375;  206.125;    0.000
641.978; 2376.375;  272.125;    0.000
642.095; 2249.375;  218.125;    0.000
642.212; 2231.375;  208.125;    0.000
642.329; 2304.375;  218.125;    0.000
642.446; 2225.375;  197.125;    0.000
642.563; 2256.375;  214.125;    0.000
642.681; 2198.375;  203.125;    0.000
642.798; 2203.375;  236.125;    0.000
642.915; 2256.375;  191.125;    0.000
643.032; 2222.375;  226.125;    0.000
643.149; 2278.375;  231.125;    0.000
643.266; 2197.375;  213.125;    0.000
643.383; 2231.375;  240.125;    0.000
643.500; 2190.375;  185.125;    0.000
643.617; 2211.375;  229.125;    0.000
643.734; 2225.375;  205.125;    0.000
643.850; 2252.375;  222.125;    0.000
643.967; 2297.375;  202.125;    0.000
644.084; 2221.375;  264.125;    0.000
644.201; 2191.375;  214.125;    0.000
644.318; 2218.375;  206.125;    0.000
644.435; 2278.375;  225.125;    0.000
644.552; 2324.375;  203.125;    0.000
644.668; 2382.375;  252.125;    0.000
644.785; 2279.375;  213.125;    0.000
644.902; 2203.375;  233.125;    0.000
645.019; 2239.375;  220.125;    0.000
645.135; 2276.375;  225.125;    0.000
645.252; 2141.375;  218.125;    0.000
645.369; 2261.375;  214.125;    0.000
645.485; 2227.375;  210.125;    0.000
645.602; 2307.375;  198.125;    0.000
645.719; 2238.375;  228.125;    0.000
645.835; 2322.375;  209.125;    0.000
645.952; 2250.375;  213.125;    0.000
646.068; 2267.375;  241.125;    0.000
646.185; 2305.375;  219.125;    0.000
646.302; 2353.375;  246.125;    0.000
646.418; 2285.375;  228.125;    0.000
646.535; 2329.375;  256.125;    0.000
646.651; 2407.375;  222.125;    0.000
646.768; 2344.375;  203.125;    0.000
646.884; 2256.375;  199.125;    0.000
647.000; 2300.375;  194.125;    0.000
647.117; 2376.375;  214.125;    0.000
647.233; 2315.375;  209.125;    0.000
647.350; 2266.375;  235.125;    0.000
647.466; 2348.375;  237.125;    0.000
647.582; 2306.375;  231.125;    0.000
647.699; 2412.375;  219.125;    0.000
647.815; 2409.375;  200.125;    0.000
647.931; 2349.375;  173.125;    0.000
648.047; 2352.375;  184.125;    0.000
648.164; 2417.375;  199.125;    0.000
648.280; 2440.375;  209.125;    0.000
648.396; 2446.375;  220.125;    0.000
648.512; 2422.375;  212.125;    0.000
648.629; 2386.375;  214.125;    0.000
648.745; 2400.375;  197.125;    0.000
648.861; 2400.375;  228.125;    0.000
648.977; 2421.375;  238.125;    0.000
649.093; 2447.375;  208.125;    0.000
649.209; 2397.375;  179.125;    0.000
649.325; 2490.375;  256.125;    0.000
649.441; 2466.375;  224.125;    0.000
649.557; 2408.375;  247.125;    0.000
649.673; 2467.375;  214.125;    0.000
649.789; 2428.375;  213.125;    0.000
649.905; 2421.375;  170.125;    0.000
650.021; 2463.375;  236.125;    0.000
650.137; 2418.375;  229.125;    0.000
650.253; 2465.375;  207.125;    0.000
650.369; 2382.375;  198.125;    0.000
650.485; 2352.375;  225.125;    0.000
650.601; 2467.375;  260.125;    0.000
650.717; 2379.375;  196.125;    0.000
650.833; 2482.375;  219.125;    0.000
650.948; 2513.375;  203.125;    0.000
651.064; 2476.375;  232.125;    0.000
651.180; 2425.375;  252.125;    0.000
651.296; 2481.375;  190.125;    0.000
651.411; 2629.375;  235.125;    0.000
651.527; 2552.375;  227.125;    0.000
651.643; 2456.375;  238.125;    0.000
651.759; 2486.375;  260.125;    0.000
651.874; 2492.375;  217.125;    0.000
651.990; 2570.375;  239.125;    0.000
652.105; 2546.375;  215.125;    0.000
652.221; 2542.375;  237.125;    0.000
652.337; 2533.375;  238.125;    0.000
652.452; 2526.375;  230.125;    0.000
652.568; 2587.375;  201.125;    0.000
652.683; 2593.375;  243.125;    0.000
652.799; 2675.375;  218.125;    0.000
652.914; 2594.375;  189.125;    0.000
653.030; 2617.375;  191.125;    0.000
653.145; 2685.375;  240.125;    0.000
653.261; 2682.375;  225.125;    0.000
653.376; 2661.375;  241.125;    0.000
653.492; 2737.375;  188.125;    0.000
653.607; 2776.375;  219.125;    0.000
653.722; 2772.375;  268.125;    0.000
653.838; 2859.375;  262.125;    0.000
653.953; 2758.375;  188.125;    0.000
654.068; 2882.375;  244.125;    0.000
654.184; 3002.375;  247.125;    0.000
654.299; 2972.375;  228.125;    0.000
654.414; 2943.375;  181.125;    0.000
654.530; 2937.375;  210.125;    0.000
654.645; 3023.375;  240.125;    0.000
654.760; 3145.375;  219.125;    0.000
654.875; 3148.375;  178.125;    0.000
654.990; 3275.375;  222.125;    0.000
655.106; 3310.375;  227.125;    0.000
655.221; 3291.375;  270.125;    0.000
655.336; 3454.375;  199.125;    0.000
655.451; 3546.375;  235.125;    0.000
655.566; 3535.375;  251.125;    0.000
655.681; 3657.375;  253.125;    0.000
655.796; 3935.375;  207.125;    0.000
655.911; 4063.375;  213.125;    0.000
656.026; 4099.375;  247.125;    0.000
656.141; 4193.375;  209.125;    0.000
656.256; 4386.375;  226.125;    0.000
656.371; 4453.375;  201.125;    0.000
656.486; 4357.375;  196.125;    0.000
656.601; 4377.375;  239.125;    0.000
656.716; 4250.375;  234.125;    0.000
656.831; 4137.375;  223.125;    0.000
656.946; 4086.375;  246.125;    0.000
657.060; 3964.375;  230.125;    0.000
657.175; 3952.375;  207.125;    0.000
657.290; 3801.375;  213.125;    0.000
657.405; 3702.375;  319.125;    0.000
657.520; 3647.375;  241.125;    0.000
657.634; 3532.375;  235.125;    0.000
657.749; 3536.375;  275.125;    0.000
657.864; 3402.375;  210.125;    0.000
657.979; 3319.375;  227.125;    0.000
658.093; 3319.375;  206.125;    0.000
658.208; 3284.375;  217.125;    0.000
658.323; 3246.375;  227.125;    0.000
658.437; 3171.375;  217.125;    0.000
658.552; 3253.375;  237.125;    0.000
658.666; 3101.375;  233.125;    0.000
658.781; 3098.375;  248.125;    0.000
658.895; 2989.375;  233.125;    0.000
659.010; 3023.375;  238.125;    0.000
659.125; 2900.375;  206.125;    0.000
659.239; 2836.375;  220.125;    0.000
659.353; 2947.375;  236.125;    0.000
659.468; 2748.375;  238.125;    0.000
659.582; 2833.375;  275.125;    0.000
659.697; 2818.375;  239.125;    0.000
659.811; 2768.375;  232.125;    0.000
659.926; 2685.375;  230.125;    0.000
660.040; 2720.375;  257.125;    0.000
660.154; 2714.375;  221.125;    0.000
660.269; 2737.375;  219.125;    0.000
660.383; 2658.375;  228.125;    0.000
660.497; 2664.375;  243.125;    0.000
660.612; 2624.375;  238.125;    0.000
660.726; 2581.375;  260.125;    0.000
660.840; 2634.375;  239.125;    0.000
660.954; 2519.375;  236.125;    0.000
661.068; 2614.375;  239.125;    0.000
661.183; 2568.375;  245.125;    0.000
661.297; 2574.375;  198.125;    0.000
661.411; 2515.375;  203.125;    0.000
661.525; 2477.375;  244.125;    0.000
661.639; 2441.375;  229.125;    0.000
661.753; 2398.375;  238.125;    0.000
661.867; 2435.375;  237.125;    0.000
661.981; 2399.375;  219.125;    0.000
662.095; 2430.375;  232.125;    0.000
662.209; 2330.375;  236.125;    0.000
662.323; 2391.375;  209.125;    0.000
662.437; 2243.375;  206.125;    0.000
662.551; 2365.375;  217.125;    0.000
662.665; 2297.375;  262.125;    0.000
662.779; 2295.375;  234.125;    0.000
662.893; 2273.375;  222.125;    0.000
663.007; 2273.375;  189.125;    0.000
663.121; 2270.375;  258.125;    0.000
663.235; 2204.375;  191.125;    0.000
663.349; 2185.375;  259.125;    0.000
663.462; 2216.375;  209.125;    0.000
663.576; 2244.375;  244.125;    0.000
663.690; 2189.375;  237.125;    0.000
663.804; 2210.375;  205.125;    0.000
663.917; 2158.375;  207.125;    0.000
664.031; 2186.375;  234.125;    0.000
664.145; 2088.375;  216.125;    0.000
664.258; 2118.375;  202.125;    0.000
664.372; 2141.375;  198.125;    0.000
664.486; 2113.375;  181.125;    0.000
664.599; 2123.375;  229.125;    0.000
664.713; 2138.375;  266.125;    0.000
664.827; 2067.375;  185.125;    0.000
664.940; 2142.375;  225.125;    0.000
665.054; 2068.375;  198.125;    0.000
665.167; 2045.375;  208.125;    0.000
665.281; 2111.375;  231.125;    0.000
665.394; 2055.375;  228.125;    0.000
665.508; 2051.375;  204.125;    0.000
665.621; 2034.375;  263.125;    0.000
665.735; 2070.375;  222.125;    0.000
665.848; 2055.375;  237.125;    0.000
665.961; 2029.375;  180.125;    0.000
666.075; 2023.375;  212.125;    0.000
666.188; 2099.375;  229.125;    0.000
666.301; 2049.375;  247.125;    0.000
666.415; 1949.375;  212.125;    0.000
666.528; 1988.375;  268.125;    0.000
666.641; 1997.375;  210.125;    0.000
666.755; 2023.375;  178.125;    0.000
666.868; 1984.375;  227.125;    0.000
666.981; 2078.375;  250.125;    0.000
667.094; 2054.375;  228.125;    0.000
667.207; 1992.375;  235.125;    0.000
667.321; 1897.375;  171.125;    0.000
667.434; 1938.375;  191.125;    0.000
667.547; 2045.375;  279.125;    0.000
667.660; 2033.375;  210.125;    0.000
667.773; 1950.375;  217.125;    0.000
667.886; 1968.375;  209.125;    0.000
667.999; 1957.375;  239.125;    0.000
668.112; 1902.375;  227.125;    0.000
668.225; 1918.375;  185.125;    0.000
668.338; 1963.375;  222.125;    0.000
668.451; 1944.375;  200.125;    0.000
668.564; 1958.375;  237.125;    0.000
668.677; 1935.375;  207.125;    0.000
668.790; 1867.375;  208.125;    0.000
668.903; 1909.375;  243.125;    0.000
669.016; 1872.375;  190.125;    0.000
669.129; 1883.375;  234.125;    0.000
669.242; 1865.375;  185.125;    0.000
669.354; 1871.375;  224.125;    0.000
669.467; 1856.375;  219.125;    0.000
669.580; 1890.375;  249.125;    0.000
669.693; 1855.375;  187.125;    0.000
669.806; 1840.375;  206.125;    0.000
669.918; 1923.375;  192.125;    0.000
670.031; 1838.375;  235.125;    0.000
670.144; 1911.375;  238.125;    0.000
670.256; 1863.375;  237.125;    0.000
670.369; 1850.375;  237.125;    0.000
670.482; 1871.375;  250.125;    0.000
670.594; 1851.375;  273.125;    0.000
670.707; 1813.375;  223.125;    0.000
670.820; 1897.375;  238.125;    0.000
670.932; 1865.375;  224.125;    0.000
671.045; 1931.375;  219.125;    0.000
671.157; 1831.375;  242.125;    0.000
671.270; 1776.375;  235.125;    0.000
671.382; 1812.375;  213.125;    0.000
671.495; 1816.375;  254.125;    0.000
671.607; 1795.375;  253.125;    0.000
671.720; 1827.375;  169.125;    0.000
671.832; 1820.375;  201.125;    0.000
671.944; 1848.375;  250.125;    0.000
672.057; 1716.375;  187.125;    0.000
672.169; 1747.375;  224.125;    0.000
672.281; 1815.375;  238.125;    0.000
672.394; 1818.375;  250.125;    0.000
672.506; 1766.375;  227.125;    0.000
672.618; 1764.375;  223.125;    0.000
672.731; 1731.375;  210.125;    0.000
672.843; 1799.375;  245.125;    0.000
672.955; 1843.375;  263.125;    0.000
673.067; 1807.375;  239.125;    0.000
673.180; 1792.375;  253.125;    0.000
673.292; 1817.375;  243.125;    0.000
673.404; 1793.375;  226.125;    0.000
673.516; 1821.375;  223.125;    0.000
673.628; 1761.375;  223.125;    0.000
673.740; 1794.375;  216.125;    0.000
673.852; 1864.375;  277.125;    0.000
673.964; 1792.375;  211.125;    0.000
674.076; 1780.375;  241.125;    0.000
674.188; 1712.375;  251.125;    0.000
674.300; 1827.375;  268.125;    0.000
674.412; 1852.375;  260.125;    0.000
674.524; 1800.375;  257.125;    0.000
674.636; 1804.375;  222.125;    0.000
674.748; 1808.375;  227.125;    0.000
674.860; 1777.375;  250.125;    0.000
674.972; 1762.375;  240.125;    0.000
675.084; 1784.375;  262.125;    0.000
675.196; 1790.375;  287.125;    0.000
675.307; 1714.375;  257.125;    0.000
675.419; 1680.375;  231.125;    0.000
675.531; 1799.375;  274.125;    0.000
675.643; 1760.375;  235.125;    0.000
675.755; 1829.375;  275.125;    0.000
675.866; 1733.375;  238.125;    0.000
675.978; 1694.375;  209.125;    0.000
676.090; 1767.375;  239.125;    0.000
676.201; 1668.375;  249.125;    0.000
676.313; 1766.375;  237.125;    0.000
676.425; 1694.375;  263.125;    0.000
676.536; 1757.375;  178.125;    0.000
676.648; 1775.375;  245.125;    0.000
676.759; 1788.375;  244.125;    0.000
676.871; 1715.375;  242.125;    0.000
676.983; 1735.375;  245.125;    0.000
677.094; 1744.375;  209.125;    0.000
677.206; 1727.375;  248.125;    0.000
677.317; 1714.375;  260.125;    0.000
677.429; 1713.375;  237.125;    0.000
677.540; 1683.375;  226.125;    0.000
677.651; 1664.375;  226.125;    0.000
677.763; 1679.375;  194.125;    0.000
677.874; 1735.375;  230.125;    0.000
677.986; 1690.375;  202.125;    0.000
678.097; 1721.375;  229.125;    0.000
678.208; 1650.375;  263.125;    0.000
678.320; 1673.375;  243.125;    0.000
678.431; 1657.375;  229.125;    0.000
678.542; 1681.375;  231.125;    0.000
678.653; 1630.375;  224.125;    0.000
678.765; 1675.375;  255.125;    0.000
678.876; 1614.375;  175.125;    0.000
678.987; 1638.375;  204.125;    0.000
679.098; 1698.375;  227.125;    0.000
679.209; 1681.375;  228.125;    0.000
679.320; 1689.375;  223.125;    0.000
679.432; 1667.375;  219.125;    0.000
679.543; 1603.375;  210.125;    0.000
679.654; 1603.375;  249.125;    0.000
679.765; 1626.375;  222.125;    0.000
679.876; 1662.375;  219.125;    0.000
679.987; 1587.375;  213.125;    0.000
680.098; 1613.375;  237.125;    0.000
680.209; 1605.375;  188.125;    0.000
680.320; 1651.375;  243.125;    0.000
680.431; 1601.375;  227.125;    0.000
680.542; 1685.375;  212.125;    0.000
680.653; 1634.375;  266.125;    0.000
680.763; 1564.375;  198.125;    0.000
680.874; 1667.375;  211.125;    0.000
680.985; 1608.375;  207.125;    0.000
681.096; 1580.375;  244.125;    0.000
681.207; 1653.375;  209.125;    0.000
681.318; 1620.375;  215.125;    0.000
681.428; 1607.375;  199.125;    0.000
681.539; 1666.375;  175.125;    0.000
681.650; 1612.375;  224.125;    0.000
681.760; 1640.375;  216.125;    0.000
681.871; 1650.375;  187.125;    0.000
681.982; 1613.375;  237.125;    0.000
682.093; 1597.375;  213.125;    0.000
682.203; 1630.375;  190.125;    0.000
682.314; 1630.375;  230.125;    0.000
682.424; 1591.375;  223.125;    0.000
682.535; 1576.375;  172.125;    0.000
682.646; 1660.375;  268.125;    0.000
682.756; 1591.375;  249.125;    0.000
682.867; 1583.375;  225.125;    0.000
682.977; 1555.375;  211.125;    0.000
683.088; 1618.375;  238.125;    0.000
683.198; 1602.375;  202.125;    0.000
683.308; 1545.375;  196.125;    0.000
683.419; 1565.375;  230.125;    0.000
683.529; 1595.375;  213.125;    0.000
683.640; 1613.375;  225.125;    0.000
683.750; 1555.375;  203.125;    0.000
683.860; 1616.375;  200.125;    0.000
683.971; 1632.375;  269.125;    0.000
684.081; 1619.375;  204.125;    0.000
684.191; 1592.375;  228.125;    0.000
684.301; 1527.375;  219.125;    0.000
684.412; 1630.375;  222.125;    0.000
684.522; 1598.375;  242.125;    0.000
684.632; 1595.375;  234.125;    0.000
684.742; 1572.375;  240.125;    0.000
684.852; 1621.375;  229.125;    0.000
684.963; 1677.375;  237.125;    0.000
685.073; 1613.375;  205.125;    0.000
685.183; 1579.375;  241.125;    0.000
685.293; 1640.375;  202.125;    0.000
685.403; 1608.375;  232.125;    0.000
685.513; 1642.375;  244.125;    0.000
685.623; 1622.375;  224.125;    0.000
685.733; 1597.375;  236.125;    0.000
685.843; 1628.375;  235.125;    0.000
685.953; 1622.375;  216.125;    0.000
686.063; 1611.375;  214.125;    0.000
686.173; 1601.375;  198.125;    0.000
686.283; 1640.375;  250.125;    0.000
686.393; 1622.375;  227.125;    0.000
686.503; 1607.375;  244.125;    0.000
686.612; 1615.375;  247.125;    0.000
686.722; 1604.375;  265.125;    0.000
686.832; 1602.375;  213.125;    0.000
686.942; 1585.375;  241.125;    0.000
687.052; 1567.375;  238.125;    0.000
687.161; 1641.375;  233.125;    0.000
687.271; 1544.375;  232.125;    0.000
687.381; 1605.375;  220.125;    0.000
687.491; 1642.375;  206.125;    0.000
687.600; 1517.375;  283.125;    0.000
687.710; 1574.375;  212.125;    0.000
687.820; 1566.375;  226.125;    0.000
687.929; 1594.375;  202.125;    0.000
688.039; 1597.375;  225.125;    0.000
688.148; 1542.375;  235.125;    0.000
688.258; 1549.375;  224.125;    0.000
688.367; 1651.375;  239.125;    0.000
688.477; 1593.375;  193.125;    0.000
688.586; 1570.375;  226.125;    0.000
688.696; 1641.375;  185.125;    0.000
688.805; 1610.375;  190.125;    0.000
688.915; 1529.375;  209.125;    0.000
689.024; 1504.375;  214.125;    0.000
689.134; 1577.375;  205.125;    0.000
689.243; 1518.375;  190.125;    0.000
689.352; 1593.375;  233.125;    0.000
689.462; 1564.375;  196.125;    0.000
689.571; 1592.375;  227.125;    0.000
689.680; 1542.375;  206.125;    0.000
689.790; 1553.375;  193.125;    0.000
689.899; 1504.375;  204.125;    0.000
690.008; 1546.375;  228.125;    0.000
690.117; 1524.375;  207.125;    0.000
690.227; 1515.375;  231.125;    0.000
690.336; 1652.375;  222.125;    0.000
690.445; 1536.375;  198.125;    0.000
690.554; 1487.375;  202.125;    0.000
690.663; 1496.375;  217.125;    0.000
690.772; 1529.375;  213.125;    0.000
690.881; 1632.375;  225.125;    0.000
690.990; 1528.375;  217.125;    0.000
691.099; 1521.375;  205.125;    0.000
691.209; 1500.375;  220.125;    0.000
691.318; 1544.375;  216.125;    0.000
691.427; 1494.375;  188.125;    0.000
691.536; 1596.375;  224.125;    0.000
691.644; 1556.375;  212.125;    0.000
691.753; 1586.375;  216.125;    0.000
691.862; 1518.375;  250.125;    0.000
691.971; 1525.375;  210.125;    0.000
692.080; 1592.375;  232.125;    0.000
692.189; 1566.375;  218.125;    0.000
692.298; 1483.375;  220.125;    0.000
692.406; 1539.375;  261.125;    0.000
692.515; 1606.375;  253.125;    0.000
692.624; 1528.375;  224.125;    0.000
692.733; 1557.375;  209.125;    0.000
692.842; 1519.375;  214.125;    0.000
692.950; 1471.375;  206.125;    0.000
693.059; 1519.375;  180.125;    0.000
693.168; 1526.375;  220.125;    0.000
693.276; 1560.375;  196.125;    0.000
693.385; 1551.375;  203.125;    0.000
693.494; 1527.375;  263.125;    0.000
693.602; 1567.375;  222.125;    0.000
693.711; 1523.375;  178.125;    0.000
693.819; 1508.375;  230.125;    0.000
693.928; 1519.375;  187.125;    0.000
694.036; 1503.375;  219.125;    0.000
694.145; 1575.375;  223.125;    0.000
694.253; 1557.375;  241.125;    0.000
694.362; 1502.375;  229.125;    0.000
694.470; 1521.375;  223.125;    0.000
694.579; 1595.375;  195.125;    0.000
694.687; 1581.375;  257.125;    0.000
694.795; 1508.375;  230.125;    0.000
694.904; 1503.375;  196.125;    0.000
695.012; 1548.375;  247.125;    0.000
695.120; 1513.375;  215.125;    0.000
695.229; 1630.375;  244.125;    0.000
695.337; 1524.375;  197.125;    0.000
695.445; 1529.375;  270.125;    0.000
695.553; 1546.375;  241.125;    0.000
695.662; 1580.375;  249.125;    0.000
695.770; 1567.375;  244.125;    0.000
695.878; 1518.375;  236.125;    0.000
695.986; 1560.375;  253.125;    0.000
696.094; 1539.375;  242.125;    0.000
696.202; 1496.375;  174.125;    0.000
696.310; 1563.375;  230.125;    0.000
696.419; 1523.375;  218.125;    0.000
696.527; 1512.375;  226.125;    0.000
696.635; 1525.375;  217.125;    0.000
696.743; 1546.375;  221.125;    0.000
696.851; 1525.375;  259.125;    0.000
696.959; 1521.375;  245.125;    0.000
697.067; 1516.375;  235.125;    0.000
697.174; 1526.375;  238.125;    0.000
697.282; 1499.375;  208.125;    0.000
697.390; 1558.375;  265.125;    0.000
697.498; 1550.375;  202.125;    0.000
697.606; 1506.375;  219.125;    0.000
697.714; 1563.375;  245.125;    0.000
697.822; 1531.375;  222.125;    0.000
697.929; 1511.375;  194.125;    0.000
698.037; 1523.375;  223.125;    0.000
698.145; 1509.375;  213.125;    0.000
698.253; 1467.375;  234.125;    0.000
698.360; 1471.375;  211.125;    0.000
698.468; 1519.375;  241.125;    0.000
698.576; 1581.375;  249.125;    0.000
698.683; 1576.375;  268.125;    0.000
698.791; 1571.375;  223.125;    0.000
698.899; 1515.375;  251.125;    0.000
699.006; 1565.375;  216.125;    0.000
699.114; 1550.375;  256.125;    0.000
699.221; 1558.375;  226.125;    0.000
699.329; 1555.375;  255.125;    0.000
699.436; 1517.375;  213.125;    0.000
699.544; 1464.375;  258.125;    0.000
699.651; 1481.375;  214.125;    0.000
699.759; 1549.375;  229.125;    0.000
699.866; 1527.375;  239.125;    0.000
699.974; 1534.375;  224.125;    0.000
700.081; 1494.375;  227.125;    0.000
700.188; 1538.375;  267.125;    0.000
700.296; 1530.375;  222.125;    0.000
700.403; 1503.375;  225.125;    0.000
700.510; 1533.375;  248.125;    0.000
700.618; 1463.375;  223.125;    0.000
700.725; 1507.375;  243.125;    0.000
700.832; 1473.375;  239.125;    0.000
700.940; 1509.375;  284.125;    0.000
701.047; 1496.375;  216.125;    0.000
701.154; 1583.375;  249.125;    0.000
701.261; 1493.375;  229.125;    0.000
701.368; 1486.375;  247.125;    0.000
701.475; 1538.375;  208.125;    0.000
701.582; 1522.375;  262.125;    0.000
701.690; 1453.375;  224.125;    0.000
701.797; 1560.375;  294.125;    0.000
701.904; 1577.375;  303.125;    0.000
702.011; 1553.375;  278.125;    0.000
702.118; 1579.375;  279.125;    0.000
702.225; 1580.375;  342.125;    0.000
702.332; 1500.375;  281.125;    0.000
702.439; 1552.375;  313.125;    0.000
702.546; 1530.375;  295.125;    0.000
702.652; 1591.375;  293.125;    0.000
702.759; 1582.375;  333.125;    0.000
702.866; 1568.375;  272.125;    0.000
702.973; 1530.375;  310.125;    0.000
703.080; 1615.375;  313.125;    0.000
703.187; 1563.375;  316.125;    0.000
703.294; 1569.375;  328.125;    0.000
703.400; 1436.375;  312.125;    0.000
703.507;  457.375;  349.125;    0.000
703.614;  323.375;  298.125;    0.000
703.720;  293.375;  300.125;    0.000
703.827;  326.375;  346.125;    0.000
703.934;  324.375;  308.125;    0.000
704.040;  316.375;  300.125;    0.000
704.147;  297.375;  317.125;    0.000
704.254;  316.375;  350.125;    0.000
704.360;  303.375;  285.125;    0.000
704.467;  348.375;  334.125;    0.000
704.573;  314.375;  330.125;    0.000
704.680;  322.375;  312.125;    0.000
704.786;  320.375;  305.125;    0.000
704.893;  345.375;  330.125;    0.000
704.999;  308.375;  315.125;    0.000
705.106;  353.375;  327.125;    0.000

