
Integration time [ms]:   0.300
Averaging Nr. [scans]: 1
Smoothing Nr. [pixels]: 0
Data measured with spectrometer [name]: VIS
Wave   ;Sample   ;Dark     ;Reference
[nm]   ;[counts] ;[counts] ;[counts] 

450.961;  204.900;  204.125;    0.000
451.100;  249.900;  219.125;    0.000
451.239;  186.900;  196.125;    0.000
451.377;  225.900;  252.125;    0.000
451.516;  191.900;  215.125;    0.000
451.655;  205.900;  214.125;    0.000
451.794;  203.900;  241.125;    0.000
451.932;  236.900;  242.125;    0.000
452.071;  207.900;  204.125;    0.000
452.210;  228.900;  243.125;    0.000
452.348;  223.900;  241.125;    0.000
452.487;  188.900;  246.125;    0.000
452.626;  229.900;  235.125;    0.000
452.764;  232.900;  230.125;    0.000
452.903;  217.900;  199.125;    0.000
453.042;  278.900;  178.125;    0.000
453.180; 2667.900;  291.125;    0.000
453.319; 2757.900;  335.125;    0.000
453.458; 2841.900;  245.125;    0.000
453.596; 2877.900;  325.125;    0.000
453.735; 2834.900;  291.125;    0.000
453.873; 2780.900;  295.125;    0.000
454.012; 2911.900;  291.125;    0.000
454.150; 2961.900;  292.125;    0.000
454.289; 2999.900;  328.125;    0.000
454.427; 2992.900;  295.125;    0.000
454.566; 3047.900;  295.125;    0.000
454.704; 3026.900;  301.125;    0.000
454.843; 3063.900;  278.125;    0.000
454.981; 3026.900;  306.125;    0.000
455.120; 3087.900;  237.125;    0.000
455.258; 3142.900;  325.125;    0.000
455.397; 3130.900;  276.125;    0.000
455.535; 3202.900;  269.125;    0.000
455.674; 3236.900;  259.125;    0.000
455.812; 3290.900;  264.125;    0.000
455.951; 3352.900;  286.125;    0.000
456.089; 3298.900;  302.125;    0.000
456.227; 3374.900;  230.125;    0.000
456.366; 3413.900;  303.125;    0.000
456.504; 3458.900;  316.125;    0.000
456.642; 3447.900;  309.125;    0.000
456.781; 3454.900;  299.125;    0.000
456.919; 3492.900;  281.125;    0.000
457.057; 3511.900;  253.125;    0.000
457.196; 3578.900;  268.125;    0.000
457.334; 3718.900;  292.125;    0.000
457.472; 3706.900;  287.125;    0.000
457.610; 3827.900;  300.125;    0.000
457.749; 3892.900;  342.125;    0.000
457.887; 3790.900;  310.125;    0.000
458.025; 3776.900;  310.125;    0.000
458.163; 4036.900;  323.125;    0.000
458.301; 4032.900;  336.125;    0.000
458.440; 3985.900;  297.125;    0.000
458.578; 4180.900;  295.125;    0.000
458.716; 4155.900;  309.125;    0.000
458.854; 4249.900;  335.125;    0.000
458.992; 4255.900;  244.125;    0.000
459.130; 4307.900;  370.125;    0.000
459.269; 4453.900;  313.125;    0.000
459.407; 4536.900;  370.125;    0.000
459.545; 4481.900;  341.125;    0.000
459.683; 4500.900;  336.125;    0.000
459.821; 4538.900;  311.125;    0.000
459.959; 4615.900;  330.125;    0.000
460.097; 4573.900;  355.125;    0.000
460.235; 4669.900;  348.125;    0.000
460.373; 4723.900;  338.125;    0.000
460.511; 4672.900;  361.125;    0.000
460.649; 4744.900;  295.125;    0.000
460.787; 4743.900;  325.125;    0.000
460.925; 4789.900;  266.125;    0.000
461.063; 4782.900;  365.125;    0.000
461.201; 4937.900;  334.125;    0.000
461.339; 5043.900;  341.125;    0.000
461.477; 5000.900;  304.125;    0.000
461.615; 5033.900;  311.125;    0.000
461.753; 5090.900;  342.125;    0.000
461.891; 5165.900;  333.125;    0.000
462.029; 5310.900;  336.125;    0.000
462.166; 5249.900;  272.125;    0.000
462.304; 5325.900;  313.125;    0.000
462.442; 5390.900;  313.125;    0.000
462.580; 5555.900;  328.125;    0.000
462.718; 5504.900;  358.125;    0.000
462.856; 5399.900;  302.125;    0.000
462.993; 5659.900;  360.125;    0.000
463.131; 5520.900;  280.125;    0.000
463.269; 5442.900;  312.125;    0.000
463.407; 5337.900;  263.125;    0.000
463.545; 5340.900;  253.125;    0.000
463.682; 5284.900;  296.125;    0.000
463.820; 5677.900;  308.125;    0.000
463.958; 5776.900;  300.125;    0.000
464.095; 5843.900;  289.125;    0.000
464.233; 5899.900;  340.125;    0.000
464.371; 5819.900;  300.125;    0.000
464.509; 5907.900;  266.125;    0.000
464.646; 5833.900;  294.125;    0.000
464.784; 5860.900;  284.125;    0.000
464.921; 5860.900;  350.125;    0.000
465.059; 5630.900;  256.125;    0.000
465.197; 5522.900;  289.125;    0.000
465.334; 5373.900;  287.125;    0.000
465.472; 5253.900;  322.125;    0.000
465.609; 5267.900;  311.125;    0.000
465.747; 5236.900;  336.125;    0.000
465.885; 5116.900;  308.125;    0.000
466.022; 5189.900;  299.125;    0.000
466.160; 5133.900;  293.125;    0.000
466.297; 5120.900;  317.125;    0.000
466.435; 5219.900;  336.125;    0.000
466.572; 5093.900;  282.125;    0.000
466.710; 5123.900;  299.125;    0.000
466.847; 5041.900;  288.125;    0.000
466.985; 5205.900;  274.125;    0.000
467.122; 5034.900;  302.125;    0.000
467.260; 4983.900;  271.125;    0.000
467.397; 5086.900;  263.125;    0.000
467.534; 5021.900;  320.125;    0.000
467.672; 5127.900;  309.125;    0.000
467.809; 5062.900;  275.125;    0.000
467.947; 5090.900;  319.125;    0.000
468.084; 5086.900;  309.125;    0.000
468.221; 4987.900;  302.125;    0.000
468.359; 4952.900;  286.125;    0.000
468.496; 4890.900;  293.125;    0.000
468.633; 5044.900;  273.125;    0.000
468.771; 5080.900;  296.125;    0.000
468.908; 5032.900;  277.125;    0.000
469.045; 5083.900;  303.125;    0.000
469.183; 5084.900;  314.125;    0.000
469.320; 5201.900;  278.125;    0.000
469.457; 5183.900;  308.125;    0.000
469.594; 5281.900;  272.125;    0.000
469.732; 5350.900;  321.125;    0.000
469.869; 5331.900;  299.125;    0.000
470.006; 5317.900;  267.125;    0.000
470.143; 5296.900;  298.125;    0.000
470.280; 5411.900;  272.125;    0.000
470.417; 5446.900;  314.125;    0.000
470.555; 5414.900;  305.125;    0.000
470.692; 5417.900;  309.125;    0.000
470.829; 5369.900;  311.125;    0.000
470.966; 5302.900;  260.125;    0.000
471.103; 5420.900;  267.125;    0.000
471.240; 5212.900;  290.125;    0.000
471.377; 5371.900;  290.125;    0.000
471.514; 5385.900;  295.125;    0.000
471.651; 5354.900;  300.125;    0.000
471.789; 5313.900;  281.125;    0.000
471.926; 5231.900;  291.125;    0.000
472.063; 5202.900;  305.125;    0.000
472.200; 5221.900;  285.125;    0.000
472.337; 5168.900;  288.125;    0.000
472.474; 5329.900;  276.125;    0.000
472.611; 5116.900;  309.125;    0.000
472.748; 5126.900;  280.125;    0.000
472.884; 5109.900;  300.125;    0.000
473.021; 5081.900;  280.125;    0.000
473.158; 5131.900;  304.125;    0.000
473.295; 5125.900;  308.125;    0.000
473.432; 5114.900;  294.125;    0.000
473.569; 5067.900;  288.125;    0.000
473.706; 5119.900;  254.125;    0.000
473.843; 5146.900;  282.125;    0.000
473.980; 5157.900;  286.125;    0.000
474.117; 5188.900;  257.125;    0.000
474.253; 5160.900;  298.125;    0.000
474.390; 5160.900;  253.125;    0.000
474.527; 5100.900;  271.125;    0.000
474.664; 5123.900;  257.125;    0.000
474.801; 5263.900;  296.125;    0.000
474.937; 5199.900;  263.125;    0.000
475.074; 5113.900;  262.125;    0.000
475.211; 5213.900;  299.125;    0.000
475.348; 5266.900;  308.125;    0.000
475.484; 5282.900;  278.125;    0.000
475.621; 5332.900;  287.125;    0.000
475.758; 5199.900;  231.125;    0.000
475.894; 5221.900;  295.125;    0.000
476.031; 5196.900;  290.125;    0.000
476.168; 5212.900;  287.125;    0.000
476.304; 5265.900;  331.125;    0.000
476.441; 5430.900;  301.125;    0.000
476.578; 5317.900;  263.125;    0.000
476.714; 5503.900;  261.125;    0.000
476.851; 5453.900;  247.125;    0.000
476.987; 5375.900;  297.125;    0.000
477.124; 5582.900;  296.125;    0.000
477.261; 5363.900;  299.125;    0.000
477.397; 5364.900;  292.125;    0.000
477.534; 5533.900;  289.125;    0.000
477.670; 5542.900;  268.125;    0.000
477.807; 5582.900;  234.125;    0.000
477.943; 5554.900;  279.125;    0.000
478.080; 5615.900;  276.125;    0.000
478.216; 5635.900;  248.125;    0.000
478.353; 5772.900;  296.125;    0.000
478.489; 5714.900;  267.125;    0.000
478.626; 5796.900;  243.125;    0.000
478.762; 5776.900;  252.125;    0.000
478.898; 5818.900;  266.125;    0.000
479.035; 5953.900;  290.125;    0.000
479.171; 5838.900;  247.125;    0.000
479.308; 5781.900;  283.125;    0.000
479.444; 5779.900;  244.125;    0.000
479.580; 5768.900;  259.125;    0.000
479.717; 5867.900;  301.125;    0.000
479.853; 5810.900;  257.125;    0.000
479.989; 5919.900;  249.125;    0.000
480.126; 5928.900;  218.125;    0.000
480.262; 6047.900;  275.125;    0.000
480.398; 6058.900;  246.125;    0.000
480.535; 6034.900;  246.125;    0.000
480.671; 5876.900;  272.125;    0.000
480.807; 5879.900;  281.125;    0.000
480.943; 5890.900;  233.125;    0.000
481.080; 6036.900;  303.125;    0.000
481.216; 5784.900;  229.125;    0.000
481.352; 5767.900;  240.125;    0.000
481.488; 5788.900;  284.125;    0.000
481.624; 5786.900;  236.125;    0.000
481.760; 5821.900;  255.125;    0.000
481.897; 5865.900;  206.125;    0.000
482.033; 5844.900;  254.125;    0.000
482.169; 5831.900;  268.125;    0.000
482.305; 5698.900;  214.125;    0.000
482.441; 5815.900;  225.125;    0.000
482.577; 5851.900;  251.125;    0.000
482.713; 5775.900;  221.125;    0.000
482.849; 5892.900;  218.125;    0.000
482.985; 5750.900;  245.125;    0.000
483.121; 5846.900;  224.125;    0.000
483.258; 5808.900;  249.125;    0.000
483.394; 5840.900;  224.125;    0.000
483.530; 5783.900;  247.125;    0.000
483.665; 5762.900;  256.125;    0.000
483.801; 5736.900;  220.125;    0.000
483.937; 5817.900;  200.125;    0.000
484.073; 5901.900;  272.125;    0.000
484.209; 5906.900;  243.125;    0.000
484.345; 5876.900;  274.125;    0.000
484.481; 6053.900;  264.125;    0.000
484.617; 5855.900;  270.125;    0.000
484.753; 5879.900;  244.125;    0.000
484.889; 5848.900;  293.125;    0.000
485.025; 5951.900;  257.125;    0.000
485.161; 5895.900;  264.125;    0.000
485.296; 5958.900;  247.125;    0.000
485.432; 6006.900;  240.125;    0.000
485.568; 5921.900;  240.125;    0.000
485.704; 5872.900;  232.125;    0.000
485.840; 5862.900;  280.125;    0.000
485.975; 5968.900;  253.125;    0.000
486.111; 6008.900;  250.125;    0.000
486.247; 5989.900;  272.125;    0.000
486.383; 5971.900;  258.125;    0.000
486.518; 6052.900;  256.125;    0.000
486.654; 6035.900;  250.125;    0.000
486.790; 5897.900;  259.125;    0.000
486.926; 5955.900;  256.125;    0.000
487.061; 5902.900;  267.125;    0.000
487.197; 5955.900;  224.125;    0.000
487.333; 5900.900;  265.125;    0.000
487.468; 5973.900;  223.125;    0.000
487.604; 6012.900;  298.125;    0.000
487.740; 5922.900;  261.125;    0.000
487.875; 5988.900;  278.125;    0.000
488.011; 5953.900;  292.125;    0.000
488.146; 5957.900;  239.125;    0.000
488.282; 5919.900;  265.125;    0.000
488.417; 5972.900;  286.125;    0.000
488.553; 5939.900;  271.125;    0.000
488.688; 5915.900;  252.125;    0.000
488.824; 5921.900;  239.125;    0.000
488.960; 6064.900;  266.125;    0.000
489.095; 5969.900;  229.125;    0.000
489.230; 5950.900;  247.125;    0.000
489.366; 5970.900;  260.125;    0.000
489.501; 5973.900;  257.125;    0.000
489.637; 5955.900;  233.125;    0.000
489.772; 6083.900;  254.125;    0.000
489.908; 6038.900;  235.125;    0.000
490.043; 5980.900;  266.125;    0.000
490.178; 6047.900;  228.125;    0.000
490.314; 6058.900;  310.125;    0.000
490.449; 5922.900;  251.125;    0.000
490.585; 6058.900;  221.125;    0.000
490.720; 5991.900;  203.125;    0.000
490.855; 5964.900;  266.125;    0.000
490.991; 5972.900;  249.125;    0.000
491.126; 6206.900;  313.125;    0.000
491.261; 6126.900;  284.125;    0.000
491.396; 6092.900;  225.125;    0.000
491.532; 6059.900;  227.125;    0.000
491.667; 6005.900;  210.125;    0.000
491.802; 6000.900;  214.125;    0.000
491.937; 6202.900;  246.125;    0.000
492.073; 6163.900;  250.125;    0.000
492.208; 6166.900;  267.125;    0.000
492.343; 6139.900;  245.125;    0.000
492.478; 6221.900;  271.125;    0.000
492.613; 6264.900;  253.125;    0.000
492.749; 6300.900;  249.125;    0.000
492.884; 6278.900;  217.125;    0.000
493.019; 6226.900;  244.125;    0.000
493.154; 6265.900;  265.125;    0.000
493.289; 6145.900;  266.125;    0.000
493.424; 6147.900;  226.125;    0.000
493.559; 6016.900;  222.125;    0.000
493.694; 6144.900;  218.125;    0.000
493.829; 6107.900;  246.125;    0.000
493.964; 6031.900;  243.125;    0.000
494.099; 6156.900;  269.125;    0.000
494.234; 6179.900;  249.125;    0.000
494.369; 6221.900;  279.125;    0.000
494.504; 6348.900;  261.125;    0.000
494.639; 6106.900;  289.125;    0.000
494.774; 6249.900;  252.125;    0.000
494.909; 6144.900;  250.125;    0.000
495.044; 6127.900;  207.125;    0.000
495.179; 6071.900;  266.125;    0.000
495.314; 6120.900;  228.125;    0.000
495.449; 6203.900;  262.125;    0.000
495.584; 6147.900;  281.125;    0.000
495.719; 6146.900;  251.125;    0.000
495.854; 6162.900;  237.125;    0.000
495.988; 6147.900;  238.125;    0.000
496.123; 6232.900;  255.125;    0.000
496.258; 6246.900;  264.125;    0.000
496.393; 6364.900;  253.125;    0.000
496.528; 6224.900;  244.125;    0.000
496.663; 6392.900;  267.125;    0.000
496.797; 6465.900;  271.125;    0.000
496.932; 6454.900;  262.125;    0.000
497.067; 6633.900;  260.125;    0.000
497.202; 6677.900;  264.125;    0.000
497.336; 6687.900;  243.125;    0.000
497.471; 6889.900;  251.125;    0.000
497.606; 6844.900;  219.125;    0.000
497.740; 7085.900;  264.125;    0.000
497.875; 7097.900;  252.125;    0.000
498.010; 7100.900;  241.125;    0.000
498.144; 7251.900;  261.125;    0.000
498.279; 7497.900;  221.125;    0.000
498.414; 7697.900;  246.125;    0.000
498.548; 7621.900;  212.125;    0.000
498.683; 7843.900;  260.125;    0.000
498.817; 7932.900;  244.125;    0.000
498.952; 8093.900;  252.125;    0.000
499.087; 8375.900;  251.125;    0.000
499.221; 8509.900;  282.125;    0.000
499.356; 8798.900;  264.125;    0.000
499.490; 8953.900;  280.125;    0.000
499.625; 9339.900;  256.125;    0.000
499.759; 9380.900;  253.125;    0.000
499.894; 9895.900;  261.125;    0.000
500.028;10012.900;  304.125;    0.000
500.162;10473.900;  272.125;    0.000
500.297;10444.900;  274.125;    0.000
500.431;10461.900;  320.125;    0.000
500.566;10560.900;  268.125;    0.000
500.700;10531.900;  280.125;    0.000
500.835;10373.900;  288.125;    0.000
500.969; 9781.900;  253.125;    0.000
501.103; 9891.900;  234.125;    0.000
501.238; 9433.900;  302.125;    0.000
501.372; 9252.900;  292.125;    0.000
501.506; 8727.900;  222.125;    0.000
501.641; 8407.900;  274.125;    0.000
501.775; 8248.900;  245.125;    0.000
501.909; 7993.900;  283.125;    0.000
502.043; 7921.900;  252.125;    0.000
502.178; 7632.900;  293.125;    0.000
502.312; 7618.900;  223.125;    0.000
502.446; 7319.900;  292.125;    0.000
502.580; 7235.900;  253.125;    0.000
502.715; 7011.900;  282.125;    0.000
502.849; 6963.900;  258.125;    0.000
502.983; 6874.900;  267.125;    0.000
503.117; 6900.900;  226.125;    0.000
503.251; 6770.900;  260.125;    0.000
503.385; 6600.900;  291.125;    0.000
503.520; 6636.900;  279.125;    0.000
503.654; 6398.900;  229.125;    0.000
503.788; 6377.900;  259.125;    0.000
503.922; 6288.900;  246.125;    0.000
504.056; 6329.900;  269.125;    0.000
504.190; 6249.900;  265.125;    0.000
504.324; 6184.900;  298.125;    0.000
504.458; 6317.900;  235.125;    0.000
504.592; 6115.900;  275.125;    0.000
504.726; 6077.900;  226.125;    0.000
504.860; 5987.900;  298.125;    0.000
504.994; 5899.900;  253.125;    0.000
505.128; 5809.900;  283.125;    0.000
505.262; 5642.900;  255.125;    0.000
505.396; 5547.900;  219.125;    0.000
505.530; 5470.900;  279.125;    0.000
505.664; 5424.900;  306.125;    0.000
505.798; 5457.900;  297.125;    0.000
505.932; 5364.900;  273.125;    0.000
506.066; 5382.900;  271.125;    0.000
506.199; 5232.900;  273.125;    0.000
506.333; 5359.900;  227.125;    0.000
506.467; 5145.900;  302.125;    0.000
506.601; 5177.900;  254.125;    0.000
506.735; 5156.900;  299.125;    0.000
506.869; 5069.900;  278.125;    0.000
507.002; 4986.900;  259.125;    0.000
507.136; 5097.900;  285.125;    0.000
507.270; 5045.900;  255.125;    0.000
507.404; 4981.900;  273.125;    0.000
507.537; 4883.900;  245.125;    0.000
507.671; 4796.900;  251.125;    0.000
507.805; 4831.900;  286.125;    0.000
507.939; 4849.900;  261.125;    0.000
508.072; 4909.900;  298.125;    0.000
508.206; 4768.900;  238.125;    0.000
508.340; 4901.900;  289.125;    0.000
508.473; 4878.900;  255.125;    0.000
508.607; 4679.900;  266.125;    0.000
508.740; 4743.900;  253.125;    0.000
508.874; 4791.900;  233.125;    0.000
509.008; 4671.900;  274.125;    0.000
509.141; 4780.900;  235.125;    0.000
509.275; 4642.900;  225.125;    0.000
509.408; 4622.900;  254.125;    0.000
509.542; 4656.900;  244.125;    0.000
509.675; 4742.900;  263.125;    0.000
509.809; 4681.900;  271.125;    0.000
509.942; 4690.900;  246.125;    0.000
510.076; 4668.900;  221.125;    0.000
510.209; 4569.900;  270.125;    0.000
510.343; 4630.900;  265.125;    0.000
510.476; 4643.900;  291.125;    0.000
510.610; 4480.900;  251.125;    0.000
510.743; 4623.900;  304.125;    0.000
510.877; 4551.900;  259.125;    0.000
511.010; 4524.900;  274.125;    0.000
511.143; 4506.900;  255.125;    0.000
511.277; 4569.900;  267.125;    0.000
511.410; 4386.900;  270.125;    0.000
511.543; 4506.900;  231.125;    0.000
511.677; 4511.900;  275.125;    0.000
511.810; 4536.900;  265.125;    0.000
511.943; 4629.900;  231.125;    0.000
512.077; 4498.900;  225.125;    0.000
512.210; 4500.900;  235.125;    0.000
512.343; 4468.900;  251.125;    0.000
512.476; 4421.900;  260.125;    0.000
512.610; 4413.900;  289.125;    0.000
512.743; 4486.900;  270.125;    0.000
512.876; 4527.900;  289.125;    0.000
513.009; 4603.900;  293.125;    0.000
513.142; 4517.900;  282.125;    0.000
513.276; 4437.900;  244.125;    0.000
513.409; 4446.900;  277.125;    0.000
513.542; 4404.900;  254.125;    0.000
513.675; 4448.900;  258.125;    0.000
513.808; 4365.900;  243.125;    0.000
513.941; 4385.900;  274.125;    0.000
514.074; 4404.900;  296.125;    0.000
514.207; 4491.900;  267.125;    0.000
514.340; 4523.900;  283.125;    0.000
514.474; 4513.900;  255.125;    0.000
514.607; 4487.900;  291.125;    0.000
514.740; 4451.900;  296.125;    0.000
514.873; 4602.900;  275.125;    0.000
515.006; 4740.900;  313.125;    0.000
515.139; 4657.900;  253.125;    0.000
515.272; 4716.900;  263.125;    0.000
515.404; 4638.900;  258.125;    0.000
515.537; 4668.900;  285.125;    0.000
515.670; 4663.900;  286.125;    0.000
515.803; 4715.900;  266.125;    0.000
515.936; 4735.900;  251.125;    0.000
516.069; 4798.900;  231.125;    0.000
516.202; 4835.900;  278.125;    0.000
516.335; 4936.900;  295.125;    0.000
516.468; 5148.900;  239.125;    0.000
516.600; 5840.900;  229.125;    0.000
516.733; 6846.900;  301.125;    0.000
516.866; 7020.900;  287.125;    0.000
516.999; 6641.900;  265.125;    0.000
517.132; 7779.900;  291.125;    0.000
517.264;10179.900;  262.125;    0.000
517.397;10076.900;  292.125;    0.000
517.530; 8157.900;  299.125;    0.000
517.663; 7005.900;  268.125;    0.000
517.795; 6554.900;  323.125;    0.000
517.928; 6330.900;  281.125;    0.000
518.061; 6431.900;  242.125;    0.000
518.193; 7887.900;  279.125;    0.000
518.326;11575.900;  288.125;    0.000
518.459;12532.900;  251.125;    0.000
518.591; 9954.900;  314.125;    0.000
518.724; 7920.900;  279.125;    0.000
518.857; 6738.900;  245.125;    0.000
518.989; 6272.900;  290.125;    0.000
519.122; 5889.900;  319.125;    0.000
519.254; 5594.900;  295.125;    0.000
519.387; 5395.900;  271.125;    0.000
519.519; 5266.900;  312.125;    0.000
519.652; 5059.900;  289.125;    0.000
519.784; 4981.900;  311.125;    0.000
519.917; 4788.900;  283.125;    0.000
520.049; 4856.900;  281.125;    0.000
520.182; 4682.900;  242.125;    0.000
520.314; 4736.900;  310.125;    0.000
520.447; 4635.900;  215.125;    0.000
520.579; 4679.900;  277.125;    0.000
520.712; 4559.900;  224.125;    0.000
520.844; 4626.900;  293.125;    0.000
520.976; 4403.900;  281.125;    0.000
521.109; 4352.900;  279.125;    0.000
521.241; 4484.900;  318.125;    0.000
521.373; 4302.900;  242.125;    0.000
521.506; 4248.900;  246.125;    0.000
521.638; 4306.900;  312.125;    0.000
521.770; 4199.900;  257.125;    0.000
521.903; 4279.900;  295.125;    0.000
522.035; 4216.900;  283.125;    0.000
522.167; 4141.900;  281.125;    0.000
522.300; 4050.900;  262.125;    0.000
522.432; 4070.900;  272.125;    0.000
522.564; 3932.900;  277.125;    0.000
522.696; 4139.900;  295.125;    0.000
522.828; 4003.900;  284.125;    0.000
522.961; 3958.900;  295.125;    0.000
523.093; 3946.900;  282.125;    0.000
523.225; 4021.900;  270.125;    0.000
523.357; 3898.900;  285.125;    0.000
523.489; 3880.900;  292.125;    0.000
523.621; 3886.900;  285.125;    0.000
523.753; 3832.900;  273.125;    0.000
523.885; 3929.900;  271.125;    0.000
524.018; 3814.900;  276.125;    0.000
524.150; 3843.900;  320.125;    0.000
524.282; 3848.900;  304.125;    0.000
524.414; 3997.900;  302.125;    0.000
524.546; 3747.900;  305.125;    0.000
524.678; 3856.900;  264.125;    0.000
524.810; 3778.900;  258.125;    0.000
524.942; 3731.900;  252.125;    0.000
525.074; 3703.900;  275.125;    0.000
525.206; 3692.900;  286.125;    0.000
525.338; 3647.900;  280.125;    0.000
525.469; 3708.900;  267.125;    0.000
525.601; 3708.900;  266.125;    0.000
525.733; 3624.900;  283.125;    0.000
525.865; 3719.900;  273.125;    0.000
525.997; 3660.900;  286.125;    0.000
526.129; 3587.900;  249.125;    0.000
526.261; 3649.900;  233.125;    0.000
526.393; 3607.900;  257.125;    0.000
526.524; 3654.900;  184.125;    0.000
526.656; 3647.900;  259.125;    0.000
526.788; 3628.900;  268.125;    0.000
526.920; 3609.900;  262.125;    0.000
527.052; 3530.900;  250.125;    0.000
527.183; 3620.900;  264.125;    0.000
527.315; 3638.900;  301.125;    0.000
527.447; 3501.900;  262.125;    0.000
527.578; 3585.900;  267.125;    0.000
527.710; 3742.900;  299.125;    0.000
527.842; 3537.900;  266.125;    0.000
527.973; 3618.900;  240.125;    0.000
528.105; 3471.900;  275.125;    0.000
528.237; 3593.900;  239.125;    0.000
528.368; 3466.900;  275.125;    0.000
528.500; 3493.900;  271.125;    0.000
528.632; 3450.900;  252.125;    0.000
528.763; 3470.900;  253.125;    0.000
528.895; 3429.900;  259.125;    0.000
529.026; 3566.900;  209.125;    0.000
529.158; 3543.900;  291.125;    0.000
529.289; 3606.900;  280.125;    0.000
529.421; 3620.900;  274.125;    0.000
529.552; 3511.900;  253.125;    0.000
529.684; 3566.900;  310.125;    0.000
529.815; 3638.900;  305.125;    0.000
529.947; 3512.900;  234.125;    0.000
530.078; 3513.900;  259.125;    0.000
530.210; 3590.900;  264.125;    0.000
530.341; 3558.900;  267.125;    0.000
530.472; 3556.900;  232.125;    0.000
530.604; 3533.900;  293.125;    0.000
530.735; 3577.900;  275.125;    0.000
530.867; 3598.900;  280.125;    0.000
530.998; 3600.900;  295.125;    0.000
531.129; 3553.900;  274.125;    0.000
531.260; 3553.900;  272.125;    0.000
531.392; 3591.900;  275.125;    0.000
531.523; 3574.900;  244.125;    0.000
531.654; 3625.900;  289.125;    0.000
531.786; 3677.900;  259.125;    0.000
531.917; 3677.900;  286.125;    0.000
532.048; 3656.900;  293.125;    0.000
532.179; 3718.900;  288.125;    0.000
532.311; 3707.900;  296.125;    0.000
532.442; 3673.900;  277.125;    0.000
532.573; 3645.900;  273.125;    0.000
532.704; 3567.900;  308.125;    0.000
532.835; 3606.900;  308.125;    0.000
532.966; 3562.900;  274.125;    0.000
533.097; 3597.900;  310.125;    0.000
533.229; 3527.900;  294.125;    0.000
533.360; 3468.900;  324.125;    0.000
533.491; 3526.900;  278.125;    0.000
533.622; 3606.900;  319.125;    0.000
533.753; 3563.900;  303.125;    0.000
533.884; 3588.900;  269.125;    0.000
534.015; 3689.900;  266.125;    0.000
534.146; 3594.900;  283.125;    0.000
534.277; 3642.900;  299.125;    0.000
534.408; 3622.900;  265.125;    0.000
534.539; 3621.900;  310.125;    0.000
534.670; 3531.900;  319.125;    0.000
534.801; 3546.900;  281.125;    0.000
534.932; 3460.900;  239.125;    0.000
535.063; 3414.900;  276.125;    0.000
535.194; 3559.900;  361.125;    0.000
535.324; 3428.900;  283.125;    0.000
535.455; 3478.900;  282.125;    0.000
535.586; 3549.900;  331.125;    0.000
535.717; 3442.900;  262.125;    0.000
535.848; 3578.900;  308.125;    0.000
535.979; 3487.900;  273.125;    0.000
536.109; 3512.900;  277.125;    0.000
536.240; 3435.900;  293.125;    0.000
536.371; 3566.900;  295.125;    0.000
536.502; 3584.900;  330.125;    0.000
536.632; 3490.900;  280.125;    0.000
536.763; 3551.900;  332.125;    0.000
536.894; 3530.900;  334.125;    0.000
537.025; 3456.900;  295.125;    0.000
537.155; 3467.900;  321.125;    0.000
537.286; 3438.900;  292.125;    0.000
537.417; 3438.900;  314.125;    0.000
537.547; 3416.900;  287.125;    0.000
537.678; 3437.900;  287.125;    0.000
537.808; 3452.900;  278.125;    0.000
537.939; 3396.900;  304.125;    0.000
538.070; 3428.900;  303.125;    0.000
538.200; 3417.900;  279.125;    0.000
538.331; 3377.900;  321.125;    0.000
538.461; 3415.900;  313.125;    0.000
538.592; 3463.900;  290.125;    0.000
538.722; 3417.900;  285.125;    0.000
538.853; 3487.900;  261.125;    0.000
538.983; 3379.900;  280.125;    0.000
539.114; 3300.900;  310.125;    0.000
539.244; 3412.900;  281.125;    0.000
539.375; 3405.900;  292.125;    0.000
539.505; 3364.900;  286.125;    0.000
539.636; 3380.900;  276.125;    0.000
539.766; 3515.900;  287.125;    0.000
539.896; 3375.900;  292.125;    0.000
540.027; 3345.900;  262.125;    0.000
540.157; 3477.900;  269.125;    0.000
540.287; 3403.900;  282.125;    0.000
540.418; 3342.900;  269.125;    0.000
540.548; 3450.900;  328.125;    0.000
540.678; 3399.900;  271.125;    0.000
540.809; 3413.900;  272.125;    0.000
540.939; 3384.900;  299.125;    0.000
541.069; 3428.900;  266.125;    0.000
541.200; 3488.900;  242.125;    0.000
541.330; 3466.900;  257.125;    0.000
541.460; 3479.900;  270.125;    0.000
541.590; 3489.900;  287.125;    0.000
541.720; 3409.900;  255.125;    0.000
541.851; 3481.900;  273.125;    0.000
541.981; 3452.900;  244.125;    0.000
542.111; 3550.900;  263.125;    0.000
542.241; 3511.900;  271.125;    0.000
542.371; 3541.900;  263.125;    0.000
542.501; 3605.900;  274.125;    0.000
542.631; 3639.900;  288.125;    0.000
542.761; 3654.900;  261.125;    0.000
542.891; 3648.900;  253.125;    0.000
543.021; 3711.900;  249.125;    0.000
543.151; 3745.900;  261.125;    0.000
543.281; 3646.900;  256.125;    0.000
543.411; 3558.900;  290.125;    0.000
543.542; 3681.900;  278.125;    0.000
543.671; 3606.900;  238.125;    0.000
543.801; 3575.900;  256.125;    0.000
543.931; 3682.900;  254.125;    0.000
544.061; 3500.900;  237.125;    0.000
544.191; 3575.900;  245.125;    0.000
544.321; 3586.900;  267.125;    0.000
544.451; 3568.900;  262.125;    0.000
544.581; 3738.900;  221.125;    0.000
544.711; 3639.900;  252.125;    0.000
544.841; 3668.900;  264.125;    0.000
544.970; 3774.900;  315.125;    0.000
545.100; 3783.900;  245.125;    0.000
545.230; 3888.900;  276.125;    0.000
545.360; 3882.900;  278.125;    0.000
545.490; 3765.900;  268.125;    0.000
545.619; 3674.900;  237.125;    0.000
545.749; 3556.900;  228.125;    0.000
545.879; 3549.900;  234.125;    0.000
546.009; 3622.900;  287.125;    0.000
546.138; 3547.900;  222.125;    0.000
546.268; 3616.900;  228.125;    0.000
546.398; 3609.900;  244.125;    0.000
546.527; 3601.900;  233.125;    0.000
546.657; 3536.900;  189.125;    0.000
546.786; 3574.900;  247.125;    0.000
546.916; 3571.900;  244.125;    0.000
547.046; 3605.900;  214.125;    0.000
547.175; 3605.900;  242.125;    0.000
547.305; 3549.900;  252.125;    0.000
547.434; 3528.900;  191.125;    0.000
547.564; 3508.900;  208.125;    0.000
547.693; 3621.900;  213.125;    0.000
547.823; 3537.900;  209.125;    0.000
547.953; 3565.900;  250.125;    0.000
548.082; 3625.900;  231.125;    0.000
548.211; 3553.900;  226.125;    0.000
548.341; 3579.900;  254.125;    0.000
548.470; 3587.900;  266.125;    0.000
548.600; 3647.900;  229.125;    0.000
548.729; 3573.900;  225.125;    0.000
548.859; 3617.900;  185.125;    0.000
548.988; 3558.900;  225.125;    0.000
549.117; 3532.900;  241.125;    0.000
549.247; 3578.900;  236.125;    0.000
549.376; 3711.900;  220.125;    0.000
549.505; 3649.900;  254.125;    0.000
549.635; 3618.900;  268.125;    0.000
549.764; 3551.900;  194.125;    0.000
549.893; 3632.900;  232.125;    0.000
550.023; 3694.900;  222.125;    0.000
550.152; 3707.900;  223.125;    0.000
550.281; 3716.900;  210.125;    0.000
550.410; 3740.900;  197.125;    0.000
550.539; 3821.900;  222.125;    0.000
550.669; 3692.900;  245.125;    0.000
550.798; 3696.900;  265.125;    0.000
550.927; 3689.900;  249.125;    0.000
551.056; 3741.900;  184.125;    0.000
551.185; 3659.900;  247.125;    0.000
551.314; 3559.900;  258.125;    0.000
551.443; 3615.900;  224.125;    0.000
551.573; 3675.900;  204.125;    0.000
551.702; 3719.900;  220.125;    0.000
551.831; 3756.900;  287.125;    0.000
551.960; 3740.900;  259.125;    0.000
552.089; 3758.900;  222.125;    0.000
552.218; 3800.900;  254.125;    0.000
552.347; 3832.900;  260.125;    0.000
552.476; 3865.900;  251.125;    0.000
552.605; 3857.900;  229.125;    0.000
552.734; 3908.900;  261.125;    0.000
552.863; 3889.900;  225.125;    0.000
552.992; 3969.900;  202.125;    0.000
553.121; 4065.900;  193.125;    0.000
553.249; 4003.900;  224.125;    0.000
553.378; 3919.900;  274.125;    0.000
553.507; 3801.900;  248.125;    0.000
553.636; 3833.900;  203.125;    0.000
553.765; 3893.900;  224.125;    0.000
553.894; 3864.900;  246.125;    0.000
554.023; 3902.900;  229.125;    0.000
554.151; 3823.900;  216.125;    0.000
554.280; 3883.900;  223.125;    0.000
554.409; 3781.900;  240.125;    0.000
554.538; 3761.900;  277.125;    0.000
554.666; 3794.900;  244.125;    0.000
554.795; 3678.900;  240.125;    0.000
554.924; 3716.900;  257.125;    0.000
555.052; 3681.900;  266.125;    0.000
555.181; 3649.900;  244.125;    0.000
555.310; 3810.900;  262.125;    0.000
555.439; 3668.900;  260.125;    0.000
555.567; 3613.900;  234.125;    0.000
555.696; 3653.900;  237.125;    0.000
555.824; 3605.900;  232.125;    0.000
555.953; 3596.900;  279.125;    0.000
556.082; 3547.900;  234.125;    0.000
556.210; 3643.900;  235.125;    0.000
556.339; 3573.900;  198.125;    0.000
556.467; 3623.900;  216.125;    0.000
556.596; 3651.900;  273.125;    0.000
556.724; 3648.900;  245.125;    0.000
556.853; 3570.900;  241.125;    0.000
556.981; 3691.900;  219.125;    0.000
557.110; 3490.900;  242.125;    0.000
557.238; 3574.900;  202.125;    0.000
557.367; 3635.900;  254.125;    0.000
557.495; 3624.900;  260.125;    0.000
557.623; 3618.900;  207.125;    0.000
557.752; 3536.900;  219.125;    0.000
557.880; 3666.900;  209.125;    0.000
558.008; 3618.900;  243.125;    0.000
558.137; 3631.900;  244.125;    0.000
558.265; 3520.900;  221.125;    0.000
558.393; 3525.900;  297.125;    0.000
558.522; 3558.900;  232.125;    0.000
558.650; 3660.900;  299.125;    0.000
558.778; 3648.900;  210.125;    0.000
558.906; 3555.900;  240.125;    0.000
559.035; 3611.900;  252.125;    0.000
559.163; 3624.900;  246.125;    0.000
559.291; 3585.900;  213.125;    0.000
559.419; 3609.900;  221.125;    0.000
559.548; 3588.900;  208.125;    0.000
559.676; 3592.900;  254.125;    0.000
559.804; 3617.900;  213.125;    0.000
559.932; 3599.900;  208.125;    0.000
560.060; 3661.900;  276.125;    0.000
560.188; 3721.900;  278.125;    0.000
560.316; 3651.900;  217.125;    0.000
560.444; 3745.900;  254.125;    0.000
560.572; 3722.900;  226.125;    0.000
560.700; 3795.900;  282.125;    0.000
560.828; 3793.900;  211.125;    0.000
560.956; 3846.900;  264.125;    0.000
561.085; 3811.900;  295.125;    0.000
561.212; 3770.900;  229.125;    0.000
561.340; 3812.900;  259.125;    0.000
561.468; 3797.900;  253.125;    0.000
561.596; 3800.900;  240.125;    0.000
561.724; 3796.900;  259.125;    0.000
561.852; 3742.900;  224.125;    0.000
561.980; 3877.900;  251.125;    0.000
562.108; 3851.900;  214.125;    0.000
562.236; 3823.900;  258.125;    0.000
562.364; 3881.900;  237.125;    0.000
562.492; 3904.900;  228.125;    0.000
562.619; 3809.900;  223.125;    0.000
562.747; 3818.900;  263.125;    0.000
562.875; 3872.900;  257.125;    0.000
563.003; 3981.900;  216.125;    0.000
563.130; 4037.900;  190.125;    0.000
563.258; 4069.900;  225.125;    0.000
563.386; 4030.900;  259.125;    0.000
563.514; 4145.900;  264.125;    0.000
563.641; 4161.900;  230.125;    0.000
563.769; 4261.900;  257.125;    0.000
563.897; 4245.900;  210.125;    0.000
564.024; 4306.900;  221.125;    0.000
564.152; 4443.900;  256.125;    0.000
564.280; 4331.900;  225.125;    0.000
564.407; 4315.900;  262.125;    0.000
564.535; 4425.900;  235.125;    0.000
564.662; 4354.900;  238.125;    0.000
564.790; 4432.900;  248.125;    0.000
564.917; 4522.900;  214.125;    0.000
565.045; 4552.900;  253.125;    0.000
565.173; 4441.900;  225.125;    0.000
565.300; 4586.900;  261.125;    0.000
565.428; 4527.900;  218.125;    0.000
565.555; 4594.900;  245.125;    0.000
565.682; 4733.900;  242.125;    0.000
565.810; 4889.900;  228.125;    0.000
565.937; 4970.900;  230.125;    0.000
566.065; 5068.900;  251.125;    0.000
566.192; 5034.900;  196.125;    0.000
566.320; 5169.900;  217.125;    0.000
566.447; 5313.900;  224.125;    0.000
566.574; 5358.900;  221.125;    0.000
566.702; 5541.900;  221.125;    0.000
566.829; 5642.900;  252.125;    0.000
566.956; 5447.900;  214.125;    0.000
567.083; 5515.900;  204.125;    0.000
567.211; 5576.900;  216.125;    0.000
567.338; 5791.900;  228.125;    0.000
567.465; 5716.900;  208.125;    0.000
567.593; 5822.900;  205.125;    0.000
567.720; 5734.900;  194.125;    0.000
567.847; 5755.900;  268.125;    0.000
567.974; 5832.900;  198.125;    0.000
568.101; 5901.900;  224.125;    0.000
568.228; 6394.900;  236.125;    0.000
568.356; 6558.900;  207.125;    0.000
568.483; 6218.900;  220.125;    0.000
568.610; 6239.900;  181.125;    0.000
568.737; 6785.900;  216.125;    0.000
568.864; 7252.900;  258.125;    0.000
568.991; 7182.900;  203.125;    0.000
569.118; 6330.900;  232.125;    0.000
569.245; 6004.900;  192.125;    0.000
569.372; 5601.900;  226.125;    0.000
569.499; 5381.900;  211.125;    0.000
569.626; 5230.900;  247.125;    0.000
569.753; 5048.900;  248.125;    0.000
569.880; 4975.900;  226.125;    0.000
570.007; 4903.900;  215.125;    0.000
570.134; 4829.900;  205.125;    0.000
570.261; 4722.900;  187.125;    0.000
570.388; 4795.900;  258.125;    0.000
570.515; 4628.900;  241.125;    0.000
570.642; 4678.900;  211.125;    0.000
570.768; 4551.900;  228.125;    0.000
570.895; 4518.900;  229.125;    0.000
571.022; 4460.900;  203.125;    0.000
571.149; 4363.900;  206.125;    0.000
571.276; 4374.900;  191.125;    0.000
571.402; 4344.900;  218.125;    0.000
571.529; 4346.900;  192.125;    0.000
571.656; 4255.900;  209.125;    0.000
571.783; 4140.900;  181.125;    0.000
571.909; 4302.900;  251.125;    0.000
572.036; 4161.900;  225.125;    0.000
572.163; 4266.900;  214.125;    0.000
572.289; 4050.900;  252.125;    0.000
572.416; 4059.900;  220.125;    0.000
572.543; 4048.900;  225.125;    0.000
572.669; 4047.900;  226.125;    0.000
572.796; 4036.900;  231.125;    0.000
572.922; 3952.900;  258.125;    0.000
573.049; 3916.900;  202.125;    0.000
573.176; 3977.900;  254.125;    0.000
573.302; 4032.900;  215.125;    0.000
573.429; 3917.900;  251.125;    0.000
573.555; 3981.900;  221.125;    0.000
573.682; 3875.900;  227.125;    0.000
573.808; 3855.900;  259.125;    0.000
573.935; 3885.900;  233.125;    0.000
574.061; 3913.900;  241.125;    0.000
574.188; 3933.900;  238.125;    0.000
574.314; 3904.900;  221.125;    0.000
574.440; 3908.900;  221.125;    0.000
574.567; 3897.900;  216.125;    0.000
574.693; 4005.900;  224.125;    0.000
574.820; 3887.900;  199.125;    0.000
574.946; 3903.900;  248.125;    0.000
575.072; 3805.900;  220.125;    0.000
575.198; 3855.900;  262.125;    0.000
575.325; 3931.900;  232.125;    0.000
575.451; 3820.900;  225.125;    0.000
575.577; 3786.900;  216.125;    0.000
575.704; 3805.900;  248.125;    0.000
575.830; 3862.900;  227.125;    0.000
575.956; 3816.900;  206.125;    0.000
576.082; 3845.900;  222.125;    0.000
576.208; 3872.900;  206.125;    0.000
576.335; 3841.900;  256.125;    0.000
576.461; 3862.900;  247.125;    0.000
576.587; 3795.900;  219.125;    0.000
576.713; 3725.900;  215.125;    0.000
576.839; 3827.900;  225.125;    0.000
576.965; 3855.900;  230.125;    0.000
577.091; 3844.900;  235.125;    0.000
577.217; 3800.900;  235.125;    0.000
577.343; 3749.900;  233.125;    0.000
577.469; 3828.900;  242.125;    0.000
577.596; 3782.900;  241.125;    0.000
577.722; 3907.900;  255.125;    0.000
577.848; 3809.900;  235.125;    0.000
577.974; 3841.900;  210.125;    0.000
578.099; 3837.900;  239.125;    0.000
578.225; 3812.900;  258.125;    0.000
578.351; 3844.900;  209.125;    0.000
578.477; 3823.900;  255.125;    0.000
578.603; 3819.900;  213.125;    0.000
578.729; 3843.900;  221.125;    0.000
578.855; 3909.900;  209.125;    0.000
578.981; 3799.900;  206.125;    0.000
579.107; 3884.900;  221.125;    0.000
579.232; 3866.900;  206.125;    0.000
579.358; 3854.900;  226.125;    0.000
579.484; 3833.900;  244.125;    0.000
579.610; 3848.900;  261.125;    0.000
579.735; 3785.900;  270.125;    0.000
579.861; 3912.900;  255.125;    0.000
579.987; 3926.900;  249.125;    0.000
580.113; 3951.900;  260.125;    0.000
580.238; 3921.900;  206.125;    0.000
580.364; 3891.900;  249.125;    0.000
580.490; 3871.900;  225.125;    0.000
580.615; 4044.900;  266.125;    0.000
580.741; 3998.900;  224.125;    0.000
580.867; 3975.900;  251.125;    0.000
580.992; 4024.900;  270.125;    0.000
581.118; 3968.900;  248.125;    0.000
581.243; 4051.900;  251.125;    0.000
581.369; 3974.900;  192.125;    0.000
581.494; 4070.900;  259.125;    0.000
581.620; 3947.900;  245.125;    0.000
581.745; 4153.900;  232.125;    0.000
581.871; 4166.900;  243.125;    0.000
581.996; 4102.900;  216.125;    0.000
582.122; 4036.900;  263.125;    0.000
582.247; 4104.900;  254.125;    0.000
582.373; 4235.900;  232.125;    0.000
582.498; 4094.900;  275.125;    0.000
582.624; 4288.900;  260.125;    0.000
582.749; 4259.900;  251.125;    0.000
582.874; 4331.900;  245.125;    0.000
583.000; 4332.900;  278.125;    0.000
583.125; 4356.900;  211.125;    0.000
583.250; 4381.900;  246.125;    0.000
583.376; 4540.900;  259.125;    0.000
583.501; 4356.900;  254.125;    0.000
583.626; 4473.900;  209.125;    0.000
583.751; 4425.900;  239.125;    0.000
583.877; 4571.900;  255.125;    0.000
584.002; 4589.900;  263.125;    0.000
584.127; 4515.900;  205.125;    0.000
584.252; 4651.900;  196.125;    0.000
584.377; 4773.900;  249.125;    0.000
584.503; 4830.900;  219.125;    0.000
584.628; 4717.900;  243.125;    0.000
584.753; 4908.900;  250.125;    0.000
584.878; 4996.900;  208.125;    0.000
585.003; 5095.900;  234.125;    0.000
585.128; 5220.900;  207.125;    0.000
585.253; 5395.900;  219.125;    0.000
585.378; 5245.900;  205.125;    0.000
585.503; 5449.900;  256.125;    0.000
585.628; 5476.900;  217.125;    0.000
585.753; 5681.900;  213.125;    0.000
585.878; 5818.900;  147.125;    0.000
586.003; 5807.900;  256.125;    0.000
586.128; 5837.900;  214.125;    0.000
586.253; 6217.900;  254.125;    0.000
586.378; 6345.900;  252.125;    0.000
586.503; 6636.900;  219.125;    0.000
586.628; 6718.900;  226.125;    0.000
586.753; 6925.900;  237.125;    0.000
586.878; 7235.900;  185.125;    0.000
587.003; 7649.900;  248.125;    0.000
587.127; 7929.900;  237.125;    0.000
587.252; 8312.900;  221.125;    0.000
587.377; 8635.900;  244.125;    0.000
587.502; 9156.900;  260.125;    0.000
587.627; 9871.900;  232.125;    0.000
587.751;10507.900;  250.125;    0.000
587.876;11313.900;  234.125;    0.000
588.001;12206.900;  248.125;    0.000
588.125;13343.900;  236.125;    0.000
588.250;14964.900;  192.125;    0.000
588.375;16850.900;  265.125;    0.000
588.499;19381.900;  235.125;    0.000
588.624;23034.900;  212.125;    0.000
588.749;28286.900;  214.125;    0.000
588.873;36109.898;  236.125;    0.000
588.998;43114.898;  230.125;    0.000
589.122;44511.898;  231.125;    0.000
589.247;39456.898;  250.125;    0.000
589.372;35426.898;  247.125;    0.000
589.496;37049.898;  230.125;    0.000
589.621;40350.898;  237.125;    0.000
589.745;37882.898;  277.125;    0.000
589.870;30981.900;  283.125;    0.000
589.994;24894.900;  263.125;    0.000
590.118;21383.900;  239.125;    0.000
590.243;18516.900;  218.125;    0.000
590.367;16226.900;  226.125;    0.000
590.492;14713.900;  269.125;    0.000
590.616;13344.900;  205.125;    0.000
590.740;12448.900;  243.125;    0.000
590.865;11565.900;  281.125;    0.000
590.989;10828.900;  233.125;    0.000
591.114;10093.900;  222.125;    0.000
591.238; 9527.900;  204.125;    0.000
591.362; 9115.900;  283.125;    0.000
591.486; 8745.900;  236.125;    0.000
591.611; 8373.900;  228.125;    0.000
591.735; 8125.900;  249.125;    0.000
591.859; 7788.900;  202.125;    0.000
591.983; 7812.900;  257.125;    0.000
592.107; 7321.900;  230.125;    0.000
592.232; 7183.900;  266.125;    0.000
592.356; 7031.900;  232.125;    0.000
592.480; 6913.900;  245.125;    0.000
592.604; 6705.900;  254.125;    0.000
592.728; 6541.900;  233.125;    0.000
592.852; 6348.900;  213.125;    0.000
592.976; 6424.900;  234.125;    0.000
593.100; 6213.900;  246.125;    0.000
593.224; 6087.900;  305.125;    0.000
593.349; 6041.900;  240.125;    0.000
593.473; 5967.900;  206.125;    0.000
593.597; 5881.900;  243.125;    0.000
593.721; 5773.900;  247.125;    0.000
593.844; 5716.900;  230.125;    0.000
593.968; 5615.900;  226.125;    0.000
594.092; 5618.900;  193.125;    0.000
594.216; 5529.900;  237.125;    0.000
594.340; 5391.900;  235.125;    0.000
594.464; 5411.900;  225.125;    0.000
594.588; 5264.900;  269.125;    0.000
594.712; 5164.900;  242.125;    0.000
594.836; 5061.900;  240.125;    0.000
594.959; 5010.900;  255.125;    0.000
595.083; 4938.900;  258.125;    0.000
595.207; 4805.900;  264.125;    0.000
595.331; 4691.900;  215.125;    0.000
595.455; 4759.900;  234.125;    0.000
595.578; 4648.900;  215.125;    0.000
595.702; 4628.900;  259.125;    0.000
595.826; 4549.900;  232.125;    0.000
595.949; 4454.900;  251.125;    0.000
596.073; 4484.900;  197.125;    0.000
596.197; 4411.900;  239.125;    0.000
596.320; 4403.900;  229.125;    0.000
596.444; 4369.900;  264.125;    0.000
596.568; 4294.900;  207.125;    0.000
596.691; 4267.900;  234.125;    0.000
596.815; 4294.900;  241.125;    0.000
596.938; 4268.900;  244.125;    0.000
597.062; 4197.900;  210.125;    0.000
597.186; 4156.900;  247.125;    0.000
597.309; 4112.900;  215.125;    0.000
597.433; 4130.900;  266.125;    0.000
597.556; 4075.900;  234.125;    0.000
597.680; 4011.900;  261.125;    0.000
597.803; 4067.900;  239.125;    0.000
597.926; 3989.900;  251.125;    0.000
598.050; 3936.900;  227.125;    0.000
598.173; 3876.900;  247.125;    0.000
598.297; 3904.900;  244.125;    0.000
598.420; 3858.900;  243.125;    0.000
598.543; 3759.900;  237.125;    0.000
598.667; 3859.900;  239.125;    0.000
598.790; 3853.900;  217.125;    0.000
598.913; 3691.900;  244.125;    0.000
599.037; 3764.900;  249.125;    0.000
599.160; 3864.900;  222.125;    0.000
599.283; 3800.900;  235.125;    0.000
599.406; 3785.900;  228.125;    0.000
599.530; 3694.900;  234.125;    0.000
599.653; 3723.900;  228.125;    0.000
599.776; 3731.900;  263.125;    0.000
599.899; 3751.900;  197.125;    0.000
600.022; 3589.900;  224.125;    0.000
600.145; 3662.900;  211.125;    0.000
600.269; 3710.900;  246.125;    0.000
600.392; 3578.900;  233.125;    0.000
600.515; 3620.900;  266.125;    0.000
600.638; 3595.900;  246.125;    0.000
600.761; 3562.900;  213.125;    0.000
600.884; 3542.900;  279.125;    0.000
601.007; 3580.900;  268.125;    0.000
601.130; 3523.900;  203.125;    0.000
601.253; 3562.900;  241.125;    0.000
601.376; 3510.900;  248.125;    0.000
601.499; 3482.900;  241.125;    0.000
601.622; 3549.900;  266.125;    0.000
601.745; 3518.900;  237.125;    0.000
601.868; 3468.900;  256.125;    0.000
601.991; 3446.900;  260.125;    0.000
602.113; 3472.900;  246.125;    0.000
602.236; 3419.900;  243.125;    0.000
602.359; 3466.900;  220.125;    0.000
602.482; 3431.900;  236.125;    0.000
602.605; 3408.900;  216.125;    0.000
602.728; 3443.900;  247.125;    0.000
602.850; 3460.900;  255.125;    0.000
602.973; 3432.900;  224.125;    0.000
603.096; 3490.900;  258.125;    0.000
603.219; 3391.900;  222.125;    0.000
603.341; 3460.900;  235.125;    0.000
603.464; 3449.900;  223.125;    0.000
603.587; 3439.900;  250.125;    0.000
603.709; 3434.900;  229.125;    0.000
603.832; 3456.900;  285.125;    0.000
603.955; 3289.900;  225.125;    0.000
604.077; 3299.900;  235.125;    0.000
604.200; 3396.900;  209.125;    0.000
604.323; 3306.900;  240.125;    0.000
604.445; 3305.900;  198.125;    0.000
604.568; 3363.900;  230.125;    0.000
604.690; 3346.900;  225.125;    0.000
604.813; 3307.900;  248.125;    0.000
604.935; 3290.900;  204.125;    0.000
605.058; 3269.900;  191.125;    0.000
605.180; 3354.900;  237.125;    0.000
605.303; 3354.900;  224.125;    0.000
605.425; 3332.900;  244.125;    0.000
605.547; 3250.900;  268.125;    0.000
605.670; 3357.900;  211.125;    0.000
605.792; 3356.900;  266.125;    0.000
605.915; 3198.900;  202.125;    0.000
606.037; 3225.900;  236.125;    0.000
606.159; 3194.900;  234.125;    0.000
606.282; 3305.900;  223.125;    0.000
606.404; 3303.900;  217.125;    0.000
606.526; 3288.900;  221.125;    0.000
606.648; 3187.900;  204.125;    0.000
606.771; 3296.900;  265.125;    0.000
606.893; 3197.900;  211.125;    0.000
607.015; 3270.900;  206.125;    0.000
607.137; 3167.900;  222.125;    0.000
607.260; 3154.900;  228.125;    0.000
607.382; 3253.900;  202.125;    0.000
607.504; 3247.900;  257.125;    0.000
607.626; 3264.900;  249.125;    0.000
607.748; 3326.900;  233.125;    0.000
607.870; 3184.900;  222.125;    0.000
607.992; 3165.900;  227.125;    0.000
608.114; 3184.900;  228.125;    0.000
608.237; 3237.900;  254.125;    0.000
608.359; 3254.900;  216.125;    0.000
608.481; 3161.900;  197.125;    0.000
608.603; 3125.900;  209.125;    0.000
608.725; 3177.900;  220.125;    0.000
608.847; 3259.900;  259.125;    0.000
608.969; 3334.900;  242.125;    0.000
609.090; 3211.900;  218.125;    0.000
609.212; 3087.900;  200.125;    0.000
609.334; 3115.900;  212.125;    0.000
609.456; 3242.900;  231.125;    0.000
609.578; 3180.900;  249.125;    0.000
609.700; 3112.900;  185.125;    0.000
609.822; 3102.900;  200.125;    0.000
609.944; 3246.900;  236.125;    0.000
610.065; 3170.900;  255.125;    0.000
610.187; 3165.900;  208.125;    0.000
610.309; 3155.900;  202.125;    0.000
610.431; 3150.900;  232.125;    0.000
610.552; 3178.900;  232.125;    0.000
610.674; 3076.900;  217.125;    0.000
610.796; 3195.900;  186.125;    0.000
610.918; 3048.900;  211.125;    0.000
611.039; 3270.900;  244.125;    0.000
611.161; 3208.900;  202.125;    0.000
611.282; 3049.900;  212.125;    0.000
611.404; 3162.900;  235.125;    0.000
611.526; 3187.900;  213.125;    0.000
611.647; 3130.900;  248.125;    0.000
611.769; 3075.900;  205.125;    0.000
611.890; 3081.900;  224.125;    0.000
612.012; 3004.900;  189.125;    0.000
612.133; 3004.900;  186.125;    0.000
612.255; 3098.900;  246.125;    0.000
612.377; 3126.900;  230.125;    0.000
612.498; 3077.900;  196.125;    0.000
612.619; 3059.900;  234.125;    0.000
612.741; 3151.900;  221.125;    0.000
612.862; 3190.900;  227.125;    0.000
612.984; 3156.900;  189.125;    0.000
613.105; 3109.900;  232.125;    0.000
613.226; 3082.900;  199.125;    0.000
613.348; 3150.900;  260.125;    0.000
613.469; 3160.900;  217.125;    0.000
613.590; 3031.900;  236.125;    0.000
613.712; 3143.900;  226.125;    0.000
613.833; 3070.900;  231.125;    0.000
613.954; 3108.900;  236.125;    0.000
614.076; 3049.900;  236.125;    0.000
614.197; 3094.900;  228.125;    0.000
614.318; 3150.900;  207.125;    0.000
614.439; 3048.900;  237.125;    0.000
614.560; 3055.900;  202.125;    0.000
614.682; 3135.900;  230.125;    0.000
614.803; 3154.900;  236.125;    0.000
614.924; 3058.900;  257.125;    0.000
615.045; 3195.900;  228.125;    0.000
615.166; 3136.900;  221.125;    0.000
615.287; 3180.900;  199.125;    0.000
615.408; 3496.900;  228.125;    0.000
615.529; 3606.900;  200.125;    0.000
615.650; 3450.900;  224.125;    0.000
615.771; 3315.900;  202.125;    0.000
615.892; 3361.900;  215.125;    0.000
616.013; 3815.900;  246.125;    0.000
616.134; 4016.900;  210.125;    0.000
616.255; 3920.900;  232.125;    0.000
616.376; 3576.900;  241.125;    0.000
616.497; 3431.900;  213.125;    0.000
616.618; 3282.900;  171.125;    0.000
616.739; 3199.900;  221.125;    0.000
616.860; 3193.900;  244.125;    0.000
616.981; 3147.900;  240.125;    0.000
617.102; 3184.900;  234.125;    0.000
617.222; 3204.900;  265.125;    0.000
617.343; 3176.900;  206.125;    0.000
617.464; 3179.900;  246.125;    0.000
617.585; 3076.900;  256.125;    0.000
617.705; 3081.900;  249.125;    0.000
617.826; 3147.900;  218.125;    0.000
617.947; 3099.900;  225.125;    0.000
618.068; 3058.900;  199.125;    0.000
618.188; 2959.900;  202.125;    0.000
618.309; 3099.900;  220.125;    0.000
618.430; 3090.900;  229.125;    0.000
618.550; 3002.900;  252.125;    0.000
618.671; 3000.900;  233.125;    0.000
618.791; 2986.900;  227.125;    0.000
618.912; 3036.900;  236.125;    0.000
619.033; 3030.900;  220.125;    0.000
619.153; 2954.900;  228.125;    0.000
619.274; 3043.900;  208.125;    0.000
619.394; 2990.900;  255.125;    0.000
619.515; 2911.900;  206.125;    0.000
619.635; 2880.900;  204.125;    0.000
619.756; 3014.900;  252.125;    0.000
619.876; 2992.900;  238.125;    0.000
619.996; 3042.900;  249.125;    0.000
620.117; 3014.900;  223.125;    0.000
620.237; 3009.900;  210.125;    0.000
620.358; 2996.900;  264.125;    0.000
620.478; 2933.900;  263.125;    0.000
620.598; 2942.900;  238.125;    0.000
620.719; 2986.900;  225.125;    0.000
620.839; 2981.900;  259.125;    0.000
620.959; 2989.900;  218.125;    0.000
621.079; 2973.900;  253.125;    0.000
621.200; 3008.900;  245.125;    0.000
621.320; 3070.900;  254.125;    0.000
621.440; 2917.900;  233.125;    0.000
621.560; 2879.900;  235.125;    0.000
621.681; 2983.900;  234.125;    0.000
621.801; 2993.900;  240.125;    0.000
621.921; 2906.900;  239.125;    0.000
622.041; 2929.900;  288.125;    0.000
622.161; 2968.900;  229.125;    0.000
622.281; 2938.900;  223.125;    0.000
622.401; 2929.900;  240.125;    0.000
622.521; 2922.900;  267.125;    0.000
622.641; 2935.900;  226.125;    0.000
622.761; 2873.900;  252.125;    0.000
622.882; 2948.900;  207.125;    0.000
623.002; 2839.900;  226.125;    0.000
623.121; 2946.900;  207.125;    0.000
623.241; 2878.900;  215.125;    0.000
623.361; 2867.900;  222.125;    0.000
623.481; 2865.900;  187.125;    0.000
623.601; 2870.900;  283.125;    0.000
623.721; 2978.900;  283.125;    0.000
623.841; 2848.900;  233.125;    0.000
623.961; 2918.900;  215.125;    0.000
624.081; 2897.900;  219.125;    0.000
624.201; 2910.900;  221.125;    0.000
624.320; 2808.900;  215.125;    0.000
624.440; 2901.900;  222.125;    0.000
624.560; 2896.900;  231.125;    0.000
624.680; 2791.900;  225.125;    0.000
624.799; 2736.900;  230.125;    0.000
624.919; 2825.900;  243.125;    0.000
625.039; 2849.900;  203.125;    0.000
625.159; 2819.900;  257.125;    0.000
625.278; 2860.900;  230.125;    0.000
625.398; 2801.900;  195.125;    0.000
625.518; 2791.900;  211.125;    0.000
625.637; 2797.900;  267.125;    0.000
625.757; 2842.900;  228.125;    0.000
625.876; 2799.900;  231.125;    0.000
625.996; 2793.900;  219.125;    0.000
626.115; 2794.900;  235.125;    0.000
626.235; 2761.900;  199.125;    0.000
626.354; 2768.900;  226.125;    0.000
626.474; 2764.900;  225.125;    0.000
626.594; 2813.900;  223.125;    0.000
626.713; 2690.900;  231.125;    0.000
626.832; 2795.900;  287.125;    0.000
626.952; 2707.900;  251.125;    0.000
627.071; 2781.900;  254.125;    0.000
627.191; 2783.900;  193.125;    0.000
627.310; 2698.900;  213.125;    0.000
627.429; 2832.900;  259.125;    0.000
627.549; 2732.900;  243.125;    0.000
627.668; 2803.900;  181.125;    0.000
627.787; 2826.900;  232.125;    0.000
627.907; 2816.900;  222.125;    0.000
628.026; 2801.900;  219.125;    0.000
628.145; 2845.900;  201.125;    0.000
628.264; 2756.900;  198.125;    0.000
628.384; 2834.900;  208.125;    0.000
628.503; 2801.900;  251.125;    0.000
628.622; 2737.900;  195.125;    0.000
628.741; 2729.900;  180.125;    0.000
628.860; 2719.900;  235.125;    0.000
628.980; 2732.900;  222.125;    0.000
629.099; 2783.900;  237.125;    0.000
629.218; 2713.900;  175.125;    0.000
629.337; 2687.900;  194.125;    0.000
629.456; 2826.900;  225.125;    0.000
629.575; 2743.900;  239.125;    0.000
629.694; 2734.900;  230.125;    0.000
629.813; 2753.900;  197.125;    0.000
629.932; 2736.900;  225.125;    0.000
630.051; 2828.900;  238.125;    0.000
630.170; 2674.900;  233.125;    0.000
630.289; 2612.900;  231.125;    0.000
630.408; 2695.900;  204.125;    0.000
630.527; 2749.900;  262.125;    0.000
630.646; 2655.900;  181.125;    0.000
630.764; 2698.900;  218.125;    0.000
630.883; 2705.900;  215.125;    0.000
631.002; 2722.900;  224.125;    0.000
631.121; 2733.900;  209.125;    0.000
631.240; 2704.900;  230.125;    0.000
631.359; 2750.900;  235.125;    0.000
631.477; 2755.900;  223.125;    0.000
631.596; 2744.900;  218.125;    0.000
631.715; 2739.900;  234.125;    0.000
631.834; 2767.900;  215.125;    0.000
631.952; 2734.900;  243.125;    0.000
632.071; 2720.900;  219.125;    0.000
632.190; 2739.900;  235.125;    0.000
632.308; 2720.900;  239.125;    0.000
632.427; 2730.900;  211.125;    0.000
632.546; 2614.900;  233.125;    0.000
632.664; 2687.900;  219.125;    0.000
632.783; 2678.900;  203.125;    0.000
632.901; 2645.900;  221.125;    0.000
633.020; 2622.900;  197.125;    0.000
633.138; 2646.900;  244.125;    0.000
633.257; 2670.900;  205.125;    0.000
633.375; 2672.900;  245.125;    0.000
633.494; 2785.900;  218.125;    0.000
633.612; 2684.900;  222.125;    0.000
633.731; 2558.900;  212.125;    0.000
633.849; 2672.900;  218.125;    0.000
633.968; 2633.900;  236.125;    0.000
634.086; 2687.900;  233.125;    0.000
634.204; 2709.900;  215.125;    0.000
634.323; 2736.900;  230.125;    0.000
634.441; 2657.900;  235.125;    0.000
634.559; 2731.900;  202.125;    0.000
634.678; 2606.900;  218.125;    0.000
634.796; 2633.900;  203.125;    0.000
634.914; 2595.900;  227.125;    0.000
635.032; 2607.900;  279.125;    0.000
635.151; 2636.900;  221.125;    0.000
635.269; 2538.900;  207.125;    0.000
635.387; 2517.900;  195.125;    0.000
635.505; 2678.900;  243.125;    0.000
635.623; 2696.900;  269.125;    0.000
635.742; 2633.900;  232.125;    0.000
635.860; 2706.900;  243.125;    0.000
635.978; 2571.900;  215.125;    0.000
636.096; 2662.900;  225.125;    0.000
636.214; 2587.900;  244.125;    0.000
636.332; 2707.900;  226.125;    0.000
636.450; 2532.900;  227.125;    0.000
636.568; 2532.900;  225.125;    0.000
636.686; 2516.900;  194.125;    0.000
636.804; 2544.900;  234.125;    0.000
636.922; 2524.900;  177.125;    0.000
637.040; 2571.900;  225.125;    0.000
637.158; 2611.900;  194.125;    0.000
637.276; 2635.900;  219.125;    0.000
637.394; 2565.900;  219.125;    0.000
637.512; 2641.900;  210.125;    0.000
637.629; 2628.900;  242.125;    0.000
637.747; 2612.900;  193.125;    0.000
637.865; 2616.900;  219.125;    0.000
637.983; 2539.900;  251.125;    0.000
638.101; 2603.900;  221.125;    0.000
638.218; 2571.900;  193.125;    0.000
638.336; 2641.900;  224.125;    0.000
638.454; 2609.900;  227.125;    0.000
638.572; 2614.900;  245.125;    0.000
638.689; 2570.900;  222.125;    0.000
638.807; 2648.900;  244.125;    0.000
638.925; 2613.900;  238.125;    0.000
639.042; 2627.900;  213.125;    0.000
639.160; 2626.900;  186.125;    0.000
639.278; 2646.900;  203.125;    0.000
639.395; 2517.900;  270.125;    0.000
639.513; 2581.900;  227.125;    0.000
639.630; 2586.900;  200.125;    0.000
639.748; 2562.900;  199.125;    0.000
639.865; 2618.900;  233.125;    0.000
639.983; 2583.900;  181.125;    0.000
640.100; 2583.900;  219.125;    0.000
640.218; 2530.900;  234.125;    0.000
640.335; 2556.900;  233.125;    0.000
640.453; 2664.900;  202.125;    0.000
640.570; 2474.900;  214.125;    0.000
640.688; 2542.900;  215.125;    0.000
640.805; 2550.900;  229.125;    0.000
640.922; 2615.900;  244.125;    0.000
641.040; 2591.900;  233.125;    0.000
641.157; 2528.900;  199.125;    0.000
641.274; 2558.900;  205.125;    0.000
641.391; 2596.900;  244.125;    0.000
641.509; 2626.900;  184.125;    0.000
641.626; 2632.900;  244.125;    0.000
641.743; 2519.900;  221.125;    0.000
641.860; 2506.900;  206.125;    0.000
641.978; 2559.900;  272.125;    0.000
642.095; 2498.900;  218.125;    0.000
642.212; 2557.900;  208.125;    0.000
642.329; 2542.900;  218.125;    0.000
642.446; 2558.900;  197.125;    0.000
642.563; 2652.900;  214.125;    0.000
642.681; 2564.900;  203.125;    0.000
642.798; 2577.900;  236.125;    0.000
642.915; 2506.900;  191.125;    0.000
643.032; 2554.900;  226.125;    0.000
643.149; 2557.900;  231.125;    0.000
643.266; 2563.900;  213.125;    0.000
643.383; 2655.900;  240.125;    0.000
643.500; 2576.900;  185.125;    0.000
643.617; 2560.900;  229.125;    0.000
643.734; 2575.900;  205.125;    0.000
643.850; 2596.900;  222.125;    0.000
643.967; 2602.900;  202.125;    0.000
644.084; 2643.900;  264.125;    0.000
644.201; 2615.900;  214.125;    0.000
644.318; 2574.900;  206.125;    0.000
644.435; 2609.900;  225.125;    0.000
644.552; 2666.900;  203.125;    0.000
644.668; 2664.900;  252.125;    0.000
644.785; 2586.900;  213.125;    0.000
644.902; 2592.900;  233.125;    0.000
645.019; 2689.900;  220.125;    0.000
645.135; 2620.900;  225.125;    0.000
645.252; 2643.900;  218.125;    0.000
645.369; 2630.900;  214.125;    0.000
645.485; 2603.900;  210.125;    0.000
645.602; 2563.900;  198.125;    0.000
645.719; 2641.900;  228.125;    0.000
645.835; 2628.900;  209.125;    0.000
645.952; 2680.900;  213.125;    0.000
646.068; 2712.900;  241.125;    0.000
646.185; 2710.900;  219.125;    0.000
646.302; 2697.900;  246.125;    0.000
646.418; 2649.900;  228.125;    0.000
646.535; 2735.900;  256.125;    0.000
646.651; 2713.900;  222.125;    0.000
646.768; 2694.900;  203.125;    0.000
646.884; 2729.900;  199.125;    0.000
647.000; 2743.900;  194.125;    0.000
647.117; 2700.900;  214.125;    0.000
647.233; 2675.900;  209.125;    0.000
647.350; 2846.900;  235.125;    0.000
647.466; 2863.900;  237.125;    0.000
647.582; 2744.900;  231.125;    0.000
647.699; 2823.900;  219.125;    0.000
647.815; 2822.900;  200.125;    0.000
647.931; 2670.900;  173.125;    0.000
648.047; 2710.900;  184.125;    0.000
648.164; 2777.900;  199.125;    0.000
648.280; 2842.900;  209.125;    0.000
648.396; 2822.900;  220.125;    0.000
648.512; 2846.900;  212.125;    0.000
648.629; 2808.900;  214.125;    0.000
648.745; 2767.900;  197.125;    0.000
648.861; 2788.900;  228.125;    0.000
648.977; 2768.900;  238.125;    0.000
649.093; 2892.900;  208.125;    0.000
649.209; 2861.900;  179.125;    0.000
649.325; 2882.900;  256.125;    0.000
649.441; 2811.900;  224.125;    0.000
649.557; 2891.900;  247.125;    0.000
649.673; 2883.900;  214.125;    0.000
649.789; 2891.900;  213.125;    0.000
649.905; 2792.900;  170.125;    0.000
650.021; 2882.900;  236.125;    0.000
650.137; 2914.900;  229.125;    0.000
650.253; 2876.900;  207.125;    0.000
650.369; 2884.900;  198.125;    0.000
650.485; 2923.900;  225.125;    0.000
650.601; 2924.900;  260.125;    0.000
650.717; 2890.900;  196.125;    0.000
650.833; 2973.900;  219.125;    0.000
650.948; 2981.900;  203.125;    0.000
651.064; 3078.900;  232.125;    0.000
651.180; 2967.900;  252.125;    0.000
651.296; 3012.900;  190.125;    0.000
651.411; 2899.900;  235.125;    0.000
651.527; 3001.900;  227.125;    0.000
651.643; 3098.900;  238.125;    0.000
651.759; 3132.900;  260.125;    0.000
651.874; 3051.900;  217.125;    0.000
651.990; 3042.900;  239.125;    0.000
652.105; 3007.900;  215.125;    0.000
652.221; 3184.900;  237.125;    0.000
652.337; 3121.900;  238.125;    0.000
652.452; 3170.900;  230.125;    0.000
652.568; 3192.900;  201.125;    0.000
652.683; 3300.900;  243.125;    0.000
652.799; 3253.900;  218.125;    0.000
652.914; 3247.900;  189.125;    0.000
653.030; 3252.900;  191.125;    0.000
653.145; 3313.900;  240.125;    0.000
653.261; 3335.900;  225.125;    0.000
653.376; 3431.900;  241.125;    0.000
653.492; 3440.900;  188.125;    0.000
653.607; 3477.900;  219.125;    0.000
653.722; 3591.900;  268.125;    0.000
653.838; 3556.900;  262.125;    0.000
653.953; 3616.900;  188.125;    0.000
654.068; 3747.900;  244.125;    0.000
654.184; 3691.900;  247.125;    0.000
654.299; 3754.900;  228.125;    0.000
654.414; 3811.900;  181.125;    0.000
654.530; 3901.900;  210.125;    0.000
654.645; 3962.900;  240.125;    0.000
654.760; 4070.900;  219.125;    0.000
654.875; 4054.900;  178.125;    0.000
654.990; 4140.900;  222.125;    0.000
655.106; 4361.900;  227.125;    0.000
655.221; 4460.900;  270.125;    0.000
655.336; 4554.900;  199.125;    0.000
655.451; 4682.900;  235.125;    0.000
655.566; 4645.900;  251.125;    0.000
655.681; 4933.900;  253.125;    0.000
655.796; 5217.900;  207.125;    0.000
655.911; 5410.900;  213.125;    0.000
656.026; 5612.900;  247.125;    0.000
656.141; 5835.900;  209.125;    0.000
656.256; 6085.900;  226.125;    0.000
656.371; 5885.900;  201.125;    0.000
656.486; 5984.900;  196.125;    0.000
656.601; 5881.900;  239.125;    0.000
656.716; 5698.900;  234.125;    0.000
656.831; 5711.900;  223.125;    0.000
656.946; 5413.900;  246.125;    0.000
657.060; 5427.900;  230.125;    0.000
657.175; 5173.900;  207.125;    0.000
657.290; 5088.900;  213.125;    0.000
657.405; 4986.900;  319.125;    0.000
657.520; 4903.900;  241.125;    0.000
657.634; 4766.900;  235.125;    0.000
657.749; 4539.900;  275.125;    0.000
657.864; 4599.900;  210.125;    0.000
657.979; 4406.900;  227.125;    0.000
658.093; 4404.900;  206.125;    0.000
658.208; 4258.900;  217.125;    0.000
658.323; 4194.900;  227.125;    0.000
658.437; 4070.900;  217.125;    0.000
658.552; 4212.900;  237.125;    0.000
658.666; 4055.900;  233.125;    0.000
658.781; 4058.900;  248.125;    0.000
658.895; 4008.900;  233.125;    0.000
659.010; 3910.900;  238.125;    0.000
659.125; 3797.900;  206.125;    0.000
659.239; 3630.900;  220.125;    0.000
659.353; 3678.900;  236.125;    0.000
659.468; 3589.900;  238.125;    0.000
659.582; 3664.900;  275.125;    0.000
659.697; 3587.900;  239.125;    0.000
659.811; 3560.900;  232.125;    0.000
659.926; 3508.900;  230.125;    0.000
660.040; 3523.900;  257.125;    0.000
660.154; 3407.900;  221.125;    0.000
660.269; 3412.900;  219.125;    0.000
660.383; 3385.900;  228.125;    0.000
660.497; 3309.900;  243.125;    0.000
660.612; 3370.900;  238.125;    0.000
660.726; 3308.900;  260.125;    0.000
660.840; 3309.900;  239.125;    0.000
660.954; 3267.900;  236.125;    0.000
661.068; 3187.900;  239.125;    0.000
661.183; 3128.900;  245.125;    0.000
661.297; 3129.900;  198.125;    0.000
661.411; 3029.900;  203.125;    0.000
661.525; 3132.900;  244.125;    0.000
661.639; 3102.900;  229.125;    0.000
661.753; 2987.900;  238.125;    0.000
661.867; 3073.900;  237.125;    0.000
661.981; 2969.900;  219.125;    0.000
662.095; 2891.900;  232.125;    0.000
662.209; 2908.900;  236.125;    0.000
662.323; 2832.900;  209.125;    0.000
662.437; 2845.900;  206.125;    0.000
662.551; 2861.900;  217.125;    0.000
662.665; 2818.900;  262.125;    0.000
662.779; 2841.900;  234.125;    0.000
662.893; 2763.900;  222.125;    0.000
663.007; 2739.900;  189.125;    0.000
663.121; 2691.900;  258.125;    0.000
663.235; 2788.900;  191.125;    0.000
663.349; 2701.900;  259.125;    0.000
663.462; 2648.900;  209.125;    0.000
663.576; 2694.900;  244.125;    0.000
663.690; 2672.900;  237.125;    0.000
663.804; 2535.900;  205.125;    0.000
663.917; 2543.900;  207.125;    0.000
664.031; 2633.900;  234.125;    0.000
664.145; 2634.900;  216.125;    0.000
664.258; 2583.900;  202.125;    0.000
664.372; 2584.900;  198.125;    0.000
664.486; 2482.900;  181.125;    0.000
664.599; 2489.900;  229.125;    0.000
664.713; 2560.900;  266.125;    0.000
664.827; 2504.900;  185.125;    0.000
664.940; 2463.900;  225.125;    0.000
665.054; 2508.900;  198.125;    0.000
665.167; 2459.900;  208.125;    0.000
665.281; 2505.900;  231.125;    0.000
665.394; 2403.900;  228.125;    0.000
665.508; 2480.900;  204.125;    0.000
665.621; 2459.900;  263.125;    0.000
665.735; 2430.900;  222.125;    0.000
665.848; 2499.900;  237.125;    0.000
665.961; 2382.900;  180.125;    0.000
666.075; 2367.900;  212.125;    0.000
666.188; 2460.900;  229.125;    0.000
666.301; 2434.900;  247.125;    0.000
666.415; 2392.900;  212.125;    0.000
666.528; 2440.900;  268.125;    0.000
666.641; 2404.900;  210.125;    0.000
666.755; 2361.900;  178.125;    0.000
666.868; 2304.900;  227.125;    0.000
666.981; 2353.900;  250.125;    0.000
667.094; 2343.900;  228.125;    0.000
667.207; 2305.900;  235.125;    0.000
667.321; 2311.900;  171.125;    0.000
667.434; 2287.900;  191.125;    0.000
667.547; 2257.900;  279.125;    0.000
667.660; 2198.900;  210.125;    0.000
667.773; 2259.900;  217.125;    0.000
667.886; 2258.900;  209.125;    0.000
667.999; 2250.900;  239.125;    0.000
668.112; 2319.900;  227.125;    0.000
668.225; 2184.900;  185.125;    0.000
668.338; 2214.900;  222.125;    0.000
668.451; 2196.900;  200.125;    0.000
668.564; 2280.900;  237.125;    0.000
668.677; 2178.900;  207.125;    0.000
668.790; 2189.900;  208.125;    0.000
668.903; 2226.900;  243.125;    0.000
669.016; 2133.900;  190.125;    0.000
669.129; 2147.900;  234.125;    0.000
669.242; 2168.900;  185.125;    0.000
669.354; 2137.900;  224.125;    0.000
669.467; 2168.900;  219.125;    0.000
669.580; 2251.900;  249.125;    0.000
669.693; 2156.900;  187.125;    0.000
669.806; 2195.900;  206.125;    0.000
669.918; 2177.900;  192.125;    0.000
670.031; 2181.900;  235.125;    0.000
670.144; 2132.900;  238.125;    0.000
670.256; 2133.900;  237.125;    0.000
670.369; 2122.900;  237.125;    0.000
670.482; 2089.900;  250.125;    0.000
670.594; 2101.900;  273.125;    0.000
670.707; 2115.900;  223.125;    0.000
670.820; 2173.900;  238.125;    0.000
670.932; 2070.900;  224.125;    0.000
671.045; 2105.900;  219.125;    0.000
671.157; 2113.900;  242.125;    0.000
671.270; 2008.900;  235.125;    0.000
671.382; 2071.900;  213.125;    0.000
671.495; 2110.900;  254.125;    0.000
671.607; 2039.900;  253.125;    0.000
671.720; 2083.900;  169.125;    0.000
671.832; 2005.900;  201.125;    0.000
671.944; 2102.900;  250.125;    0.000
672.057; 2090.900;  187.125;    0.000
672.169; 2104.900;  224.125;    0.000
672.281; 2106.900;  238.125;    0.000
672.394; 2071.900;  250.125;    0.000
672.506; 2040.900;  227.125;    0.000
672.618; 2074.900;  223.125;    0.000
672.731; 2073.900;  210.125;    0.000
672.843; 2018.900;  245.125;    0.000
672.955; 2044.900;  263.125;    0.000
673.067; 2077.900;  239.125;    0.000
673.180; 2104.900;  253.125;    0.000
673.292; 1985.900;  243.125;    0.000
673.404; 2006.900;  226.125;    0.000
673.516; 2011.900;  223.125;    0.000
673.628; 2069.900;  223.125;    0.000
673.740; 2019.900;  216.125;    0.000
673.852; 2027.900;  277.125;    0.000
673.964; 2022.900;  211.125;    0.000
674.076; 1986.900;  241.125;    0.000
674.188; 2017.900;  251.125;    0.000
674.300; 1998.900;  268.125;    0.000
674.412; 2036.900;  260.125;    0.000
674.524; 2008.900;  257.125;    0.000
674.636; 1964.900;  222.125;    0.000
674.748; 1989.900;  227.125;    0.000
674.860; 2012.900;  250.125;    0.000
674.972; 1989.900;  240.125;    0.000
675.084; 1977.900;  262.125;    0.000
675.196; 2007.900;  287.125;    0.000
675.307; 1951.900;  257.125;    0.000
675.419; 1939.900;  231.125;    0.000
675.531; 2069.900;  274.125;    0.000
675.643; 2023.900;  235.125;    0.000
675.755; 1976.900;  275.125;    0.000
675.866; 1966.900;  238.125;    0.000
675.978; 1998.900;  209.125;    0.000
676.090; 2001.900;  239.125;    0.000
676.201; 2016.900;  249.125;    0.000
676.313; 1957.900;  237.125;    0.000
676.425; 1922.900;  263.125;    0.000
676.536; 1976.900;  178.125;    0.000
676.648; 1963.900;  245.125;    0.000
676.759; 1945.900;  244.125;    0.000
676.871; 1903.900;  242.125;    0.000
676.983; 1948.900;  245.125;    0.000
677.094; 1935.900;  209.125;    0.000
677.206; 2004.900;  248.125;    0.000
677.317; 1957.900;  260.125;    0.000
677.429; 1896.900;  237.125;    0.000
677.540; 1861.900;  226.125;    0.000
677.651; 1878.900;  226.125;    0.000
677.763; 1835.900;  194.125;    0.000
677.874; 1891.900;  230.125;    0.000
677.986; 1907.900;  202.125;    0.000
678.097; 1929.900;  229.125;    0.000
678.208; 1846.900;  263.125;    0.000
678.320; 1850.900;  243.125;    0.000
678.431; 1888.900;  229.125;    0.000
678.542; 1856.900;  231.125;    0.000
678.653; 1823.900;  224.125;    0.000
678.765; 1898.900;  255.125;    0.000
678.876; 1830.900;  175.125;    0.000
678.987; 1905.900;  204.125;    0.000
679.098; 1899.900;  227.125;    0.000
679.209; 1846.900;  228.125;    0.000
679.320; 1830.900;  223.125;    0.000
679.432; 1786.900;  219.125;    0.000
679.543; 1823.900;  210.125;    0.000
679.654; 1802.900;  249.125;    0.000
679.765; 1800.900;  222.125;    0.000
679.876; 1798.900;  219.125;    0.000
679.987; 1768.900;  213.125;    0.000
680.098; 1926.900;  237.125;    0.000
680.209; 1866.900;  188.125;    0.000
680.320; 1807.900;  243.125;    0.000
680.431; 1808.900;  227.125;    0.000
680.542; 1839.900;  212.125;    0.000
680.653; 1812.900;  266.125;    0.000
680.763; 1848.900;  198.125;    0.000
680.874; 1860.900;  211.125;    0.000
680.985; 1823.900;  207.125;    0.000
681.096; 1780.900;  244.125;    0.000
681.207; 1839.900;  209.125;    0.000
681.318; 1735.900;  215.125;    0.000
681.428; 1751.900;  199.125;    0.000
681.539; 1752.900;  175.125;    0.000
681.650; 1777.900;  224.125;    0.000
681.760; 1834.900;  216.125;    0.000
681.871; 1752.900;  187.125;    0.000
681.982; 1740.900;  237.125;    0.000
682.093; 1745.900;  213.125;    0.000
682.203; 1787.900;  190.125;    0.000
682.314; 1760.900;  230.125;    0.000
682.424; 1799.900;  223.125;    0.000
682.535; 1783.900;  172.125;    0.000
682.646; 1845.900;  268.125;    0.000
682.756; 1798.900;  249.125;    0.000
682.867; 1767.900;  225.125;    0.000
682.977; 1816.900;  211.125;    0.000
683.088; 1810.900;  238.125;    0.000
683.198; 1717.900;  202.125;    0.000
683.308; 1774.900;  196.125;    0.000
683.419; 1722.900;  230.125;    0.000
683.529; 1809.900;  213.125;    0.000
683.640; 1798.900;  225.125;    0.000
683.750; 1737.900;  203.125;    0.000
683.860; 1794.900;  200.125;    0.000
683.971; 1802.900;  269.125;    0.000
684.081; 1751.900;  204.125;    0.000
684.191; 1780.900;  228.125;    0.000
684.301; 1693.900;  219.125;    0.000
684.412; 1764.900;  222.125;    0.000
684.522; 1734.900;  242.125;    0.000
684.632; 1734.900;  234.125;    0.000
684.742; 1809.900;  240.125;    0.000
684.852; 1735.900;  229.125;    0.000
684.963; 1797.900;  237.125;    0.000
685.073; 1700.900;  205.125;    0.000
685.183; 1812.900;  241.125;    0.000
685.293; 1697.900;  202.125;    0.000
685.403; 1796.900;  232.125;    0.000
685.513; 1813.900;  244.125;    0.000
685.623; 1747.900;  224.125;    0.000
685.733; 1775.900;  236.125;    0.000
685.843; 1753.900;  235.125;    0.000
685.953; 1669.900;  216.125;    0.000
686.063; 1785.900;  214.125;    0.000
686.173; 1758.900;  198.125;    0.000
686.283; 1734.900;  250.125;    0.000
686.393; 1729.900;  227.125;    0.000
686.503; 1835.900;  244.125;    0.000
686.612; 1723.900;  247.125;    0.000
686.722; 1762.900;  265.125;    0.000
686.832; 1718.900;  213.125;    0.000
686.942; 1759.900;  241.125;    0.000
687.052; 1818.900;  238.125;    0.000
687.161; 1768.900;  233.125;    0.000
687.271; 1756.900;  232.125;    0.000
687.381; 1754.900;  220.125;    0.000
687.491; 1776.900;  206.125;    0.000
687.600; 1730.900;  283.125;    0.000
687.710; 1665.900;  212.125;    0.000
687.820; 1801.900;  226.125;    0.000
687.929; 1740.900;  202.125;    0.000
688.039; 1803.900;  225.125;    0.000
688.148; 1746.900;  235.125;    0.000
688.258; 1709.900;  224.125;    0.000
688.367; 1723.900;  239.125;    0.000
688.477; 1695.900;  193.125;    0.000
688.586; 1718.900;  226.125;    0.000
688.696; 1790.900;  185.125;    0.000
688.805; 1725.900;  190.125;    0.000
688.915; 1708.900;  209.125;    0.000
689.024; 1732.900;  214.125;    0.000
689.134; 1734.900;  205.125;    0.000
689.243; 1724.900;  190.125;    0.000
689.352; 1717.900;  233.125;    0.000
689.462; 1729.900;  196.125;    0.000
689.571; 1739.900;  227.125;    0.000
689.680; 1702.900;  206.125;    0.000
689.790; 1685.900;  193.125;    0.000
689.899; 1721.900;  204.125;    0.000
690.008; 1719.900;  228.125;    0.000
690.117; 1694.900;  207.125;    0.000
690.227; 1720.900;  231.125;    0.000
690.336; 1655.900;  222.125;    0.000
690.445; 1703.900;  198.125;    0.000
690.554; 1718.900;  202.125;    0.000
690.663; 1680.900;  217.125;    0.000
690.772; 1697.900;  213.125;    0.000
690.881; 1696.900;  225.125;    0.000
690.990; 1746.900;  217.125;    0.000
691.099; 1660.900;  205.125;    0.000
691.209; 1691.900;  220.125;    0.000
691.318; 1691.900;  216.125;    0.000
691.427; 1643.900;  188.125;    0.000
691.536; 1678.900;  224.125;    0.000
691.644; 1765.900;  212.125;    0.000
691.753; 1708.900;  216.125;    0.000
691.862; 1670.900;  250.125;    0.000
691.971; 1654.900;  210.125;    0.000
692.080; 1718.900;  232.125;    0.000
692.189; 1717.900;  218.125;    0.000
692.298; 1735.900;  220.125;    0.000
692.406; 1744.900;  261.125;    0.000
692.515; 1702.900;  253.125;    0.000
692.624; 1596.900;  224.125;    0.000
692.733; 1745.900;  209.125;    0.000
692.842; 1724.900;  214.125;    0.000
692.950; 1695.900;  206.125;    0.000
693.059; 1726.900;  180.125;    0.000
693.168; 1715.900;  220.125;    0.000
693.276; 1727.900;  196.125;    0.000
693.385; 1687.900;  203.125;    0.000
693.494; 1676.900;  263.125;    0.000
693.602; 1662.900;  222.125;    0.000
693.711; 1668.900;  178.125;    0.000
693.819; 1682.900;  230.125;    0.000
693.928; 1692.900;  187.125;    0.000
694.036; 1655.900;  219.125;    0.000
694.145; 1706.900;  223.125;    0.000
694.253; 1757.900;  241.125;    0.000
694.362; 1642.900;  229.125;    0.000
694.470; 1719.900;  223.125;    0.000
694.579; 1658.900;  195.125;    0.000
694.687; 1764.900;  257.125;    0.000
694.795; 1667.900;  230.125;    0.000
694.904; 1638.900;  196.125;    0.000
695.012; 1758.900;  247.125;    0.000
695.120; 1724.900;  215.125;    0.000
695.229; 1787.900;  244.125;    0.000
695.337; 1714.900;  197.125;    0.000
695.445; 1766.900;  270.125;    0.000
695.553; 1722.900;  241.125;    0.000
695.662; 1705.900;  249.125;    0.000
695.770; 1680.900;  244.125;    0.000
695.878; 1710.900;  236.125;    0.000
695.986; 1744.900;  253.125;    0.000
696.094; 1674.900;  242.125;    0.000
696.202; 1623.900;  174.125;    0.000
696.310; 1687.900;  230.125;    0.000
696.419; 1674.900;  218.125;    0.000
696.527; 1717.900;  226.125;    0.000
696.635; 1724.900;  217.125;    0.000
696.743; 1660.900;  221.125;    0.000
696.851; 1660.900;  259.125;    0.000
696.959; 1758.900;  245.125;    0.000
697.067; 1683.900;  235.125;    0.000
697.174; 1693.900;  238.125;    0.000
697.282; 1625.900;  208.125;    0.000
697.390; 1715.900;  265.125;    0.000
697.498; 1670.900;  202.125;    0.000
697.606; 1584.900;  219.125;    0.000
697.714; 1669.900;  245.125;    0.000
697.822; 1683.900;  222.125;    0.000
697.929; 1672.900;  194.125;    0.000
698.037; 1670.900;  223.125;    0.000
698.145; 1699.900;  213.125;    0.000
698.253; 1657.900;  234.125;    0.000
698.360; 1712.900;  211.125;    0.000
698.468; 1659.900;  241.125;    0.000
698.576; 1676.900;  249.125;    0.000
698.683; 1694.900;  268.125;    0.000
698.791; 1705.900;  223.125;    0.000
698.899; 1667.900;  251.125;    0.000
699.006; 1654.900;  216.125;    0.000
699.114; 1663.900;  256.125;    0.000
699.221; 1640.900;  226.125;    0.000
699.329; 1683.900;  255.125;    0.000
699.436; 1630.900;  213.125;    0.000
699.544; 1588.900;  258.125;    0.000
699.651; 1638.900;  214.125;    0.000
699.759; 1629.900;  229.125;    0.000
699.866; 1614.900;  239.125;    0.000
699.974; 1628.900;  224.125;    0.000
700.081; 1643.900;  227.125;    0.000
700.188; 1672.900;  267.125;    0.000
700.296; 1649.900;  222.125;    0.000
700.403; 1674.900;  225.125;    0.000
700.510; 1673.900;  248.125;    0.000
700.618; 1668.900;  223.125;    0.000
700.725; 1635.900;  243.125;    0.000
700.832; 1697.900;  239.125;    0.000
700.940; 1644.900;  284.125;    0.000
701.047; 1615.900;  216.125;    0.000
701.154; 1619.900;  249.125;    0.000
701.261; 1634.900;  229.125;    0.000
701.368; 1645.900;  247.125;    0.000
701.475; 1659.900;  208.125;    0.000
701.582; 1634.900;  262.125;    0.000
701.690; 1656.900;  224.125;    0.000
701.797; 1756.900;  294.125;    0.000
701.904; 1757.900;  303.125;    0.000
702.011; 1720.900;  278.125;    0.000
702.118; 1654.900;  279.125;    0.000
702.225; 1703.900;  342.125;    0.000
702.332; 1659.900;  281.125;    0.000
702.439; 1699.900;  313.125;    0.000
702.546; 1811.900;  295.125;    0.000
702.652; 1708.900;  293.125;    0.000
702.759; 1664.900;  333.125;    0.000
702.866; 1764.900;  272.125;    0.000
702.973; 1740.900;  310.125;    0.000
703.080; 1692.900;  313.125;    0.000
703.187; 1669.900;  316.125;    0.000
703.294; 1701.900;  328.125;    0.000
703.400; 1581.900;  312.125;    0.000
703.507;  475.900;  349.125;    0.000
703.614;  315.900;  298.125;    0.000
703.720;  339.900;  300.125;    0.000
703.827;  325.900;  346.125;    0.000
703.934;  333.900;  308.125;    0.000
704.040;  300.900;  300.125;    0.000
704.147;  298.900;  317.125;    0.000
704.254;  338.900;  350.125;    0.000
704.360;  301.900;  285.125;    0.000
704.467;  331.900;  334.125;    0.000
704.573;  331.900;  330.125;    0.000
704.680;  338.900;  312.125;    0.000
704.786;  324.900;  305.125;    0.000
704.893;  301.900;  330.125;    0.000
704.999;  310.900;  315.125;    0.000
705.106;  358.900;  327.125;    0.000

