
Integration time [ms]:   1.000
Averaging Nr. [scans]: 1
Smoothing Nr. [pixels]: 0
Data measured with spectrometer [name]: UV1
Wave   ;Sample   ;Dark     ;Reference
[nm]   ;[counts] ;[counts] ;[counts] 

236.381;  152.100;    0.000;    0.000
236.451;  197.100;    0.000;    0.000
236.520;  192.100;    0.000;    0.000
236.590;  186.100;    0.000;    0.000
236.660;  193.100;    0.000;    0.000
236.730;  177.100;    0.000;    0.000
236.799;  210.100;    0.000;    0.000
236.869;  171.100;    0.000;    0.000
236.939;  168.100;    0.000;    0.000
237.009;  202.100;    0.000;    0.000
237.078;  164.100;    0.000;    0.000
237.148;  174.100;    0.000;    0.000
237.218;  213.100;    0.000;    0.000
237.287;  203.100;    0.000;    0.000
237.357;  174.100;    0.000;    0.000
237.427;  173.100;    0.000;    0.000
237.496;  346.100;    0.000;    0.000
237.566;  340.100;    0.000;    0.000
237.636;  301.100;    0.000;    0.000
237.705;  360.100;    0.000;    0.000
237.775;  346.100;    0.000;    0.000
237.845;  338.100;    0.000;    0.000
237.914;  347.100;    0.000;    0.000
237.984;  358.100;    0.000;    0.000
238.054;  329.100;    0.000;    0.000
238.123;  348.100;    0.000;    0.000
238.193;  314.100;    0.000;    0.000
238.263;  387.100;    0.000;    0.000
238.332;  326.100;    0.000;    0.000
238.402;  336.100;    0.000;    0.000
238.471;  311.100;    0.000;    0.000
238.541;  346.100;    0.000;    0.000
238.611;  329.100;    0.000;    0.000
238.680;  336.100;    0.000;    0.000
238.750;  329.100;    0.000;    0.000
238.819;  349.100;    0.000;    0.000
238.889;  322.100;    0.000;    0.000
238.958;  346.100;    0.000;    0.000
239.028;  339.100;    0.000;    0.000
239.097;  304.100;    0.000;    0.000
239.167;  394.100;    0.000;    0.000
239.237;  360.100;    0.000;    0.000
239.306;  296.100;    0.000;    0.000
239.376;  373.100;    0.000;    0.000
239.445;  361.100;    0.000;    0.000
239.515;  346.100;    0.000;    0.000
239.584;  329.100;    0.000;    0.000
239.654;  277.100;    0.000;    0.000
239.723;  338.100;    0.000;    0.000
239.793;  328.100;    0.000;    0.000
239.862;  308.100;    0.000;    0.000
239.932;  300.100;    0.000;    0.000
240.001;  314.100;    0.000;    0.000
240.070;  346.100;    0.000;    0.000
240.140;  315.100;    0.000;    0.000
240.209;  305.100;    0.000;    0.000
240.279;  337.100;    0.000;    0.000
240.348;  338.100;    0.000;    0.000
240.418;  328.100;    0.000;    0.000
240.487;  329.100;    0.000;    0.000
240.556;  332.100;    0.000;    0.000
240.626;  328.100;    0.000;    0.000
240.695;  338.100;    0.000;    0.000
240.765;  337.100;    0.000;    0.000
240.834;  302.100;    0.000;    0.000
240.903;  353.100;    0.000;    0.000
240.973;  339.100;    0.000;    0.000
241.042;  312.100;    0.000;    0.000
241.112;  318.100;    0.000;    0.000
241.181;  298.100;    0.000;    0.000
241.250;  314.100;    0.000;    0.000
241.320;  311.100;    0.000;    0.000
241.389;  307.100;    0.000;    0.000
241.458;  368.100;    0.000;    0.000
241.528;  328.100;    0.000;    0.000
241.597;  316.100;    0.000;    0.000
241.666;  301.100;    0.000;    0.000
241.736;  353.100;    0.000;    0.000
241.805;  305.100;    0.000;    0.000
241.874;  315.100;    0.000;    0.000
241.943;  355.100;    0.000;    0.000
242.013;  358.100;    0.000;    0.000
242.082;  312.100;    0.000;    0.000
242.151;  330.100;    0.000;    0.000
242.221;  297.100;    0.000;    0.000
242.290;  339.100;    0.000;    0.000
242.359;  264.100;    0.000;    0.000
242.428;  393.100;    0.000;    0.000
242.498;  300.100;    0.000;    0.000
242.567;  352.100;    0.000;    0.000
242.636;  325.100;    0.000;    0.000
242.705;  327.100;    0.000;    0.000
242.774;  320.100;    0.000;    0.000
242.844;  303.100;    0.000;    0.000
242.913;  299.100;    0.000;    0.000
242.982;  336.100;    0.000;    0.000
243.051;  293.100;    0.000;    0.000
243.120;  337.100;    0.000;    0.000
243.190;  299.100;    0.000;    0.000
243.259;  351.100;    0.000;    0.000
243.328;  295.100;    0.000;    0.000
243.397;  328.100;    0.000;    0.000
243.466;  328.100;    0.000;    0.000
243.535;  301.100;    0.000;    0.000
243.605;  293.100;    0.000;    0.000
243.674;  315.100;    0.000;    0.000
243.743;  357.100;    0.000;    0.000
243.812;  277.100;    0.000;    0.000
243.881;  288.100;    0.000;    0.000
243.950;  318.100;    0.000;    0.000
244.019;  321.100;    0.000;    0.000
244.088;  334.100;    0.000;    0.000
244.158;  314.100;    0.000;    0.000
244.227;  309.100;    0.000;    0.000
244.296;  314.100;    0.000;    0.000
244.365;  332.100;    0.000;    0.000
244.434;  278.100;    0.000;    0.000
244.503;  342.100;    0.000;    0.000
244.572;  320.100;    0.000;    0.000
244.641;  292.100;    0.000;    0.000
244.710;  309.100;    0.000;    0.000
244.779;  332.100;    0.000;    0.000
244.848;  272.100;    0.000;    0.000
244.917;  341.100;    0.000;    0.000
244.986;  321.100;    0.000;    0.000
245.055;  316.100;    0.000;    0.000
245.124;  311.100;    0.000;    0.000
245.193;  333.100;    0.000;    0.000
245.262;  310.100;    0.000;    0.000
245.331;  302.100;    0.000;    0.000
245.400;  301.100;    0.000;    0.000
245.469;  357.100;    0.000;    0.000
245.538;  330.100;    0.000;    0.000
245.607;  352.100;    0.000;    0.000
245.676;  346.100;    0.000;    0.000
245.745;  338.100;    0.000;    0.000
245.814;  326.100;    0.000;    0.000
245.883;  368.100;    0.000;    0.000
245.952;  381.100;    0.000;    0.000
246.021;  330.100;    0.000;    0.000
246.090;  350.100;    0.000;    0.000
246.159;  300.100;    0.000;    0.000
246.227;  321.100;    0.000;    0.000
246.296;  342.100;    0.000;    0.000
246.365;  334.100;    0.000;    0.000
246.434;  382.100;    0.000;    0.000
246.503;  343.100;    0.000;    0.000
246.572;  378.100;    0.000;    0.000
246.641;  340.100;    0.000;    0.000
246.710;  322.100;    0.000;    0.000
246.779;  368.100;    0.000;    0.000
246.847;  319.100;    0.000;    0.000
246.916;  362.100;    0.000;    0.000
246.985;  329.100;    0.000;    0.000
247.054;  318.100;    0.000;    0.000
247.123;  311.100;    0.000;    0.000
247.192;  321.100;    0.000;    0.000
247.260;  358.100;    0.000;    0.000
247.329;  332.100;    0.000;    0.000
247.398;  332.100;    0.000;    0.000
247.467;  313.100;    0.000;    0.000
247.536;  350.100;    0.000;    0.000
247.604;  384.100;    0.000;    0.000
247.673;  351.100;    0.000;    0.000
247.742;  289.100;    0.000;    0.000
247.811;  326.100;    0.000;    0.000
247.879;  340.100;    0.000;    0.000
247.948;  349.100;    0.000;    0.000
248.017;  311.100;    0.000;    0.000
248.086;  322.100;    0.000;    0.000
248.154;  352.100;    0.000;    0.000
248.223;  367.100;    0.000;    0.000
248.292;  372.100;    0.000;    0.000
248.361;  341.100;    0.000;    0.000
248.429;  322.100;    0.000;    0.000
248.498;  279.100;    0.000;    0.000
248.567;  323.100;    0.000;    0.000
248.635;  327.100;    0.000;    0.000
248.704;  334.100;    0.000;    0.000
248.773;  306.100;    0.000;    0.000
248.841;  341.100;    0.000;    0.000
248.910;  331.100;    0.000;    0.000
248.979;  333.100;    0.000;    0.000
249.047;  292.100;    0.000;    0.000
249.116;  338.100;    0.000;    0.000
249.185;  324.100;    0.000;    0.000
249.253;  301.100;    0.000;    0.000
249.322;  296.100;    0.000;    0.000
249.390;  269.100;    0.000;    0.000
249.459;  322.100;    0.000;    0.000
249.528;  291.100;    0.000;    0.000
249.596;  308.100;    0.000;    0.000
249.665;  311.100;    0.000;    0.000
249.733;  306.100;    0.000;    0.000
249.802;  344.100;    0.000;    0.000
249.871;  311.100;    0.000;    0.000
249.939;  267.100;    0.000;    0.000
250.008;  317.100;    0.000;    0.000
250.076;  340.100;    0.000;    0.000
250.145;  331.100;    0.000;    0.000
250.213;  335.100;    0.000;    0.000
250.282;  255.100;    0.000;    0.000
250.350;  276.100;    0.000;    0.000
250.419;  295.100;    0.000;    0.000
250.487;  301.100;    0.000;    0.000
250.556;  311.100;    0.000;    0.000
250.624;  339.100;    0.000;    0.000
250.693;  223.100;    0.000;    0.000
250.761;  279.100;    0.000;    0.000
250.830;  336.100;    0.000;    0.000
250.898;  275.100;    0.000;    0.000
250.967;  297.100;    0.000;    0.000
251.035;  281.100;    0.000;    0.000
251.104;  291.100;    0.000;    0.000
251.172;  303.100;    0.000;    0.000
251.241;  267.100;    0.000;    0.000
251.309;  306.100;    0.000;    0.000
251.378;  298.100;    0.000;    0.000
251.446;  275.100;    0.000;    0.000
251.514;  295.100;    0.000;    0.000
251.583;  297.100;    0.000;    0.000
251.651;  282.100;    0.000;    0.000
251.720;  292.100;    0.000;    0.000
251.788;  325.100;    0.000;    0.000
251.856;  253.100;    0.000;    0.000
251.925;  258.100;    0.000;    0.000
251.993;  292.100;    0.000;    0.000
252.062;  297.100;    0.000;    0.000
252.130;  282.100;    0.000;    0.000
252.198;  288.100;    0.000;    0.000
252.267;  262.100;    0.000;    0.000
252.335;  249.100;    0.000;    0.000
252.403;  234.100;    0.000;    0.000
252.472;  244.100;    0.000;    0.000
252.540;  279.100;    0.000;    0.000
252.608;  274.100;    0.000;    0.000
252.677;  276.100;    0.000;    0.000
252.745;  272.100;    0.000;    0.000
252.813;  275.100;    0.000;    0.000
252.881;  239.100;    0.000;    0.000
252.950;  242.100;    0.000;    0.000
253.018;  275.100;    0.000;    0.000
253.086;  261.100;    0.000;    0.000
253.155;  235.100;    0.000;    0.000
253.223;  265.100;    0.000;    0.000
253.291;  254.100;    0.000;    0.000
253.359;  245.100;    0.000;    0.000
253.428;  324.100;    0.000;    0.000
253.496;  263.100;    0.000;    0.000
253.564;  254.100;    0.000;    0.000
253.632;  250.100;    0.000;    0.000
253.700;  282.100;    0.000;    0.000
253.769;  261.100;    0.000;    0.000
253.837;  285.100;    0.000;    0.000
253.905;  244.100;    0.000;    0.000
253.973;  252.100;    0.000;    0.000
254.041;  268.100;    0.000;    0.000
254.110;  258.100;    0.000;    0.000
254.178;  226.100;    0.000;    0.000
254.246;  253.100;    0.000;    0.000
254.314;  263.100;    0.000;    0.000
254.382;  241.100;    0.000;    0.000
254.450;  232.100;    0.000;    0.000
254.518;  254.100;    0.000;    0.000
254.587;  232.100;    0.000;    0.000
254.655;  271.100;    0.000;    0.000
254.723;  220.100;    0.000;    0.000
254.791;  313.100;    0.000;    0.000
254.859;  280.100;    0.000;    0.000
254.927;  319.100;    0.000;    0.000
254.995;  223.100;    0.000;    0.000
255.063;  261.100;    0.000;    0.000
255.131;  232.100;    0.000;    0.000
255.199;  235.100;    0.000;    0.000
255.267;  193.100;    0.000;    0.000
255.336;  229.100;    0.000;    0.000
255.404;  280.100;    0.000;    0.000
255.472;  263.100;    0.000;    0.000
255.540;  275.100;    0.000;    0.000
255.608;  224.100;    0.000;    0.000
255.676;  252.100;    0.000;    0.000
255.744;  263.100;    0.000;    0.000
255.812;  283.100;    0.000;    0.000
255.880;  281.100;    0.000;    0.000
255.948;  267.100;    0.000;    0.000
256.016;  283.100;    0.000;    0.000
256.084;  255.100;    0.000;    0.000
256.152;  225.100;    0.000;    0.000
256.220;  276.100;    0.000;    0.000
256.288;  247.100;    0.000;    0.000
256.356;  217.100;    0.000;    0.000
256.424;  205.100;    0.000;    0.000
256.491;  268.100;    0.000;    0.000
256.559;  247.100;    0.000;    0.000
256.627;  253.100;    0.000;    0.000
256.695;  250.100;    0.000;    0.000
256.763;  250.100;    0.000;    0.000
256.831;  291.100;    0.000;    0.000
256.899;  261.100;    0.000;    0.000
256.967;  236.100;    0.000;    0.000
257.035;  276.100;    0.000;    0.000
257.103;  282.100;    0.000;    0.000
257.171;  253.100;    0.000;    0.000
257.238;  242.100;    0.000;    0.000
257.306;  265.100;    0.000;    0.000
257.374;  295.100;    0.000;    0.000
257.442;  230.100;    0.000;    0.000
257.510;  294.100;    0.000;    0.000
257.578;  252.100;    0.000;    0.000
257.646;  256.100;    0.000;    0.000
257.713;  229.100;    0.000;    0.000
257.781;  254.100;    0.000;    0.000
257.849;  290.100;    0.000;    0.000
257.917;  283.100;    0.000;    0.000
257.985;  241.100;    0.000;    0.000
258.052;  248.100;    0.000;    0.000
258.120;  214.100;    0.000;    0.000
258.188;  268.100;    0.000;    0.000
258.256;  239.100;    0.000;    0.000
258.324;  276.100;    0.000;    0.000
258.391;  221.100;    0.000;    0.000
258.459;  280.100;    0.000;    0.000
258.527;  269.100;    0.000;    0.000
258.595;  245.100;    0.000;    0.000
258.662;  243.100;    0.000;    0.000
258.730;  260.100;    0.000;    0.000
258.798;  237.100;    0.000;    0.000
258.865;  256.100;    0.000;    0.000
258.933;  278.100;    0.000;    0.000
259.001;  249.100;    0.000;    0.000
259.069;  257.100;    0.000;    0.000
259.136;  280.100;    0.000;    0.000
259.204;  273.100;    0.000;    0.000
259.272;  292.100;    0.000;    0.000
259.339;  224.100;    0.000;    0.000
259.407;  264.100;    0.000;    0.000
259.475;  273.100;    0.000;    0.000
259.542;  212.100;    0.000;    0.000
259.610;  259.100;    0.000;    0.000
259.677;  263.100;    0.000;    0.000
259.745;  249.100;    0.000;    0.000
259.813;  312.100;    0.000;    0.000
259.880;  311.100;    0.000;    0.000
259.948;  337.100;    0.000;    0.000
260.016;  271.100;    0.000;    0.000
260.083;  374.100;    0.000;    0.000
260.151;  281.100;    0.000;    0.000
260.218;  303.100;    0.000;    0.000
260.286;  282.100;    0.000;    0.000
260.353;  333.100;    0.000;    0.000
260.421;  284.100;    0.000;    0.000
260.489;  334.100;    0.000;    0.000
260.556;  319.100;    0.000;    0.000
260.624;  336.100;    0.000;    0.000
260.691;  322.100;    0.000;    0.000
260.759;  335.100;    0.000;    0.000
260.826;  278.100;    0.000;    0.000
260.894;  307.100;    0.000;    0.000
260.961;  339.100;    0.000;    0.000
261.029;  346.100;    0.000;    0.000
261.096;  297.100;    0.000;    0.000
261.164;  352.100;    0.000;    0.000
261.231;  323.100;    0.000;    0.000
261.299;  365.100;    0.000;    0.000
261.366;  306.100;    0.000;    0.000
261.434;  314.100;    0.000;    0.000
261.501;  345.100;    0.000;    0.000
261.568;  379.100;    0.000;    0.000
261.636;  350.100;    0.000;    0.000
261.703;  362.100;    0.000;    0.000
261.771;  362.100;    0.000;    0.000
261.838;  382.100;    0.000;    0.000
261.906;  321.100;    0.000;    0.000
261.973;  318.100;    0.000;    0.000
262.040;  376.100;    0.000;    0.000
262.108;  326.100;    0.000;    0.000
262.175;  382.100;    0.000;    0.000
262.243;  346.100;    0.000;    0.000
262.310;  352.100;    0.000;    0.000
262.377;  327.100;    0.000;    0.000
262.445;  398.100;    0.000;    0.000
262.512;  354.100;    0.000;    0.000
262.579;  384.100;    0.000;    0.000
262.647;  397.100;    0.000;    0.000
262.714;  403.100;    0.000;    0.000
262.781;  342.100;    0.000;    0.000
262.849;  368.100;    0.000;    0.000
262.916;  363.100;    0.000;    0.000
262.983;  390.100;    0.000;    0.000
263.051;  375.100;    0.000;    0.000
263.118;  386.100;    0.000;    0.000
263.185;  421.100;    0.000;    0.000
263.252;  395.100;    0.000;    0.000
263.320;  366.100;    0.000;    0.000
263.387;  393.100;    0.000;    0.000
263.454;  402.100;    0.000;    0.000
263.522;  388.100;    0.000;    0.000
263.589;  421.100;    0.000;    0.000
263.656;  378.100;    0.000;    0.000
263.723;  460.100;    0.000;    0.000
263.790;  392.100;    0.000;    0.000
263.858;  407.100;    0.000;    0.000
263.925;  438.100;    0.000;    0.000
263.992;  400.100;    0.000;    0.000
264.059;  437.100;    0.000;    0.000
264.126;  421.100;    0.000;    0.000
264.194;  387.100;    0.000;    0.000
264.261;  420.100;    0.000;    0.000
264.328;  419.100;    0.000;    0.000
264.395;  422.100;    0.000;    0.000
264.462;  438.100;    0.000;    0.000
264.529;  461.100;    0.000;    0.000
264.597;  371.100;    0.000;    0.000
264.664;  445.100;    0.000;    0.000
264.731;  438.100;    0.000;    0.000
264.798;  422.100;    0.000;    0.000
264.865;  430.100;    0.000;    0.000
264.932;  423.100;    0.000;    0.000
264.999;  396.100;    0.000;    0.000
265.066;  430.100;    0.000;    0.000
265.133;  450.100;    0.000;    0.000
265.201;  470.100;    0.000;    0.000
265.268;  451.100;    0.000;    0.000
265.335;  423.100;    0.000;    0.000
265.402;  404.100;    0.000;    0.000
265.469;  458.100;    0.000;    0.000
265.536;  448.100;    0.000;    0.000
265.603;  461.100;    0.000;    0.000
265.670;  469.100;    0.000;    0.000
265.737;  463.100;    0.000;    0.000
265.804;  432.100;    0.000;    0.000
265.871;  479.100;    0.000;    0.000
265.938;  440.100;    0.000;    0.000
266.005;  468.100;    0.000;    0.000
266.072;  443.100;    0.000;    0.000
266.139;  493.100;    0.000;    0.000
266.206;  433.100;    0.000;    0.000
266.273;  503.100;    0.000;    0.000
266.340;  457.100;    0.000;    0.000
266.407;  443.100;    0.000;    0.000
266.474;  492.100;    0.000;    0.000
266.541;  486.100;    0.000;    0.000
266.608;  459.100;    0.000;    0.000
266.675;  512.100;    0.000;    0.000
266.742;  507.100;    0.000;    0.000
266.808;  511.100;    0.000;    0.000
266.875;  520.100;    0.000;    0.000
266.942;  459.100;    0.000;    0.000
267.009;  493.100;    0.000;    0.000
267.076;  487.100;    0.000;    0.000
267.143;  481.100;    0.000;    0.000
267.210;  465.100;    0.000;    0.000
267.277;  451.100;    0.000;    0.000
267.344;  496.100;    0.000;    0.000
267.410;  525.100;    0.000;    0.000
267.477;  474.100;    0.000;    0.000
267.544;  506.100;    0.000;    0.000
267.611;  475.100;    0.000;    0.000
267.678;  511.100;    0.000;    0.000
267.745;  550.100;    0.000;    0.000
267.811;  542.100;    0.000;    0.000
267.878;  524.100;    0.000;    0.000
267.945;  465.100;    0.000;    0.000
268.012;  505.100;    0.000;    0.000
268.079;  538.100;    0.000;    0.000
268.145;  550.100;    0.000;    0.000
268.212;  475.100;    0.000;    0.000
268.279;  510.100;    0.000;    0.000
268.346;  526.100;    0.000;    0.000
268.412;  554.100;    0.000;    0.000
268.479;  504.100;    0.000;    0.000
268.546;  537.100;    0.000;    0.000
268.613;  504.100;    0.000;    0.000
268.679;  518.100;    0.000;    0.000
268.746;  518.100;    0.000;    0.000
268.813;  583.100;    0.000;    0.000
268.879;  518.100;    0.000;    0.000
268.946;  579.100;    0.000;    0.000
269.013;  544.100;    0.000;    0.000
269.079;  480.100;    0.000;    0.000
269.146;  523.100;    0.000;    0.000
269.213;  530.100;    0.000;    0.000
269.280;  547.100;    0.000;    0.000
269.346;  529.100;    0.000;    0.000
269.413;  501.100;    0.000;    0.000
269.479;  541.100;    0.000;    0.000
269.546;  496.100;    0.000;    0.000
269.613;  473.100;    0.000;    0.000
269.679;  560.100;    0.000;    0.000
269.746;  502.100;    0.000;    0.000
269.813;  546.100;    0.000;    0.000
269.879;  511.100;    0.000;    0.000
269.946;  488.100;    0.000;    0.000
270.012;  513.100;    0.000;    0.000
270.079;  516.100;    0.000;    0.000
270.145;  504.100;    0.000;    0.000
270.212;  493.100;    0.000;    0.000
270.279;  553.100;    0.000;    0.000
270.345;  510.100;    0.000;    0.000
270.412;  511.100;    0.000;    0.000
270.478;  453.100;    0.000;    0.000
270.545;  540.100;    0.000;    0.000
270.611;  502.100;    0.000;    0.000
270.678;  520.100;    0.000;    0.000
270.744;  449.100;    0.000;    0.000
270.811;  560.100;    0.000;    0.000
270.877;  489.100;    0.000;    0.000
270.944;  536.100;    0.000;    0.000
271.010;  491.100;    0.000;    0.000
271.077;  554.100;    0.000;    0.000
271.143;  503.100;    0.000;    0.000
271.210;  476.100;    0.000;    0.000
271.276;  489.100;    0.000;    0.000
271.342;  521.100;    0.000;    0.000
271.409;  480.100;    0.000;    0.000
271.475;  489.100;    0.000;    0.000
271.542;  469.100;    0.000;    0.000
271.608;  530.100;    0.000;    0.000
271.675;  486.100;    0.000;    0.000
271.741;  551.100;    0.000;    0.000
271.807;  524.100;    0.000;    0.000
271.874;  524.100;    0.000;    0.000
271.940;  514.100;    0.000;    0.000
272.007;  568.100;    0.000;    0.000
272.073;  511.100;    0.000;    0.000
272.139;  531.100;    0.000;    0.000
272.206;  483.100;    0.000;    0.000
272.272;  536.100;    0.000;    0.000
272.338;  551.100;    0.000;    0.000
272.405;  495.100;    0.000;    0.000
272.471;  497.100;    0.000;    0.000
272.537;  521.100;    0.000;    0.000
272.604;  505.100;    0.000;    0.000
272.670;  509.100;    0.000;    0.000
272.736;  501.100;    0.000;    0.000
272.802;  516.100;    0.000;    0.000
272.869;  486.100;    0.000;    0.000
272.935;  494.100;    0.000;    0.000
273.001;  506.100;    0.000;    0.000
273.068;  544.100;    0.000;    0.000
273.134;  501.100;    0.000;    0.000
273.200;  536.100;    0.000;    0.000
273.266;  520.100;    0.000;    0.000
273.333;  524.100;    0.000;    0.000
273.399;  511.100;    0.000;    0.000
273.465;  522.100;    0.000;    0.000
273.531;  545.100;    0.000;    0.000
273.597;  543.100;    0.000;    0.000
273.664;  553.100;    0.000;    0.000
273.730;  525.100;    0.000;    0.000
273.796;  506.100;    0.000;    0.000
273.862;  550.100;    0.000;    0.000
273.928;  555.100;    0.000;    0.000
273.995;  576.100;    0.000;    0.000
274.061;  616.100;    0.000;    0.000
274.127;  574.100;    0.000;    0.000
274.193;  538.100;    0.000;    0.000
274.259;  567.100;    0.000;    0.000
274.325;  525.100;    0.000;    0.000
274.391;  581.100;    0.000;    0.000
274.457;  552.100;    0.000;    0.000
274.524;  532.100;    0.000;    0.000
274.590;  581.100;    0.000;    0.000
274.656;  540.100;    0.000;    0.000
274.722;  554.100;    0.000;    0.000
274.788;  543.100;    0.000;    0.000
274.854;  509.100;    0.000;    0.000
274.920;  568.100;    0.000;    0.000
274.986;  599.100;    0.000;    0.000
275.052;  610.100;    0.000;    0.000
275.118;  497.100;    0.000;    0.000
275.184;  546.100;    0.000;    0.000
275.250;  587.100;    0.000;    0.000
275.316;  577.100;    0.000;    0.000
275.382;  556.100;    0.000;    0.000
275.448;  608.100;    0.000;    0.000
275.514;  536.100;    0.000;    0.000
275.580;  603.100;    0.000;    0.000
275.646;  556.100;    0.000;    0.000
275.712;  581.100;    0.000;    0.000
275.778;  529.100;    0.000;    0.000
275.844;  581.100;    0.000;    0.000
275.910;  593.100;    0.000;    0.000
275.976;  579.100;    0.000;    0.000
276.042;  558.100;    0.000;    0.000
276.108;  626.100;    0.000;    0.000
276.174;  576.100;    0.000;    0.000
276.240;  576.100;    0.000;    0.000
276.306;  587.100;    0.000;    0.000
276.372;  632.100;    0.000;    0.000
276.437;  626.100;    0.000;    0.000
276.503;  617.100;    0.000;    0.000
276.569;  647.100;    0.000;    0.000
276.635;  603.100;    0.000;    0.000
276.701;  715.100;    0.000;    0.000
276.767;  630.100;    0.000;    0.000
276.833;  620.100;    0.000;    0.000
276.899;  665.100;    0.000;    0.000
276.964;  679.100;    0.000;    0.000
277.030;  713.100;    0.000;    0.000
277.096;  674.100;    0.000;    0.000
277.162;  767.100;    0.000;    0.000
277.228;  712.100;    0.000;    0.000
277.293;  695.100;    0.000;    0.000
277.359;  830.100;    0.000;    0.000
277.425;  800.100;    0.000;    0.000
277.491;  877.100;    0.000;    0.000
277.557;  885.100;    0.000;    0.000
277.622; 1253.100;    0.000;    0.000
277.688; 1372.100;    0.000;    0.000
277.754; 1315.100;    0.000;    0.000
277.820; 1402.100;    0.000;    0.000
277.885; 1572.100;    0.000;    0.000
277.951; 2076.100;    0.000;    0.000
278.017; 1953.100;    0.000;    0.000
278.083; 1555.100;    0.000;    0.000
278.148; 1552.100;    0.000;    0.000
278.214; 1587.100;    0.000;    0.000
278.280; 1605.100;    0.000;    0.000
278.345; 1504.100;    0.000;    0.000
278.411; 1331.100;    0.000;    0.000
278.477; 1367.100;    0.000;    0.000
278.542; 1377.100;    0.000;    0.000
278.608; 1466.100;    0.000;    0.000
278.674; 1579.100;    0.000;    0.000
278.739; 1751.100;    0.000;    0.000
278.805; 2007.100;    0.000;    0.000
278.871; 2230.100;    0.000;    0.000
278.936; 2584.100;    0.000;    0.000
279.002; 3621.100;    0.000;    0.000
279.067; 4887.100;    0.000;    0.000
279.133; 5415.100;    0.000;    0.000
279.199; 4828.100;    0.000;    0.000
279.264; 4877.100;    0.000;    0.000
279.330; 5494.100;    0.000;    0.000
279.395; 7069.100;    0.000;    0.000
279.461; 9277.100;    0.000;    0.000
279.527;10961.100;    0.000;    0.000
279.592;10854.100;    0.000;    0.000
279.658; 9168.100;    0.000;    0.000
279.723; 7988.100;    0.000;    0.000
279.789; 8350.100;    0.000;    0.000
279.854; 7794.100;    0.000;    0.000
279.920; 6532.100;    0.000;    0.000
279.985; 5899.100;    0.000;    0.000
280.051; 5767.100;    0.000;    0.000
280.116; 6434.100;    0.000;    0.000
280.182; 8492.100;    0.000;    0.000
280.247;10435.100;    0.000;    0.000
280.313; 9915.100;    0.000;    0.000
280.378; 7165.100;    0.000;    0.000
280.444; 5272.100;    0.000;    0.000
280.509; 4059.100;    0.000;    0.000
280.574; 3357.100;    0.000;    0.000
280.640; 2923.100;    0.000;    0.000
280.705; 2580.100;    0.000;    0.000
280.771; 2347.100;    0.000;    0.000
280.836; 2215.100;    0.000;    0.000
280.902; 2018.100;    0.000;    0.000
280.967; 1925.100;    0.000;    0.000
281.032; 1757.100;    0.000;    0.000
281.098; 1599.100;    0.000;    0.000
281.163; 1591.100;    0.000;    0.000
281.229; 1574.100;    0.000;    0.000
281.294; 1408.100;    0.000;    0.000
281.359; 1402.100;    0.000;    0.000
281.425; 1403.100;    0.000;    0.000
281.490; 1299.100;    0.000;    0.000
281.555; 1296.100;    0.000;    0.000
281.621; 1269.100;    0.000;    0.000
281.686; 1250.100;    0.000;    0.000
281.751; 1163.100;    0.000;    0.000
281.816; 1155.100;    0.000;    0.000
281.882; 1177.100;    0.000;    0.000
281.947; 1134.100;    0.000;    0.000
282.012; 1098.100;    0.000;    0.000
282.078; 1061.100;    0.000;    0.000
282.143; 1037.100;    0.000;    0.000
282.208; 1040.100;    0.000;    0.000
282.273; 1006.100;    0.000;    0.000
282.339;  952.100;    0.000;    0.000
282.404;  920.100;    0.000;    0.000
282.469;  932.100;    0.000;    0.000
282.534;  943.100;    0.000;    0.000
282.600;  928.100;    0.000;    0.000
282.665;  933.100;    0.000;    0.000
282.730;  889.100;    0.000;    0.000
282.795;  903.100;    0.000;    0.000
282.860;  831.100;    0.000;    0.000
282.926;  893.100;    0.000;    0.000
282.991;  932.100;    0.000;    0.000
283.056;  916.100;    0.000;    0.000
283.121;  895.100;    0.000;    0.000
283.186;  849.100;    0.000;    0.000
283.251;  888.100;    0.000;    0.000
283.316;  857.100;    0.000;    0.000
283.382;  827.100;    0.000;    0.000
283.447;  851.100;    0.000;    0.000
283.512;  846.100;    0.000;    0.000
283.577;  853.100;    0.000;    0.000
283.642;  844.100;    0.000;    0.000
283.707;  869.100;    0.000;    0.000
283.772;  855.100;    0.000;    0.000
283.837;  838.100;    0.000;    0.000
283.902;  764.100;    0.000;    0.000
283.967;  849.100;    0.000;    0.000
284.032;  778.100;    0.000;    0.000
284.097;  883.100;    0.000;    0.000
284.163;  800.100;    0.000;    0.000
284.228;  837.100;    0.000;    0.000
284.293;  848.100;    0.000;    0.000
284.358;  878.100;    0.000;    0.000
284.423;  917.100;    0.000;    0.000
284.488;  881.100;    0.000;    0.000
284.553;  904.100;    0.000;    0.000
284.618;  939.100;    0.000;    0.000
284.683;  862.100;    0.000;    0.000
284.748;  980.100;    0.000;    0.000
284.812; 1020.100;    0.000;    0.000
284.877; 1117.100;    0.000;    0.000
284.942; 1193.100;    0.000;    0.000
285.007; 1484.100;    0.000;    0.000
285.072; 1865.100;    0.000;    0.000
285.137; 2797.100;    0.000;    0.000
285.202; 4188.100;    0.000;    0.000
285.267; 4164.100;    0.000;    0.000
285.332; 2715.100;    0.000;    0.000
285.397; 1988.100;    0.000;    0.000
285.462; 1478.100;    0.000;    0.000
285.527; 1337.100;    0.000;    0.000
285.591; 1275.100;    0.000;    0.000
285.656; 1193.100;    0.000;    0.000
285.721; 1089.100;    0.000;    0.000
285.786; 1016.100;    0.000;    0.000
285.851;  962.100;    0.000;    0.000
285.916;  943.100;    0.000;    0.000
285.981;  900.100;    0.000;    0.000
286.045;  916.100;    0.000;    0.000
286.110;  905.100;    0.000;    0.000
286.175;  870.100;    0.000;    0.000
286.240;  849.100;    0.000;    0.000
286.305;  913.100;    0.000;    0.000
286.369;  827.100;    0.000;    0.000
286.434;  866.100;    0.000;    0.000
286.499;  838.100;    0.000;    0.000
286.564;  774.100;    0.000;    0.000
286.628;  838.100;    0.000;    0.000
286.693;  819.100;    0.000;    0.000
286.758;  828.100;    0.000;    0.000
286.823;  794.100;    0.000;    0.000
286.887;  812.100;    0.000;    0.000
286.952;  812.100;    0.000;    0.000
287.017;  837.100;    0.000;    0.000
287.082;  745.100;    0.000;    0.000
287.146;  818.100;    0.000;    0.000
287.211;  785.100;    0.000;    0.000
287.276;  789.100;    0.000;    0.000
287.340;  812.100;    0.000;    0.000
287.405;  726.100;    0.000;    0.000
287.470;  764.100;    0.000;    0.000
287.534;  840.100;    0.000;    0.000
287.599;  796.100;    0.000;    0.000
287.663;  783.100;    0.000;    0.000
287.728;  774.100;    0.000;    0.000
287.793;  871.100;    0.000;    0.000
287.857;  781.100;    0.000;    0.000
287.922;  753.100;    0.000;    0.000
287.987;  823.100;    0.000;    0.000
288.051;  774.100;    0.000;    0.000
288.116;  819.100;    0.000;    0.000
288.180;  876.100;    0.000;    0.000
288.245;  798.100;    0.000;    0.000
288.309;  813.100;    0.000;    0.000
288.374;  810.100;    0.000;    0.000
288.439;  773.100;    0.000;    0.000
288.503;  791.100;    0.000;    0.000
288.568;  816.100;    0.000;    0.000
288.632;  814.100;    0.000;    0.000
288.697;  834.100;    0.000;    0.000
288.761;  732.100;    0.000;    0.000
288.826;  749.100;    0.000;    0.000
288.890;  759.100;    0.000;    0.000
288.955;  774.100;    0.000;    0.000
289.019;  764.100;    0.000;    0.000
289.084;  733.100;    0.000;    0.000
289.148;  776.100;    0.000;    0.000
289.212;  785.100;    0.000;    0.000
289.277;  740.100;    0.000;    0.000
289.341;  757.100;    0.000;    0.000
289.406;  750.100;    0.000;    0.000
289.470;  741.100;    0.000;    0.000
289.535;  860.100;    0.000;    0.000
289.599;  757.100;    0.000;    0.000
289.663;  742.100;    0.000;    0.000
289.728;  780.100;    0.000;    0.000
289.792;  824.100;    0.000;    0.000
289.857;  817.100;    0.000;    0.000
289.921;  804.100;    0.000;    0.000
289.985;  804.100;    0.000;    0.000
290.050;  769.100;    0.000;    0.000
290.114;  779.100;    0.000;    0.000
290.178;  754.100;    0.000;    0.000
290.243;  757.100;    0.000;    0.000
290.307;  807.100;    0.000;    0.000
290.371;  780.100;    0.000;    0.000
290.436;  787.100;    0.000;    0.000
290.500;  760.100;    0.000;    0.000
290.564;  804.100;    0.000;    0.000
290.629;  783.100;    0.000;    0.000
290.693;  803.100;    0.000;    0.000
290.757;  783.100;    0.000;    0.000
290.821;  821.100;    0.000;    0.000
290.886;  823.100;    0.000;    0.000
290.950;  831.100;    0.000;    0.000
291.014;  833.100;    0.000;    0.000
291.078;  761.100;    0.000;    0.000
291.143;  774.100;    0.000;    0.000
291.207;  815.100;    0.000;    0.000
291.271;  825.100;    0.000;    0.000
291.335;  854.100;    0.000;    0.000
291.399;  858.100;    0.000;    0.000
291.464;  886.100;    0.000;    0.000
291.528;  913.100;    0.000;    0.000
291.592;  920.100;    0.000;    0.000
291.656;  886.100;    0.000;    0.000
291.720;  918.100;    0.000;    0.000
291.784;  848.100;    0.000;    0.000
291.849;  856.100;    0.000;    0.000
291.913;  869.100;    0.000;    0.000
291.977;  842.100;    0.000;    0.000
292.041;  922.100;    0.000;    0.000
292.105;  889.100;    0.000;    0.000
292.169;  833.100;    0.000;    0.000
292.233;  884.100;    0.000;    0.000
292.297;  906.100;    0.000;    0.000
292.361;  926.100;    0.000;    0.000
292.425;  862.100;    0.000;    0.000
292.490;  928.100;    0.000;    0.000
292.554;  975.100;    0.000;    0.000
292.618; 1032.100;    0.000;    0.000
292.682; 1078.100;    0.000;    0.000
292.746; 1198.100;    0.000;    0.000
292.810; 1415.100;    0.000;    0.000
292.874; 1697.100;    0.000;    0.000
292.938; 1897.100;    0.000;    0.000
293.002; 1688.100;    0.000;    0.000
293.066; 1634.100;    0.000;    0.000
293.130; 1501.100;    0.000;    0.000
293.194; 1422.100;    0.000;    0.000
293.258; 1432.100;    0.000;    0.000
293.322; 1393.100;    0.000;    0.000
293.386; 1336.100;    0.000;    0.000
293.450; 1404.100;    0.000;    0.000
293.514; 1562.100;    0.000;    0.000
293.577; 1853.100;    0.000;    0.000
293.641; 2396.100;    0.000;    0.000
293.705; 2765.100;    0.000;    0.000
293.769; 2641.100;    0.000;    0.000
293.833; 2352.100;    0.000;    0.000
293.897; 2056.100;    0.000;    0.000
293.961; 1855.100;    0.000;    0.000
294.025; 1752.100;    0.000;    0.000
294.089; 1612.100;    0.000;    0.000
294.152; 1503.100;    0.000;    0.000
294.216; 1429.100;    0.000;    0.000
294.280; 1385.100;    0.000;    0.000
294.344; 1393.100;    0.000;    0.000
294.408; 1317.100;    0.000;    0.000
294.472; 1281.100;    0.000;    0.000
294.536; 1314.100;    0.000;    0.000
294.599; 1224.100;    0.000;    0.000
294.663; 1156.100;    0.000;    0.000
294.727; 1126.100;    0.000;    0.000
294.791; 1180.100;    0.000;    0.000
294.855; 1054.100;    0.000;    0.000
294.918; 1057.100;    0.000;    0.000
294.982; 1015.100;    0.000;    0.000
295.046; 1066.100;    0.000;    0.000
295.110; 1105.100;    0.000;    0.000
295.173; 1018.100;    0.000;    0.000
295.237; 1046.100;    0.000;    0.000
295.301;  975.100;    0.000;    0.000
295.364; 1004.100;    0.000;    0.000
295.428;  958.100;    0.000;    0.000
295.492; 1050.100;    0.000;    0.000
295.556; 1058.100;    0.000;    0.000
295.619;  927.100;    0.000;    0.000
295.683;  975.100;    0.000;    0.000
295.747; 1004.100;    0.000;    0.000
295.810; 1034.100;    0.000;    0.000
295.874;  974.100;    0.000;    0.000
295.938; 1001.100;    0.000;    0.000
296.001;  999.100;    0.000;    0.000
296.065;  951.100;    0.000;    0.000
296.128;  918.100;    0.000;    0.000
296.192;  950.100;    0.000;    0.000
296.256;  984.100;    0.000;    0.000
296.319;  925.100;    0.000;    0.000
296.383;  925.100;    0.000;    0.000
296.447; 1006.100;    0.000;    0.000
296.510; 1002.100;    0.000;    0.000
296.574;  927.100;    0.000;    0.000
296.637;  954.100;    0.000;    0.000
296.701;  940.100;    0.000;    0.000
296.764;  908.100;    0.000;    0.000
296.828;  938.100;    0.000;    0.000
296.891;  923.100;    0.000;    0.000
296.955;  984.100;    0.000;    0.000
297.018;  951.100;    0.000;    0.000
297.082; 1003.100;    0.000;    0.000
297.145;  900.100;    0.000;    0.000
297.209;  903.100;    0.000;    0.000
297.272;  923.100;    0.000;    0.000
297.336;  923.100;    0.000;    0.000
297.399;  891.100;    0.000;    0.000
297.463;  911.100;    0.000;    0.000
297.526;  953.100;    0.000;    0.000
297.590;  891.100;    0.000;    0.000
297.653;  965.100;    0.000;    0.000
297.717;  933.100;    0.000;    0.000
297.780;  877.100;    0.000;    0.000
297.843;  940.100;    0.000;    0.000
297.907;  965.100;    0.000;    0.000
297.970;  884.100;    0.000;    0.000
298.034;  990.100;    0.000;    0.000
298.097;  952.100;    0.000;    0.000
298.160;  937.100;    0.000;    0.000
298.224;  898.100;    0.000;    0.000
298.287;  933.100;    0.000;    0.000
298.350;  954.100;    0.000;    0.000
298.414;  911.100;    0.000;    0.000
298.477;  926.100;    0.000;    0.000
298.540;  942.100;    0.000;    0.000
298.604;  958.100;    0.000;    0.000
298.667;  902.100;    0.000;    0.000
298.730;  969.100;    0.000;    0.000
298.794;  942.100;    0.000;    0.000
298.857;  942.100;    0.000;    0.000
298.920;  880.100;    0.000;    0.000
298.984;  974.100;    0.000;    0.000
299.047;  984.100;    0.000;    0.000
299.110;  882.100;    0.000;    0.000
299.173;  904.100;    0.000;    0.000
299.237;  907.100;    0.000;    0.000
299.300;  910.100;    0.000;    0.000
299.363;  871.100;    0.000;    0.000
299.426;  888.100;    0.000;    0.000
299.489;  923.100;    0.000;    0.000
299.553;  907.100;    0.000;    0.000
299.616;  938.100;    0.000;    0.000
299.679;  927.100;    0.000;    0.000
299.742;  905.100;    0.000;    0.000
299.805;  911.100;    0.000;    0.000
299.868;  949.100;    0.000;    0.000
299.932;  926.100;    0.000;    0.000
299.995;  919.100;    0.000;    0.000
300.058;  898.100;    0.000;    0.000
300.121;  901.100;    0.000;    0.000
300.184;  874.100;    0.000;    0.000
300.247;  914.100;    0.000;    0.000
300.310;  943.100;    0.000;    0.000
300.374;  906.100;    0.000;    0.000
300.437;  936.100;    0.000;    0.000
300.500;  900.100;    0.000;    0.000
300.563;  932.100;    0.000;    0.000
300.626;  937.100;    0.000;    0.000
300.689;  918.100;    0.000;    0.000
300.752;  945.100;    0.000;    0.000
300.815;  909.100;    0.000;    0.000
300.878;  927.100;    0.000;    0.000
300.941;  918.100;    0.000;    0.000
301.004;  880.100;    0.000;    0.000
301.067;  934.100;    0.000;    0.000
301.130;  944.100;    0.000;    0.000
301.193;  879.100;    0.000;    0.000
301.256;  912.100;    0.000;    0.000
301.319;  961.100;    0.000;    0.000
301.382;  894.100;    0.000;    0.000
301.445;  945.100;    0.000;    0.000
301.508;  909.100;    0.000;    0.000
301.571;  919.100;    0.000;    0.000
301.634;  926.100;    0.000;    0.000
301.697;  928.100;    0.000;    0.000
301.760;  942.100;    0.000;    0.000
301.823;  936.100;    0.000;    0.000
301.885;  945.100;    0.000;    0.000
301.948;  964.100;    0.000;    0.000
302.011;  915.100;    0.000;    0.000
302.074; 1004.100;    0.000;    0.000
302.137;  939.100;    0.000;    0.000
302.200;  882.100;    0.000;    0.000
302.263;  959.100;    0.000;    0.000
302.326;  909.100;    0.000;    0.000
302.388;  991.100;    0.000;    0.000
302.451;  887.100;    0.000;    0.000
302.514;  968.100;    0.000;    0.000
302.577;  917.100;    0.000;    0.000
302.640;  948.100;    0.000;    0.000
302.703;  923.100;    0.000;    0.000
302.765;  983.100;    0.000;    0.000
302.828;  983.100;    0.000;    0.000
302.891;  974.100;    0.000;    0.000
302.954;  947.100;    0.000;    0.000
303.016;  965.100;    0.000;    0.000
303.079;  879.100;    0.000;    0.000
303.142;  967.100;    0.000;    0.000
303.205;  928.100;    0.000;    0.000
303.267;  963.100;    0.000;    0.000
303.330;  956.100;    0.000;    0.000
303.393;  961.100;    0.000;    0.000
303.456;  967.100;    0.000;    0.000
303.518;  973.100;    0.000;    0.000
303.581;  915.100;    0.000;    0.000
303.644;  997.100;    0.000;    0.000
303.706;  924.100;    0.000;    0.000
303.769;  935.100;    0.000;    0.000
303.832;  886.100;    0.000;    0.000
303.894;  951.100;    0.000;    0.000
303.957;  980.100;    0.000;    0.000
304.020;  933.100;    0.000;    0.000
304.082;  937.100;    0.000;    0.000
304.145; 1028.100;    0.000;    0.000
304.207;  985.100;    0.000;    0.000
304.270;  923.100;    0.000;    0.000
304.333; 1046.100;    0.000;    0.000
304.395; 1080.100;    0.000;    0.000
304.458;  987.100;    0.000;    0.000
304.520;  998.100;    0.000;    0.000
304.583; 1043.100;    0.000;    0.000
304.646; 1066.100;    0.000;    0.000
304.708; 1045.100;    0.000;    0.000
304.771; 1011.100;    0.000;    0.000
304.833; 1054.100;    0.000;    0.000
304.896; 1015.100;    0.000;    0.000
304.958; 1012.100;    0.000;    0.000
305.021; 1000.100;    0.000;    0.000
305.083;  983.100;    0.000;    0.000
305.146; 1010.100;    0.000;    0.000
305.208; 1001.100;    0.000;    0.000
305.271; 1017.100;    0.000;    0.000
305.333; 1057.100;    0.000;    0.000
305.396; 1029.100;    0.000;    0.000
305.458; 1056.100;    0.000;    0.000
305.520; 1030.100;    0.000;    0.000
305.583; 1114.100;    0.000;    0.000
305.645; 1084.100;    0.000;    0.000
305.708; 1064.100;    0.000;    0.000
305.770; 1099.100;    0.000;    0.000
305.833; 1018.100;    0.000;    0.000
305.895; 1046.100;    0.000;    0.000
305.957; 1053.100;    0.000;    0.000
306.020; 1055.100;    0.000;    0.000
306.082; 1085.100;    0.000;    0.000
306.144; 1082.100;    0.000;    0.000
306.207; 1050.100;    0.000;    0.000
306.269; 1112.100;    0.000;    0.000
306.331; 1081.100;    0.000;    0.000
306.394; 1088.100;    0.000;    0.000
306.456; 1070.100;    0.000;    0.000
306.518; 1088.100;    0.000;    0.000
306.581; 1067.100;    0.000;    0.000
306.643; 1060.100;    0.000;    0.000
306.705; 1081.100;    0.000;    0.000
306.768; 1034.100;    0.000;    0.000
306.830; 1143.100;    0.000;    0.000
306.892; 1113.100;    0.000;    0.000
306.954; 1173.100;    0.000;    0.000
307.017; 1150.100;    0.000;    0.000
307.079; 1064.100;    0.000;    0.000
307.141; 1135.100;    0.000;    0.000
307.203; 1092.100;    0.000;    0.000
307.266; 1076.100;    0.000;    0.000
307.328; 1128.100;    0.000;    0.000
307.390; 1091.100;    0.000;    0.000
307.452; 1133.100;    0.000;    0.000
307.514; 1169.100;    0.000;    0.000
307.577; 1215.100;    0.000;    0.000
307.639; 1175.100;    0.000;    0.000
307.701; 1185.100;    0.000;    0.000
307.763; 1088.100;    0.000;    0.000
307.825; 1164.100;    0.000;    0.000
307.887; 1139.100;    0.000;    0.000
307.949; 1129.100;    0.000;    0.000
308.012; 1164.100;    0.000;    0.000
308.074; 1179.100;    0.000;    0.000
308.136; 1215.100;    0.000;    0.000
308.198; 1221.100;    0.000;    0.000
308.260; 1210.100;    0.000;    0.000
308.322; 1249.100;    0.000;    0.000
308.384; 1135.100;    0.000;    0.000
308.446; 1159.100;    0.000;    0.000
308.508; 1208.100;    0.000;    0.000
308.570; 1280.100;    0.000;    0.000
308.632; 1234.100;    0.000;    0.000
308.694; 1201.100;    0.000;    0.000
308.756; 1301.100;    0.000;    0.000
308.818; 1263.100;    0.000;    0.000
308.880; 1251.100;    0.000;    0.000
308.942; 1218.100;    0.000;    0.000
309.004; 1296.100;    0.000;    0.000
309.066; 1238.100;    0.000;    0.000
309.128; 1325.100;    0.000;    0.000
309.190; 1253.100;    0.000;    0.000
309.252; 1376.100;    0.000;    0.000
309.314; 1427.100;    0.000;    0.000
309.376; 1406.100;    0.000;    0.000
309.438; 1354.100;    0.000;    0.000
309.500; 1400.100;    0.000;    0.000
309.562; 1359.100;    0.000;    0.000
309.624; 1411.100;    0.000;    0.000
309.686; 1444.100;    0.000;    0.000
309.747; 1396.100;    0.000;    0.000
309.809; 1415.100;    0.000;    0.000
309.871; 1403.100;    0.000;    0.000
309.933; 1353.100;    0.000;    0.000
309.995; 1311.100;    0.000;    0.000
310.057; 1319.100;    0.000;    0.000
310.119; 1319.100;    0.000;    0.000
310.180; 1331.100;    0.000;    0.000
310.242; 1272.100;    0.000;    0.000
310.304; 1321.100;    0.000;    0.000
310.366; 1273.100;    0.000;    0.000
310.428; 1211.100;    0.000;    0.000
310.489; 1265.100;    0.000;    0.000
310.551; 1267.100;    0.000;    0.000
310.613; 1296.100;    0.000;    0.000
310.675; 1280.100;    0.000;    0.000
310.737; 1309.100;    0.000;    0.000
310.798; 1236.100;    0.000;    0.000
310.860; 1249.100;    0.000;    0.000
310.922; 1275.100;    0.000;    0.000
310.983; 1259.100;    0.000;    0.000
311.045; 1278.100;    0.000;    0.000
311.107; 1201.100;    0.000;    0.000
311.169; 1254.100;    0.000;    0.000
311.230; 1229.100;    0.000;    0.000
311.292; 1311.100;    0.000;    0.000
311.354; 1254.100;    0.000;    0.000
311.415; 1246.100;    0.000;    0.000
311.477; 1272.100;    0.000;    0.000
311.539; 1266.100;    0.000;    0.000
311.600; 1273.100;    0.000;    0.000
311.662; 1320.100;    0.000;    0.000
311.724; 1264.100;    0.000;    0.000
311.785; 1265.100;    0.000;    0.000
311.847; 1230.100;    0.000;    0.000
311.908; 1268.100;    0.000;    0.000
311.970; 1305.100;    0.000;    0.000
312.032; 1283.100;    0.000;    0.000
312.093; 1352.100;    0.000;    0.000
312.155; 1298.100;    0.000;    0.000
312.216; 1351.100;    0.000;    0.000
312.278; 1248.100;    0.000;    0.000
312.339; 1261.100;    0.000;    0.000
312.401; 1309.100;    0.000;    0.000
312.462; 1220.100;    0.000;    0.000
312.524; 1299.100;    0.000;    0.000
312.585; 1313.100;    0.000;    0.000
312.647; 1308.100;    0.000;    0.000
312.708; 1258.100;    0.000;    0.000
312.770; 1305.100;    0.000;    0.000
312.831; 1297.100;    0.000;    0.000
312.893; 1334.100;    0.000;    0.000
312.954; 1265.100;    0.000;    0.000
313.016; 1362.100;    0.000;    0.000
313.077; 1272.100;    0.000;    0.000
313.139; 1250.100;    0.000;    0.000
313.200; 1272.100;    0.000;    0.000
313.261; 1298.100;    0.000;    0.000
313.323; 1330.100;    0.000;    0.000
313.384; 1271.100;    0.000;    0.000
313.446; 1402.100;    0.000;    0.000
313.507; 1309.100;    0.000;    0.000
313.568; 1294.100;    0.000;    0.000
313.630; 1298.100;    0.000;    0.000
313.691; 1289.100;    0.000;    0.000
313.752; 1376.100;    0.000;    0.000
313.814; 1330.100;    0.000;    0.000
313.875; 1364.100;    0.000;    0.000
313.936; 1286.100;    0.000;    0.000
313.998; 1286.100;    0.000;    0.000
314.059; 1287.100;    0.000;    0.000
314.120; 1314.100;    0.000;    0.000
314.182; 1375.100;    0.000;    0.000
314.243; 1318.100;    0.000;    0.000
314.304; 1350.100;    0.000;    0.000
314.365; 1337.100;    0.000;    0.000
314.427; 1304.100;    0.000;    0.000
314.488; 1321.100;    0.000;    0.000
314.549; 1364.100;    0.000;    0.000
314.610; 1388.100;    0.000;    0.000
314.672; 1314.100;    0.000;    0.000
314.733; 1313.100;    0.000;    0.000
314.794; 1310.100;    0.000;    0.000
314.855; 1245.100;    0.000;    0.000
314.917; 1331.100;    0.000;    0.000
314.978; 1326.100;    0.000;    0.000
315.039; 1426.100;    0.000;    0.000
315.100; 1420.100;    0.000;    0.000
315.161; 1366.100;    0.000;    0.000
315.222; 1339.100;    0.000;    0.000
315.283; 1320.100;    0.000;    0.000
315.345; 1358.100;    0.000;    0.000
315.406; 1369.100;    0.000;    0.000
315.467; 1366.100;    0.000;    0.000
315.528; 1355.100;    0.000;    0.000
315.589; 1443.100;    0.000;    0.000
315.650; 1338.100;    0.000;    0.000
315.711; 1348.100;    0.000;    0.000
315.772; 1264.100;    0.000;    0.000
315.833; 1341.100;    0.000;    0.000
315.894; 1399.100;    0.000;    0.000
315.955; 1346.100;    0.000;    0.000
316.016; 1361.100;    0.000;    0.000
316.078; 1319.100;    0.000;    0.000
316.139; 1444.100;    0.000;    0.000
316.200; 1373.100;    0.000;    0.000
316.261; 1348.100;    0.000;    0.000
316.322; 1394.100;    0.000;    0.000
316.383; 1405.100;    0.000;    0.000
316.444; 1397.100;    0.000;    0.000
316.504; 1354.100;    0.000;    0.000
316.565; 1343.100;    0.000;    0.000
316.626; 1310.100;    0.000;    0.000
316.687; 1346.100;    0.000;    0.000
316.748; 1392.100;    0.000;    0.000
316.809; 1384.100;    0.000;    0.000
316.870; 1375.100;    0.000;    0.000
316.931; 1444.100;    0.000;    0.000
316.992; 1474.100;    0.000;    0.000
317.053; 1425.100;    0.000;    0.000
317.114; 1425.100;    0.000;    0.000
317.175; 1445.100;    0.000;    0.000
317.235; 1441.100;    0.000;    0.000
317.296; 1468.100;    0.000;    0.000
317.357; 1426.100;    0.000;    0.000
317.418; 1366.100;    0.000;    0.000
317.479; 1432.100;    0.000;    0.000
317.540; 1450.100;    0.000;    0.000
317.601; 1421.100;    0.000;    0.000
317.661; 1332.100;    0.000;    0.000
317.722; 1362.100;    0.000;    0.000
317.783; 1375.100;    0.000;    0.000
317.844; 1362.100;    0.000;    0.000
317.904; 1400.100;    0.000;    0.000
317.965; 1393.100;    0.000;    0.000
318.026; 1390.100;    0.000;    0.000
318.087; 1457.100;    0.000;    0.000
318.148; 1340.100;    0.000;    0.000
318.208; 1399.100;    0.000;    0.000
318.269; 1390.100;    0.000;    0.000
318.330; 1432.100;    0.000;    0.000
318.390; 1480.100;    0.000;    0.000
318.451; 1487.100;    0.000;    0.000
318.512; 1429.100;    0.000;    0.000
318.572; 1502.100;    0.000;    0.000
318.633; 1467.100;    0.000;    0.000
318.694; 1389.100;    0.000;    0.000
318.754; 1377.100;    0.000;    0.000
318.815; 1418.100;    0.000;    0.000
318.876; 1358.100;    0.000;    0.000
318.936; 1477.100;    0.000;    0.000
318.997; 1434.100;    0.000;    0.000
319.058; 1442.100;    0.000;    0.000
319.118; 1480.100;    0.000;    0.000
319.179; 1448.100;    0.000;    0.000
319.239; 1464.100;    0.000;    0.000
319.300; 1416.100;    0.000;    0.000
319.361; 1446.100;    0.000;    0.000
319.421; 1391.100;    0.000;    0.000
319.482; 1383.100;    0.000;    0.000
319.542; 1347.100;    0.000;    0.000
319.603; 1397.100;    0.000;    0.000
319.663; 1454.100;    0.000;    0.000
319.724; 1393.100;    0.000;    0.000
319.784; 1411.100;    0.000;    0.000
319.845; 1479.100;    0.000;    0.000
319.905; 1452.100;    0.000;    0.000
319.966; 1430.100;    0.000;    0.000
320.026; 1474.100;    0.000;    0.000
320.087; 1481.100;    0.000;    0.000
320.147; 1439.100;    0.000;    0.000
320.208; 1421.100;    0.000;    0.000
320.268; 1458.100;    0.000;    0.000
320.329; 1410.100;    0.000;    0.000
320.389; 1414.100;    0.000;    0.000
320.449; 1383.100;    0.000;    0.000
320.510; 1432.100;    0.000;    0.000
320.570; 1400.100;    0.000;    0.000
320.631; 1430.100;    0.000;    0.000
320.691; 1412.100;    0.000;    0.000
320.751; 1409.100;    0.000;    0.000
320.812; 1441.100;    0.000;    0.000
320.872; 1427.100;    0.000;    0.000
320.932; 1504.100;    0.000;    0.000
320.993; 1399.100;    0.000;    0.000
321.053; 1512.100;    0.000;    0.000
321.113; 1460.100;    0.000;    0.000
321.174; 1459.100;    0.000;    0.000
321.234; 1507.100;    0.000;    0.000
321.294; 1435.100;    0.000;    0.000
321.355; 1491.100;    0.000;    0.000
321.415; 1459.100;    0.000;    0.000
321.475; 1439.100;    0.000;    0.000
321.535; 1433.100;    0.000;    0.000
321.596; 1501.100;    0.000;    0.000
321.656; 1531.100;    0.000;    0.000
321.716; 1465.100;    0.000;    0.000
321.776; 1499.100;    0.000;    0.000
321.837; 1440.100;    0.000;    0.000
321.897; 1404.100;    0.000;    0.000
321.957; 1527.100;    0.000;    0.000
322.017; 1446.100;    0.000;    0.000
322.077; 1527.100;    0.000;    0.000
322.138; 1529.100;    0.000;    0.000
322.198; 1569.100;    0.000;    0.000
322.258; 1591.100;    0.000;    0.000
322.318; 1452.100;    0.000;    0.000
322.378; 1517.100;    0.000;    0.000
322.438; 1570.100;    0.000;    0.000
322.499; 1546.100;    0.000;    0.000
322.559; 1453.100;    0.000;    0.000
322.619; 1545.100;    0.000;    0.000
322.679; 1546.100;    0.000;    0.000
322.739; 1482.100;    0.000;    0.000
322.799; 1526.100;    0.000;    0.000
322.859; 1496.100;    0.000;    0.000
322.919; 1532.100;    0.000;    0.000
322.979; 1498.100;    0.000;    0.000
323.039; 1510.100;    0.000;    0.000
323.099; 1456.100;    0.000;    0.000
323.159; 1513.100;    0.000;    0.000
323.219; 1495.100;    0.000;    0.000
323.279; 1518.100;    0.000;    0.000
323.339; 1524.100;    0.000;    0.000
323.399; 1477.100;    0.000;    0.000
323.459; 1560.100;    0.000;    0.000
323.519; 1601.100;    0.000;    0.000
323.579; 1606.100;    0.000;    0.000
323.639; 1659.100;    0.000;    0.000
323.699; 1670.100;    0.000;    0.000
323.759; 1563.100;    0.000;    0.000
323.819; 1688.100;    0.000;    0.000
323.879; 1706.100;    0.000;    0.000
323.939; 1545.100;    0.000;    0.000
323.999; 1590.100;    0.000;    0.000
324.059; 1565.100;    0.000;    0.000
324.119; 1589.100;    0.000;    0.000
324.178; 1524.100;    0.000;    0.000
324.238; 1488.100;    0.000;    0.000
324.298; 1554.100;    0.000;    0.000
324.358; 1556.100;    0.000;    0.000
324.418; 1530.100;    0.000;    0.000
324.478; 1549.100;    0.000;    0.000
324.538; 1575.100;    0.000;    0.000
324.597; 1616.100;    0.000;    0.000
324.657; 1495.100;    0.000;    0.000
324.717; 1572.100;    0.000;    0.000
324.777; 1528.100;    0.000;    0.000
324.837; 1523.100;    0.000;    0.000
324.896; 1565.100;    0.000;    0.000
324.956; 1573.100;    0.000;    0.000
325.016; 1493.100;    0.000;    0.000
325.076; 1495.100;    0.000;    0.000
325.135; 1521.100;    0.000;    0.000
325.195; 1498.100;    0.000;    0.000
325.255; 1520.100;    0.000;    0.000
325.315; 1520.100;    0.000;    0.000
325.374; 1489.100;    0.000;    0.000
325.434; 1538.100;    0.000;    0.000
325.494; 1564.100;    0.000;    0.000
325.553; 1563.100;    0.000;    0.000
325.613; 1493.100;    0.000;    0.000
325.673; 1554.100;    0.000;    0.000
325.732; 1500.100;    0.000;    0.000
325.792; 1469.100;    0.000;    0.000
325.852; 1529.100;    0.000;    0.000
325.911; 1496.100;    0.000;    0.000
325.971; 1576.100;    0.000;    0.000
326.031; 1533.100;    0.000;    0.000
326.090; 1514.100;    0.000;    0.000
326.150; 1466.100;    0.000;    0.000
326.209; 1507.100;    0.000;    0.000
326.269; 1559.100;    0.000;    0.000
326.328; 1572.100;    0.000;    0.000
326.388; 1540.100;    0.000;    0.000
326.448; 1650.100;    0.000;    0.000
326.507; 1589.100;    0.000;    0.000
326.567; 1505.100;    0.000;    0.000
326.626; 1535.100;    0.000;    0.000
326.686; 1485.100;    0.000;    0.000
326.745; 1496.100;    0.000;    0.000
326.805; 1438.100;    0.000;    0.000
326.864; 1520.100;    0.000;    0.000
326.924; 1597.100;    0.000;    0.000
326.983; 1576.100;    0.000;    0.000
327.043; 1549.100;    0.000;    0.000
327.102; 1530.100;    0.000;    0.000
327.161; 1605.100;    0.000;    0.000
327.221; 1630.100;    0.000;    0.000
327.280; 1559.100;    0.000;    0.000
327.340; 1594.100;    0.000;    0.000
327.399; 1572.100;    0.000;    0.000
327.459; 1596.100;    0.000;    0.000
327.518; 1544.100;    0.000;    0.000
327.577; 1495.100;    0.000;    0.000
327.637; 1552.100;    0.000;    0.000
327.696; 1513.100;    0.000;    0.000
327.755; 1515.100;    0.000;    0.000
327.815; 1523.100;    0.000;    0.000
327.874; 1495.100;    0.000;    0.000
327.933; 1583.100;    0.000;    0.000
327.993; 1614.100;    0.000;    0.000
328.052; 1531.100;    0.000;    0.000
328.111; 1567.100;    0.000;    0.000
328.171; 1575.100;    0.000;    0.000
328.230; 1551.100;    0.000;    0.000
328.289; 1612.100;    0.000;    0.000
328.349; 1511.100;    0.000;    0.000
328.408; 1641.100;    0.000;    0.000
328.467; 1607.100;    0.000;    0.000
328.526; 1589.100;    0.000;    0.000
328.586; 1647.100;    0.000;    0.000
328.645; 1593.100;    0.000;    0.000
328.704; 1568.100;    0.000;    0.000
328.763; 1501.100;    0.000;    0.000
328.822; 1576.100;    0.000;    0.000
328.882; 1609.100;    0.000;    0.000
328.941; 1578.100;    0.000;    0.000
329.000; 1563.100;    0.000;    0.000
329.059; 1610.100;    0.000;    0.000
329.118; 1597.100;    0.000;    0.000
329.177; 1612.100;    0.000;    0.000
329.237; 1630.100;    0.000;    0.000
329.296; 1659.100;    0.000;    0.000
329.355; 1650.100;    0.000;    0.000
329.414; 1574.100;    0.000;    0.000
329.473; 1603.100;    0.000;    0.000
329.532; 1658.100;    0.000;    0.000
329.591; 1597.100;    0.000;    0.000
329.650; 1610.100;    0.000;    0.000
329.709; 1684.100;    0.000;    0.000
329.768; 1717.100;    0.000;    0.000
329.827; 1748.100;    0.000;    0.000
329.886; 1824.100;    0.000;    0.000
329.945; 1900.100;    0.000;    0.000
330.004; 1923.100;    0.000;    0.000
330.063; 1908.100;    0.000;    0.000
330.122; 1943.100;    0.000;    0.000
330.181; 2027.100;    0.000;    0.000
330.240; 2049.100;    0.000;    0.000
330.299; 1925.100;    0.000;    0.000
330.358; 1829.100;    0.000;    0.000
330.417; 1745.100;    0.000;    0.000
330.476; 1717.100;    0.000;    0.000
330.535; 1778.100;    0.000;    0.000
330.594; 1708.100;    0.000;    0.000
330.653; 1676.100;    0.000;    0.000
330.712; 1658.100;    0.000;    0.000
330.771; 1666.100;    0.000;    0.000
330.830; 1738.100;    0.000;    0.000
330.889; 1677.100;    0.000;    0.000
330.948; 1675.100;    0.000;    0.000
331.006; 1628.100;    0.000;    0.000
331.065; 1650.100;    0.000;    0.000
331.124; 1612.100;    0.000;    0.000
331.183; 1586.100;    0.000;    0.000
331.242; 1599.100;    0.000;    0.000
331.301; 1605.100;    0.000;    0.000
331.359; 1594.100;    0.000;    0.000
331.418; 1689.100;    0.000;    0.000
331.477; 1602.100;    0.000;    0.000
331.536; 1551.100;    0.000;    0.000
331.595; 1580.100;    0.000;    0.000
331.653; 1564.100;    0.000;    0.000
331.712; 1614.100;    0.000;    0.000
331.771; 1574.100;    0.000;    0.000
331.830; 1553.100;    0.000;    0.000
331.888; 1643.100;    0.000;    0.000
331.947; 1571.100;    0.000;    0.000
332.006; 1598.100;    0.000;    0.000
332.065; 1616.100;    0.000;    0.000
332.123; 1628.100;    0.000;    0.000
332.182; 1649.100;    0.000;    0.000
332.241; 1639.100;    0.000;    0.000
332.299; 1664.100;    0.000;    0.000
332.358; 1653.100;    0.000;    0.000
332.417; 1673.100;    0.000;    0.000
332.475; 1604.100;    0.000;    0.000
332.534; 1607.100;    0.000;    0.000
332.592; 1639.100;    0.000;    0.000
332.651; 1622.100;    0.000;    0.000
332.710; 1624.100;    0.000;    0.000
332.768; 1577.100;    0.000;    0.000
332.827; 1499.100;    0.000;    0.000
332.885; 1563.100;    0.000;    0.000
332.944; 1576.100;    0.000;    0.000
333.003; 1559.100;    0.000;    0.000
333.061; 1616.100;    0.000;    0.000
333.120; 1659.100;    0.000;    0.000
333.178; 1715.100;    0.000;    0.000
333.237; 1731.100;    0.000;    0.000
333.295; 1805.100;    0.000;    0.000
333.354; 1745.100;    0.000;    0.000
333.412; 1721.100;    0.000;    0.000
333.471; 1813.100;    0.000;    0.000
333.529; 1777.100;    0.000;    0.000
333.588; 1794.100;    0.000;    0.000
333.646; 1862.100;    0.000;    0.000
333.705; 1840.100;    0.000;    0.000
333.763; 1914.100;    0.000;    0.000
333.822; 1848.100;    0.000;    0.000
333.880; 1784.100;    0.000;    0.000
333.938; 1736.100;    0.000;    0.000
333.997; 1849.100;    0.000;    0.000
334.055; 1840.100;    0.000;    0.000
334.114; 1819.100;    0.000;    0.000
334.172; 1725.100;    0.000;    0.000
334.230; 1751.100;    0.000;    0.000
334.289; 1774.100;    0.000;    0.000
334.347; 1773.100;    0.000;    0.000
334.405; 1805.100;    0.000;    0.000
334.464; 1722.100;    0.000;    0.000
334.522; 1789.100;    0.000;    0.000
334.580; 1808.100;    0.000;    0.000
334.639; 1784.100;    0.000;    0.000
334.697; 1724.100;    0.000;    0.000
334.755; 1766.100;    0.000;    0.000
334.814; 1722.100;    0.000;    0.000
334.872; 1733.100;    0.000;    0.000
334.930; 1677.100;    0.000;    0.000
334.988; 1687.100;    0.000;    0.000
335.047; 1682.100;    0.000;    0.000
335.105; 1772.100;    0.000;    0.000
335.163; 1742.100;    0.000;    0.000
335.221; 1828.100;    0.000;    0.000
335.280; 1791.100;    0.000;    0.000
335.338; 1786.100;    0.000;    0.000
335.396; 1745.100;    0.000;    0.000
335.454; 1754.100;    0.000;    0.000
335.512; 1801.100;    0.000;    0.000
335.570; 1763.100;    0.000;    0.000
335.629; 1806.100;    0.000;    0.000
335.687; 1844.100;    0.000;    0.000
335.745; 1822.100;    0.000;    0.000
335.803; 1946.100;    0.000;    0.000
335.861; 2003.100;    0.000;    0.000
335.919; 1924.100;    0.000;    0.000
335.977; 1919.100;    0.000;    0.000
336.035; 1764.100;    0.000;    0.000
336.094; 1888.100;    0.000;    0.000
336.152; 1871.100;    0.000;    0.000
336.210; 1989.100;    0.000;    0.000
336.268; 1963.100;    0.000;    0.000
336.326; 1941.100;    0.000;    0.000
336.384; 1911.100;    0.000;    0.000
336.442; 1839.100;    0.000;    0.000
336.500; 1872.100;    0.000;    0.000
336.558; 1821.100;    0.000;    0.000
336.616; 1914.100;    0.000;    0.000
336.674; 1767.100;    0.000;    0.000
336.732; 1899.100;    0.000;    0.000
336.790; 1845.100;    0.000;    0.000
336.848; 1908.100;    0.000;    0.000
336.906; 1886.100;    0.000;    0.000
336.964; 1931.100;    0.000;    0.000
337.022; 1903.100;    0.000;    0.000
337.080; 1958.100;    0.000;    0.000
337.138; 1937.100;    0.000;    0.000
337.195; 1908.100;    0.000;    0.000
337.253; 1903.100;    0.000;    0.000
337.311; 1897.100;    0.000;    0.000
337.369; 1846.100;    0.000;    0.000
337.427; 1878.100;    0.000;    0.000
337.485; 1851.100;    0.000;    0.000
337.543; 1853.100;    0.000;    0.000
337.601; 1820.100;    0.000;    0.000
337.658; 1844.100;    0.000;    0.000
337.716; 1778.100;    0.000;    0.000
337.774; 1747.100;    0.000;    0.000
337.832; 1860.100;    0.000;    0.000
337.890; 1751.100;    0.000;    0.000
337.947; 1681.100;    0.000;    0.000
338.005; 1712.100;    0.000;    0.000
338.063; 1741.100;    0.000;    0.000
338.121; 1721.100;    0.000;    0.000
338.178; 1799.100;    0.000;    0.000
338.236; 1844.100;    0.000;    0.000
338.294; 1837.100;    0.000;    0.000
338.352; 1810.100;    0.000;    0.000
338.409; 1804.100;    0.000;    0.000
338.467; 1801.100;    0.000;    0.000
338.525; 1799.100;    0.000;    0.000
338.583; 1678.100;    0.000;    0.000
338.640; 1736.100;    0.000;    0.000
338.698; 1739.100;    0.000;    0.000
338.756; 1772.100;    0.000;    0.000
338.813; 1837.100;    0.000;    0.000
338.871; 1800.100;    0.000;    0.000
338.928; 1837.100;    0.000;    0.000
338.986; 1829.100;    0.000;    0.000
339.044; 1841.100;    0.000;    0.000
339.101; 1854.100;    0.000;    0.000
339.159; 1763.100;    0.000;    0.000
339.216; 1828.100;    0.000;    0.000
339.274; 1854.100;    0.000;    0.000
339.332; 1796.100;    0.000;    0.000
339.389; 1854.100;    0.000;    0.000
339.447; 1845.100;    0.000;    0.000
339.504; 1779.100;    0.000;    0.000
339.562; 1794.100;    0.000;    0.000
339.619; 1871.100;    0.000;    0.000
339.677; 1846.100;    0.000;    0.000
339.734; 1758.100;    0.000;    0.000
339.792; 1771.100;    0.000;    0.000
339.849; 1832.100;    0.000;    0.000
339.907; 1863.100;    0.000;    0.000
339.964; 1874.100;    0.000;    0.000
340.022; 1828.100;    0.000;    0.000
340.079; 1863.100;    0.000;    0.000
340.137; 1809.100;    0.000;    0.000
340.194; 1851.100;    0.000;    0.000
340.252; 1798.100;    0.000;    0.000
340.309; 1739.100;    0.000;    0.000
340.366; 1805.100;    0.000;    0.000
340.424; 1788.100;    0.000;    0.000
340.481; 1903.100;    0.000;    0.000
340.538; 1794.100;    0.000;    0.000
340.596; 1969.100;    0.000;    0.000
340.653; 1904.100;    0.000;    0.000
340.711; 1945.100;    0.000;    0.000
340.768; 2013.100;    0.000;    0.000
340.825; 1850.100;    0.000;    0.000
340.883; 1900.100;    0.000;    0.000
340.940; 1843.100;    0.000;    0.000
340.997; 1826.100;    0.000;    0.000
341.054; 1794.100;    0.000;    0.000
341.112; 1848.100;    0.000;    0.000
341.169; 1915.100;    0.000;    0.000
341.226; 1943.100;    0.000;    0.000
341.284; 1906.100;    0.000;    0.000
341.341; 1930.100;    0.000;    0.000
341.398; 1901.100;    0.000;    0.000
341.455; 1937.100;    0.000;    0.000
341.512; 2023.100;    0.000;    0.000
341.570; 1992.100;    0.000;    0.000
341.627; 1892.100;    0.000;    0.000
341.684; 1896.100;    0.000;    0.000
341.741; 1974.100;    0.000;    0.000
341.798; 1909.100;    0.000;    0.000
341.856; 1859.100;    0.000;    0.000
341.913; 1917.100;    0.000;    0.000
341.970; 1905.100;    0.000;    0.000
342.027; 1918.100;    0.000;    0.000
342.084; 1916.100;    0.000;    0.000
342.141; 2027.100;    0.000;    0.000
342.198; 1968.100;    0.000;    0.000
342.255; 1974.100;    0.000;    0.000
342.313; 1944.100;    0.000;    0.000
342.370; 1849.100;    0.000;    0.000
342.427; 1807.100;    0.000;    0.000
342.484; 1827.100;    0.000;    0.000
342.541; 1772.100;    0.000;    0.000
342.598; 1803.100;    0.000;    0.000
342.655; 1732.100;    0.000;    0.000
342.712; 1857.100;    0.000;    0.000
342.769; 1891.100;    0.000;    0.000
342.826; 1767.100;    0.000;    0.000
342.883; 1803.100;    0.000;    0.000
342.940; 1689.100;    0.000;    0.000
342.997; 1820.100;    0.000;    0.000
343.054; 1851.100;    0.000;    0.000
343.111; 1841.100;    0.000;    0.000
343.168; 1865.100;    0.000;    0.000
343.225; 1882.100;    0.000;    0.000
343.282; 1891.100;    0.000;    0.000
343.339; 1919.100;    0.000;    0.000
343.395; 1924.100;    0.000;    0.000
343.452; 1876.100;    0.000;    0.000
343.509; 1836.100;    0.000;    0.000
343.566; 1801.100;    0.000;    0.000
343.623; 1875.100;    0.000;    0.000
343.680; 1875.100;    0.000;    0.000
343.737; 1913.100;    0.000;    0.000
343.794; 1911.100;    0.000;    0.000
343.850; 1870.100;    0.000;    0.000
343.907; 1885.100;    0.000;    0.000
343.964; 1883.100;    0.000;    0.000
344.021; 1846.100;    0.000;    0.000
344.078; 1985.100;    0.000;    0.000
344.134; 1876.100;    0.000;    0.000
344.191; 1968.100;    0.000;    0.000
344.248; 1873.100;    0.000;    0.000
344.305; 1958.100;    0.000;    0.000
344.361; 1902.100;    0.000;    0.000
344.418; 1875.100;    0.000;    0.000
344.475; 1959.100;    0.000;    0.000
344.532; 1884.100;    0.000;    0.000
344.588; 1828.100;    0.000;    0.000
344.645; 1876.100;    0.000;    0.000
344.702; 1941.100;    0.000;    0.000
344.758; 1909.100;    0.000;    0.000
344.815; 1871.100;    0.000;    0.000
344.872; 1857.100;    0.000;    0.000
344.928; 1985.100;    0.000;    0.000
344.985; 1990.100;    0.000;    0.000
345.042; 2018.100;    0.000;    0.000
345.098; 1983.100;    0.000;    0.000
345.155; 1870.100;    0.000;    0.000
345.212; 1882.100;    0.000;    0.000
345.268; 1950.100;    0.000;    0.000
345.325; 1942.100;    0.000;    0.000
345.381; 2017.100;    0.000;    0.000
345.438; 2004.100;    0.000;    0.000
345.495; 2038.100;    0.000;    0.000
345.551; 2044.100;    0.000;    0.000
345.608; 1980.100;    0.000;    0.000
345.664; 1912.100;    0.000;    0.000
345.721; 1859.100;    0.000;    0.000
345.777; 1872.100;    0.000;    0.000
345.834; 1801.100;    0.000;    0.000
345.890; 1853.100;    0.000;    0.000
345.947; 1839.100;    0.000;    0.000
346.003; 1991.100;    0.000;    0.000
346.060; 1881.100;    0.000;    0.000
346.116; 1850.100;    0.000;    0.000
346.173; 1846.100;    0.000;    0.000
346.229; 1871.100;    0.000;    0.000
346.285; 1865.100;    0.000;    0.000
346.342; 1876.100;    0.000;    0.000
346.398; 1906.100;    0.000;    0.000
346.455; 1918.100;    0.000;    0.000
346.511; 1995.100;    0.000;    0.000
346.567; 2014.100;    0.000;    0.000
346.624; 2013.100;    0.000;    0.000
346.680; 2040.100;    0.000;    0.000
346.737; 2042.100;    0.000;    0.000
346.793; 1955.100;    0.000;    0.000
346.849; 2130.100;    0.000;    0.000
346.906; 2132.100;    0.000;    0.000
346.962; 2089.100;    0.000;    0.000
347.018; 2090.100;    0.000;    0.000
347.074; 2119.100;    0.000;    0.000
347.131; 2092.100;    0.000;    0.000
347.187; 2053.100;    0.000;    0.000
347.243; 2036.100;    0.000;    0.000
347.300; 2042.100;    0.000;    0.000
347.356; 2039.100;    0.000;    0.000
347.412; 1983.100;    0.000;    0.000
347.468; 1960.100;    0.000;    0.000
347.524; 1897.100;    0.000;    0.000
347.581; 1868.100;    0.000;    0.000
347.637; 1923.100;    0.000;    0.000
347.693; 1941.100;    0.000;    0.000
347.749; 2013.100;    0.000;    0.000
347.805; 1902.100;    0.000;    0.000
347.862; 1969.100;    0.000;    0.000
347.918; 1921.100;    0.000;    0.000
347.974; 1938.100;    0.000;    0.000
348.030; 1908.100;    0.000;    0.000
348.086; 1916.100;    0.000;    0.000
348.142; 1924.100;    0.000;    0.000
348.198; 2000.100;    0.000;    0.000
348.254; 1950.100;    0.000;    0.000
348.311; 1897.100;    0.000;    0.000
348.367; 1955.100;    0.000;    0.000
348.423; 1869.100;    0.000;    0.000
348.479; 1869.100;    0.000;    0.000
348.535; 1884.100;    0.000;    0.000
348.591; 1892.100;    0.000;    0.000
348.647; 1841.100;    0.000;    0.000
348.703; 1840.100;    0.000;    0.000
348.759; 1888.100;    0.000;    0.000
348.815; 1941.100;    0.000;    0.000
348.871; 1909.100;    0.000;    0.000
348.927; 1854.100;    0.000;    0.000
348.983; 1971.100;    0.000;    0.000
349.039; 1983.100;    0.000;    0.000
349.095; 1886.100;    0.000;    0.000
349.151; 1974.100;    0.000;    0.000
349.207; 1958.100;    0.000;    0.000
349.263; 1915.100;    0.000;    0.000
349.319; 1863.100;    0.000;    0.000
349.374; 1904.100;    0.000;    0.000
349.430; 2030.100;    0.000;    0.000
349.486; 1956.100;    0.000;    0.000
349.542; 1959.100;    0.000;    0.000
349.598; 2001.100;    0.000;    0.000
349.654; 2017.100;    0.000;    0.000
349.710; 1974.100;    0.000;    0.000
349.766; 1937.100;    0.000;    0.000
349.821; 1967.100;    0.000;    0.000
349.877; 2066.100;    0.000;    0.000
349.933; 2010.100;    0.000;    0.000
349.989; 2014.100;    0.000;    0.000
350.045; 1946.100;    0.000;    0.000
350.100; 2007.100;    0.000;    0.000
350.156; 1944.100;    0.000;    0.000
350.212; 1916.100;    0.000;    0.000
350.268; 1892.100;    0.000;    0.000
350.323; 1930.100;    0.000;    0.000
350.379; 1963.100;    0.000;    0.000
350.435; 1835.100;    0.000;    0.000
350.491; 1895.100;    0.000;    0.000
350.546; 1927.100;    0.000;    0.000
350.602; 1936.100;    0.000;    0.000
350.658; 1995.100;    0.000;    0.000
350.713; 1973.100;    0.000;    0.000
350.769; 1953.100;    0.000;    0.000
350.825; 1913.100;    0.000;    0.000
350.880; 1939.100;    0.000;    0.000
350.936; 1951.100;    0.000;    0.000
350.992; 1942.100;    0.000;    0.000
351.047; 1988.100;    0.000;    0.000
351.103; 1894.100;    0.000;    0.000
351.158; 1973.100;    0.000;    0.000
351.214; 1971.100;    0.000;    0.000
351.270; 1918.100;    0.000;    0.000
351.325; 1839.100;    0.000;    0.000
351.381; 1888.100;    0.000;    0.000
351.436; 1956.100;    0.000;    0.000
351.492; 1961.100;    0.000;    0.000
351.547; 1968.100;    0.000;    0.000
351.603; 1953.100;    0.000;    0.000
351.658; 2061.100;    0.000;    0.000
351.714; 1963.100;    0.000;    0.000
351.769; 2010.100;    0.000;    0.000
351.825; 2057.100;    0.000;    0.000
351.880; 2030.100;    0.000;    0.000
351.936; 2132.100;    0.000;    0.000
351.991; 2095.100;    0.000;    0.000
352.047; 2084.100;    0.000;    0.000
352.102; 1964.100;    0.000;    0.000
352.158; 1948.100;    0.000;    0.000
352.213; 1965.100;    0.000;    0.000
352.268; 1981.100;    0.000;    0.000
352.324; 1871.100;    0.000;    0.000
352.379; 1989.100;    0.000;    0.000
352.434; 2021.100;    0.000;    0.000
352.490; 1958.100;    0.000;    0.000
352.545; 1916.100;    0.000;    0.000
352.601; 1941.100;    0.000;    0.000
352.656; 1872.100;    0.000;    0.000
352.711; 1924.100;    0.000;    0.000
352.767; 1890.100;    0.000;    0.000
352.822; 1943.100;    0.000;    0.000
352.877; 1838.100;    0.000;    0.000
352.932; 1993.100;    0.000;    0.000
352.988; 1973.100;    0.000;    0.000
353.043; 1994.100;    0.000;    0.000
353.098; 1979.100;    0.000;    0.000
353.153; 2032.100;    0.000;    0.000
353.209; 1936.100;    0.000;    0.000
353.264; 1876.100;    0.000;    0.000
353.319; 1846.100;    0.000;    0.000
353.374; 1857.100;    0.000;    0.000
353.430; 1927.100;    0.000;    0.000
353.485; 1903.100;    0.000;    0.000
353.540; 1865.100;    0.000;    0.000
353.595; 1878.100;    0.000;    0.000
353.650; 1910.100;    0.000;    0.000
353.705; 1947.100;    0.000;    0.000
353.761; 1855.100;    0.000;    0.000
353.816; 1906.100;    0.000;    0.000
353.871; 1856.100;    0.000;    0.000
353.926; 1806.100;    0.000;    0.000
353.981; 1805.100;    0.000;    0.000
354.036; 1853.100;    0.000;    0.000
354.091; 1832.100;    0.000;    0.000
354.146; 1793.100;    0.000;    0.000
354.201; 1844.100;    0.000;    0.000
354.256; 1802.100;    0.000;    0.000
354.311; 1888.100;    0.000;    0.000
354.367; 1879.100;    0.000;    0.000
354.422; 1856.100;    0.000;    0.000
354.477; 1841.100;    0.000;    0.000
354.532; 1880.100;    0.000;    0.000
354.587; 1867.100;    0.000;    0.000
354.642; 1925.100;    0.000;    0.000
354.697; 1967.100;    0.000;    0.000
354.751; 1894.100;    0.000;    0.000
354.806; 1871.100;    0.000;    0.000
354.861; 1943.100;    0.000;    0.000
354.916; 1948.100;    0.000;    0.000
354.971; 1955.100;    0.000;    0.000
355.026; 1950.100;    0.000;    0.000
355.081; 1869.100;    0.000;    0.000
355.136; 1903.100;    0.000;    0.000
355.191; 1849.100;    0.000;    0.000
355.246; 1871.100;    0.000;    0.000
355.301; 1916.100;    0.000;    0.000
355.355; 1842.100;    0.000;    0.000
355.410; 1867.100;    0.000;    0.000
355.465; 1868.100;    0.000;    0.000
355.520; 1895.100;    0.000;    0.000
355.575; 1837.100;    0.000;    0.000
355.630; 1792.100;    0.000;    0.000
355.684; 1791.100;    0.000;    0.000
355.739; 1841.100;    0.000;    0.000
355.794; 1781.100;    0.000;    0.000
355.849; 1874.100;    0.000;    0.000
355.904; 1877.100;    0.000;    0.000
355.958; 1819.100;    0.000;    0.000
356.013; 1832.100;    0.000;    0.000
356.068; 1842.100;    0.000;    0.000
356.123; 1840.100;    0.000;    0.000
356.177; 1946.100;    0.000;    0.000
356.232; 1867.100;    0.000;    0.000
356.287; 1879.100;    0.000;    0.000
356.341; 1902.100;    0.000;    0.000
356.396; 1849.100;    0.000;    0.000
356.451; 1848.100;    0.000;    0.000
356.505; 1825.100;    0.000;    0.000
356.560; 1885.100;    0.000;    0.000
356.615; 1918.100;    0.000;    0.000
356.669; 1866.100;    0.000;    0.000
356.724; 1863.100;    0.000;    0.000
356.778; 1836.100;    0.000;    0.000
356.833; 1846.100;    0.000;    0.000
356.888; 1886.100;    0.000;    0.000
356.942; 1882.100;    0.000;    0.000
356.997; 1863.100;    0.000;    0.000
357.051; 1847.100;    0.000;    0.000
357.106; 1870.100;    0.000;    0.000
357.160; 1776.100;    0.000;    0.000
357.215; 1800.100;    0.000;    0.000
357.269; 1829.100;    0.000;    0.000
357.324; 1849.100;    0.000;    0.000
357.378; 1832.100;    0.000;    0.000
357.433; 1807.100;    0.000;    0.000
357.487; 1817.100;    0.000;    0.000
357.542; 1862.100;    0.000;    0.000
357.596; 1788.100;    0.000;    0.000
357.651; 1853.100;    0.000;    0.000
357.705; 1837.100;    0.000;    0.000
357.760; 1842.100;    0.000;    0.000
357.814; 1832.100;    0.000;    0.000
357.868; 1801.100;    0.000;    0.000
357.923; 1880.100;    0.000;    0.000
357.977; 1800.100;    0.000;    0.000
358.032; 1850.100;    0.000;    0.000
358.086; 1855.100;    0.000;    0.000
358.140; 1824.100;    0.000;    0.000
358.195; 1899.100;    0.000;    0.000
358.249; 1823.100;    0.000;    0.000
358.303; 1854.100;    0.000;    0.000
358.358; 1793.100;    0.000;    0.000
358.412; 1745.100;    0.000;    0.000
358.466; 1737.100;    0.000;    0.000
358.521; 1763.100;    0.000;    0.000
358.575; 1858.100;    0.000;    0.000
358.629; 1780.100;    0.000;    0.000
358.683; 1814.100;    0.000;    0.000
358.738; 1764.100;    0.000;    0.000
358.792; 1761.100;    0.000;    0.000
358.846; 1734.100;    0.000;    0.000
358.900; 1813.100;    0.000;    0.000
358.954; 1728.100;    0.000;    0.000
359.009; 1791.100;    0.000;    0.000
359.063; 1782.100;    0.000;    0.000
359.117; 1796.100;    0.000;    0.000
359.171; 1770.100;    0.000;    0.000
359.225; 1761.100;    0.000;    0.000
359.280; 1845.100;    0.000;    0.000
359.334; 1790.100;    0.000;    0.000
359.388; 1767.100;    0.000;    0.000
359.442; 1774.100;    0.000;    0.000
359.496; 1756.100;    0.000;    0.000
359.550; 1772.100;    0.000;    0.000
359.604; 1744.100;    0.000;    0.000
359.658; 1805.100;    0.000;    0.000
359.712; 1800.100;    0.000;    0.000
359.766; 1789.100;    0.000;    0.000
359.820; 1779.100;    0.000;    0.000
359.875; 1775.100;    0.000;    0.000
359.929; 1768.100;    0.000;    0.000
359.983; 1739.100;    0.000;    0.000
360.037; 1738.100;    0.000;    0.000
360.091; 1739.100;    0.000;    0.000
360.145; 1747.100;    0.000;    0.000
360.199; 1751.100;    0.000;    0.000
360.253; 1753.100;    0.000;    0.000
360.306; 1742.100;    0.000;    0.000
360.360; 1739.100;    0.000;    0.000
360.414; 1673.100;    0.000;    0.000
360.468; 1731.100;    0.000;    0.000
360.522; 1750.100;    0.000;    0.000
360.576; 1788.100;    0.000;    0.000
360.630; 1753.100;    0.000;    0.000
360.684; 1724.100;    0.000;    0.000
360.738; 1753.100;    0.000;    0.000
360.792; 1672.100;    0.000;    0.000
360.846; 1767.100;    0.000;    0.000
360.899; 1738.100;    0.000;    0.000
360.953; 1763.100;    0.000;    0.000
361.007; 1724.100;    0.000;    0.000
361.061; 1881.100;    0.000;    0.000
361.115; 1739.100;    0.000;    0.000
361.168; 1750.100;    0.000;    0.000
361.222; 1719.100;    0.000;    0.000
361.276; 1733.100;    0.000;    0.000
361.330; 1698.100;    0.000;    0.000
361.384; 1715.100;    0.000;    0.000
361.437; 1728.100;    0.000;    0.000
361.491; 1735.100;    0.000;    0.000
361.545; 1762.100;    0.000;    0.000
361.599; 1734.100;    0.000;    0.000
361.652; 1691.100;    0.000;    0.000
361.706; 1783.100;    0.000;    0.000
361.760; 1819.100;    0.000;    0.000
361.813; 1768.100;    0.000;    0.000
361.867; 1792.100;    0.000;    0.000
361.921; 1731.100;    0.000;    0.000
361.974; 1735.100;    0.000;    0.000
362.028; 1689.100;    0.000;    0.000
362.082; 1725.100;    0.000;    0.000
362.135; 1705.100;    0.000;    0.000
362.189; 1673.100;    0.000;    0.000
362.242; 1649.100;    0.000;    0.000
362.296; 1682.100;    0.000;    0.000
362.350; 1728.100;    0.000;    0.000
362.403; 1716.100;    0.000;    0.000
362.457; 1608.100;    0.000;    0.000
362.510; 1698.100;    0.000;    0.000
362.564; 1638.100;    0.000;    0.000
362.617; 1655.100;    0.000;    0.000
362.671; 1679.100;    0.000;    0.000
362.724; 1607.100;    0.000;    0.000
362.778; 1700.100;    0.000;    0.000
362.831; 1714.100;    0.000;    0.000
362.885; 1719.100;    0.000;    0.000
362.938; 1555.100;    0.000;    0.000
362.992;  369.100;    0.000;    0.000
363.045;  277.100;    0.000;    0.000
363.099;  298.100;    0.000;    0.000
363.152;  317.100;    0.000;    0.000
363.205;  295.100;    0.000;    0.000
363.259;  284.100;    0.000;    0.000
363.312;  312.100;    0.000;    0.000
363.366;  326.100;    0.000;    0.000
363.419;  290.100;    0.000;    0.000
363.472;  297.100;    0.000;    0.000
363.526;  323.100;    0.000;    0.000
363.579;  279.100;    0.000;    0.000
363.632;  288.100;    0.000;    0.000
363.686;  284.100;    0.000;    0.000
363.739;  276.100;    0.000;    0.000
363.792;  293.100;    0.000;    0.000

