
Integration time [ms]:   1.000
Averaging Nr. [scans]: 1
Smoothing Nr. [pixels]: 0
Data measured with spectrometer [name]: UV1
Wave   ;Sample   ;Dark     ;Reference
[nm]   ;[counts] ;[counts] ;[counts] 

236.381;  164.650;    0.000;    0.000
236.451;  210.650;    0.000;    0.000
236.520;  183.650;    0.000;    0.000
236.590;  189.650;    0.000;    0.000
236.660;  167.650;    0.000;    0.000
236.730;  195.650;    0.000;    0.000
236.799;  208.650;    0.000;    0.000
236.869;  167.650;    0.000;    0.000
236.939;  160.650;    0.000;    0.000
237.009;  183.650;    0.000;    0.000
237.078;  207.650;    0.000;    0.000
237.148;  153.650;    0.000;    0.000
237.218;  157.650;    0.000;    0.000
237.287;  163.650;    0.000;    0.000
237.357;  203.650;    0.000;    0.000
237.427;  207.650;    0.000;    0.000
237.496;  338.650;    0.000;    0.000
237.566;  348.650;    0.000;    0.000
237.636;  355.650;    0.000;    0.000
237.705;  369.650;    0.000;    0.000
237.775;  319.650;    0.000;    0.000
237.845;  360.650;    0.000;    0.000
237.914;  289.650;    0.000;    0.000
237.984;  347.650;    0.000;    0.000
238.054;  298.650;    0.000;    0.000
238.123;  335.650;    0.000;    0.000
238.193;  343.650;    0.000;    0.000
238.263;  346.650;    0.000;    0.000
238.332;  335.650;    0.000;    0.000
238.402;  338.650;    0.000;    0.000
238.471;  377.650;    0.000;    0.000
238.541;  357.650;    0.000;    0.000
238.611;  310.650;    0.000;    0.000
238.680;  303.650;    0.000;    0.000
238.750;  288.650;    0.000;    0.000
238.819;  354.650;    0.000;    0.000
238.889;  316.650;    0.000;    0.000
238.958;  380.650;    0.000;    0.000
239.028;  359.650;    0.000;    0.000
239.097;  353.650;    0.000;    0.000
239.167;  358.650;    0.000;    0.000
239.237;  345.650;    0.000;    0.000
239.306;  345.650;    0.000;    0.000
239.376;  309.650;    0.000;    0.000
239.445;  314.650;    0.000;    0.000
239.515;  366.650;    0.000;    0.000
239.584;  340.650;    0.000;    0.000
239.654;  348.650;    0.000;    0.000
239.723;  354.650;    0.000;    0.000
239.793;  342.650;    0.000;    0.000
239.862;  338.650;    0.000;    0.000
239.932;  335.650;    0.000;    0.000
240.001;  337.650;    0.000;    0.000
240.070;  336.650;    0.000;    0.000
240.140;  326.650;    0.000;    0.000
240.209;  280.650;    0.000;    0.000
240.279;  299.650;    0.000;    0.000
240.348;  346.650;    0.000;    0.000
240.418;  269.650;    0.000;    0.000
240.487;  290.650;    0.000;    0.000
240.556;  299.650;    0.000;    0.000
240.626;  367.650;    0.000;    0.000
240.695;  288.650;    0.000;    0.000
240.765;  368.650;    0.000;    0.000
240.834;  282.650;    0.000;    0.000
240.903;  325.650;    0.000;    0.000
240.973;  353.650;    0.000;    0.000
241.042;  325.650;    0.000;    0.000
241.112;  327.650;    0.000;    0.000
241.181;  304.650;    0.000;    0.000
241.250;  302.650;    0.000;    0.000
241.320;  328.650;    0.000;    0.000
241.389;  304.650;    0.000;    0.000
241.458;  347.650;    0.000;    0.000
241.528;  301.650;    0.000;    0.000
241.597;  332.650;    0.000;    0.000
241.666;  295.650;    0.000;    0.000
241.736;  363.650;    0.000;    0.000
241.805;  321.650;    0.000;    0.000
241.874;  342.650;    0.000;    0.000
241.943;  339.650;    0.000;    0.000
242.013;  355.650;    0.000;    0.000
242.082;  271.650;    0.000;    0.000
242.151;  328.650;    0.000;    0.000
242.221;  308.650;    0.000;    0.000
242.290;  325.650;    0.000;    0.000
242.359;  307.650;    0.000;    0.000
242.428;  363.650;    0.000;    0.000
242.498;  315.650;    0.000;    0.000
242.567;  353.650;    0.000;    0.000
242.636;  328.650;    0.000;    0.000
242.705;  319.650;    0.000;    0.000
242.774;  317.650;    0.000;    0.000
242.844;  329.650;    0.000;    0.000
242.913;  314.650;    0.000;    0.000
242.982;  303.650;    0.000;    0.000
243.051;  327.650;    0.000;    0.000
243.120;  350.650;    0.000;    0.000
243.190;  342.650;    0.000;    0.000
243.259;  308.650;    0.000;    0.000
243.328;  311.650;    0.000;    0.000
243.397;  327.650;    0.000;    0.000
243.466;  326.650;    0.000;    0.000
243.535;  320.650;    0.000;    0.000
243.605;  283.650;    0.000;    0.000
243.674;  353.650;    0.000;    0.000
243.743;  329.650;    0.000;    0.000
243.812;  328.650;    0.000;    0.000
243.881;  293.650;    0.000;    0.000
243.950;  297.650;    0.000;    0.000
244.019;  324.650;    0.000;    0.000
244.088;  328.650;    0.000;    0.000
244.158;  341.650;    0.000;    0.000
244.227;  270.650;    0.000;    0.000
244.296;  338.650;    0.000;    0.000
244.365;  343.650;    0.000;    0.000
244.434;  319.650;    0.000;    0.000
244.503;  332.650;    0.000;    0.000
244.572;  288.650;    0.000;    0.000
244.641;  294.650;    0.000;    0.000
244.710;  339.650;    0.000;    0.000
244.779;  297.650;    0.000;    0.000
244.848;  275.650;    0.000;    0.000
244.917;  335.650;    0.000;    0.000
244.986;  324.650;    0.000;    0.000
245.055;  337.650;    0.000;    0.000
245.124;  318.650;    0.000;    0.000
245.193;  353.650;    0.000;    0.000
245.262;  307.650;    0.000;    0.000
245.331;  349.650;    0.000;    0.000
245.400;  286.650;    0.000;    0.000
245.469;  286.650;    0.000;    0.000
245.538;  306.650;    0.000;    0.000
245.607;  351.650;    0.000;    0.000
245.676;  330.650;    0.000;    0.000
245.745;  332.650;    0.000;    0.000
245.814;  320.650;    0.000;    0.000
245.883;  360.650;    0.000;    0.000
245.952;  339.650;    0.000;    0.000
246.021;  324.650;    0.000;    0.000
246.090;  337.650;    0.000;    0.000
246.159;  315.650;    0.000;    0.000
246.227;  293.650;    0.000;    0.000
246.296;  343.650;    0.000;    0.000
246.365;  327.650;    0.000;    0.000
246.434;  334.650;    0.000;    0.000
246.503;  311.650;    0.000;    0.000
246.572;  328.650;    0.000;    0.000
246.641;  347.650;    0.000;    0.000
246.710;  351.650;    0.000;    0.000
246.779;  356.650;    0.000;    0.000
246.847;  317.650;    0.000;    0.000
246.916;  313.650;    0.000;    0.000
246.985;  327.650;    0.000;    0.000
247.054;  273.650;    0.000;    0.000
247.123;  323.650;    0.000;    0.000
247.192;  334.650;    0.000;    0.000
247.260;  344.650;    0.000;    0.000
247.329;  317.650;    0.000;    0.000
247.398;  344.650;    0.000;    0.000
247.467;  317.650;    0.000;    0.000
247.536;  338.650;    0.000;    0.000
247.604;  327.650;    0.000;    0.000
247.673;  318.650;    0.000;    0.000
247.742;  299.650;    0.000;    0.000
247.811;  332.650;    0.000;    0.000
247.879;  354.650;    0.000;    0.000
247.948;  325.650;    0.000;    0.000
248.017;  314.650;    0.000;    0.000
248.086;  389.650;    0.000;    0.000
248.154;  367.650;    0.000;    0.000
248.223;  334.650;    0.000;    0.000
248.292;  326.650;    0.000;    0.000
248.361;  332.650;    0.000;    0.000
248.429;  344.650;    0.000;    0.000
248.498;  301.650;    0.000;    0.000
248.567;  334.650;    0.000;    0.000
248.635;  356.650;    0.000;    0.000
248.704;  335.650;    0.000;    0.000
248.773;  291.650;    0.000;    0.000
248.841;  328.650;    0.000;    0.000
248.910;  360.650;    0.000;    0.000
248.979;  327.650;    0.000;    0.000
249.047;  321.650;    0.000;    0.000
249.116;  353.650;    0.000;    0.000
249.185;  361.650;    0.000;    0.000
249.253;  327.650;    0.000;    0.000
249.322;  353.650;    0.000;    0.000
249.390;  334.650;    0.000;    0.000
249.459;  356.650;    0.000;    0.000
249.528;  336.650;    0.000;    0.000
249.596;  317.650;    0.000;    0.000
249.665;  324.650;    0.000;    0.000
249.733;  306.650;    0.000;    0.000
249.802;  265.650;    0.000;    0.000
249.871;  301.650;    0.000;    0.000
249.939;  256.650;    0.000;    0.000
250.008;  385.650;    0.000;    0.000
250.076;  328.650;    0.000;    0.000
250.145;  330.650;    0.000;    0.000
250.213;  280.650;    0.000;    0.000
250.282;  307.650;    0.000;    0.000
250.350;  326.650;    0.000;    0.000
250.419;  317.650;    0.000;    0.000
250.487;  314.650;    0.000;    0.000
250.556;  303.650;    0.000;    0.000
250.624;  347.650;    0.000;    0.000
250.693;  304.650;    0.000;    0.000
250.761;  284.650;    0.000;    0.000
250.830;  314.650;    0.000;    0.000
250.898;  281.650;    0.000;    0.000
250.967;  289.650;    0.000;    0.000
251.035;  279.650;    0.000;    0.000
251.104;  257.650;    0.000;    0.000
251.172;  242.650;    0.000;    0.000
251.241;  304.650;    0.000;    0.000
251.309;  318.650;    0.000;    0.000
251.378;  299.650;    0.000;    0.000
251.446;  256.650;    0.000;    0.000
251.514;  298.650;    0.000;    0.000
251.583;  271.650;    0.000;    0.000
251.651;  272.650;    0.000;    0.000
251.720;  299.650;    0.000;    0.000
251.788;  337.650;    0.000;    0.000
251.856;  258.650;    0.000;    0.000
251.925;  287.650;    0.000;    0.000
251.993;  279.650;    0.000;    0.000
252.062;  287.650;    0.000;    0.000
252.130;  292.650;    0.000;    0.000
252.198;  292.650;    0.000;    0.000
252.267;  289.650;    0.000;    0.000
252.335;  259.650;    0.000;    0.000
252.403;  259.650;    0.000;    0.000
252.472;  255.650;    0.000;    0.000
252.540;  275.650;    0.000;    0.000
252.608;  274.650;    0.000;    0.000
252.677;  261.650;    0.000;    0.000
252.745;  313.650;    0.000;    0.000
252.813;  265.650;    0.000;    0.000
252.881;  227.650;    0.000;    0.000
252.950;  282.650;    0.000;    0.000
253.018;  238.650;    0.000;    0.000
253.086;  254.650;    0.000;    0.000
253.155;  266.650;    0.000;    0.000
253.223;  235.650;    0.000;    0.000
253.291;  276.650;    0.000;    0.000
253.359;  324.650;    0.000;    0.000
253.428;  278.650;    0.000;    0.000
253.496;  244.650;    0.000;    0.000
253.564;  279.650;    0.000;    0.000
253.632;  241.650;    0.000;    0.000
253.700;  281.650;    0.000;    0.000
253.769;  244.650;    0.000;    0.000
253.837;  285.650;    0.000;    0.000
253.905;  249.650;    0.000;    0.000
253.973;  276.650;    0.000;    0.000
254.041;  238.650;    0.000;    0.000
254.110;  235.650;    0.000;    0.000
254.178;  272.650;    0.000;    0.000
254.246;  284.650;    0.000;    0.000
254.314;  229.650;    0.000;    0.000
254.382;  228.650;    0.000;    0.000
254.450;  253.650;    0.000;    0.000
254.518;  253.650;    0.000;    0.000
254.587;  263.650;    0.000;    0.000
254.655;  278.650;    0.000;    0.000
254.723;  239.650;    0.000;    0.000
254.791;  244.650;    0.000;    0.000
254.859;  272.650;    0.000;    0.000
254.927;  315.650;    0.000;    0.000
254.995;  218.650;    0.000;    0.000
255.063;  241.650;    0.000;    0.000
255.131;  253.650;    0.000;    0.000
255.199;  243.650;    0.000;    0.000
255.267;  217.650;    0.000;    0.000
255.336;  278.650;    0.000;    0.000
255.404;  246.650;    0.000;    0.000
255.472;  278.650;    0.000;    0.000
255.540;  281.650;    0.000;    0.000
255.608;  288.650;    0.000;    0.000
255.676;  258.650;    0.000;    0.000
255.744;  268.650;    0.000;    0.000
255.812;  236.650;    0.000;    0.000
255.880;  322.650;    0.000;    0.000
255.948;  279.650;    0.000;    0.000
256.016;  274.650;    0.000;    0.000
256.084;  281.650;    0.000;    0.000
256.152;  245.650;    0.000;    0.000
256.220;  252.650;    0.000;    0.000
256.288;  249.650;    0.000;    0.000
256.356;  244.650;    0.000;    0.000
256.424;  230.650;    0.000;    0.000
256.491;  212.650;    0.000;    0.000
256.559;  239.650;    0.000;    0.000
256.627;  240.650;    0.000;    0.000
256.695;  219.650;    0.000;    0.000
256.763;  254.650;    0.000;    0.000
256.831;  237.650;    0.000;    0.000
256.899;  291.650;    0.000;    0.000
256.967;  241.650;    0.000;    0.000
257.035;  277.650;    0.000;    0.000
257.103;  288.650;    0.000;    0.000
257.171;  218.650;    0.000;    0.000
257.238;  263.650;    0.000;    0.000
257.306;  230.650;    0.000;    0.000
257.374;  258.650;    0.000;    0.000
257.442;  257.650;    0.000;    0.000
257.510;  264.650;    0.000;    0.000
257.578;  261.650;    0.000;    0.000
257.646;  268.650;    0.000;    0.000
257.713;  204.650;    0.000;    0.000
257.781;  262.650;    0.000;    0.000
257.849;  307.650;    0.000;    0.000
257.917;  268.650;    0.000;    0.000
257.985;  239.650;    0.000;    0.000
258.052;  261.650;    0.000;    0.000
258.120;  256.650;    0.000;    0.000
258.188;  293.650;    0.000;    0.000
258.256;  243.650;    0.000;    0.000
258.324;  271.650;    0.000;    0.000
258.391;  242.650;    0.000;    0.000
258.459;  269.650;    0.000;    0.000
258.527;  270.650;    0.000;    0.000
258.595;  257.650;    0.000;    0.000
258.662;  233.650;    0.000;    0.000
258.730;  248.650;    0.000;    0.000
258.798;  280.650;    0.000;    0.000
258.865;  286.650;    0.000;    0.000
258.933;  296.650;    0.000;    0.000
259.001;  288.650;    0.000;    0.000
259.069;  269.650;    0.000;    0.000
259.136;  287.650;    0.000;    0.000
259.204;  318.650;    0.000;    0.000
259.272;  289.650;    0.000;    0.000
259.339;  277.650;    0.000;    0.000
259.407;  282.650;    0.000;    0.000
259.475;  259.650;    0.000;    0.000
259.542;  280.650;    0.000;    0.000
259.610;  286.650;    0.000;    0.000
259.677;  288.650;    0.000;    0.000
259.745;  264.650;    0.000;    0.000
259.813;  281.650;    0.000;    0.000
259.880;  309.650;    0.000;    0.000
259.948;  332.650;    0.000;    0.000
260.016;  275.650;    0.000;    0.000
260.083;  313.650;    0.000;    0.000
260.151;  254.650;    0.000;    0.000
260.218;  308.650;    0.000;    0.000
260.286;  295.650;    0.000;    0.000
260.353;  329.650;    0.000;    0.000
260.421;  278.650;    0.000;    0.000
260.489;  322.650;    0.000;    0.000
260.556;  269.650;    0.000;    0.000
260.624;  301.650;    0.000;    0.000
260.691;  312.650;    0.000;    0.000
260.759;  314.650;    0.000;    0.000
260.826;  296.650;    0.000;    0.000
260.894;  326.650;    0.000;    0.000
260.961;  332.650;    0.000;    0.000
261.029;  335.650;    0.000;    0.000
261.096;  386.650;    0.000;    0.000
261.164;  405.650;    0.000;    0.000
261.231;  330.650;    0.000;    0.000
261.299;  337.650;    0.000;    0.000
261.366;  323.650;    0.000;    0.000
261.434;  330.650;    0.000;    0.000
261.501;  308.650;    0.000;    0.000
261.568;  334.650;    0.000;    0.000
261.636;  356.650;    0.000;    0.000
261.703;  381.650;    0.000;    0.000
261.771;  372.650;    0.000;    0.000
261.838;  373.650;    0.000;    0.000
261.906;  324.650;    0.000;    0.000
261.973;  367.650;    0.000;    0.000
262.040;  398.650;    0.000;    0.000
262.108;  341.650;    0.000;    0.000
262.175;  348.650;    0.000;    0.000
262.243;  385.650;    0.000;    0.000
262.310;  367.650;    0.000;    0.000
262.377;  364.650;    0.000;    0.000
262.445;  416.650;    0.000;    0.000
262.512;  381.650;    0.000;    0.000
262.579;  402.650;    0.000;    0.000
262.647;  395.650;    0.000;    0.000
262.714;  447.650;    0.000;    0.000
262.781;  377.650;    0.000;    0.000
262.849;  360.650;    0.000;    0.000
262.916;  390.650;    0.000;    0.000
262.983;  419.650;    0.000;    0.000
263.051;  379.650;    0.000;    0.000
263.118;  400.650;    0.000;    0.000
263.185;  403.650;    0.000;    0.000
263.252;  420.650;    0.000;    0.000
263.320;  379.650;    0.000;    0.000
263.387;  415.650;    0.000;    0.000
263.454;  445.650;    0.000;    0.000
263.522;  349.650;    0.000;    0.000
263.589;  411.650;    0.000;    0.000
263.656;  357.650;    0.000;    0.000
263.723;  381.650;    0.000;    0.000
263.790;  364.650;    0.000;    0.000
263.858;  410.650;    0.000;    0.000
263.925;  419.650;    0.000;    0.000
263.992;  400.650;    0.000;    0.000
264.059;  444.650;    0.000;    0.000
264.126;  433.650;    0.000;    0.000
264.194;  416.650;    0.000;    0.000
264.261;  429.650;    0.000;    0.000
264.328;  433.650;    0.000;    0.000
264.395;  427.650;    0.000;    0.000
264.462;  500.650;    0.000;    0.000
264.529;  417.650;    0.000;    0.000
264.597;  452.650;    0.000;    0.000
264.664;  454.650;    0.000;    0.000
264.731;  421.650;    0.000;    0.000
264.798;  381.650;    0.000;    0.000
264.865;  362.650;    0.000;    0.000
264.932;  423.650;    0.000;    0.000
264.999;  440.650;    0.000;    0.000
265.066;  438.650;    0.000;    0.000
265.133;  490.650;    0.000;    0.000
265.201;  486.650;    0.000;    0.000
265.268;  425.650;    0.000;    0.000
265.335;  449.650;    0.000;    0.000
265.402;  464.650;    0.000;    0.000
265.469;  454.650;    0.000;    0.000
265.536;  448.650;    0.000;    0.000
265.603;  484.650;    0.000;    0.000
265.670;  470.650;    0.000;    0.000
265.737;  467.650;    0.000;    0.000
265.804;  502.650;    0.000;    0.000
265.871;  497.650;    0.000;    0.000
265.938;  467.650;    0.000;    0.000
266.005;  478.650;    0.000;    0.000
266.072;  493.650;    0.000;    0.000
266.139;  508.650;    0.000;    0.000
266.206;  438.650;    0.000;    0.000
266.273;  487.650;    0.000;    0.000
266.340;  450.650;    0.000;    0.000
266.407;  516.650;    0.000;    0.000
266.474;  467.650;    0.000;    0.000
266.541;  498.650;    0.000;    0.000
266.608;  499.650;    0.000;    0.000
266.675;  532.650;    0.000;    0.000
266.742;  553.650;    0.000;    0.000
266.808;  521.650;    0.000;    0.000
266.875;  544.650;    0.000;    0.000
266.942;  561.650;    0.000;    0.000
267.009;  523.650;    0.000;    0.000
267.076;  514.650;    0.000;    0.000
267.143;  534.650;    0.000;    0.000
267.210;  541.650;    0.000;    0.000
267.277;  504.650;    0.000;    0.000
267.344;  517.650;    0.000;    0.000
267.410;  538.650;    0.000;    0.000
267.477;  582.650;    0.000;    0.000
267.544;  510.650;    0.000;    0.000
267.611;  505.650;    0.000;    0.000
267.678;  514.650;    0.000;    0.000
267.745;  544.650;    0.000;    0.000
267.811;  496.650;    0.000;    0.000
267.878;  556.650;    0.000;    0.000
267.945;  506.650;    0.000;    0.000
268.012;  538.650;    0.000;    0.000
268.079;  525.650;    0.000;    0.000
268.145;  549.650;    0.000;    0.000
268.212;  521.650;    0.000;    0.000
268.279;  492.650;    0.000;    0.000
268.346;  526.650;    0.000;    0.000
268.412;  470.650;    0.000;    0.000
268.479;  552.650;    0.000;    0.000
268.546;  528.650;    0.000;    0.000
268.613;  537.650;    0.000;    0.000
268.679;  552.650;    0.000;    0.000
268.746;  620.650;    0.000;    0.000
268.813;  569.650;    0.000;    0.000
268.879;  537.650;    0.000;    0.000
268.946;  568.650;    0.000;    0.000
269.013;  585.650;    0.000;    0.000
269.079;  529.650;    0.000;    0.000
269.146;  474.650;    0.000;    0.000
269.213;  552.650;    0.000;    0.000
269.280;  535.650;    0.000;    0.000
269.346;  516.650;    0.000;    0.000
269.413;  536.650;    0.000;    0.000
269.479;  528.650;    0.000;    0.000
269.546;  571.650;    0.000;    0.000
269.613;  537.650;    0.000;    0.000
269.679;  557.650;    0.000;    0.000
269.746;  507.650;    0.000;    0.000
269.813;  493.650;    0.000;    0.000
269.879;  561.650;    0.000;    0.000
269.946;  538.650;    0.000;    0.000
270.012;  520.650;    0.000;    0.000
270.079;  485.650;    0.000;    0.000
270.145;  506.650;    0.000;    0.000
270.212;  554.650;    0.000;    0.000
270.279;  522.650;    0.000;    0.000
270.345;  507.650;    0.000;    0.000
270.412;  498.650;    0.000;    0.000
270.478;  506.650;    0.000;    0.000
270.545;  546.650;    0.000;    0.000
270.611;  508.650;    0.000;    0.000
270.678;  487.650;    0.000;    0.000
270.744;  484.650;    0.000;    0.000
270.811;  512.650;    0.000;    0.000
270.877;  498.650;    0.000;    0.000
270.944;  481.650;    0.000;    0.000
271.010;  549.650;    0.000;    0.000
271.077;  515.650;    0.000;    0.000
271.143;  515.650;    0.000;    0.000
271.210;  566.650;    0.000;    0.000
271.276;  554.650;    0.000;    0.000
271.342;  490.650;    0.000;    0.000
271.409;  575.650;    0.000;    0.000
271.475;  471.650;    0.000;    0.000
271.542;  518.650;    0.000;    0.000
271.608;  534.650;    0.000;    0.000
271.675;  492.650;    0.000;    0.000
271.741;  549.650;    0.000;    0.000
271.807;  499.650;    0.000;    0.000
271.874;  514.650;    0.000;    0.000
271.940;  558.650;    0.000;    0.000
272.007;  507.650;    0.000;    0.000
272.073;  492.650;    0.000;    0.000
272.139;  511.650;    0.000;    0.000
272.206;  504.650;    0.000;    0.000
272.272;  534.650;    0.000;    0.000
272.338;  575.650;    0.000;    0.000
272.405;  547.650;    0.000;    0.000
272.471;  539.650;    0.000;    0.000
272.537;  523.650;    0.000;    0.000
272.604;  520.650;    0.000;    0.000
272.670;  533.650;    0.000;    0.000
272.736;  551.650;    0.000;    0.000
272.802;  523.650;    0.000;    0.000
272.869;  519.650;    0.000;    0.000
272.935;  507.650;    0.000;    0.000
273.001;  518.650;    0.000;    0.000
273.068;  523.650;    0.000;    0.000
273.134;  537.650;    0.000;    0.000
273.200;  537.650;    0.000;    0.000
273.266;  555.650;    0.000;    0.000
273.333;  576.650;    0.000;    0.000
273.399;  521.650;    0.000;    0.000
273.465;  518.650;    0.000;    0.000
273.531;  472.650;    0.000;    0.000
273.597;  543.650;    0.000;    0.000
273.664;  613.650;    0.000;    0.000
273.730;  532.650;    0.000;    0.000
273.796;  514.650;    0.000;    0.000
273.862;  577.650;    0.000;    0.000
273.928;  559.650;    0.000;    0.000
273.995;  530.650;    0.000;    0.000
274.061;  533.650;    0.000;    0.000
274.127;  516.650;    0.000;    0.000
274.193;  518.650;    0.000;    0.000
274.259;  541.650;    0.000;    0.000
274.325;  548.650;    0.000;    0.000
274.391;  482.650;    0.000;    0.000
274.457;  567.650;    0.000;    0.000
274.524;  586.650;    0.000;    0.000
274.590;  584.650;    0.000;    0.000
274.656;  553.650;    0.000;    0.000
274.722;  590.650;    0.000;    0.000
274.788;  543.650;    0.000;    0.000
274.854;  642.650;    0.000;    0.000
274.920;  539.650;    0.000;    0.000
274.986;  590.650;    0.000;    0.000
275.052;  588.650;    0.000;    0.000
275.118;  537.650;    0.000;    0.000
275.184;  570.650;    0.000;    0.000
275.250;  575.650;    0.000;    0.000
275.316;  534.650;    0.000;    0.000
275.382;  601.650;    0.000;    0.000
275.448;  562.650;    0.000;    0.000
275.514;  594.650;    0.000;    0.000
275.580;  561.650;    0.000;    0.000
275.646;  574.650;    0.000;    0.000
275.712;  610.650;    0.000;    0.000
275.778;  574.650;    0.000;    0.000
275.844;  558.650;    0.000;    0.000
275.910;  584.650;    0.000;    0.000
275.976;  616.650;    0.000;    0.000
276.042;  604.650;    0.000;    0.000
276.108;  644.650;    0.000;    0.000
276.174;  610.650;    0.000;    0.000
276.240;  601.650;    0.000;    0.000
276.306;  577.650;    0.000;    0.000
276.372;  583.650;    0.000;    0.000
276.437;  623.650;    0.000;    0.000
276.503;  588.650;    0.000;    0.000
276.569;  624.650;    0.000;    0.000
276.635;  586.650;    0.000;    0.000
276.701;  681.650;    0.000;    0.000
276.767;  677.650;    0.000;    0.000
276.833;  637.650;    0.000;    0.000
276.899;  619.650;    0.000;    0.000
276.964;  710.650;    0.000;    0.000
277.030;  714.650;    0.000;    0.000
277.096;  666.650;    0.000;    0.000
277.162;  726.650;    0.000;    0.000
277.228;  705.650;    0.000;    0.000
277.293;  786.650;    0.000;    0.000
277.359;  788.650;    0.000;    0.000
277.425;  796.650;    0.000;    0.000
277.491;  832.650;    0.000;    0.000
277.557;  894.650;    0.000;    0.000
277.622; 1192.650;    0.000;    0.000
277.688; 1355.650;    0.000;    0.000
277.754; 1239.650;    0.000;    0.000
277.820; 1287.650;    0.000;    0.000
277.885; 1440.650;    0.000;    0.000
277.951; 1983.650;    0.000;    0.000
278.017; 1861.650;    0.000;    0.000
278.083; 1443.650;    0.000;    0.000
278.148; 1427.650;    0.000;    0.000
278.214; 1363.650;    0.000;    0.000
278.280; 1473.650;    0.000;    0.000
278.345; 1504.650;    0.000;    0.000
278.411; 1265.650;    0.000;    0.000
278.477; 1313.650;    0.000;    0.000
278.542; 1275.650;    0.000;    0.000
278.608; 1382.650;    0.000;    0.000
278.674; 1601.650;    0.000;    0.000
278.739; 1658.650;    0.000;    0.000
278.805; 1836.650;    0.000;    0.000
278.871; 2079.650;    0.000;    0.000
278.936; 2512.650;    0.000;    0.000
279.002; 3612.650;    0.000;    0.000
279.067; 5418.650;    0.000;    0.000
279.133; 5537.650;    0.000;    0.000
279.199; 5051.650;    0.000;    0.000
279.264; 5021.650;    0.000;    0.000
279.330; 5749.650;    0.000;    0.000
279.395; 7390.650;    0.000;    0.000
279.461;10828.650;    0.000;    0.000
279.527;13457.650;    0.000;    0.000
279.592;12878.650;    0.000;    0.000
279.658;10356.650;    0.000;    0.000
279.723; 8828.650;    0.000;    0.000
279.789; 9449.650;    0.000;    0.000
279.854; 8808.650;    0.000;    0.000
279.920; 7194.650;    0.000;    0.000
279.985; 5965.650;    0.000;    0.000
280.051; 5853.650;    0.000;    0.000
280.116; 6818.650;    0.000;    0.000
280.182; 9291.650;    0.000;    0.000
280.247;12080.650;    0.000;    0.000
280.313;11296.650;    0.000;    0.000
280.378; 7720.650;    0.000;    0.000
280.444; 5258.650;    0.000;    0.000
280.509; 3935.650;    0.000;    0.000
280.574; 3243.650;    0.000;    0.000
280.640; 2793.650;    0.000;    0.000
280.705; 2461.650;    0.000;    0.000
280.771; 2214.650;    0.000;    0.000
280.836; 2011.650;    0.000;    0.000
280.902; 1875.650;    0.000;    0.000
280.967; 1726.650;    0.000;    0.000
281.032; 1662.650;    0.000;    0.000
281.098; 1478.650;    0.000;    0.000
281.163; 1479.650;    0.000;    0.000
281.229; 1485.650;    0.000;    0.000
281.294; 1346.650;    0.000;    0.000
281.359; 1352.650;    0.000;    0.000
281.425; 1350.650;    0.000;    0.000
281.490; 1275.650;    0.000;    0.000
281.555; 1182.650;    0.000;    0.000
281.621; 1152.650;    0.000;    0.000
281.686; 1115.650;    0.000;    0.000
281.751; 1152.650;    0.000;    0.000
281.816; 1037.650;    0.000;    0.000
281.882; 1036.650;    0.000;    0.000
281.947; 1009.650;    0.000;    0.000
282.012; 1005.650;    0.000;    0.000
282.078;  985.650;    0.000;    0.000
282.143; 1004.650;    0.000;    0.000
282.208; 1015.650;    0.000;    0.000
282.273;  944.650;    0.000;    0.000
282.339;  900.650;    0.000;    0.000
282.404;  902.650;    0.000;    0.000
282.469;  863.650;    0.000;    0.000
282.534;  915.650;    0.000;    0.000
282.600;  947.650;    0.000;    0.000
282.665;  889.650;    0.000;    0.000
282.730;  842.650;    0.000;    0.000
282.795;  905.650;    0.000;    0.000
282.860;  849.650;    0.000;    0.000
282.926;  911.650;    0.000;    0.000
282.991;  884.650;    0.000;    0.000
283.056;  816.650;    0.000;    0.000
283.121;  842.650;    0.000;    0.000
283.186;  848.650;    0.000;    0.000
283.251;  831.650;    0.000;    0.000
283.316;  881.650;    0.000;    0.000
283.382;  767.650;    0.000;    0.000
283.447;  826.650;    0.000;    0.000
283.512;  759.650;    0.000;    0.000
283.577;  875.650;    0.000;    0.000
283.642;  836.650;    0.000;    0.000
283.707;  763.650;    0.000;    0.000
283.772;  770.650;    0.000;    0.000
283.837;  823.650;    0.000;    0.000
283.902;  821.650;    0.000;    0.000
283.967;  777.650;    0.000;    0.000
284.032;  799.650;    0.000;    0.000
284.097;  852.650;    0.000;    0.000
284.163;  787.650;    0.000;    0.000
284.228;  804.650;    0.000;    0.000
284.293;  786.650;    0.000;    0.000
284.358;  855.650;    0.000;    0.000
284.423;  815.650;    0.000;    0.000
284.488;  859.650;    0.000;    0.000
284.553;  879.650;    0.000;    0.000
284.618;  866.650;    0.000;    0.000
284.683;  901.650;    0.000;    0.000
284.748;  941.650;    0.000;    0.000
284.812;  949.650;    0.000;    0.000
284.877; 1043.650;    0.000;    0.000
284.942; 1204.650;    0.000;    0.000
285.007; 1374.650;    0.000;    0.000
285.072; 1764.650;    0.000;    0.000
285.137; 2826.650;    0.000;    0.000
285.202; 4243.650;    0.000;    0.000
285.267; 4045.650;    0.000;    0.000
285.332; 2732.650;    0.000;    0.000
285.397; 1893.650;    0.000;    0.000
285.462; 1498.650;    0.000;    0.000
285.527; 1319.650;    0.000;    0.000
285.591; 1252.650;    0.000;    0.000
285.656; 1121.650;    0.000;    0.000
285.721; 1052.650;    0.000;    0.000
285.786;  962.650;    0.000;    0.000
285.851;  929.650;    0.000;    0.000
285.916;  919.650;    0.000;    0.000
285.981;  874.650;    0.000;    0.000
286.045;  891.650;    0.000;    0.000
286.110;  868.650;    0.000;    0.000
286.175;  888.650;    0.000;    0.000
286.240;  845.650;    0.000;    0.000
286.305;  864.650;    0.000;    0.000
286.369;  811.650;    0.000;    0.000
286.434;  873.650;    0.000;    0.000
286.499;  821.650;    0.000;    0.000
286.564;  848.650;    0.000;    0.000
286.628;  807.650;    0.000;    0.000
286.693;  831.650;    0.000;    0.000
286.758;  772.650;    0.000;    0.000
286.823;  820.650;    0.000;    0.000
286.887;  765.650;    0.000;    0.000
286.952;  813.650;    0.000;    0.000
287.017;  803.650;    0.000;    0.000
287.082;  845.650;    0.000;    0.000
287.146;  789.650;    0.000;    0.000
287.211;  792.650;    0.000;    0.000
287.276;  814.650;    0.000;    0.000
287.340;  741.650;    0.000;    0.000
287.405;  794.650;    0.000;    0.000
287.470;  848.650;    0.000;    0.000
287.534;  797.650;    0.000;    0.000
287.599;  768.650;    0.000;    0.000
287.663;  844.650;    0.000;    0.000
287.728;  786.650;    0.000;    0.000
287.793;  809.650;    0.000;    0.000
287.857;  806.650;    0.000;    0.000
287.922;  811.650;    0.000;    0.000
287.987;  761.650;    0.000;    0.000
288.051;  816.650;    0.000;    0.000
288.116;  820.650;    0.000;    0.000
288.180;  814.650;    0.000;    0.000
288.245;  769.650;    0.000;    0.000
288.309;  808.650;    0.000;    0.000
288.374;  763.650;    0.000;    0.000
288.439;  801.650;    0.000;    0.000
288.503;  746.650;    0.000;    0.000
288.568;  854.650;    0.000;    0.000
288.632;  829.650;    0.000;    0.000
288.697;  789.650;    0.000;    0.000
288.761;  750.650;    0.000;    0.000
288.826;  780.650;    0.000;    0.000
288.890;  784.650;    0.000;    0.000
288.955;  798.650;    0.000;    0.000
289.019;  836.650;    0.000;    0.000
289.084;  778.650;    0.000;    0.000
289.148;  737.650;    0.000;    0.000
289.212;  811.650;    0.000;    0.000
289.277;  748.650;    0.000;    0.000
289.341;  807.650;    0.000;    0.000
289.406;  786.650;    0.000;    0.000
289.470;  736.650;    0.000;    0.000
289.535;  845.650;    0.000;    0.000
289.599;  797.650;    0.000;    0.000
289.663;  755.650;    0.000;    0.000
289.728;  794.650;    0.000;    0.000
289.792;  731.650;    0.000;    0.000
289.857;  830.650;    0.000;    0.000
289.921;  800.650;    0.000;    0.000
289.985;  803.650;    0.000;    0.000
290.050;  758.650;    0.000;    0.000
290.114;  777.650;    0.000;    0.000
290.178;  818.650;    0.000;    0.000
290.243;  755.650;    0.000;    0.000
290.307;  815.650;    0.000;    0.000
290.371;  774.650;    0.000;    0.000
290.436;  806.650;    0.000;    0.000
290.500;  816.650;    0.000;    0.000
290.564;  833.650;    0.000;    0.000
290.629;  769.650;    0.000;    0.000
290.693;  796.650;    0.000;    0.000
290.757;  800.650;    0.000;    0.000
290.821;  803.650;    0.000;    0.000
290.886;  774.650;    0.000;    0.000
290.950;  868.650;    0.000;    0.000
291.014;  797.650;    0.000;    0.000
291.078;  845.650;    0.000;    0.000
291.143;  857.650;    0.000;    0.000
291.207;  892.650;    0.000;    0.000
291.271;  839.650;    0.000;    0.000
291.335;  820.650;    0.000;    0.000
291.399;  826.650;    0.000;    0.000
291.464;  822.650;    0.000;    0.000
291.528;  959.650;    0.000;    0.000
291.592;  939.650;    0.000;    0.000
291.656;  915.650;    0.000;    0.000
291.720;  888.650;    0.000;    0.000
291.784;  890.650;    0.000;    0.000
291.849;  907.650;    0.000;    0.000
291.913;  817.650;    0.000;    0.000
291.977;  885.650;    0.000;    0.000
292.041;  865.650;    0.000;    0.000
292.105;  922.650;    0.000;    0.000
292.169;  843.650;    0.000;    0.000
292.233;  832.650;    0.000;    0.000
292.297;  940.650;    0.000;    0.000
292.361;  878.650;    0.000;    0.000
292.425;  968.650;    0.000;    0.000
292.490;  933.650;    0.000;    0.000
292.554;  955.650;    0.000;    0.000
292.618;  995.650;    0.000;    0.000
292.682; 1100.650;    0.000;    0.000
292.746; 1183.650;    0.000;    0.000
292.810; 1424.650;    0.000;    0.000
292.874; 1791.650;    0.000;    0.000
292.938; 1969.650;    0.000;    0.000
293.002; 1843.650;    0.000;    0.000
293.066; 1591.650;    0.000;    0.000
293.130; 1393.650;    0.000;    0.000
293.194; 1395.650;    0.000;    0.000
293.258; 1402.650;    0.000;    0.000
293.322; 1303.650;    0.000;    0.000
293.386; 1369.650;    0.000;    0.000
293.450; 1404.650;    0.000;    0.000
293.514; 1513.650;    0.000;    0.000
293.577; 1856.650;    0.000;    0.000
293.641; 2539.650;    0.000;    0.000
293.705; 2876.650;    0.000;    0.000
293.769; 2647.650;    0.000;    0.000
293.833; 2250.650;    0.000;    0.000
293.897; 2043.650;    0.000;    0.000
293.961; 1827.650;    0.000;    0.000
294.025; 1617.650;    0.000;    0.000
294.089; 1595.650;    0.000;    0.000
294.152; 1406.650;    0.000;    0.000
294.216; 1385.650;    0.000;    0.000
294.280; 1265.650;    0.000;    0.000
294.344; 1260.650;    0.000;    0.000
294.408; 1265.650;    0.000;    0.000
294.472; 1158.650;    0.000;    0.000
294.536; 1146.650;    0.000;    0.000
294.599; 1190.650;    0.000;    0.000
294.663; 1131.650;    0.000;    0.000
294.727; 1148.650;    0.000;    0.000
294.791; 1140.650;    0.000;    0.000
294.855; 1080.650;    0.000;    0.000
294.918; 1028.650;    0.000;    0.000
294.982; 1067.650;    0.000;    0.000
295.046; 1073.650;    0.000;    0.000
295.110; 1019.650;    0.000;    0.000
295.173;  985.650;    0.000;    0.000
295.237; 1083.650;    0.000;    0.000
295.301;  949.650;    0.000;    0.000
295.364; 1042.650;    0.000;    0.000
295.428;  957.650;    0.000;    0.000
295.492; 1010.650;    0.000;    0.000
295.556;  983.650;    0.000;    0.000
295.619; 1026.650;    0.000;    0.000
295.683;  924.650;    0.000;    0.000
295.747; 1024.650;    0.000;    0.000
295.810; 1050.650;    0.000;    0.000
295.874; 1021.650;    0.000;    0.000
295.938;  912.650;    0.000;    0.000
296.001; 1001.650;    0.000;    0.000
296.065;  923.650;    0.000;    0.000
296.128;  968.650;    0.000;    0.000
296.192;  996.650;    0.000;    0.000
296.256;  933.650;    0.000;    0.000
296.319;  974.650;    0.000;    0.000
296.383; 1001.650;    0.000;    0.000
296.447; 1011.650;    0.000;    0.000
296.510;  949.650;    0.000;    0.000
296.574;  960.650;    0.000;    0.000
296.637;  928.650;    0.000;    0.000
296.701; 1004.650;    0.000;    0.000
296.764;  933.650;    0.000;    0.000
296.828; 1004.650;    0.000;    0.000
296.891;  945.650;    0.000;    0.000
296.955;  935.650;    0.000;    0.000
297.018;  953.650;    0.000;    0.000
297.082;  904.650;    0.000;    0.000
297.145;  961.650;    0.000;    0.000
297.209;  906.650;    0.000;    0.000
297.272;  923.650;    0.000;    0.000
297.336;  958.650;    0.000;    0.000
297.399;  973.650;    0.000;    0.000
297.463;  944.650;    0.000;    0.000
297.526;  922.650;    0.000;    0.000
297.590;  987.650;    0.000;    0.000
297.653;  936.650;    0.000;    0.000
297.717;  976.650;    0.000;    0.000
297.780;  903.650;    0.000;    0.000
297.843;  980.650;    0.000;    0.000
297.907;  973.650;    0.000;    0.000
297.970;  951.650;    0.000;    0.000
298.034;  921.650;    0.000;    0.000
298.097;  975.650;    0.000;    0.000
298.160;  983.650;    0.000;    0.000
298.224;  910.650;    0.000;    0.000
298.287;  911.650;    0.000;    0.000
298.350;  976.650;    0.000;    0.000
298.414;  927.650;    0.000;    0.000
298.477;  947.650;    0.000;    0.000
298.540;  940.650;    0.000;    0.000
298.604;  973.650;    0.000;    0.000
298.667;  981.650;    0.000;    0.000
298.730;  933.650;    0.000;    0.000
298.794;  937.650;    0.000;    0.000
298.857;  949.650;    0.000;    0.000
298.920;  930.650;    0.000;    0.000
298.984;  988.650;    0.000;    0.000
299.047;  942.650;    0.000;    0.000
299.110;  940.650;    0.000;    0.000
299.173;  962.650;    0.000;    0.000
299.237;  978.650;    0.000;    0.000
299.300;  923.650;    0.000;    0.000
299.363;  930.650;    0.000;    0.000
299.426;  915.650;    0.000;    0.000
299.489;  896.650;    0.000;    0.000
299.553;  934.650;    0.000;    0.000
299.616; 1009.650;    0.000;    0.000
299.679;  910.650;    0.000;    0.000
299.742;  937.650;    0.000;    0.000
299.805;  939.650;    0.000;    0.000
299.868;  830.650;    0.000;    0.000
299.932;  894.650;    0.000;    0.000
299.995;  892.650;    0.000;    0.000
300.058;  952.650;    0.000;    0.000
300.121;  935.650;    0.000;    0.000
300.184;  886.650;    0.000;    0.000
300.247;  918.650;    0.000;    0.000
300.310;  881.650;    0.000;    0.000
300.374;  935.650;    0.000;    0.000
300.437;  893.650;    0.000;    0.000
300.500;  916.650;    0.000;    0.000
300.563;  952.650;    0.000;    0.000
300.626;  930.650;    0.000;    0.000
300.689;  949.650;    0.000;    0.000
300.752;  874.650;    0.000;    0.000
300.815;  951.650;    0.000;    0.000
300.878;  969.650;    0.000;    0.000
300.941;  914.650;    0.000;    0.000
301.004;  888.650;    0.000;    0.000
301.067;  932.650;    0.000;    0.000
301.130;  913.650;    0.000;    0.000
301.193;  876.650;    0.000;    0.000
301.256;  890.650;    0.000;    0.000
301.319;  897.650;    0.000;    0.000
301.382;  977.650;    0.000;    0.000
301.445;  912.650;    0.000;    0.000
301.508;  863.650;    0.000;    0.000
301.571;  916.650;    0.000;    0.000
301.634;  976.650;    0.000;    0.000
301.697;  944.650;    0.000;    0.000
301.760;  923.650;    0.000;    0.000
301.823;  929.650;    0.000;    0.000
301.885;  907.650;    0.000;    0.000
301.948;  929.650;    0.000;    0.000
302.011;  949.650;    0.000;    0.000
302.074;  991.650;    0.000;    0.000
302.137;  904.650;    0.000;    0.000
302.200;  983.650;    0.000;    0.000
302.263;  978.650;    0.000;    0.000
302.326;  974.650;    0.000;    0.000
302.388;  949.650;    0.000;    0.000
302.451;  979.650;    0.000;    0.000
302.514;  941.650;    0.000;    0.000
302.577;  942.650;    0.000;    0.000
302.640;  952.650;    0.000;    0.000
302.703;  934.650;    0.000;    0.000
302.765;  999.650;    0.000;    0.000
302.828;  928.650;    0.000;    0.000
302.891;  956.650;    0.000;    0.000
302.954;  919.650;    0.000;    0.000
303.016;  954.650;    0.000;    0.000
303.079;  965.650;    0.000;    0.000
303.142;  965.650;    0.000;    0.000
303.205;  979.650;    0.000;    0.000
303.267;  977.650;    0.000;    0.000
303.330;  936.650;    0.000;    0.000
303.393;  978.650;    0.000;    0.000
303.456; 1006.650;    0.000;    0.000
303.518;  931.650;    0.000;    0.000
303.581;  960.650;    0.000;    0.000
303.644; 1035.650;    0.000;    0.000
303.706;  984.650;    0.000;    0.000
303.769; 1008.650;    0.000;    0.000
303.832; 1019.650;    0.000;    0.000
303.894; 1025.650;    0.000;    0.000
303.957;  985.650;    0.000;    0.000
304.020; 1009.650;    0.000;    0.000
304.082; 1101.650;    0.000;    0.000
304.145; 1003.650;    0.000;    0.000
304.207;  986.650;    0.000;    0.000
304.270; 1008.650;    0.000;    0.000
304.333; 1066.650;    0.000;    0.000
304.395; 1032.650;    0.000;    0.000
304.458; 1011.650;    0.000;    0.000
304.520; 1004.650;    0.000;    0.000
304.583; 1011.650;    0.000;    0.000
304.646; 1022.650;    0.000;    0.000
304.708;  991.650;    0.000;    0.000
304.771; 1035.650;    0.000;    0.000
304.833;  985.650;    0.000;    0.000
304.896; 1033.650;    0.000;    0.000
304.958; 1068.650;    0.000;    0.000
305.021;  987.650;    0.000;    0.000
305.083; 1041.650;    0.000;    0.000
305.146; 1018.650;    0.000;    0.000
305.208; 1038.650;    0.000;    0.000
305.271; 1051.650;    0.000;    0.000
305.333; 1087.650;    0.000;    0.000
305.396; 1092.650;    0.000;    0.000
305.458; 1046.650;    0.000;    0.000
305.520; 1052.650;    0.000;    0.000
305.583; 1057.650;    0.000;    0.000
305.645; 1067.650;    0.000;    0.000
305.708; 1039.650;    0.000;    0.000
305.770; 1044.650;    0.000;    0.000
305.833; 1041.650;    0.000;    0.000
305.895; 1020.650;    0.000;    0.000
305.957; 1049.650;    0.000;    0.000
306.020; 1063.650;    0.000;    0.000
306.082; 1073.650;    0.000;    0.000
306.144; 1118.650;    0.000;    0.000
306.207; 1077.650;    0.000;    0.000
306.269; 1028.650;    0.000;    0.000
306.331; 1105.650;    0.000;    0.000
306.394; 1100.650;    0.000;    0.000
306.456; 1062.650;    0.000;    0.000
306.518; 1092.650;    0.000;    0.000
306.581; 1095.650;    0.000;    0.000
306.643; 1056.650;    0.000;    0.000
306.705; 1107.650;    0.000;    0.000
306.768; 1080.650;    0.000;    0.000
306.830; 1135.650;    0.000;    0.000
306.892; 1057.650;    0.000;    0.000
306.954; 1099.650;    0.000;    0.000
307.017; 1111.650;    0.000;    0.000
307.079; 1093.650;    0.000;    0.000
307.141; 1115.650;    0.000;    0.000
307.203; 1120.650;    0.000;    0.000
307.266; 1149.650;    0.000;    0.000
307.328; 1115.650;    0.000;    0.000
307.390; 1156.650;    0.000;    0.000
307.452; 1123.650;    0.000;    0.000
307.514; 1181.650;    0.000;    0.000
307.577; 1116.650;    0.000;    0.000
307.639; 1199.650;    0.000;    0.000
307.701; 1177.650;    0.000;    0.000
307.763; 1203.650;    0.000;    0.000
307.825; 1268.650;    0.000;    0.000
307.887; 1219.650;    0.000;    0.000
307.949; 1145.650;    0.000;    0.000
308.012; 1188.650;    0.000;    0.000
308.074; 1189.650;    0.000;    0.000
308.136; 1181.650;    0.000;    0.000
308.198; 1221.650;    0.000;    0.000
308.260; 1156.650;    0.000;    0.000
308.322; 1201.650;    0.000;    0.000
308.384; 1162.650;    0.000;    0.000
308.446; 1226.650;    0.000;    0.000
308.508; 1206.650;    0.000;    0.000
308.570; 1241.650;    0.000;    0.000
308.632; 1238.650;    0.000;    0.000
308.694; 1218.650;    0.000;    0.000
308.756; 1234.650;    0.000;    0.000
308.818; 1276.650;    0.000;    0.000
308.880; 1256.650;    0.000;    0.000
308.942; 1246.650;    0.000;    0.000
309.004; 1326.650;    0.000;    0.000
309.066; 1258.650;    0.000;    0.000
309.128; 1357.650;    0.000;    0.000
309.190; 1341.650;    0.000;    0.000
309.252; 1420.650;    0.000;    0.000
309.314; 1416.650;    0.000;    0.000
309.376; 1438.650;    0.000;    0.000
309.438; 1368.650;    0.000;    0.000
309.500; 1378.650;    0.000;    0.000
309.562; 1303.650;    0.000;    0.000
309.624; 1427.650;    0.000;    0.000
309.686; 1446.650;    0.000;    0.000
309.747; 1417.650;    0.000;    0.000
309.809; 1380.650;    0.000;    0.000
309.871; 1385.650;    0.000;    0.000
309.933; 1317.650;    0.000;    0.000
309.995; 1278.650;    0.000;    0.000
310.057; 1358.650;    0.000;    0.000
310.119; 1289.650;    0.000;    0.000
310.180; 1332.650;    0.000;    0.000
310.242; 1300.650;    0.000;    0.000
310.304; 1326.650;    0.000;    0.000
310.366; 1336.650;    0.000;    0.000
310.428; 1228.650;    0.000;    0.000
310.489; 1289.650;    0.000;    0.000
310.551; 1269.650;    0.000;    0.000
310.613; 1324.650;    0.000;    0.000
310.675; 1279.650;    0.000;    0.000
310.737; 1305.650;    0.000;    0.000
310.798; 1310.650;    0.000;    0.000
310.860; 1248.650;    0.000;    0.000
310.922; 1255.650;    0.000;    0.000
310.983; 1329.650;    0.000;    0.000
311.045; 1246.650;    0.000;    0.000
311.107; 1264.650;    0.000;    0.000
311.169; 1249.650;    0.000;    0.000
311.230; 1265.650;    0.000;    0.000
311.292; 1294.650;    0.000;    0.000
311.354; 1264.650;    0.000;    0.000
311.415; 1289.650;    0.000;    0.000
311.477; 1322.650;    0.000;    0.000
311.539; 1296.650;    0.000;    0.000
311.600; 1316.650;    0.000;    0.000
311.662; 1373.650;    0.000;    0.000
311.724; 1270.650;    0.000;    0.000
311.785; 1242.650;    0.000;    0.000
311.847; 1309.650;    0.000;    0.000
311.908; 1303.650;    0.000;    0.000
311.970; 1350.650;    0.000;    0.000
312.032; 1244.650;    0.000;    0.000
312.093; 1366.650;    0.000;    0.000
312.155; 1296.650;    0.000;    0.000
312.216; 1313.650;    0.000;    0.000
312.278; 1240.650;    0.000;    0.000
312.339; 1305.650;    0.000;    0.000
312.401; 1328.650;    0.000;    0.000
312.462; 1309.650;    0.000;    0.000
312.524; 1306.650;    0.000;    0.000
312.585; 1285.650;    0.000;    0.000
312.647; 1252.650;    0.000;    0.000
312.708; 1275.650;    0.000;    0.000
312.770; 1334.650;    0.000;    0.000
312.831; 1230.650;    0.000;    0.000
312.893; 1322.650;    0.000;    0.000
312.954; 1383.650;    0.000;    0.000
313.016; 1281.650;    0.000;    0.000
313.077; 1288.650;    0.000;    0.000
313.139; 1308.650;    0.000;    0.000
313.200; 1342.650;    0.000;    0.000
313.261; 1343.650;    0.000;    0.000
313.323; 1350.650;    0.000;    0.000
313.384; 1343.650;    0.000;    0.000
313.446; 1363.650;    0.000;    0.000
313.507; 1352.650;    0.000;    0.000
313.568; 1371.650;    0.000;    0.000
313.630; 1336.650;    0.000;    0.000
313.691; 1363.650;    0.000;    0.000
313.752; 1319.650;    0.000;    0.000
313.814; 1299.650;    0.000;    0.000
313.875; 1361.650;    0.000;    0.000
313.936; 1363.650;    0.000;    0.000
313.998; 1331.650;    0.000;    0.000
314.059; 1327.650;    0.000;    0.000
314.120; 1341.650;    0.000;    0.000
314.182; 1364.650;    0.000;    0.000
314.243; 1311.650;    0.000;    0.000
314.304; 1359.650;    0.000;    0.000
314.365; 1301.650;    0.000;    0.000
314.427; 1364.650;    0.000;    0.000
314.488; 1329.650;    0.000;    0.000
314.549; 1349.650;    0.000;    0.000
314.610; 1345.650;    0.000;    0.000
314.672; 1416.650;    0.000;    0.000
314.733; 1371.650;    0.000;    0.000
314.794; 1362.650;    0.000;    0.000
314.855; 1328.650;    0.000;    0.000
314.917; 1342.650;    0.000;    0.000
314.978; 1329.650;    0.000;    0.000
315.039; 1345.650;    0.000;    0.000
315.100; 1370.650;    0.000;    0.000
315.161; 1333.650;    0.000;    0.000
315.222; 1380.650;    0.000;    0.000
315.283; 1438.650;    0.000;    0.000
315.345; 1318.650;    0.000;    0.000
315.406; 1340.650;    0.000;    0.000
315.467; 1348.650;    0.000;    0.000
315.528; 1377.650;    0.000;    0.000
315.589; 1370.650;    0.000;    0.000
315.650; 1384.650;    0.000;    0.000
315.711; 1367.650;    0.000;    0.000
315.772; 1329.650;    0.000;    0.000
315.833; 1344.650;    0.000;    0.000
315.894; 1354.650;    0.000;    0.000
315.955; 1359.650;    0.000;    0.000
316.016; 1359.650;    0.000;    0.000
316.078; 1316.650;    0.000;    0.000
316.139; 1365.650;    0.000;    0.000
316.200; 1334.650;    0.000;    0.000
316.261; 1351.650;    0.000;    0.000
316.322; 1413.650;    0.000;    0.000
316.383; 1367.650;    0.000;    0.000
316.444; 1398.650;    0.000;    0.000
316.504; 1366.650;    0.000;    0.000
316.565; 1359.650;    0.000;    0.000
316.626; 1410.650;    0.000;    0.000
316.687; 1409.650;    0.000;    0.000
316.748; 1382.650;    0.000;    0.000
316.809; 1348.650;    0.000;    0.000
316.870; 1401.650;    0.000;    0.000
316.931; 1416.650;    0.000;    0.000
316.992; 1434.650;    0.000;    0.000
317.053; 1448.650;    0.000;    0.000
317.114; 1433.650;    0.000;    0.000
317.175; 1418.650;    0.000;    0.000
317.235; 1455.650;    0.000;    0.000
317.296; 1376.650;    0.000;    0.000
317.357; 1409.650;    0.000;    0.000
317.418; 1368.650;    0.000;    0.000
317.479; 1432.650;    0.000;    0.000
317.540; 1407.650;    0.000;    0.000
317.601; 1369.650;    0.000;    0.000
317.661; 1402.650;    0.000;    0.000
317.722; 1403.650;    0.000;    0.000
317.783; 1323.650;    0.000;    0.000
317.844; 1433.650;    0.000;    0.000
317.904; 1410.650;    0.000;    0.000
317.965; 1398.650;    0.000;    0.000
318.026; 1381.650;    0.000;    0.000
318.087; 1399.650;    0.000;    0.000
318.148; 1404.650;    0.000;    0.000
318.208; 1482.650;    0.000;    0.000
318.269; 1400.650;    0.000;    0.000
318.330; 1444.650;    0.000;    0.000
318.390; 1427.650;    0.000;    0.000
318.451; 1435.650;    0.000;    0.000
318.512; 1494.650;    0.000;    0.000
318.572; 1457.650;    0.000;    0.000
318.633; 1459.650;    0.000;    0.000
318.694; 1413.650;    0.000;    0.000
318.754; 1401.650;    0.000;    0.000
318.815; 1454.650;    0.000;    0.000
318.876; 1460.650;    0.000;    0.000
318.936; 1415.650;    0.000;    0.000
318.997; 1412.650;    0.000;    0.000
319.058; 1422.650;    0.000;    0.000
319.118; 1432.650;    0.000;    0.000
319.179; 1505.650;    0.000;    0.000
319.239; 1387.650;    0.000;    0.000
319.300; 1447.650;    0.000;    0.000
319.361; 1470.650;    0.000;    0.000
319.421; 1403.650;    0.000;    0.000
319.482; 1348.650;    0.000;    0.000
319.542; 1365.650;    0.000;    0.000
319.603; 1405.650;    0.000;    0.000
319.663; 1426.650;    0.000;    0.000
319.724; 1415.650;    0.000;    0.000
319.784; 1457.650;    0.000;    0.000
319.845; 1380.650;    0.000;    0.000
319.905; 1356.650;    0.000;    0.000
319.966; 1434.650;    0.000;    0.000
320.026; 1481.650;    0.000;    0.000
320.087; 1426.650;    0.000;    0.000
320.147; 1407.650;    0.000;    0.000
320.208; 1387.650;    0.000;    0.000
320.268; 1464.650;    0.000;    0.000
320.329; 1424.650;    0.000;    0.000
320.389; 1472.650;    0.000;    0.000
320.449; 1501.650;    0.000;    0.000
320.510; 1467.650;    0.000;    0.000
320.570; 1451.650;    0.000;    0.000
320.631; 1525.650;    0.000;    0.000
320.691; 1453.650;    0.000;    0.000
320.751; 1506.650;    0.000;    0.000
320.812; 1445.650;    0.000;    0.000
320.872; 1529.650;    0.000;    0.000
320.932; 1448.650;    0.000;    0.000
320.993; 1524.650;    0.000;    0.000
321.053; 1520.650;    0.000;    0.000
321.113; 1482.650;    0.000;    0.000
321.174; 1532.650;    0.000;    0.000
321.234; 1477.650;    0.000;    0.000
321.294; 1485.650;    0.000;    0.000
321.355; 1519.650;    0.000;    0.000
321.415; 1528.650;    0.000;    0.000
321.475; 1483.650;    0.000;    0.000
321.535; 1472.650;    0.000;    0.000
321.596; 1512.650;    0.000;    0.000
321.656; 1585.650;    0.000;    0.000
321.716; 1569.650;    0.000;    0.000
321.776; 1483.650;    0.000;    0.000
321.837; 1513.650;    0.000;    0.000
321.897; 1557.650;    0.000;    0.000
321.957; 1482.650;    0.000;    0.000
322.017; 1408.650;    0.000;    0.000
322.077; 1447.650;    0.000;    0.000
322.138; 1470.650;    0.000;    0.000
322.198; 1486.650;    0.000;    0.000
322.258; 1488.650;    0.000;    0.000
322.318; 1495.650;    0.000;    0.000
322.378; 1499.650;    0.000;    0.000
322.438; 1496.650;    0.000;    0.000
322.499; 1494.650;    0.000;    0.000
322.559; 1495.650;    0.000;    0.000
322.619; 1565.650;    0.000;    0.000
322.679; 1541.650;    0.000;    0.000
322.739; 1555.650;    0.000;    0.000
322.799; 1584.650;    0.000;    0.000
322.859; 1521.650;    0.000;    0.000
322.919; 1514.650;    0.000;    0.000
322.979; 1572.650;    0.000;    0.000
323.039; 1467.650;    0.000;    0.000
323.099; 1509.650;    0.000;    0.000
323.159; 1542.650;    0.000;    0.000
323.219; 1442.650;    0.000;    0.000
323.279; 1455.650;    0.000;    0.000
323.339; 1575.650;    0.000;    0.000
323.399; 1668.650;    0.000;    0.000
323.459; 1586.650;    0.000;    0.000
323.519; 1660.650;    0.000;    0.000
323.579; 1609.650;    0.000;    0.000
323.639; 1659.650;    0.000;    0.000
323.699; 1619.650;    0.000;    0.000
323.759; 1582.650;    0.000;    0.000
323.819; 1607.650;    0.000;    0.000
323.879; 1582.650;    0.000;    0.000
323.939; 1571.650;    0.000;    0.000
323.999; 1577.650;    0.000;    0.000
324.059; 1598.650;    0.000;    0.000
324.119; 1535.650;    0.000;    0.000
324.178; 1530.650;    0.000;    0.000
324.238; 1559.650;    0.000;    0.000
324.298; 1562.650;    0.000;    0.000
324.358; 1564.650;    0.000;    0.000
324.418; 1565.650;    0.000;    0.000
324.478; 1556.650;    0.000;    0.000
324.538; 1599.650;    0.000;    0.000
324.597; 1556.650;    0.000;    0.000
324.657; 1551.650;    0.000;    0.000
324.717; 1596.650;    0.000;    0.000
324.777; 1499.650;    0.000;    0.000
324.837; 1485.650;    0.000;    0.000
324.896; 1595.650;    0.000;    0.000
324.956; 1535.650;    0.000;    0.000
325.016; 1481.650;    0.000;    0.000
325.076; 1605.650;    0.000;    0.000
325.135; 1514.650;    0.000;    0.000
325.195; 1503.650;    0.000;    0.000
325.255; 1539.650;    0.000;    0.000
325.315; 1516.650;    0.000;    0.000
325.374; 1582.650;    0.000;    0.000
325.434; 1538.650;    0.000;    0.000
325.494; 1625.650;    0.000;    0.000
325.553; 1531.650;    0.000;    0.000
325.613; 1603.650;    0.000;    0.000
325.673; 1464.650;    0.000;    0.000
325.732; 1468.650;    0.000;    0.000
325.792; 1416.650;    0.000;    0.000
325.852; 1481.650;    0.000;    0.000
325.911; 1487.650;    0.000;    0.000
325.971; 1509.650;    0.000;    0.000
326.031; 1597.650;    0.000;    0.000
326.090; 1517.650;    0.000;    0.000
326.150; 1504.650;    0.000;    0.000
326.209; 1501.650;    0.000;    0.000
326.269; 1522.650;    0.000;    0.000
326.328; 1582.650;    0.000;    0.000
326.388; 1472.650;    0.000;    0.000
326.448; 1615.650;    0.000;    0.000
326.507; 1560.650;    0.000;    0.000
326.567; 1556.650;    0.000;    0.000
326.626; 1580.650;    0.000;    0.000
326.686; 1523.650;    0.000;    0.000
326.745; 1503.650;    0.000;    0.000
326.805; 1459.650;    0.000;    0.000
326.864; 1571.650;    0.000;    0.000
326.924; 1595.650;    0.000;    0.000
326.983; 1603.650;    0.000;    0.000
327.043; 1585.650;    0.000;    0.000
327.102; 1537.650;    0.000;    0.000
327.161; 1551.650;    0.000;    0.000
327.221; 1573.650;    0.000;    0.000
327.280; 1619.650;    0.000;    0.000
327.340; 1558.650;    0.000;    0.000
327.399; 1668.650;    0.000;    0.000
327.459; 1603.650;    0.000;    0.000
327.518; 1546.650;    0.000;    0.000
327.577; 1525.650;    0.000;    0.000
327.637; 1512.650;    0.000;    0.000
327.696; 1551.650;    0.000;    0.000
327.755; 1587.650;    0.000;    0.000
327.815; 1624.650;    0.000;    0.000
327.874; 1646.650;    0.000;    0.000
327.933; 1589.650;    0.000;    0.000
327.993; 1609.650;    0.000;    0.000
328.052; 1549.650;    0.000;    0.000
328.111; 1633.650;    0.000;    0.000
328.171; 1670.650;    0.000;    0.000
328.230; 1562.650;    0.000;    0.000
328.289; 1618.650;    0.000;    0.000
328.349; 1580.650;    0.000;    0.000
328.408; 1628.650;    0.000;    0.000
328.467; 1550.650;    0.000;    0.000
328.526; 1586.650;    0.000;    0.000
328.586; 1580.650;    0.000;    0.000
328.645; 1611.650;    0.000;    0.000
328.704; 1543.650;    0.000;    0.000
328.763; 1542.650;    0.000;    0.000
328.822; 1610.650;    0.000;    0.000
328.882; 1615.650;    0.000;    0.000
328.941; 1589.650;    0.000;    0.000
329.000; 1635.650;    0.000;    0.000
329.059; 1604.650;    0.000;    0.000
329.118; 1618.650;    0.000;    0.000
329.177; 1631.650;    0.000;    0.000
329.237; 1624.650;    0.000;    0.000
329.296; 1559.650;    0.000;    0.000
329.355; 1693.650;    0.000;    0.000
329.414; 1542.650;    0.000;    0.000
329.473; 1609.650;    0.000;    0.000
329.532; 1641.650;    0.000;    0.000
329.591; 1621.650;    0.000;    0.000
329.650; 1660.650;    0.000;    0.000
329.709; 1720.650;    0.000;    0.000
329.768; 1762.650;    0.000;    0.000
329.827; 1824.650;    0.000;    0.000
329.886; 1834.650;    0.000;    0.000
329.945; 1775.650;    0.000;    0.000
330.004; 1859.650;    0.000;    0.000
330.063; 1784.650;    0.000;    0.000
330.122; 1891.650;    0.000;    0.000
330.181; 1974.650;    0.000;    0.000
330.240; 2009.650;    0.000;    0.000
330.299; 1999.650;    0.000;    0.000
330.358; 1845.650;    0.000;    0.000
330.417; 1845.650;    0.000;    0.000
330.476; 1686.650;    0.000;    0.000
330.535; 1770.650;    0.000;    0.000
330.594; 1663.650;    0.000;    0.000
330.653; 1624.650;    0.000;    0.000
330.712; 1684.650;    0.000;    0.000
330.771; 1632.650;    0.000;    0.000
330.830; 1738.650;    0.000;    0.000
330.889; 1649.650;    0.000;    0.000
330.948; 1635.650;    0.000;    0.000
331.006; 1711.650;    0.000;    0.000
331.065; 1657.650;    0.000;    0.000
331.124; 1690.650;    0.000;    0.000
331.183; 1600.650;    0.000;    0.000
331.242; 1635.650;    0.000;    0.000
331.301; 1681.650;    0.000;    0.000
331.359; 1612.650;    0.000;    0.000
331.418; 1646.650;    0.000;    0.000
331.477; 1659.650;    0.000;    0.000
331.536; 1627.650;    0.000;    0.000
331.595; 1558.650;    0.000;    0.000
331.653; 1513.650;    0.000;    0.000
331.712; 1558.650;    0.000;    0.000
331.771; 1555.650;    0.000;    0.000
331.830; 1665.650;    0.000;    0.000
331.888; 1576.650;    0.000;    0.000
331.947; 1584.650;    0.000;    0.000
332.006; 1584.650;    0.000;    0.000
332.065; 1561.650;    0.000;    0.000
332.123; 1652.650;    0.000;    0.000
332.182; 1583.650;    0.000;    0.000
332.241; 1609.650;    0.000;    0.000
332.299; 1555.650;    0.000;    0.000
332.358; 1602.650;    0.000;    0.000
332.417; 1587.650;    0.000;    0.000
332.475; 1633.650;    0.000;    0.000
332.534; 1732.650;    0.000;    0.000
332.592; 1689.650;    0.000;    0.000
332.651; 1686.650;    0.000;    0.000
332.710; 1671.650;    0.000;    0.000
332.768; 1684.650;    0.000;    0.000
332.827; 1585.650;    0.000;    0.000
332.885; 1598.650;    0.000;    0.000
332.944; 1524.650;    0.000;    0.000
333.003; 1567.650;    0.000;    0.000
333.061; 1615.650;    0.000;    0.000
333.120; 1654.650;    0.000;    0.000
333.178; 1860.650;    0.000;    0.000
333.237; 1853.650;    0.000;    0.000
333.295; 1863.650;    0.000;    0.000
333.354; 1783.650;    0.000;    0.000
333.412; 1826.650;    0.000;    0.000
333.471; 1845.650;    0.000;    0.000
333.529; 1954.650;    0.000;    0.000
333.588; 1869.650;    0.000;    0.000
333.646; 1843.650;    0.000;    0.000
333.705; 1928.650;    0.000;    0.000
333.763; 1784.650;    0.000;    0.000
333.822; 1876.650;    0.000;    0.000
333.880; 1840.650;    0.000;    0.000
333.938; 1833.650;    0.000;    0.000
333.997; 1861.650;    0.000;    0.000
334.055; 1875.650;    0.000;    0.000
334.114; 1801.650;    0.000;    0.000
334.172; 1767.650;    0.000;    0.000
334.230; 1842.650;    0.000;    0.000
334.289; 1816.650;    0.000;    0.000
334.347; 1807.650;    0.000;    0.000
334.405; 1816.650;    0.000;    0.000
334.464; 1745.650;    0.000;    0.000
334.522; 1776.650;    0.000;    0.000
334.580; 1703.650;    0.000;    0.000
334.639; 1789.650;    0.000;    0.000
334.697; 1725.650;    0.000;    0.000
334.755; 1752.650;    0.000;    0.000
334.814; 1795.650;    0.000;    0.000
334.872; 1697.650;    0.000;    0.000
334.930; 1668.650;    0.000;    0.000
334.988; 1640.650;    0.000;    0.000
335.047; 1735.650;    0.000;    0.000
335.105; 1733.650;    0.000;    0.000
335.163; 1734.650;    0.000;    0.000
335.221; 1823.650;    0.000;    0.000
335.280; 1787.650;    0.000;    0.000
335.338; 1817.650;    0.000;    0.000
335.396; 1810.650;    0.000;    0.000
335.454; 1668.650;    0.000;    0.000
335.512; 1839.650;    0.000;    0.000
335.570; 1727.650;    0.000;    0.000
335.629; 1858.650;    0.000;    0.000
335.687; 1828.650;    0.000;    0.000
335.745; 1911.650;    0.000;    0.000
335.803; 1893.650;    0.000;    0.000
335.861; 1921.650;    0.000;    0.000
335.919; 1838.650;    0.000;    0.000
335.977; 1899.650;    0.000;    0.000
336.035; 1869.650;    0.000;    0.000
336.094; 1916.650;    0.000;    0.000
336.152; 1958.650;    0.000;    0.000
336.210; 1958.650;    0.000;    0.000
336.268; 1985.650;    0.000;    0.000
336.326; 1952.650;    0.000;    0.000
336.384; 1951.650;    0.000;    0.000
336.442; 1840.650;    0.000;    0.000
336.500; 1910.650;    0.000;    0.000
336.558; 1820.650;    0.000;    0.000
336.616; 1933.650;    0.000;    0.000
336.674; 1931.650;    0.000;    0.000
336.732; 1869.650;    0.000;    0.000
336.790; 1884.650;    0.000;    0.000
336.848; 1975.650;    0.000;    0.000
336.906; 1884.650;    0.000;    0.000
336.964; 1841.650;    0.000;    0.000
337.022; 1918.650;    0.000;    0.000
337.080; 1937.650;    0.000;    0.000
337.138; 1971.650;    0.000;    0.000
337.195; 1887.650;    0.000;    0.000
337.253; 1980.650;    0.000;    0.000
337.311; 1898.650;    0.000;    0.000
337.369; 1832.650;    0.000;    0.000
337.427; 1863.650;    0.000;    0.000
337.485; 1793.650;    0.000;    0.000
337.543; 1799.650;    0.000;    0.000
337.601; 1848.650;    0.000;    0.000
337.658; 1847.650;    0.000;    0.000
337.716; 1799.650;    0.000;    0.000
337.774; 1804.650;    0.000;    0.000
337.832; 1801.650;    0.000;    0.000
337.890; 1679.650;    0.000;    0.000
337.947; 1803.650;    0.000;    0.000
338.005; 1811.650;    0.000;    0.000
338.063; 1811.650;    0.000;    0.000
338.121; 1850.650;    0.000;    0.000
338.178; 1855.650;    0.000;    0.000
338.236; 1827.650;    0.000;    0.000
338.294; 1875.650;    0.000;    0.000
338.352; 1843.650;    0.000;    0.000
338.409; 1864.650;    0.000;    0.000
338.467; 1791.650;    0.000;    0.000
338.525; 1823.650;    0.000;    0.000
338.583; 1711.650;    0.000;    0.000
338.640; 1749.650;    0.000;    0.000
338.698; 1813.650;    0.000;    0.000
338.756; 1909.650;    0.000;    0.000
338.813; 1829.650;    0.000;    0.000
338.871; 1893.650;    0.000;    0.000
338.928; 1844.650;    0.000;    0.000
338.986; 1878.650;    0.000;    0.000
339.044; 1858.650;    0.000;    0.000
339.101; 1820.650;    0.000;    0.000
339.159; 1798.650;    0.000;    0.000
339.216; 1817.650;    0.000;    0.000
339.274; 1924.650;    0.000;    0.000
339.332; 1830.650;    0.000;    0.000
339.389; 1827.650;    0.000;    0.000
339.447; 1822.650;    0.000;    0.000
339.504; 1822.650;    0.000;    0.000
339.562; 1827.650;    0.000;    0.000
339.619; 1834.650;    0.000;    0.000
339.677; 1853.650;    0.000;    0.000
339.734; 1774.650;    0.000;    0.000
339.792; 1810.650;    0.000;    0.000
339.849; 1869.650;    0.000;    0.000
339.907; 1820.650;    0.000;    0.000
339.964; 1792.650;    0.000;    0.000
340.022; 1732.650;    0.000;    0.000
340.079; 1814.650;    0.000;    0.000
340.137; 1814.650;    0.000;    0.000
340.194; 1971.650;    0.000;    0.000
340.252; 1801.650;    0.000;    0.000
340.309; 1857.650;    0.000;    0.000
340.366; 1766.650;    0.000;    0.000
340.424; 1806.650;    0.000;    0.000
340.481; 1781.650;    0.000;    0.000
340.538; 1794.650;    0.000;    0.000
340.596; 1842.650;    0.000;    0.000
340.653; 1864.650;    0.000;    0.000
340.711; 1960.650;    0.000;    0.000
340.768; 1938.650;    0.000;    0.000
340.825; 1950.650;    0.000;    0.000
340.883; 1938.650;    0.000;    0.000
340.940; 1917.650;    0.000;    0.000
340.997; 1867.650;    0.000;    0.000
341.054; 1806.650;    0.000;    0.000
341.112; 1854.650;    0.000;    0.000
341.169; 1840.650;    0.000;    0.000
341.226; 1920.650;    0.000;    0.000
341.284; 1947.650;    0.000;    0.000
341.341; 1948.650;    0.000;    0.000
341.398; 1900.650;    0.000;    0.000
341.455; 1957.650;    0.000;    0.000
341.512; 1957.650;    0.000;    0.000
341.570; 1977.650;    0.000;    0.000
341.627; 1939.650;    0.000;    0.000
341.684; 1969.650;    0.000;    0.000
341.741; 1974.650;    0.000;    0.000
341.798; 1958.650;    0.000;    0.000
341.856; 1930.650;    0.000;    0.000
341.913; 2015.650;    0.000;    0.000
341.970; 2012.650;    0.000;    0.000
342.027; 1954.650;    0.000;    0.000
342.084; 1992.650;    0.000;    0.000
342.141; 2064.650;    0.000;    0.000
342.198; 2049.650;    0.000;    0.000
342.255; 1967.650;    0.000;    0.000
342.313; 1946.650;    0.000;    0.000
342.370; 1853.650;    0.000;    0.000
342.427; 1857.650;    0.000;    0.000
342.484; 1772.650;    0.000;    0.000
342.541; 1835.650;    0.000;    0.000
342.598; 1834.650;    0.000;    0.000
342.655; 1834.650;    0.000;    0.000
342.712; 1856.650;    0.000;    0.000
342.769; 1859.650;    0.000;    0.000
342.826; 1851.650;    0.000;    0.000
342.883; 1820.650;    0.000;    0.000
342.940; 1866.650;    0.000;    0.000
342.997; 1821.650;    0.000;    0.000
343.054; 1831.650;    0.000;    0.000
343.111; 1761.650;    0.000;    0.000
343.168; 1887.650;    0.000;    0.000
343.225; 1936.650;    0.000;    0.000
343.282; 1938.650;    0.000;    0.000
343.339; 1933.650;    0.000;    0.000
343.395; 1990.650;    0.000;    0.000
343.452; 1897.650;    0.000;    0.000
343.509; 1833.650;    0.000;    0.000
343.566; 1944.650;    0.000;    0.000
343.623; 1886.650;    0.000;    0.000
343.680; 1828.650;    0.000;    0.000
343.737; 1896.650;    0.000;    0.000
343.794; 1952.650;    0.000;    0.000
343.850; 1873.650;    0.000;    0.000
343.907; 1940.650;    0.000;    0.000
343.964; 1885.650;    0.000;    0.000
344.021; 1911.650;    0.000;    0.000
344.078; 1959.650;    0.000;    0.000
344.134; 1998.650;    0.000;    0.000
344.191; 1923.650;    0.000;    0.000
344.248; 1988.650;    0.000;    0.000
344.305; 1993.650;    0.000;    0.000
344.361; 1913.650;    0.000;    0.000
344.418; 1924.650;    0.000;    0.000
344.475; 1885.650;    0.000;    0.000
344.532; 1925.650;    0.000;    0.000
344.588; 1920.650;    0.000;    0.000
344.645; 1860.650;    0.000;    0.000
344.702; 1865.650;    0.000;    0.000
344.758; 1958.650;    0.000;    0.000
344.815; 1956.650;    0.000;    0.000
344.872; 1929.650;    0.000;    0.000
344.928; 1959.650;    0.000;    0.000
344.985; 1902.650;    0.000;    0.000
345.042; 1976.650;    0.000;    0.000
345.098; 1951.650;    0.000;    0.000
345.155; 1942.650;    0.000;    0.000
345.212; 1943.650;    0.000;    0.000
345.268; 1920.650;    0.000;    0.000
345.325; 1861.650;    0.000;    0.000
345.381; 2033.650;    0.000;    0.000
345.438; 1986.650;    0.000;    0.000
345.495; 1977.650;    0.000;    0.000
345.551; 1921.650;    0.000;    0.000
345.608; 1864.650;    0.000;    0.000
345.664; 1974.650;    0.000;    0.000
345.721; 1910.650;    0.000;    0.000
345.777; 1734.650;    0.000;    0.000
345.834; 1838.650;    0.000;    0.000
345.890; 1823.650;    0.000;    0.000
345.947; 1918.650;    0.000;    0.000
346.003; 1992.650;    0.000;    0.000
346.060; 1866.650;    0.000;    0.000
346.116; 1850.650;    0.000;    0.000
346.173; 1827.650;    0.000;    0.000
346.229; 1832.650;    0.000;    0.000
346.285; 1907.650;    0.000;    0.000
346.342; 1862.650;    0.000;    0.000
346.398; 1846.650;    0.000;    0.000
346.455; 2065.650;    0.000;    0.000
346.511; 2001.650;    0.000;    0.000
346.567; 1973.650;    0.000;    0.000
346.624; 2000.650;    0.000;    0.000
346.680; 2052.650;    0.000;    0.000
346.737; 1898.650;    0.000;    0.000
346.793; 1910.650;    0.000;    0.000
346.849; 1988.650;    0.000;    0.000
346.906; 2053.650;    0.000;    0.000
346.962; 2129.650;    0.000;    0.000
347.018; 2068.650;    0.000;    0.000
347.074; 2094.650;    0.000;    0.000
347.131; 2071.650;    0.000;    0.000
347.187; 2054.650;    0.000;    0.000
347.243; 2032.650;    0.000;    0.000
347.300; 2043.650;    0.000;    0.000
347.356; 2066.650;    0.000;    0.000
347.412; 1997.650;    0.000;    0.000
347.468; 1932.650;    0.000;    0.000
347.524; 1935.650;    0.000;    0.000
347.581; 1855.650;    0.000;    0.000
347.637; 1952.650;    0.000;    0.000
347.693; 1852.650;    0.000;    0.000
347.749; 1893.650;    0.000;    0.000
347.805; 1885.650;    0.000;    0.000
347.862; 1931.650;    0.000;    0.000
347.918; 1927.650;    0.000;    0.000
347.974; 1933.650;    0.000;    0.000
348.030; 1820.650;    0.000;    0.000
348.086; 1910.650;    0.000;    0.000
348.142; 1901.650;    0.000;    0.000
348.198; 1925.650;    0.000;    0.000
348.254; 1970.650;    0.000;    0.000
348.311; 1869.650;    0.000;    0.000
348.367; 1924.650;    0.000;    0.000
348.423; 1932.650;    0.000;    0.000
348.479; 1940.650;    0.000;    0.000
348.535; 1970.650;    0.000;    0.000
348.591; 1938.650;    0.000;    0.000
348.647; 1991.650;    0.000;    0.000
348.703; 1933.650;    0.000;    0.000
348.759; 1891.650;    0.000;    0.000
348.815; 1980.650;    0.000;    0.000
348.871; 2006.650;    0.000;    0.000
348.927; 1917.650;    0.000;    0.000
348.983; 2012.650;    0.000;    0.000
349.039; 1927.650;    0.000;    0.000
349.095; 1901.650;    0.000;    0.000
349.151; 1900.650;    0.000;    0.000
349.207; 1886.650;    0.000;    0.000
349.263; 1873.650;    0.000;    0.000
349.319; 1895.650;    0.000;    0.000
349.374; 1862.650;    0.000;    0.000
349.430; 1983.650;    0.000;    0.000
349.486; 2074.650;    0.000;    0.000
349.542; 2030.650;    0.000;    0.000
349.598; 2011.650;    0.000;    0.000
349.654; 1984.650;    0.000;    0.000
349.710; 1959.650;    0.000;    0.000
349.766; 1912.650;    0.000;    0.000
349.821; 2016.650;    0.000;    0.000
349.877; 1989.650;    0.000;    0.000
349.933; 1933.650;    0.000;    0.000
349.989; 1991.650;    0.000;    0.000
350.045; 1973.650;    0.000;    0.000
350.100; 1989.650;    0.000;    0.000
350.156; 1904.650;    0.000;    0.000
350.212; 1898.650;    0.000;    0.000
350.268; 1859.650;    0.000;    0.000
350.323; 1874.650;    0.000;    0.000
350.379; 1898.650;    0.000;    0.000
350.435; 1987.650;    0.000;    0.000
350.491; 1922.650;    0.000;    0.000
350.546; 1909.650;    0.000;    0.000
350.602; 1906.650;    0.000;    0.000
350.658; 1876.650;    0.000;    0.000
350.713; 1915.650;    0.000;    0.000
350.769; 1862.650;    0.000;    0.000
350.825; 1918.650;    0.000;    0.000
350.880; 1900.650;    0.000;    0.000
350.936; 1911.650;    0.000;    0.000
350.992; 1929.650;    0.000;    0.000
351.047; 1850.650;    0.000;    0.000
351.103; 2028.650;    0.000;    0.000
351.158; 1983.650;    0.000;    0.000
351.214; 1941.650;    0.000;    0.000
351.270; 1862.650;    0.000;    0.000
351.325; 1918.650;    0.000;    0.000
351.381; 1881.650;    0.000;    0.000
351.436; 2013.650;    0.000;    0.000
351.492; 2020.650;    0.000;    0.000
351.547; 2036.650;    0.000;    0.000
351.603; 2014.650;    0.000;    0.000
351.658; 2026.650;    0.000;    0.000
351.714; 1946.650;    0.000;    0.000
351.769; 1945.650;    0.000;    0.000
351.825; 2047.650;    0.000;    0.000
351.880; 1932.650;    0.000;    0.000
351.936; 2060.650;    0.000;    0.000
351.991; 2054.650;    0.000;    0.000
352.047; 2032.650;    0.000;    0.000
352.102; 1961.650;    0.000;    0.000
352.158; 1983.650;    0.000;    0.000
352.213; 1969.650;    0.000;    0.000
352.268; 1956.650;    0.000;    0.000
352.324; 1945.650;    0.000;    0.000
352.379; 2064.650;    0.000;    0.000
352.434; 2009.650;    0.000;    0.000
352.490; 1944.650;    0.000;    0.000
352.545; 1991.650;    0.000;    0.000
352.601; 1930.650;    0.000;    0.000
352.656; 1877.650;    0.000;    0.000
352.711; 1916.650;    0.000;    0.000
352.767; 1903.650;    0.000;    0.000
352.822; 1905.650;    0.000;    0.000
352.877; 1896.650;    0.000;    0.000
352.932; 1908.650;    0.000;    0.000
352.988; 1957.650;    0.000;    0.000
353.043; 2011.650;    0.000;    0.000
353.098; 1884.650;    0.000;    0.000
353.153; 2003.650;    0.000;    0.000
353.209; 1899.650;    0.000;    0.000
353.264; 1882.650;    0.000;    0.000
353.319; 1859.650;    0.000;    0.000
353.374; 1823.650;    0.000;    0.000
353.430; 1907.650;    0.000;    0.000
353.485; 1927.650;    0.000;    0.000
353.540; 1916.650;    0.000;    0.000
353.595; 1915.650;    0.000;    0.000
353.650; 1811.650;    0.000;    0.000
353.705; 1887.650;    0.000;    0.000
353.761; 1877.650;    0.000;    0.000
353.816; 1841.650;    0.000;    0.000
353.871; 1859.650;    0.000;    0.000
353.926; 1825.650;    0.000;    0.000
353.981; 1819.650;    0.000;    0.000
354.036; 1782.650;    0.000;    0.000
354.091; 1850.650;    0.000;    0.000
354.146; 1845.650;    0.000;    0.000
354.201; 1838.650;    0.000;    0.000
354.256; 1849.650;    0.000;    0.000
354.311; 1882.650;    0.000;    0.000
354.367; 1888.650;    0.000;    0.000
354.422; 1850.650;    0.000;    0.000
354.477; 1928.650;    0.000;    0.000
354.532; 1930.650;    0.000;    0.000
354.587; 1974.650;    0.000;    0.000
354.642; 1907.650;    0.000;    0.000
354.697; 1898.650;    0.000;    0.000
354.751; 1949.650;    0.000;    0.000
354.806; 1954.650;    0.000;    0.000
354.861; 2018.650;    0.000;    0.000
354.916; 1897.650;    0.000;    0.000
354.971; 1916.650;    0.000;    0.000
355.026; 1920.650;    0.000;    0.000
355.081; 1866.650;    0.000;    0.000
355.136; 1782.650;    0.000;    0.000
355.191; 1824.650;    0.000;    0.000
355.246; 1855.650;    0.000;    0.000
355.301; 1889.650;    0.000;    0.000
355.355; 1928.650;    0.000;    0.000
355.410; 1862.650;    0.000;    0.000
355.465; 1853.650;    0.000;    0.000
355.520; 1901.650;    0.000;    0.000
355.575; 1844.650;    0.000;    0.000
355.630; 1829.650;    0.000;    0.000
355.684; 1752.650;    0.000;    0.000
355.739; 1820.650;    0.000;    0.000
355.794; 1830.650;    0.000;    0.000
355.849; 1845.650;    0.000;    0.000
355.904; 1862.650;    0.000;    0.000
355.958; 1869.650;    0.000;    0.000
356.013; 1855.650;    0.000;    0.000
356.068; 1894.650;    0.000;    0.000
356.123; 1874.650;    0.000;    0.000
356.177; 1972.650;    0.000;    0.000
356.232; 1900.650;    0.000;    0.000
356.287; 1913.650;    0.000;    0.000
356.341; 2040.650;    0.000;    0.000
356.396; 1914.650;    0.000;    0.000
356.451; 1875.650;    0.000;    0.000
356.505; 1917.650;    0.000;    0.000
356.560; 1926.650;    0.000;    0.000
356.615; 1831.650;    0.000;    0.000
356.669; 1874.650;    0.000;    0.000
356.724; 1931.650;    0.000;    0.000
356.778; 1780.650;    0.000;    0.000
356.833; 1870.650;    0.000;    0.000
356.888; 1967.650;    0.000;    0.000
356.942; 1918.650;    0.000;    0.000
356.997; 1965.650;    0.000;    0.000
357.051; 1875.650;    0.000;    0.000
357.106; 1824.650;    0.000;    0.000
357.160; 1809.650;    0.000;    0.000
357.215; 1756.650;    0.000;    0.000
357.269; 1834.650;    0.000;    0.000
357.324; 1917.650;    0.000;    0.000
357.378; 1781.650;    0.000;    0.000
357.433; 1808.650;    0.000;    0.000
357.487; 1777.650;    0.000;    0.000
357.542; 1710.650;    0.000;    0.000
357.596; 1848.650;    0.000;    0.000
357.651; 1852.650;    0.000;    0.000
357.705; 1895.650;    0.000;    0.000
357.760; 1790.650;    0.000;    0.000
357.814; 1882.650;    0.000;    0.000
357.868; 1921.650;    0.000;    0.000
357.923; 1967.650;    0.000;    0.000
357.977; 1785.650;    0.000;    0.000
358.032; 1878.650;    0.000;    0.000
358.086; 1926.650;    0.000;    0.000
358.140; 1912.650;    0.000;    0.000
358.195; 1853.650;    0.000;    0.000
358.249; 1838.650;    0.000;    0.000
358.303; 1856.650;    0.000;    0.000
358.358; 1810.650;    0.000;    0.000
358.412; 1769.650;    0.000;    0.000
358.466; 1880.650;    0.000;    0.000
358.521; 1814.650;    0.000;    0.000
358.575; 1779.650;    0.000;    0.000
358.629; 1852.650;    0.000;    0.000
358.683; 1814.650;    0.000;    0.000
358.738; 1793.650;    0.000;    0.000
358.792; 1770.650;    0.000;    0.000
358.846; 1903.650;    0.000;    0.000
358.900; 1811.650;    0.000;    0.000
358.954; 1860.650;    0.000;    0.000
359.009; 1800.650;    0.000;    0.000
359.063; 1848.650;    0.000;    0.000
359.117; 1823.650;    0.000;    0.000
359.171; 1849.650;    0.000;    0.000
359.225; 1793.650;    0.000;    0.000
359.280; 1831.650;    0.000;    0.000
359.334; 1911.650;    0.000;    0.000
359.388; 1841.650;    0.000;    0.000
359.442; 1822.650;    0.000;    0.000
359.496; 1766.650;    0.000;    0.000
359.550; 1721.650;    0.000;    0.000
359.604; 1785.650;    0.000;    0.000
359.658; 1706.650;    0.000;    0.000
359.712; 1770.650;    0.000;    0.000
359.766; 1784.650;    0.000;    0.000
359.820; 1802.650;    0.000;    0.000
359.875; 1754.650;    0.000;    0.000
359.929; 1776.650;    0.000;    0.000
359.983; 1760.650;    0.000;    0.000
360.037; 1795.650;    0.000;    0.000
360.091; 1720.650;    0.000;    0.000
360.145; 1712.650;    0.000;    0.000
360.199; 1797.650;    0.000;    0.000
360.253; 1693.650;    0.000;    0.000
360.306; 1737.650;    0.000;    0.000
360.360; 1715.650;    0.000;    0.000
360.414; 1695.650;    0.000;    0.000
360.468; 1822.650;    0.000;    0.000
360.522; 1800.650;    0.000;    0.000
360.576; 1842.650;    0.000;    0.000
360.630; 1799.650;    0.000;    0.000
360.684; 1735.650;    0.000;    0.000
360.738; 1838.650;    0.000;    0.000
360.792; 1721.650;    0.000;    0.000
360.846; 1790.650;    0.000;    0.000
360.899; 1801.650;    0.000;    0.000
360.953; 1791.650;    0.000;    0.000
361.007; 1770.650;    0.000;    0.000
361.061; 1674.650;    0.000;    0.000
361.115; 1746.650;    0.000;    0.000
361.168; 1768.650;    0.000;    0.000
361.222; 1779.650;    0.000;    0.000
361.276; 1766.650;    0.000;    0.000
361.330; 1738.650;    0.000;    0.000
361.384; 1720.650;    0.000;    0.000
361.437; 1763.650;    0.000;    0.000
361.491; 1755.650;    0.000;    0.000
361.545; 1716.650;    0.000;    0.000
361.599; 1736.650;    0.000;    0.000
361.652; 1753.650;    0.000;    0.000
361.706; 1801.650;    0.000;    0.000
361.760; 1743.650;    0.000;    0.000
361.813; 1775.650;    0.000;    0.000
361.867; 1809.650;    0.000;    0.000
361.921; 1718.650;    0.000;    0.000
361.974; 1728.650;    0.000;    0.000
362.028; 1739.650;    0.000;    0.000
362.082; 1637.650;    0.000;    0.000
362.135; 1696.650;    0.000;    0.000
362.189; 1750.650;    0.000;    0.000
362.242; 1697.650;    0.000;    0.000
362.296; 1779.650;    0.000;    0.000
362.350; 1788.650;    0.000;    0.000
362.403; 1763.650;    0.000;    0.000
362.457; 1726.650;    0.000;    0.000
362.510; 1696.650;    0.000;    0.000
362.564; 1713.650;    0.000;    0.000
362.617; 1715.650;    0.000;    0.000
362.671; 1707.650;    0.000;    0.000
362.724; 1710.650;    0.000;    0.000
362.778; 1713.650;    0.000;    0.000
362.831; 1728.650;    0.000;    0.000
362.885; 1711.650;    0.000;    0.000
362.938; 1633.650;    0.000;    0.000
362.992;  368.650;    0.000;    0.000
363.045;  302.650;    0.000;    0.000
363.099;  303.650;    0.000;    0.000
363.152;  309.650;    0.000;    0.000
363.205;  288.650;    0.000;    0.000
363.259;  281.650;    0.000;    0.000
363.312;  278.650;    0.000;    0.000
363.366;  307.650;    0.000;    0.000
363.419;  322.650;    0.000;    0.000
363.472;  329.650;    0.000;    0.000
363.526;  296.650;    0.000;    0.000
363.579;  288.650;    0.000;    0.000
363.632;  275.650;    0.000;    0.000
363.686;  314.650;    0.000;    0.000
363.739;  284.650;    0.000;    0.000
363.792;  275.650;    0.000;    0.000

