Sulfato50_shot01
Integration time [ms]:   1.000
Averaging Nr. [scans]: 1
Smoothing Nr. [pixels]: 0
Data measured with spectrometer [name]: UV2
Wave   ;Sample   ;Dark     ;Reference
[nm]   ;[counts] ;[counts] ;[counts] 

353.533;  249.050;    0.000;    0.000
353.597;  259.050;    0.000;    0.000
353.660;  222.050;    0.000;    0.000
353.723;  241.050;    0.000;    0.000
353.786;  172.050;    0.000;    0.000
353.850;  239.050;    0.000;    0.000
353.913;  174.050;    0.000;    0.000
353.976;  222.050;    0.000;    0.000
354.039;  219.050;    0.000;    0.000
354.102;  219.050;    0.000;    0.000
354.166;  232.050;    0.000;    0.000
354.229;  232.050;    0.000;    0.000
354.292;  182.050;    0.000;    0.000
354.355;  196.050;    0.000;    0.000
354.418;  166.050;    0.000;    0.000
354.481;  227.050;    0.000;    0.000
354.545;  407.050;    0.000;    0.000
354.608;  430.050;    0.000;    0.000
354.671;  401.050;    0.000;    0.000
354.734;  420.050;    0.000;    0.000
354.797;  440.050;    0.000;    0.000
354.860;  462.050;    0.000;    0.000
354.923;  402.050;    0.000;    0.000
354.986;  415.050;    0.000;    0.000
355.050;  417.050;    0.000;    0.000
355.113;  437.050;    0.000;    0.000
355.176;  434.050;    0.000;    0.000
355.239;  476.050;    0.000;    0.000
355.302;  422.050;    0.000;    0.000
355.365;  435.050;    0.000;    0.000
355.428;  501.050;    0.000;    0.000
355.491;  476.050;    0.000;    0.000
355.554;  487.050;    0.000;    0.000
355.617;  502.050;    0.000;    0.000
355.680;  432.050;    0.000;    0.000
355.743;  437.050;    0.000;    0.000
355.806;  427.050;    0.000;    0.000
355.869;  556.050;    0.000;    0.000
355.932;  442.050;    0.000;    0.000
355.995;  465.050;    0.000;    0.000
356.058;  531.050;    0.000;    0.000
356.121;  518.050;    0.000;    0.000
356.184;  479.050;    0.000;    0.000
356.247;  470.050;    0.000;    0.000
356.310;  427.050;    0.000;    0.000
356.373;  490.050;    0.000;    0.000
356.436;  482.050;    0.000;    0.000
356.498;  498.050;    0.000;    0.000
356.561;  508.050;    0.000;    0.000
356.624;  456.050;    0.000;    0.000
356.687;  486.050;    0.000;    0.000
356.750;  492.050;    0.000;    0.000
356.813;  512.050;    0.000;    0.000
356.876;  503.050;    0.000;    0.000
356.939;  477.050;    0.000;    0.000
357.001;  498.050;    0.000;    0.000
357.064;  501.050;    0.000;    0.000
357.127;  479.050;    0.000;    0.000
357.190;  452.050;    0.000;    0.000
357.253;  465.050;    0.000;    0.000
357.316;  478.050;    0.000;    0.000
357.378;  483.050;    0.000;    0.000
357.441;  518.050;    0.000;    0.000
357.504;  521.050;    0.000;    0.000
357.567;  463.050;    0.000;    0.000
357.629;  528.050;    0.000;    0.000
357.692;  480.050;    0.000;    0.000
357.755;  528.050;    0.000;    0.000
357.818;  445.050;    0.000;    0.000
357.880;  512.050;    0.000;    0.000
357.943;  455.050;    0.000;    0.000
358.006;  523.050;    0.000;    0.000
358.069;  461.050;    0.000;    0.000
358.131;  517.050;    0.000;    0.000
358.194;  525.050;    0.000;    0.000
358.257;  472.050;    0.000;    0.000
358.319;  508.050;    0.000;    0.000
358.382;  543.050;    0.000;    0.000
358.445;  503.050;    0.000;    0.000
358.507;  495.050;    0.000;    0.000
358.570;  515.050;    0.000;    0.000
358.633;  473.050;    0.000;    0.000
358.695;  504.050;    0.000;    0.000
358.758;  538.050;    0.000;    0.000
358.821;  458.050;    0.000;    0.000
358.883;  514.050;    0.000;    0.000
358.946;  529.050;    0.000;    0.000
359.008;  539.050;    0.000;    0.000
359.071;  548.050;    0.000;    0.000
359.134;  458.050;    0.000;    0.000
359.196;  540.050;    0.000;    0.000
359.259;  537.050;    0.000;    0.000
359.321;  534.050;    0.000;    0.000
359.384;  467.050;    0.000;    0.000
359.446;  516.050;    0.000;    0.000
359.509;  467.050;    0.000;    0.000
359.571;  487.050;    0.000;    0.000
359.634;  512.050;    0.000;    0.000
359.696;  488.050;    0.000;    0.000
359.759;  531.050;    0.000;    0.000
359.821;  494.050;    0.000;    0.000
359.884;  522.050;    0.000;    0.000
359.946;  565.050;    0.000;    0.000
360.009;  527.050;    0.000;    0.000
360.071;  514.050;    0.000;    0.000
360.134;  592.050;    0.000;    0.000
360.196;  534.050;    0.000;    0.000
360.259;  555.050;    0.000;    0.000
360.321;  554.050;    0.000;    0.000
360.384;  520.050;    0.000;    0.000
360.446;  527.050;    0.000;    0.000
360.508;  594.050;    0.000;    0.000
360.571;  566.050;    0.000;    0.000
360.633;  572.050;    0.000;    0.000
360.696;  493.050;    0.000;    0.000
360.758;  602.050;    0.000;    0.000
360.820;  560.050;    0.000;    0.000
360.883;  504.050;    0.000;    0.000
360.945;  549.050;    0.000;    0.000
361.007;  537.050;    0.000;    0.000
361.070;  590.050;    0.000;    0.000
361.132;  569.050;    0.000;    0.000
361.194;  543.050;    0.000;    0.000
361.257;  535.050;    0.000;    0.000
361.319;  575.050;    0.000;    0.000
361.381;  544.050;    0.000;    0.000
361.443;  505.050;    0.000;    0.000
361.506;  612.050;    0.000;    0.000
361.568;  560.050;    0.000;    0.000
361.630;  540.050;    0.000;    0.000
361.693;  571.050;    0.000;    0.000
361.755;  567.050;    0.000;    0.000
361.817;  561.050;    0.000;    0.000
361.879;  509.050;    0.000;    0.000
361.941;  587.050;    0.000;    0.000
362.004;  562.050;    0.000;    0.000
362.066;  550.050;    0.000;    0.000
362.128;  605.050;    0.000;    0.000
362.190;  585.050;    0.000;    0.000
362.252;  568.050;    0.000;    0.000
362.315;  574.050;    0.000;    0.000
362.377;  564.050;    0.000;    0.000
362.439;  551.050;    0.000;    0.000
362.501;  601.050;    0.000;    0.000
362.563;  611.050;    0.000;    0.000
362.625;  560.050;    0.000;    0.000
362.688;  603.050;    0.000;    0.000
362.750;  598.050;    0.000;    0.000
362.812;  535.050;    0.000;    0.000
362.874;  558.050;    0.000;    0.000
362.936;  593.050;    0.000;    0.000
362.998;  580.050;    0.000;    0.000
363.060;  602.050;    0.000;    0.000
363.122;  618.050;    0.000;    0.000
363.184;  576.050;    0.000;    0.000
363.246;  615.050;    0.000;    0.000
363.308;  569.050;    0.000;    0.000
363.370;  642.050;    0.000;    0.000
363.432;  586.050;    0.000;    0.000
363.494;  571.050;    0.000;    0.000
363.556;  574.050;    0.000;    0.000
363.618;  627.050;    0.000;    0.000
363.680;  554.050;    0.000;    0.000
363.742;  628.050;    0.000;    0.000
363.804;  642.050;    0.000;    0.000
363.866;  634.050;    0.000;    0.000
363.928;  586.050;    0.000;    0.000
363.990;  634.050;    0.000;    0.000
364.052;  627.050;    0.000;    0.000
364.114;  592.050;    0.000;    0.000
364.176;  606.050;    0.000;    0.000
364.238;  592.050;    0.000;    0.000
364.300;  630.050;    0.000;    0.000
364.362;  586.050;    0.000;    0.000
364.424;  601.050;    0.000;    0.000
364.486;  638.050;    0.000;    0.000
364.548;  593.050;    0.000;    0.000
364.609;  636.050;    0.000;    0.000
364.671;  586.050;    0.000;    0.000
364.733;  611.050;    0.000;    0.000
364.795;  568.050;    0.000;    0.000
364.857;  547.050;    0.000;    0.000
364.919;  661.050;    0.000;    0.000
364.981;  604.050;    0.000;    0.000
365.042;  624.050;    0.000;    0.000
365.104;  651.050;    0.000;    0.000
365.166;  592.050;    0.000;    0.000
365.228;  677.050;    0.000;    0.000
365.290;  631.050;    0.000;    0.000
365.351;  625.050;    0.000;    0.000
365.413;  620.050;    0.000;    0.000
365.475;  619.050;    0.000;    0.000
365.537;  625.050;    0.000;    0.000
365.598;  630.050;    0.000;    0.000
365.660;  631.050;    0.000;    0.000
365.722;  605.050;    0.000;    0.000
365.784;  632.050;    0.000;    0.000
365.845;  649.050;    0.000;    0.000
365.907;  598.050;    0.000;    0.000
365.969;  648.050;    0.000;    0.000
366.030;  649.050;    0.000;    0.000
366.092;  675.050;    0.000;    0.000
366.154;  681.050;    0.000;    0.000
366.215;  664.050;    0.000;    0.000
366.277;  627.050;    0.000;    0.000
366.339;  641.050;    0.000;    0.000
366.400;  626.050;    0.000;    0.000
366.462;  659.050;    0.000;    0.000
366.524;  701.050;    0.000;    0.000
366.585;  636.050;    0.000;    0.000
366.647;  657.050;    0.000;    0.000
366.708;  620.050;    0.000;    0.000
366.770;  672.050;    0.000;    0.000
366.832;  621.050;    0.000;    0.000
366.893;  661.050;    0.000;    0.000
366.955;  623.050;    0.000;    0.000
367.016;  697.050;    0.000;    0.000
367.078;  629.050;    0.000;    0.000
367.139;  599.050;    0.000;    0.000
367.201;  603.050;    0.000;    0.000
367.262;  650.050;    0.000;    0.000
367.324;  717.050;    0.000;    0.000
367.385;  597.050;    0.000;    0.000
367.447;  672.050;    0.000;    0.000
367.508;  636.050;    0.000;    0.000
367.570;  668.050;    0.000;    0.000
367.631;  641.050;    0.000;    0.000
367.693;  649.050;    0.000;    0.000
367.754;  627.050;    0.000;    0.000
367.816;  681.050;    0.000;    0.000
367.877;  677.050;    0.000;    0.000
367.939;  671.050;    0.000;    0.000
368.000;  643.050;    0.000;    0.000
368.062;  624.050;    0.000;    0.000
368.123;  649.050;    0.000;    0.000
368.184;  701.050;    0.000;    0.000
368.246;  648.050;    0.000;    0.000
368.307;  666.050;    0.000;    0.000
368.369;  645.050;    0.000;    0.000
368.430;  617.050;    0.000;    0.000
368.491;  693.050;    0.000;    0.000
368.553;  707.050;    0.000;    0.000
368.614;  658.050;    0.000;    0.000
368.675;  679.050;    0.000;    0.000
368.737;  723.050;    0.000;    0.000
368.798;  707.050;    0.000;    0.000
368.859;  688.050;    0.000;    0.000
368.921;  700.050;    0.000;    0.000
368.982;  660.050;    0.000;    0.000
369.043;  680.050;    0.000;    0.000
369.104;  706.050;    0.000;    0.000
369.166;  673.050;    0.000;    0.000
369.227;  653.050;    0.000;    0.000
369.288;  701.050;    0.000;    0.000
369.349;  711.050;    0.000;    0.000
369.411;  752.050;    0.000;    0.000
369.472;  719.050;    0.000;    0.000
369.533;  699.050;    0.000;    0.000
369.594;  637.050;    0.000;    0.000
369.656;  718.050;    0.000;    0.000
369.717;  649.050;    0.000;    0.000
369.778;  680.050;    0.000;    0.000
369.839;  730.050;    0.000;    0.000
369.900;  743.050;    0.000;    0.000
369.961;  694.050;    0.000;    0.000
370.023;  727.050;    0.000;    0.000
370.084;  737.050;    0.000;    0.000
370.145;  696.050;    0.000;    0.000
370.206;  706.050;    0.000;    0.000
370.267;  686.050;    0.000;    0.000
370.328;  706.050;    0.000;    0.000
370.389;  705.050;    0.000;    0.000
370.451;  723.050;    0.000;    0.000
370.512;  728.050;    0.000;    0.000
370.573;  732.050;    0.000;    0.000
370.634;  698.050;    0.000;    0.000
370.695;  711.050;    0.000;    0.000
370.756;  724.050;    0.000;    0.000
370.817;  739.050;    0.000;    0.000
370.878;  717.050;    0.000;    0.000
370.939;  752.050;    0.000;    0.000
371.000;  732.050;    0.000;    0.000
371.061;  755.050;    0.000;    0.000
371.122;  764.050;    0.000;    0.000
371.183;  701.050;    0.000;    0.000
371.244;  771.050;    0.000;    0.000
371.305;  703.050;    0.000;    0.000
371.366;  792.050;    0.000;    0.000
371.427;  747.050;    0.000;    0.000
371.488;  739.050;    0.000;    0.000
371.549;  696.050;    0.000;    0.000
371.610;  686.050;    0.000;    0.000
371.671;  699.050;    0.000;    0.000
371.732;  766.050;    0.000;    0.000
371.793;  796.050;    0.000;    0.000
371.853;  743.050;    0.000;    0.000
371.914;  748.050;    0.000;    0.000
371.975;  708.050;    0.000;    0.000
372.036;  758.050;    0.000;    0.000
372.097;  729.050;    0.000;    0.000
372.158;  772.050;    0.000;    0.000
372.219;  783.050;    0.000;    0.000
372.280;  749.050;    0.000;    0.000
372.340;  782.050;    0.000;    0.000
372.401;  747.050;    0.000;    0.000
372.462;  749.050;    0.000;    0.000
372.523;  760.050;    0.000;    0.000
372.584;  745.050;    0.000;    0.000
372.645;  738.050;    0.000;    0.000
372.705;  780.050;    0.000;    0.000
372.766;  753.050;    0.000;    0.000
372.827;  749.050;    0.000;    0.000
372.888;  797.050;    0.000;    0.000
372.948;  736.050;    0.000;    0.000
373.009;  749.050;    0.000;    0.000
373.070;  763.050;    0.000;    0.000
373.131;  739.050;    0.000;    0.000
373.191;  833.050;    0.000;    0.000
373.252;  759.050;    0.000;    0.000
373.313;  773.050;    0.000;    0.000
373.373;  752.050;    0.000;    0.000
373.434;  764.050;    0.000;    0.000
373.495;  777.050;    0.000;    0.000
373.555;  772.050;    0.000;    0.000
373.616;  769.050;    0.000;    0.000
373.677;  755.050;    0.000;    0.000
373.737;  813.050;    0.000;    0.000
373.798;  813.050;    0.000;    0.000
373.859;  803.050;    0.000;    0.000
373.919;  811.050;    0.000;    0.000
373.980;  794.050;    0.000;    0.000
374.041;  753.050;    0.000;    0.000
374.101;  801.050;    0.000;    0.000
374.162;  766.050;    0.000;    0.000
374.222;  760.050;    0.000;    0.000
374.283;  804.050;    0.000;    0.000
374.343;  781.050;    0.000;    0.000
374.404;  815.050;    0.000;    0.000
374.465;  778.050;    0.000;    0.000
374.525;  813.050;    0.000;    0.000
374.586;  801.050;    0.000;    0.000
374.646;  815.050;    0.000;    0.000
374.707;  892.050;    0.000;    0.000
374.767;  834.050;    0.000;    0.000
374.828;  825.050;    0.000;    0.000
374.888;  841.050;    0.000;    0.000
374.949;  880.050;    0.000;    0.000
375.009;  807.050;    0.000;    0.000
375.070;  848.050;    0.000;    0.000
375.130;  809.050;    0.000;    0.000
375.190;  857.050;    0.000;    0.000
375.251;  827.050;    0.000;    0.000
375.311;  838.050;    0.000;    0.000
375.372;  815.050;    0.000;    0.000
375.432;  855.050;    0.000;    0.000
375.493;  829.050;    0.000;    0.000
375.553;  820.050;    0.000;    0.000
375.613;  832.050;    0.000;    0.000
375.674;  834.050;    0.000;    0.000
375.734;  858.050;    0.000;    0.000
375.794;  751.050;    0.000;    0.000
375.855;  821.050;    0.000;    0.000
375.915;  839.050;    0.000;    0.000
375.975;  856.050;    0.000;    0.000
376.036;  824.050;    0.000;    0.000
376.096;  850.050;    0.000;    0.000
376.156;  835.050;    0.000;    0.000
376.217;  828.050;    0.000;    0.000
376.277;  859.050;    0.000;    0.000
376.337;  815.050;    0.000;    0.000
376.398;  864.050;    0.000;    0.000
376.458;  860.050;    0.000;    0.000
376.518;  879.050;    0.000;    0.000
376.578;  850.050;    0.000;    0.000
376.639;  866.050;    0.000;    0.000
376.699;  883.050;    0.000;    0.000
376.759;  829.050;    0.000;    0.000
376.819;  806.050;    0.000;    0.000
376.880;  874.050;    0.000;    0.000
376.940;  898.050;    0.000;    0.000
377.000;  782.050;    0.000;    0.000
377.060;  867.050;    0.000;    0.000
377.120;  858.050;    0.000;    0.000
377.180;  874.050;    0.000;    0.000
377.241;  852.050;    0.000;    0.000
377.301;  886.050;    0.000;    0.000
377.361;  832.050;    0.000;    0.000
377.421;  884.050;    0.000;    0.000
377.481;  878.050;    0.000;    0.000
377.541;  885.050;    0.000;    0.000
377.601;  868.050;    0.000;    0.000
377.661;  913.050;    0.000;    0.000
377.722;  821.050;    0.000;    0.000
377.782;  906.050;    0.000;    0.000
377.842;  929.050;    0.000;    0.000
377.902;  871.050;    0.000;    0.000
377.962;  907.050;    0.000;    0.000
378.022;  881.050;    0.000;    0.000
378.082;  882.050;    0.000;    0.000
378.142;  889.050;    0.000;    0.000
378.202;  904.050;    0.000;    0.000
378.262;  954.050;    0.000;    0.000
378.322;  949.050;    0.000;    0.000
378.382;  920.050;    0.000;    0.000
378.442;  917.050;    0.000;    0.000
378.502;  869.050;    0.000;    0.000
378.562;  870.050;    0.000;    0.000
378.622;  929.050;    0.000;    0.000
378.682;  883.050;    0.000;    0.000
378.742;  897.050;    0.000;    0.000
378.802;  889.050;    0.000;    0.000
378.862;  972.050;    0.000;    0.000
378.921;  985.050;    0.000;    0.000
378.981;  930.050;    0.000;    0.000
379.041;  961.050;    0.000;    0.000
379.101;  915.050;    0.000;    0.000
379.161; 1017.050;    0.000;    0.000
379.221;  907.050;    0.000;    0.000
379.281; 1004.050;    0.000;    0.000
379.341;  981.050;    0.000;    0.000
379.401;  936.050;    0.000;    0.000
379.460; 1003.050;    0.000;    0.000
379.520;  940.050;    0.000;    0.000
379.580;  929.050;    0.000;    0.000
379.640; 1013.050;    0.000;    0.000
379.700;  981.050;    0.000;    0.000
379.759; 1038.050;    0.000;    0.000
379.819;  957.050;    0.000;    0.000
379.879;  967.050;    0.000;    0.000
379.939;  993.050;    0.000;    0.000
379.999;  983.050;    0.000;    0.000
380.058;  962.050;    0.000;    0.000
380.118; 1017.050;    0.000;    0.000
380.178; 1114.050;    0.000;    0.000
380.237; 1033.050;    0.000;    0.000
380.297; 1014.050;    0.000;    0.000
380.357;  952.050;    0.000;    0.000
380.417; 1055.050;    0.000;    0.000
380.476; 1010.050;    0.000;    0.000
380.536; 1047.050;    0.000;    0.000
380.596; 1014.050;    0.000;    0.000
380.655; 1033.050;    0.000;    0.000
380.715; 1010.050;    0.000;    0.000
380.775; 1050.050;    0.000;    0.000
380.834; 1028.050;    0.000;    0.000
380.894; 1040.050;    0.000;    0.000
380.954; 1059.050;    0.000;    0.000
381.013; 1044.050;    0.000;    0.000
381.073; 1010.050;    0.000;    0.000
381.132; 1069.050;    0.000;    0.000
381.192; 1095.050;    0.000;    0.000
381.252; 1002.050;    0.000;    0.000
381.311; 1111.050;    0.000;    0.000
381.371; 1100.050;    0.000;    0.000
381.430; 1053.050;    0.000;    0.000
381.490; 1088.050;    0.000;    0.000
381.549; 1078.050;    0.000;    0.000
381.609; 1086.050;    0.000;    0.000
381.668; 1115.050;    0.000;    0.000
381.728; 1139.050;    0.000;    0.000
381.787; 1157.050;    0.000;    0.000
381.847; 1130.050;    0.000;    0.000
381.906; 1108.050;    0.000;    0.000
381.966; 1158.050;    0.000;    0.000
382.025; 1152.050;    0.000;    0.000
382.085; 1129.050;    0.000;    0.000
382.144; 1196.050;    0.000;    0.000
382.204; 1215.050;    0.000;    0.000
382.263; 1200.050;    0.000;    0.000
382.322; 1273.050;    0.000;    0.000
382.382; 1235.050;    0.000;    0.000
382.441; 1263.050;    0.000;    0.000
382.501; 1286.050;    0.000;    0.000
382.560; 1297.050;    0.000;    0.000
382.619; 1319.050;    0.000;    0.000
382.679; 1414.050;    0.000;    0.000
382.738; 1434.050;    0.000;    0.000
382.798; 1582.050;    0.000;    0.000
382.857; 1711.050;    0.000;    0.000
382.916; 1778.050;    0.000;    0.000
382.976; 1750.050;    0.000;    0.000
383.035; 1748.050;    0.000;    0.000
383.094; 1854.050;    0.000;    0.000
383.154; 2196.050;    0.000;    0.000
383.213; 2218.050;    0.000;    0.000
383.272; 2010.050;    0.000;    0.000
383.331; 1675.050;    0.000;    0.000
383.391; 1700.050;    0.000;    0.000
383.450; 1675.050;    0.000;    0.000
383.509; 1590.050;    0.000;    0.000
383.568; 1748.050;    0.000;    0.000
383.628; 1808.050;    0.000;    0.000
383.687; 2061.050;    0.000;    0.000
383.746; 2342.050;    0.000;    0.000
383.805; 2542.050;    0.000;    0.000
383.864; 2251.050;    0.000;    0.000
383.924; 1861.050;    0.000;    0.000
383.983; 1645.050;    0.000;    0.000
384.042; 1494.050;    0.000;    0.000
384.101; 1548.050;    0.000;    0.000
384.160; 1308.050;    0.000;    0.000
384.219; 1353.050;    0.000;    0.000
384.279; 1305.050;    0.000;    0.000
384.338; 1210.050;    0.000;    0.000
384.397; 1257.050;    0.000;    0.000
384.456; 1263.050;    0.000;    0.000
384.515; 1235.050;    0.000;    0.000
384.574; 1237.050;    0.000;    0.000
384.633; 1266.050;    0.000;    0.000
384.692; 1267.050;    0.000;    0.000
384.751; 1224.050;    0.000;    0.000
384.810; 1248.050;    0.000;    0.000
384.869; 1121.050;    0.000;    0.000
384.929; 1174.050;    0.000;    0.000
384.988; 1174.050;    0.000;    0.000
385.047; 1135.050;    0.000;    0.000
385.106; 1191.050;    0.000;    0.000
385.165; 1131.050;    0.000;    0.000
385.224; 1198.050;    0.000;    0.000
385.283; 1126.050;    0.000;    0.000
385.342; 1152.050;    0.000;    0.000
385.401; 1156.050;    0.000;    0.000
385.459; 1192.050;    0.000;    0.000
385.518; 1134.050;    0.000;    0.000
385.577; 1188.050;    0.000;    0.000
385.636; 1203.050;    0.000;    0.000
385.695; 1145.050;    0.000;    0.000
385.754; 1155.050;    0.000;    0.000
385.813; 1188.050;    0.000;    0.000
385.872; 1189.050;    0.000;    0.000
385.931; 1228.050;    0.000;    0.000
385.990; 1161.050;    0.000;    0.000
386.049; 1220.050;    0.000;    0.000
386.107; 1191.050;    0.000;    0.000
386.166; 1215.050;    0.000;    0.000
386.225; 1175.050;    0.000;    0.000
386.284; 1163.050;    0.000;    0.000
386.343; 1223.050;    0.000;    0.000
386.402; 1136.050;    0.000;    0.000
386.460; 1192.050;    0.000;    0.000
386.519; 1168.050;    0.000;    0.000
386.578; 1180.050;    0.000;    0.000
386.637; 1194.050;    0.000;    0.000
386.696; 1223.050;    0.000;    0.000
386.754; 1131.050;    0.000;    0.000
386.813; 1179.050;    0.000;    0.000
386.872; 1221.050;    0.000;    0.000
386.931; 1146.050;    0.000;    0.000
386.989; 1266.050;    0.000;    0.000
387.048; 1166.050;    0.000;    0.000
387.107; 1182.050;    0.000;    0.000
387.165; 1133.050;    0.000;    0.000
387.224; 1170.050;    0.000;    0.000
387.283; 1156.050;    0.000;    0.000
387.342; 1168.050;    0.000;    0.000
387.400; 1146.050;    0.000;    0.000
387.459; 1155.050;    0.000;    0.000
387.517; 1214.050;    0.000;    0.000
387.576; 1149.050;    0.000;    0.000
387.635; 1177.050;    0.000;    0.000
387.693; 1226.050;    0.000;    0.000
387.752; 1158.050;    0.000;    0.000
387.811; 1130.050;    0.000;    0.000
387.869; 1257.050;    0.000;    0.000
387.928; 1123.050;    0.000;    0.000
387.986; 1170.050;    0.000;    0.000
388.045; 1162.050;    0.000;    0.000
388.103; 1168.050;    0.000;    0.000
388.162; 1143.050;    0.000;    0.000
388.221; 1196.050;    0.000;    0.000
388.279; 1148.050;    0.000;    0.000
388.338; 1178.050;    0.000;    0.000
388.396; 1113.050;    0.000;    0.000
388.455; 1198.050;    0.000;    0.000
388.513; 1141.050;    0.000;    0.000
388.572; 1127.050;    0.000;    0.000
388.630; 1148.050;    0.000;    0.000
388.689; 1145.050;    0.000;    0.000
388.747; 1190.050;    0.000;    0.000
388.806; 1111.050;    0.000;    0.000
388.864; 1074.050;    0.000;    0.000
388.922; 1187.050;    0.000;    0.000
388.981; 1125.050;    0.000;    0.000
389.039; 1130.050;    0.000;    0.000
389.098; 1190.050;    0.000;    0.000
389.156; 1166.050;    0.000;    0.000
389.214; 1152.050;    0.000;    0.000
389.273; 1165.050;    0.000;    0.000
389.331; 1182.050;    0.000;    0.000
389.390; 1102.050;    0.000;    0.000
389.448; 1088.050;    0.000;    0.000
389.506; 1119.050;    0.000;    0.000
389.565; 1213.050;    0.000;    0.000
389.623; 1172.050;    0.000;    0.000
389.681; 1144.050;    0.000;    0.000
389.740; 1187.050;    0.000;    0.000
389.798; 1158.050;    0.000;    0.000
389.856; 1155.050;    0.000;    0.000
389.914; 1159.050;    0.000;    0.000
389.973; 1237.050;    0.000;    0.000
390.031; 1120.050;    0.000;    0.000
390.089; 1166.050;    0.000;    0.000
390.147; 1126.050;    0.000;    0.000
390.206; 1104.050;    0.000;    0.000
390.264; 1151.050;    0.000;    0.000
390.322; 1157.050;    0.000;    0.000
390.380; 1148.050;    0.000;    0.000
390.439; 1138.050;    0.000;    0.000
390.497; 1195.050;    0.000;    0.000
390.555; 1150.050;    0.000;    0.000
390.613; 1189.050;    0.000;    0.000
390.671; 1219.050;    0.000;    0.000
390.729; 1144.050;    0.000;    0.000
390.788; 1168.050;    0.000;    0.000
390.846; 1138.050;    0.000;    0.000
390.904; 1193.050;    0.000;    0.000
390.962; 1194.050;    0.000;    0.000
391.020; 1191.050;    0.000;    0.000
391.078; 1219.050;    0.000;    0.000
391.136; 1226.050;    0.000;    0.000
391.194; 1185.050;    0.000;    0.000
391.252; 1226.050;    0.000;    0.000
391.311; 1222.050;    0.000;    0.000
391.369; 1164.050;    0.000;    0.000
391.427; 1262.050;    0.000;    0.000
391.485; 1201.050;    0.000;    0.000
391.543; 1252.050;    0.000;    0.000
391.601; 1206.050;    0.000;    0.000
391.659; 1249.050;    0.000;    0.000
391.717; 1240.050;    0.000;    0.000
391.775; 1131.050;    0.000;    0.000
391.833; 1187.050;    0.000;    0.000
391.891; 1158.050;    0.000;    0.000
391.949; 1177.050;    0.000;    0.000
392.007; 1211.050;    0.000;    0.000
392.065; 1184.050;    0.000;    0.000
392.123; 1216.050;    0.000;    0.000
392.180; 1200.050;    0.000;    0.000
392.238; 1239.050;    0.000;    0.000
392.296; 1204.050;    0.000;    0.000
392.354; 1267.050;    0.000;    0.000
392.412; 1217.050;    0.000;    0.000
392.470; 1251.050;    0.000;    0.000
392.528; 1244.050;    0.000;    0.000
392.586; 1237.050;    0.000;    0.000
392.644; 1244.050;    0.000;    0.000
392.701; 1293.050;    0.000;    0.000
392.759; 1250.050;    0.000;    0.000
392.817; 1229.050;    0.000;    0.000
392.875; 1201.050;    0.000;    0.000
392.933; 1321.050;    0.000;    0.000
392.991; 1205.050;    0.000;    0.000
393.048; 1296.050;    0.000;    0.000
393.106; 1283.050;    0.000;    0.000
393.164; 1251.050;    0.000;    0.000
393.222; 1271.050;    0.000;    0.000
393.279; 1305.050;    0.000;    0.000
393.337; 1455.050;    0.000;    0.000
393.395; 1352.050;    0.000;    0.000
393.453; 1246.050;    0.000;    0.000
393.510; 1258.050;    0.000;    0.000
393.568; 1269.050;    0.000;    0.000
393.626; 1306.050;    0.000;    0.000
393.684; 1235.050;    0.000;    0.000
393.741; 1262.050;    0.000;    0.000
393.799; 1286.050;    0.000;    0.000
393.857; 1201.050;    0.000;    0.000
393.914; 1274.050;    0.000;    0.000
393.972; 1240.050;    0.000;    0.000
394.030; 1214.050;    0.000;    0.000
394.087; 1304.050;    0.000;    0.000
394.145; 1241.050;    0.000;    0.000
394.202; 1322.050;    0.000;    0.000
394.260; 1233.050;    0.000;    0.000
394.318; 1264.050;    0.000;    0.000
394.375; 1287.050;    0.000;    0.000
394.433; 1307.050;    0.000;    0.000
394.490; 1234.050;    0.000;    0.000
394.548; 1291.050;    0.000;    0.000
394.605; 1277.050;    0.000;    0.000
394.663; 1246.050;    0.000;    0.000
394.720; 1270.050;    0.000;    0.000
394.778; 1320.050;    0.000;    0.000
394.836; 1208.050;    0.000;    0.000
394.893; 1249.050;    0.000;    0.000
394.951; 1328.050;    0.000;    0.000
395.008; 1286.050;    0.000;    0.000
395.065; 1305.050;    0.000;    0.000
395.123; 1331.050;    0.000;    0.000
395.180; 1309.050;    0.000;    0.000
395.238; 1295.050;    0.000;    0.000
395.295; 1282.050;    0.000;    0.000
395.353; 1327.050;    0.000;    0.000
395.410; 1264.050;    0.000;    0.000
395.468; 1341.050;    0.000;    0.000
395.525; 1372.050;    0.000;    0.000
395.582; 1368.050;    0.000;    0.000
395.640; 1328.050;    0.000;    0.000
395.697; 1363.050;    0.000;    0.000
395.754; 1279.050;    0.000;    0.000
395.812; 1325.050;    0.000;    0.000
395.869; 1367.050;    0.000;    0.000
395.927; 1289.050;    0.000;    0.000
395.984; 1368.050;    0.000;    0.000
396.041; 1304.050;    0.000;    0.000
396.098; 1351.050;    0.000;    0.000
396.156; 1358.050;    0.000;    0.000
396.213; 1409.050;    0.000;    0.000
396.270; 1415.050;    0.000;    0.000
396.328; 1345.050;    0.000;    0.000
396.385; 1334.050;    0.000;    0.000
396.442; 1330.050;    0.000;    0.000
396.499; 1367.050;    0.000;    0.000
396.557; 1332.050;    0.000;    0.000
396.614; 1375.050;    0.000;    0.000
396.671; 1366.050;    0.000;    0.000
396.728; 1386.050;    0.000;    0.000
396.785; 1398.050;    0.000;    0.000
396.843; 1397.050;    0.000;    0.000
396.900; 1376.050;    0.000;    0.000
396.957; 1418.050;    0.000;    0.000
397.014; 1414.050;    0.000;    0.000
397.071; 1356.050;    0.000;    0.000
397.128; 1337.050;    0.000;    0.000
397.186; 1431.050;    0.000;    0.000
397.243; 1352.050;    0.000;    0.000
397.300; 1362.050;    0.000;    0.000
397.357; 1339.050;    0.000;    0.000
397.414; 1395.050;    0.000;    0.000
397.471; 1364.050;    0.000;    0.000
397.528; 1365.050;    0.000;    0.000
397.585; 1338.050;    0.000;    0.000
397.642; 1370.050;    0.000;    0.000
397.699; 1400.050;    0.000;    0.000
397.756; 1339.050;    0.000;    0.000
397.813; 1443.050;    0.000;    0.000
397.871; 1392.050;    0.000;    0.000
397.928; 1392.050;    0.000;    0.000
397.985; 1351.050;    0.000;    0.000
398.042; 1388.050;    0.000;    0.000
398.099; 1406.050;    0.000;    0.000
398.156; 1367.050;    0.000;    0.000
398.212; 1413.050;    0.000;    0.000
398.269; 1486.050;    0.000;    0.000
398.326; 1453.050;    0.000;    0.000
398.383; 1378.050;    0.000;    0.000
398.440; 1404.050;    0.000;    0.000
398.497; 1437.050;    0.000;    0.000
398.554; 1450.050;    0.000;    0.000
398.611; 1473.050;    0.000;    0.000
398.668; 1410.050;    0.000;    0.000
398.725; 1411.050;    0.000;    0.000
398.782; 1419.050;    0.000;    0.000
398.839; 1504.050;    0.000;    0.000
398.895; 1495.050;    0.000;    0.000
398.952; 1472.050;    0.000;    0.000
399.009; 1468.050;    0.000;    0.000
399.066; 1580.050;    0.000;    0.000
399.123; 1477.050;    0.000;    0.000
399.180; 1606.050;    0.000;    0.000
399.236; 1521.050;    0.000;    0.000
399.293; 1493.050;    0.000;    0.000
399.350; 1555.050;    0.000;    0.000
399.407; 1649.050;    0.000;    0.000
399.463; 1592.050;    0.000;    0.000
399.520; 1613.050;    0.000;    0.000
399.577; 1559.050;    0.000;    0.000
399.634; 1602.050;    0.000;    0.000
399.690; 1595.050;    0.000;    0.000
399.747; 1681.050;    0.000;    0.000
399.804; 1673.050;    0.000;    0.000
399.861; 1692.050;    0.000;    0.000
399.917; 1610.050;    0.000;    0.000
399.974; 1548.050;    0.000;    0.000
400.031; 1575.050;    0.000;    0.000
400.087; 1659.050;    0.000;    0.000
400.144; 1561.050;    0.000;    0.000
400.201; 1578.050;    0.000;    0.000
400.257; 1533.050;    0.000;    0.000
400.314; 1622.050;    0.000;    0.000
400.370; 1576.050;    0.000;    0.000
400.427; 1563.050;    0.000;    0.000
400.484; 1540.050;    0.000;    0.000
400.540; 1549.050;    0.000;    0.000
400.597; 1516.050;    0.000;    0.000
400.653; 1553.050;    0.000;    0.000
400.710; 1516.050;    0.000;    0.000
400.766; 1583.050;    0.000;    0.000
400.823; 1595.050;    0.000;    0.000
400.879; 1507.050;    0.000;    0.000
400.936; 1571.050;    0.000;    0.000
400.993; 1519.050;    0.000;    0.000
401.049; 1570.050;    0.000;    0.000
401.106; 1586.050;    0.000;    0.000
401.162; 1594.050;    0.000;    0.000
401.218; 1548.050;    0.000;    0.000
401.275; 1514.050;    0.000;    0.000
401.331; 1460.050;    0.000;    0.000
401.388; 1604.050;    0.000;    0.000
401.444; 1548.050;    0.000;    0.000
401.501; 1551.050;    0.000;    0.000
401.557; 1470.050;    0.000;    0.000
401.614; 1475.050;    0.000;    0.000
401.670; 1535.050;    0.000;    0.000
401.726; 1535.050;    0.000;    0.000
401.783; 1532.050;    0.000;    0.000
401.839; 1610.050;    0.000;    0.000
401.895; 1512.050;    0.000;    0.000
401.952; 1540.050;    0.000;    0.000
402.008; 1518.050;    0.000;    0.000
402.064; 1495.050;    0.000;    0.000
402.121; 1578.050;    0.000;    0.000
402.177; 1509.050;    0.000;    0.000
402.233; 1609.050;    0.000;    0.000
402.290; 1484.050;    0.000;    0.000
402.346; 1584.050;    0.000;    0.000
402.402; 1488.050;    0.000;    0.000
402.459; 1555.050;    0.000;    0.000
402.515; 1573.050;    0.000;    0.000
402.571; 1639.050;    0.000;    0.000
402.627; 1537.050;    0.000;    0.000
402.683; 1559.050;    0.000;    0.000
402.740; 1526.050;    0.000;    0.000
402.796; 1515.050;    0.000;    0.000
402.852; 1602.050;    0.000;    0.000
402.908; 1541.050;    0.000;    0.000
402.964; 1532.050;    0.000;    0.000
403.021; 1618.050;    0.000;    0.000
403.077; 1556.050;    0.000;    0.000
403.133; 1554.050;    0.000;    0.000
403.189; 1613.050;    0.000;    0.000
403.245; 1653.050;    0.000;    0.000
403.301; 1610.050;    0.000;    0.000
403.357; 1631.050;    0.000;    0.000
403.414; 1638.050;    0.000;    0.000
403.470; 1595.050;    0.000;    0.000
403.526; 1651.050;    0.000;    0.000
403.582; 1520.050;    0.000;    0.000
403.638; 1624.050;    0.000;    0.000
403.694; 1622.050;    0.000;    0.000
403.750; 1676.050;    0.000;    0.000
403.806; 1690.050;    0.000;    0.000
403.862; 1703.050;    0.000;    0.000
403.918; 1619.050;    0.000;    0.000
403.974; 1620.050;    0.000;    0.000
404.030; 1635.050;    0.000;    0.000
404.086; 1648.050;    0.000;    0.000
404.142; 1694.050;    0.000;    0.000
404.198; 1666.050;    0.000;    0.000
404.254; 1653.050;    0.000;    0.000
404.310; 1608.050;    0.000;    0.000
404.366; 1619.050;    0.000;    0.000
404.422; 1658.050;    0.000;    0.000
404.478; 1664.050;    0.000;    0.000
404.534; 1653.050;    0.000;    0.000
404.590; 1679.050;    0.000;    0.000
404.646; 1670.050;    0.000;    0.000
404.701; 1612.050;    0.000;    0.000
404.757; 1677.050;    0.000;    0.000
404.813; 1623.050;    0.000;    0.000
404.869; 1698.050;    0.000;    0.000
404.925; 1692.050;    0.000;    0.000
404.981; 1737.050;    0.000;    0.000
405.037; 1695.050;    0.000;    0.000
405.092; 1656.050;    0.000;    0.000
405.148; 1638.050;    0.000;    0.000
405.204; 1639.050;    0.000;    0.000
405.260; 1685.050;    0.000;    0.000
405.316; 1690.050;    0.000;    0.000
405.371; 1695.050;    0.000;    0.000
405.427; 1712.050;    0.000;    0.000
405.483; 1668.050;    0.000;    0.000
405.539; 1659.050;    0.000;    0.000
405.594; 1708.050;    0.000;    0.000
405.650; 1674.050;    0.000;    0.000
405.706; 1701.050;    0.000;    0.000
405.761; 1663.050;    0.000;    0.000
405.817; 1740.050;    0.000;    0.000
405.873; 1679.050;    0.000;    0.000
405.928; 1688.050;    0.000;    0.000
405.984; 1763.050;    0.000;    0.000
406.040; 1716.050;    0.000;    0.000
406.095; 1687.050;    0.000;    0.000
406.151; 1684.050;    0.000;    0.000
406.207; 1767.050;    0.000;    0.000
406.262; 1720.050;    0.000;    0.000
406.318; 1789.050;    0.000;    0.000
406.374; 1658.050;    0.000;    0.000
406.429; 1697.050;    0.000;    0.000
406.485; 1744.050;    0.000;    0.000
406.540; 1733.050;    0.000;    0.000
406.596; 1705.050;    0.000;    0.000
406.651; 1812.050;    0.000;    0.000
406.707; 1723.050;    0.000;    0.000
406.763; 1781.050;    0.000;    0.000
406.818; 1801.050;    0.000;    0.000
406.874; 1743.050;    0.000;    0.000
406.929; 1819.050;    0.000;    0.000
406.985; 1790.050;    0.000;    0.000
407.040; 1819.050;    0.000;    0.000
407.095; 1807.050;    0.000;    0.000
407.151; 1782.050;    0.000;    0.000
407.206; 1874.050;    0.000;    0.000
407.262; 1826.050;    0.000;    0.000
407.317; 1878.050;    0.000;    0.000
407.373; 1846.050;    0.000;    0.000
407.428; 1998.050;    0.000;    0.000
407.484; 1858.050;    0.000;    0.000
407.539; 1836.050;    0.000;    0.000
407.594; 1904.050;    0.000;    0.000
407.650; 1812.050;    0.000;    0.000
407.705; 1904.050;    0.000;    0.000
407.760; 1950.050;    0.000;    0.000
407.816; 1913.050;    0.000;    0.000
407.871; 1945.050;    0.000;    0.000
407.926; 1935.050;    0.000;    0.000
407.982; 1821.050;    0.000;    0.000
408.037; 1868.050;    0.000;    0.000
408.092; 1873.050;    0.000;    0.000
408.148; 1843.050;    0.000;    0.000
408.203; 1910.050;    0.000;    0.000
408.258; 1865.050;    0.000;    0.000
408.314; 1893.050;    0.000;    0.000
408.369; 1897.050;    0.000;    0.000
408.424; 1864.050;    0.000;    0.000
408.479; 1900.050;    0.000;    0.000
408.534; 1857.050;    0.000;    0.000
408.590; 1889.050;    0.000;    0.000
408.645; 1929.050;    0.000;    0.000
408.700; 1893.050;    0.000;    0.000
408.755; 1831.050;    0.000;    0.000
408.810; 1835.050;    0.000;    0.000
408.866; 1855.050;    0.000;    0.000
408.921; 1813.050;    0.000;    0.000
408.976; 1827.050;    0.000;    0.000
409.031; 1856.050;    0.000;    0.000
409.086; 1884.050;    0.000;    0.000
409.141; 1868.050;    0.000;    0.000
409.196; 1837.050;    0.000;    0.000
409.252; 1828.050;    0.000;    0.000
409.307; 1831.050;    0.000;    0.000
409.362; 1835.050;    0.000;    0.000
409.417; 1803.050;    0.000;    0.000
409.472; 1885.050;    0.000;    0.000
409.527; 1919.050;    0.000;    0.000
409.582; 1894.050;    0.000;    0.000
409.637; 1896.050;    0.000;    0.000
409.692; 1884.050;    0.000;    0.000
409.747; 1901.050;    0.000;    0.000
409.802; 1840.050;    0.000;    0.000
409.857; 1888.050;    0.000;    0.000
409.912; 1853.050;    0.000;    0.000
409.967; 1879.050;    0.000;    0.000
410.022; 1815.050;    0.000;    0.000
410.077; 1807.050;    0.000;    0.000
410.132; 1851.050;    0.000;    0.000
410.187; 1837.050;    0.000;    0.000
410.242; 1850.050;    0.000;    0.000
410.297; 1912.050;    0.000;    0.000
410.351; 1902.050;    0.000;    0.000
410.406; 1844.050;    0.000;    0.000
410.461; 1865.050;    0.000;    0.000
410.516; 1890.050;    0.000;    0.000
410.571; 1863.050;    0.000;    0.000
410.626; 1922.050;    0.000;    0.000
410.681; 1891.050;    0.000;    0.000
410.736; 1913.050;    0.000;    0.000
410.790; 1900.050;    0.000;    0.000
410.845; 1864.050;    0.000;    0.000
410.900; 1874.050;    0.000;    0.000
410.955; 1950.050;    0.000;    0.000
411.010; 1889.050;    0.000;    0.000
411.064; 1869.050;    0.000;    0.000
411.119; 1909.050;    0.000;    0.000
411.174; 1922.050;    0.000;    0.000
411.229; 1842.050;    0.000;    0.000
411.283; 1915.050;    0.000;    0.000
411.338; 1865.050;    0.000;    0.000
411.393; 1867.050;    0.000;    0.000
411.447; 1892.050;    0.000;    0.000
411.502; 1922.050;    0.000;    0.000
411.557; 1894.050;    0.000;    0.000
411.612; 1791.050;    0.000;    0.000
411.666; 1876.050;    0.000;    0.000
411.721; 1853.050;    0.000;    0.000
411.776; 1858.050;    0.000;    0.000
411.830; 1954.050;    0.000;    0.000
411.885; 1896.050;    0.000;    0.000
411.939; 1987.050;    0.000;    0.000
411.994; 1915.050;    0.000;    0.000
412.049; 1874.050;    0.000;    0.000
412.103; 1922.050;    0.000;    0.000
412.158; 1967.050;    0.000;    0.000
412.212; 1892.050;    0.000;    0.000
412.267; 1898.050;    0.000;    0.000
412.322; 1894.050;    0.000;    0.000
412.376; 1982.050;    0.000;    0.000
412.431; 1958.050;    0.000;    0.000
412.485; 1927.050;    0.000;    0.000
412.540; 1930.050;    0.000;    0.000
412.594; 1984.050;    0.000;    0.000
412.649; 1854.050;    0.000;    0.000
412.703; 1970.050;    0.000;    0.000
412.758; 2008.050;    0.000;    0.000
412.812; 1862.050;    0.000;    0.000
412.866; 1855.050;    0.000;    0.000
412.921; 1842.050;    0.000;    0.000
412.975; 1860.050;    0.000;    0.000
413.030; 1895.050;    0.000;    0.000
413.084; 1900.050;    0.000;    0.000
413.139; 1884.050;    0.000;    0.000
413.193; 1892.050;    0.000;    0.000
413.247; 1927.050;    0.000;    0.000
413.302; 1900.050;    0.000;    0.000
413.356; 1961.050;    0.000;    0.000
413.410; 1915.050;    0.000;    0.000
413.465; 1933.050;    0.000;    0.000
413.519; 1920.050;    0.000;    0.000
413.573; 1943.050;    0.000;    0.000
413.628; 1929.050;    0.000;    0.000
413.682; 1868.050;    0.000;    0.000
413.736; 1953.050;    0.000;    0.000
413.791; 1887.050;    0.000;    0.000
413.845; 1948.050;    0.000;    0.000
413.899; 1885.050;    0.000;    0.000
413.953; 1917.050;    0.000;    0.000
414.008; 1833.050;    0.000;    0.000
414.062; 1932.050;    0.000;    0.000
414.116; 1891.050;    0.000;    0.000
414.170; 1951.050;    0.000;    0.000
414.225; 1917.050;    0.000;    0.000
414.279; 1959.050;    0.000;    0.000
414.333; 1905.050;    0.000;    0.000
414.387; 2002.050;    0.000;    0.000
414.441; 1890.050;    0.000;    0.000
414.496; 1881.050;    0.000;    0.000
414.550; 1976.050;    0.000;    0.000
414.604; 1901.050;    0.000;    0.000
414.658; 1884.050;    0.000;    0.000
414.712; 1880.050;    0.000;    0.000
414.766; 1833.050;    0.000;    0.000
414.820; 1945.050;    0.000;    0.000
414.874; 2017.050;    0.000;    0.000
414.928; 1883.050;    0.000;    0.000
414.982; 1999.050;    0.000;    0.000
415.037; 1945.050;    0.000;    0.000
415.091; 1977.050;    0.000;    0.000
415.145; 1883.050;    0.000;    0.000
415.199; 1916.050;    0.000;    0.000
415.253; 1908.050;    0.000;    0.000
415.307; 1895.050;    0.000;    0.000
415.361; 1883.050;    0.000;    0.000
415.415; 1900.050;    0.000;    0.000
415.469; 1881.050;    0.000;    0.000
415.523; 1959.050;    0.000;    0.000
415.577; 1894.050;    0.000;    0.000
415.631; 1972.050;    0.000;    0.000
415.684; 2001.050;    0.000;    0.000
415.738; 1919.050;    0.000;    0.000
415.792; 1926.050;    0.000;    0.000
415.846; 1900.050;    0.000;    0.000
415.900; 2021.050;    0.000;    0.000
415.954; 1953.050;    0.000;    0.000
416.008; 1940.050;    0.000;    0.000
416.062; 1884.050;    0.000;    0.000
416.116; 1875.050;    0.000;    0.000
416.169; 1971.050;    0.000;    0.000
416.223; 1913.050;    0.000;    0.000
416.277; 1915.050;    0.000;    0.000
416.331; 1881.050;    0.000;    0.000
416.385; 1960.050;    0.000;    0.000
416.439; 1920.050;    0.000;    0.000
416.492; 1921.050;    0.000;    0.000
416.546; 1986.050;    0.000;    0.000
416.600; 1889.050;    0.000;    0.000
416.654; 2039.050;    0.000;    0.000
416.707; 1877.050;    0.000;    0.000
416.761; 1931.050;    0.000;    0.000
416.815; 1972.050;    0.000;    0.000
416.869; 1991.050;    0.000;    0.000
416.922; 1960.050;    0.000;    0.000
416.976; 1903.050;    0.000;    0.000
417.030; 1968.050;    0.000;    0.000
417.083; 1923.050;    0.000;    0.000
417.137; 1894.050;    0.000;    0.000
417.191; 1853.050;    0.000;    0.000
417.244; 1936.050;    0.000;    0.000
417.298; 1851.050;    0.000;    0.000
417.352; 1906.050;    0.000;    0.000
417.405; 1860.050;    0.000;    0.000
417.459; 2009.050;    0.000;    0.000
417.512; 1911.050;    0.000;    0.000
417.566; 1880.050;    0.000;    0.000
417.620; 1930.050;    0.000;    0.000
417.673; 1833.050;    0.000;    0.000
417.727; 1883.050;    0.000;    0.000
417.780; 1940.050;    0.000;    0.000
417.834; 1855.050;    0.000;    0.000
417.887; 1966.050;    0.000;    0.000
417.941; 1959.050;    0.000;    0.000
417.994; 2006.050;    0.000;    0.000
418.048; 1915.050;    0.000;    0.000
418.101; 1906.050;    0.000;    0.000
418.155; 1878.050;    0.000;    0.000
418.208; 2026.050;    0.000;    0.000
418.262; 1950.050;    0.000;    0.000
418.315; 1964.050;    0.000;    0.000
418.369; 1952.050;    0.000;    0.000
418.422; 1938.050;    0.000;    0.000
418.476; 2036.050;    0.000;    0.000
418.529; 1954.050;    0.000;    0.000
418.582; 2021.050;    0.000;    0.000
418.636; 1891.050;    0.000;    0.000
418.689; 1952.050;    0.000;    0.000
418.743; 1937.050;    0.000;    0.000
418.796; 1962.050;    0.000;    0.000
418.849; 2023.050;    0.000;    0.000
418.903; 1978.050;    0.000;    0.000
418.956; 1983.050;    0.000;    0.000
419.009; 1911.050;    0.000;    0.000
419.063; 1884.050;    0.000;    0.000
419.116; 1986.050;    0.000;    0.000
419.169; 1940.050;    0.000;    0.000
419.222; 1964.050;    0.000;    0.000
419.276; 2020.050;    0.000;    0.000
419.329; 1909.050;    0.000;    0.000
419.382; 1936.050;    0.000;    0.000
419.435; 1909.050;    0.000;    0.000
419.489; 1951.050;    0.000;    0.000
419.542; 1951.050;    0.000;    0.000
419.595; 1937.050;    0.000;    0.000
419.648; 1997.050;    0.000;    0.000
419.701; 1863.050;    0.000;    0.000
419.755; 1930.050;    0.000;    0.000
419.808; 1958.050;    0.000;    0.000
419.861; 1847.050;    0.000;    0.000
419.914; 1865.050;    0.000;    0.000
419.967; 1904.050;    0.000;    0.000
420.020; 1938.050;    0.000;    0.000
420.073; 1930.050;    0.000;    0.000
420.127; 1912.050;    0.000;    0.000
420.180; 1905.050;    0.000;    0.000
420.233; 1827.050;    0.000;    0.000
420.286; 1936.050;    0.000;    0.000
420.339; 1950.050;    0.000;    0.000
420.392; 1945.050;    0.000;    0.000
420.445; 1907.050;    0.000;    0.000
420.498; 1960.050;    0.000;    0.000
420.551; 1845.050;    0.000;    0.000
420.604; 1864.050;    0.000;    0.000
420.657; 1895.050;    0.000;    0.000
420.710; 1838.050;    0.000;    0.000
420.763; 1909.050;    0.000;    0.000
420.816; 1923.050;    0.000;    0.000
420.869; 1917.050;    0.000;    0.000
420.922; 1774.050;    0.000;    0.000
420.975; 1998.050;    0.000;    0.000
421.028; 1849.050;    0.000;    0.000
421.081; 1886.050;    0.000;    0.000
421.134; 1823.050;    0.000;    0.000
421.187; 1824.050;    0.000;    0.000
421.239; 1810.050;    0.000;    0.000
421.292; 1869.050;    0.000;    0.000
421.345; 1882.050;    0.000;    0.000
421.398; 1908.050;    0.000;    0.000
421.451; 2005.050;    0.000;    0.000
421.504; 1858.050;    0.000;    0.000
421.557; 1763.050;    0.000;    0.000
421.609; 1846.050;    0.000;    0.000
421.662; 1959.050;    0.000;    0.000
421.715; 1853.050;    0.000;    0.000
421.768; 1826.050;    0.000;    0.000
421.821; 1870.050;    0.000;    0.000
421.873; 1806.050;    0.000;    0.000
421.926; 1876.050;    0.000;    0.000
421.979; 1853.050;    0.000;    0.000
422.032; 1802.050;    0.000;    0.000
422.084; 1870.050;    0.000;    0.000
422.137; 1840.050;    0.000;    0.000
422.190; 1789.050;    0.000;    0.000
422.243; 1857.050;    0.000;    0.000
422.295; 1760.050;    0.000;    0.000
422.348; 1884.050;    0.000;    0.000
422.401; 1853.050;    0.000;    0.000
422.453; 1903.050;    0.000;    0.000
422.506; 1775.050;    0.000;    0.000
422.558; 1903.050;    0.000;    0.000
422.611; 1889.050;    0.000;    0.000
422.664; 1893.050;    0.000;    0.000
422.716; 1986.050;    0.000;    0.000
422.769; 1802.050;    0.000;    0.000
422.822; 1848.050;    0.000;    0.000
422.874; 1879.050;    0.000;    0.000
422.927; 1905.050;    0.000;    0.000
422.979; 1808.050;    0.000;    0.000
423.032; 1818.050;    0.000;    0.000
423.084; 1787.050;    0.000;    0.000
423.137; 1838.050;    0.000;    0.000
423.189; 1857.050;    0.000;    0.000
423.242; 1891.050;    0.000;    0.000
423.294; 1852.050;    0.000;    0.000
423.347; 1794.050;    0.000;    0.000
423.399; 1882.050;    0.000;    0.000
423.452; 1873.050;    0.000;    0.000
423.504; 1860.050;    0.000;    0.000
423.557; 1785.050;    0.000;    0.000
423.609; 1778.050;    0.000;    0.000
423.662; 1810.050;    0.000;    0.000
423.714; 1827.050;    0.000;    0.000
423.766; 1767.050;    0.000;    0.000
423.819; 1891.050;    0.000;    0.000
423.871; 1796.050;    0.000;    0.000
423.923; 1790.050;    0.000;    0.000
423.976; 1804.050;    0.000;    0.000
424.028; 1760.050;    0.000;    0.000
424.081; 1830.050;    0.000;    0.000
424.133; 1845.050;    0.000;    0.000
424.185; 1812.050;    0.000;    0.000
424.238; 1847.050;    0.000;    0.000
424.290; 1839.050;    0.000;    0.000
424.342; 1814.050;    0.000;    0.000
424.394; 1777.050;    0.000;    0.000
424.447; 1855.050;    0.000;    0.000
424.499; 1806.050;    0.000;    0.000
424.551; 1840.050;    0.000;    0.000
424.603; 1768.050;    0.000;    0.000
424.656; 1743.050;    0.000;    0.000
424.708; 1806.050;    0.000;    0.000
424.760; 1814.050;    0.000;    0.000
424.812; 1795.050;    0.000;    0.000
424.864; 1823.050;    0.000;    0.000
424.917; 1776.050;    0.000;    0.000
424.969; 1828.050;    0.000;    0.000
425.021; 1798.050;    0.000;    0.000
425.073; 1828.050;    0.000;    0.000
425.125; 1890.050;    0.000;    0.000
425.177; 1789.050;    0.000;    0.000
425.229; 1841.050;    0.000;    0.000
425.282; 1840.050;    0.000;    0.000
425.334; 1853.050;    0.000;    0.000
425.386; 1820.050;    0.000;    0.000
425.438; 1895.050;    0.000;    0.000
425.490; 1775.050;    0.000;    0.000
425.542; 1859.050;    0.000;    0.000
425.594; 1701.050;    0.000;    0.000
425.646; 1773.050;    0.000;    0.000
425.698; 1760.050;    0.000;    0.000
425.750; 1750.050;    0.000;    0.000
425.802; 1816.050;    0.000;    0.000
425.854; 1723.050;    0.000;    0.000
425.906; 1811.050;    0.000;    0.000
425.958; 1821.050;    0.000;    0.000
426.010; 1740.050;    0.000;    0.000
426.062; 1783.050;    0.000;    0.000
426.114; 1682.050;    0.000;    0.000
426.166; 1768.050;    0.000;    0.000
426.218; 1793.050;    0.000;    0.000
426.270; 1831.050;    0.000;    0.000
426.321; 1806.050;    0.000;    0.000
426.373; 1788.050;    0.000;    0.000
426.425; 1783.050;    0.000;    0.000
426.477; 1833.050;    0.000;    0.000
426.529; 1792.050;    0.000;    0.000
426.581; 1842.050;    0.000;    0.000
426.633; 1783.050;    0.000;    0.000
426.684; 1750.050;    0.000;    0.000
426.736; 1735.050;    0.000;    0.000
426.788; 1755.050;    0.000;    0.000
426.840; 1742.050;    0.000;    0.000
426.892; 1814.050;    0.000;    0.000
426.943; 1780.050;    0.000;    0.000
426.995; 1730.050;    0.000;    0.000
427.047; 1772.050;    0.000;    0.000
427.099; 1748.050;    0.000;    0.000
427.150; 1754.050;    0.000;    0.000
427.202; 1741.050;    0.000;    0.000
427.254; 1702.050;    0.000;    0.000
427.306; 1761.050;    0.000;    0.000
427.357; 1755.050;    0.000;    0.000
427.409; 1812.050;    0.000;    0.000
427.461; 1735.050;    0.000;    0.000
427.512; 1760.050;    0.000;    0.000
427.564; 1769.050;    0.000;    0.000
427.616; 1642.050;    0.000;    0.000
427.667; 1733.050;    0.000;    0.000
427.719; 1732.050;    0.000;    0.000
427.770; 1695.050;    0.000;    0.000
427.822; 1775.050;    0.000;    0.000
427.874; 1736.050;    0.000;    0.000
427.925; 1737.050;    0.000;    0.000
427.977; 1617.050;    0.000;    0.000
428.028; 1776.050;    0.000;    0.000
428.080; 1714.050;    0.000;    0.000
428.131; 1713.050;    0.000;    0.000
428.183; 1735.050;    0.000;    0.000
428.234; 1725.050;    0.000;    0.000
428.286; 1729.050;    0.000;    0.000
428.337; 1660.050;    0.000;    0.000
428.389; 1743.050;    0.000;    0.000
428.440; 1714.050;    0.000;    0.000
428.492; 1723.050;    0.000;    0.000
428.543; 1695.050;    0.000;    0.000
428.595; 1743.050;    0.000;    0.000
428.646; 1730.050;    0.000;    0.000
428.697; 1728.050;    0.000;    0.000
428.749; 1700.050;    0.000;    0.000
428.800; 1808.050;    0.000;    0.000
428.852; 1688.050;    0.000;    0.000
428.903; 1684.050;    0.000;    0.000
428.954; 1699.050;    0.000;    0.000
429.006; 1701.050;    0.000;    0.000
429.057; 1671.050;    0.000;    0.000
429.108; 1683.050;    0.000;    0.000
429.160; 1709.050;    0.000;    0.000
429.211; 1734.050;    0.000;    0.000
429.262; 1681.050;    0.000;    0.000
429.314; 1766.050;    0.000;    0.000
429.365; 1654.050;    0.000;    0.000
429.416; 1717.050;    0.000;    0.000
429.467; 1682.050;    0.000;    0.000
429.519; 1695.050;    0.000;    0.000
429.570; 1670.050;    0.000;    0.000
429.621; 1694.050;    0.000;    0.000
429.672; 1649.050;    0.000;    0.000
429.724; 1656.050;    0.000;    0.000
429.775; 1620.050;    0.000;    0.000
429.826; 1662.050;    0.000;    0.000
429.877; 1690.050;    0.000;    0.000
429.928; 1651.050;    0.000;    0.000
429.980; 1637.050;    0.000;    0.000
430.031; 1673.050;    0.000;    0.000
430.082; 1630.050;    0.000;    0.000
430.133; 1548.050;    0.000;    0.000
430.184; 1666.050;    0.000;    0.000
430.235; 1641.050;    0.000;    0.000
430.286; 1717.050;    0.000;    0.000
430.337; 1684.050;    0.000;    0.000
430.388; 1643.050;    0.000;    0.000
430.439; 1626.050;    0.000;    0.000
430.490; 1645.050;    0.000;    0.000
430.542; 1673.050;    0.000;    0.000
430.593; 1637.050;    0.000;    0.000
430.644; 1668.050;    0.000;    0.000
430.695; 1658.050;    0.000;    0.000
430.746; 1641.050;    0.000;    0.000
430.797; 1599.050;    0.000;    0.000
430.848; 1715.050;    0.000;    0.000
430.899; 1639.050;    0.000;    0.000
430.949; 1626.050;    0.000;    0.000
431.000; 1691.050;    0.000;    0.000
431.051; 1654.050;    0.000;    0.000
431.102; 1646.050;    0.000;    0.000
431.153; 1750.050;    0.000;    0.000
431.204; 1612.050;    0.000;    0.000
431.255; 1580.050;    0.000;    0.000
431.306; 1694.050;    0.000;    0.000
431.357; 1690.050;    0.000;    0.000
431.408; 1668.050;    0.000;    0.000
431.458; 1647.050;    0.000;    0.000
431.509; 1639.050;    0.000;    0.000
431.560; 1690.050;    0.000;    0.000
431.611; 1632.050;    0.000;    0.000
431.662; 1707.050;    0.000;    0.000
431.713; 1666.050;    0.000;    0.000
431.763; 1676.050;    0.000;    0.000
431.814; 1662.050;    0.000;    0.000
431.865; 1661.050;    0.000;    0.000
431.916; 1626.050;    0.000;    0.000
431.966; 1668.050;    0.000;    0.000
432.017; 1631.050;    0.000;    0.000
432.068; 1704.050;    0.000;    0.000
432.118; 1705.050;    0.000;    0.000
432.169; 1656.050;    0.000;    0.000
432.220; 1681.050;    0.000;    0.000
432.271; 1672.050;    0.000;    0.000
432.321; 1643.050;    0.000;    0.000
432.372; 1715.050;    0.000;    0.000
432.423; 1589.050;    0.000;    0.000
432.473; 1599.050;    0.000;    0.000
432.524; 1637.050;    0.000;    0.000
432.574; 1596.050;    0.000;    0.000
432.625; 1620.050;    0.000;    0.000
432.676; 1655.050;    0.000;    0.000
432.726; 1654.050;    0.000;    0.000
432.777; 1661.050;    0.000;    0.000
432.827; 1665.050;    0.000;    0.000
432.878; 1669.050;    0.000;    0.000
432.928; 1556.050;    0.000;    0.000
432.979; 1658.050;    0.000;    0.000
433.029; 1587.050;    0.000;    0.000
433.080; 1659.050;    0.000;    0.000
433.130; 1663.050;    0.000;    0.000
433.181; 1671.050;    0.000;    0.000
433.231; 1716.050;    0.000;    0.000
433.282; 1714.050;    0.000;    0.000
433.332; 1628.050;    0.000;    0.000
433.383; 1676.050;    0.000;    0.000
433.433; 1690.050;    0.000;    0.000
433.484; 1743.050;    0.000;    0.000
433.534; 1664.050;    0.000;    0.000
433.585; 1709.050;    0.000;    0.000
433.635; 1687.050;    0.000;    0.000
433.685; 1632.050;    0.000;    0.000
433.736; 1702.050;    0.000;    0.000
433.786; 1679.050;    0.000;    0.000
433.836; 1659.050;    0.000;    0.000
433.887; 1588.050;    0.000;    0.000
433.937; 1699.050;    0.000;    0.000
433.987; 1654.050;    0.000;    0.000
434.038; 1672.050;    0.000;    0.000
434.088; 1754.050;    0.000;    0.000
434.138; 1675.050;    0.000;    0.000
434.188; 1718.050;    0.000;    0.000
434.239; 1700.050;    0.000;    0.000
434.289; 1721.050;    0.000;    0.000
434.339; 1714.050;    0.000;    0.000
434.389; 1680.050;    0.000;    0.000
434.440; 1678.050;    0.000;    0.000
434.490; 1733.050;    0.000;    0.000
434.540; 1705.050;    0.000;    0.000
434.590; 1710.050;    0.000;    0.000
434.640; 1713.050;    0.000;    0.000
434.691; 1718.050;    0.000;    0.000
434.741; 1713.050;    0.000;    0.000
434.791; 1717.050;    0.000;    0.000
434.841; 1746.050;    0.000;    0.000
434.891; 1721.050;    0.000;    0.000
434.941; 1742.050;    0.000;    0.000
434.991; 1799.050;    0.000;    0.000
435.042; 1781.050;    0.000;    0.000
435.092; 1696.050;    0.000;    0.000
435.142; 1697.050;    0.000;    0.000
435.192; 1736.050;    0.000;    0.000
435.242; 1640.050;    0.000;    0.000
435.292; 1739.050;    0.000;    0.000
435.342; 1727.050;    0.000;    0.000
435.392; 1659.050;    0.000;    0.000
435.442; 1613.050;    0.000;    0.000
435.492; 1685.050;    0.000;    0.000
435.542; 1674.050;    0.000;    0.000
435.592; 1646.050;    0.000;    0.000
435.642; 1744.050;    0.000;    0.000
435.692; 1645.050;    0.000;    0.000
435.742; 1605.050;    0.000;    0.000
435.792; 1662.050;    0.000;    0.000
435.842; 1698.050;    0.000;    0.000
435.891; 1649.050;    0.000;    0.000
435.941; 1653.050;    0.000;    0.000
435.991; 1701.050;    0.000;    0.000
436.041; 1646.050;    0.000;    0.000
436.091; 1628.050;    0.000;    0.000
436.141; 1605.050;    0.000;    0.000
436.191; 1699.050;    0.000;    0.000
436.241; 1651.050;    0.000;    0.000
436.290; 1620.050;    0.000;    0.000
436.340; 1673.050;    0.000;    0.000
436.390; 1651.050;    0.000;    0.000
436.440; 1598.050;    0.000;    0.000
436.490; 1558.050;    0.000;    0.000
436.539; 1667.050;    0.000;    0.000
436.589; 1651.050;    0.000;    0.000
436.639; 1672.050;    0.000;    0.000
436.689; 1546.050;    0.000;    0.000
436.738; 1644.050;    0.000;    0.000
436.788; 1618.050;    0.000;    0.000
436.838; 1646.050;    0.000;    0.000
436.887; 1623.050;    0.000;    0.000
436.937; 1658.050;    0.000;    0.000
436.987; 1653.050;    0.000;    0.000
437.036; 1638.050;    0.000;    0.000
437.086; 1582.050;    0.000;    0.000
437.136; 1678.050;    0.000;    0.000
437.185; 1608.050;    0.000;    0.000
437.235; 1673.050;    0.000;    0.000
437.285; 1636.050;    0.000;    0.000
437.334; 1598.050;    0.000;    0.000
437.384; 1660.050;    0.000;    0.000
437.433; 1619.050;    0.000;    0.000
437.483; 1553.050;    0.000;    0.000
437.532; 1667.050;    0.000;    0.000
437.582; 1666.050;    0.000;    0.000
437.631; 1637.050;    0.000;    0.000
437.681; 1596.050;    0.000;    0.000
437.731; 1579.050;    0.000;    0.000
437.780; 1604.050;    0.000;    0.000
437.829; 1610.050;    0.000;    0.000
437.879; 1603.050;    0.000;    0.000
437.928; 1577.050;    0.000;    0.000
437.978; 1638.050;    0.000;    0.000
438.027; 1661.050;    0.000;    0.000
438.077; 1630.050;    0.000;    0.000
438.126; 1680.050;    0.000;    0.000
438.176; 1597.050;    0.000;    0.000
438.225; 1642.050;    0.000;    0.000
438.274; 1683.050;    0.000;    0.000
438.324; 1598.050;    0.000;    0.000
438.373; 1607.050;    0.000;    0.000
438.422; 1603.050;    0.000;    0.000
438.472; 1628.050;    0.000;    0.000
438.521; 1530.050;    0.000;    0.000
438.571; 1606.050;    0.000;    0.000
438.620; 1658.050;    0.000;    0.000
438.669; 1564.050;    0.000;    0.000
438.718; 1625.050;    0.000;    0.000
438.768; 1618.050;    0.000;    0.000
438.817; 1528.050;    0.000;    0.000
438.866; 1664.050;    0.000;    0.000
438.915; 1607.050;    0.000;    0.000
438.965; 1653.050;    0.000;    0.000
439.014; 1696.050;    0.000;    0.000
439.063; 1613.050;    0.000;    0.000
439.112; 1631.050;    0.000;    0.000
439.162; 1546.050;    0.000;    0.000
439.211; 1619.050;    0.000;    0.000
439.260; 1569.050;    0.000;    0.000
439.309; 1665.050;    0.000;    0.000
439.358; 1614.050;    0.000;    0.000
439.407; 1570.050;    0.000;    0.000
439.456; 1620.050;    0.000;    0.000
439.506; 1657.050;    0.000;    0.000
439.555; 1667.050;    0.000;    0.000
439.604; 1640.050;    0.000;    0.000
439.653; 1636.050;    0.000;    0.000
439.702; 1655.050;    0.000;    0.000
439.751; 1551.050;    0.000;    0.000
439.800; 1638.050;    0.000;    0.000
439.849; 1657.050;    0.000;    0.000
439.898; 1641.050;    0.000;    0.000
439.947; 1564.050;    0.000;    0.000
439.996; 1688.050;    0.000;    0.000
440.045; 1616.050;    0.000;    0.000
440.094; 1601.050;    0.000;    0.000
440.143; 1655.050;    0.000;    0.000
440.192; 1675.050;    0.000;    0.000
440.241; 1655.050;    0.000;    0.000
440.290; 1703.050;    0.000;    0.000
440.339; 1587.050;    0.000;    0.000
440.388; 1630.050;    0.000;    0.000
440.437; 1628.050;    0.000;    0.000
440.486; 1650.050;    0.000;    0.000
440.535; 1572.050;    0.000;    0.000
440.583; 1622.050;    0.000;    0.000
440.632; 1616.050;    0.000;    0.000
440.681; 1577.050;    0.000;    0.000
440.730; 1696.050;    0.000;    0.000
440.779; 1621.050;    0.000;    0.000
440.828; 1618.050;    0.000;    0.000
440.876; 1595.050;    0.000;    0.000
440.925; 1619.050;    0.000;    0.000
440.974; 1635.050;    0.000;    0.000
441.023; 1667.050;    0.000;    0.000
441.072; 1632.050;    0.000;    0.000
441.120; 1724.050;    0.000;    0.000
441.169; 1664.050;    0.000;    0.000
441.218; 1646.050;    0.000;    0.000
441.267; 1734.050;    0.000;    0.000
441.315; 1695.050;    0.000;    0.000
441.364; 1609.050;    0.000;    0.000
441.413; 1633.050;    0.000;    0.000
441.461; 1552.050;    0.000;    0.000
441.510; 1690.050;    0.000;    0.000
441.559; 1764.050;    0.000;    0.000
441.607; 1743.050;    0.000;    0.000
441.656; 1767.050;    0.000;    0.000
441.705; 1831.050;    0.000;    0.000
441.753; 1804.050;    0.000;    0.000
441.802; 1723.050;    0.000;    0.000
441.850; 1652.050;    0.000;    0.000
441.899; 1710.050;    0.000;    0.000
441.948; 1702.050;    0.000;    0.000
441.996; 1687.050;    0.000;    0.000
442.045; 1664.050;    0.000;    0.000
442.093; 1681.050;    0.000;    0.000
442.142; 1742.050;    0.000;    0.000
442.190; 1650.050;    0.000;    0.000
442.239; 1710.050;    0.000;    0.000
442.287; 1715.050;    0.000;    0.000
442.336; 1703.050;    0.000;    0.000
442.384; 1670.050;    0.000;    0.000
442.433; 1686.050;    0.000;    0.000
442.481; 1678.050;    0.000;    0.000
442.529; 1674.050;    0.000;    0.000
442.578; 1750.050;    0.000;    0.000
442.626; 1640.050;    0.000;    0.000
442.675; 1726.050;    0.000;    0.000
442.723; 1648.050;    0.000;    0.000
442.771; 1710.050;    0.000;    0.000
442.820; 1746.050;    0.000;    0.000
442.868; 1673.050;    0.000;    0.000
442.917; 1718.050;    0.000;    0.000
442.965; 1699.050;    0.000;    0.000
443.013; 1652.050;    0.000;    0.000
443.062; 1690.050;    0.000;    0.000
443.110; 1687.050;    0.000;    0.000
443.158; 1770.050;    0.000;    0.000
443.206; 1700.050;    0.000;    0.000
443.255; 1699.050;    0.000;    0.000
443.303; 1738.050;    0.000;    0.000
443.351; 1728.050;    0.000;    0.000
443.399; 1680.050;    0.000;    0.000
443.448; 1637.050;    0.000;    0.000
443.496; 1664.050;    0.000;    0.000
443.544; 1708.050;    0.000;    0.000
443.592; 1761.050;    0.000;    0.000
443.640; 1661.050;    0.000;    0.000
443.689; 1675.050;    0.000;    0.000
443.737; 1761.050;    0.000;    0.000
443.785; 1727.050;    0.000;    0.000
443.833; 1799.050;    0.000;    0.000
443.881; 1737.050;    0.000;    0.000
443.929; 1804.050;    0.000;    0.000
443.977; 1789.050;    0.000;    0.000
444.025; 1672.050;    0.000;    0.000
444.074; 1760.050;    0.000;    0.000
444.122; 1801.050;    0.000;    0.000
444.170; 1861.050;    0.000;    0.000
444.218; 1827.050;    0.000;    0.000
444.266; 1751.050;    0.000;    0.000
444.314; 1773.050;    0.000;    0.000
444.362; 1809.050;    0.000;    0.000
444.410; 1733.050;    0.000;    0.000
444.458; 1790.050;    0.000;    0.000
444.506; 1818.050;    0.000;    0.000
444.554; 1789.050;    0.000;    0.000
444.602; 1765.050;    0.000;    0.000
444.650; 1877.050;    0.000;    0.000
444.698; 1764.050;    0.000;    0.000
444.746; 1798.050;    0.000;    0.000
444.793; 1793.050;    0.000;    0.000
444.841; 1847.050;    0.000;    0.000
444.889; 1817.050;    0.000;    0.000
444.937; 1765.050;    0.000;    0.000
444.985; 1770.050;    0.000;    0.000
445.033; 1827.050;    0.000;    0.000
445.081; 1836.050;    0.000;    0.000
445.129; 1793.050;    0.000;    0.000
445.176; 1769.050;    0.000;    0.000
445.224; 1820.050;    0.000;    0.000
445.272; 1810.050;    0.000;    0.000
445.320; 1771.050;    0.000;    0.000
445.368; 1785.050;    0.000;    0.000
445.415; 1791.050;    0.000;    0.000
445.463; 1731.050;    0.000;    0.000
445.511; 1810.050;    0.000;    0.000
445.559; 1806.050;    0.000;    0.000
445.606; 1777.050;    0.000;    0.000
445.654; 1710.050;    0.000;    0.000
445.702; 1746.050;    0.000;    0.000
445.749; 1852.050;    0.000;    0.000
445.797; 1730.050;    0.000;    0.000
445.845; 1729.050;    0.000;    0.000
445.892; 1846.050;    0.000;    0.000
445.940; 1782.050;    0.000;    0.000
445.988; 1777.050;    0.000;    0.000
446.035; 1848.050;    0.000;    0.000
446.083; 1783.050;    0.000;    0.000
446.131; 1776.050;    0.000;    0.000
446.178; 1858.050;    0.000;    0.000
446.226; 1755.050;    0.000;    0.000
446.273; 1837.050;    0.000;    0.000
446.321; 1806.050;    0.000;    0.000
446.368; 1811.050;    0.000;    0.000
446.416; 1760.050;    0.000;    0.000
446.463; 1732.050;    0.000;    0.000
446.511; 1805.050;    0.000;    0.000
446.558; 1782.050;    0.000;    0.000
446.606; 1828.050;    0.000;    0.000
446.653; 1783.050;    0.000;    0.000
446.701; 1873.050;    0.000;    0.000
446.748; 1821.050;    0.000;    0.000
446.796; 1892.050;    0.000;    0.000
446.843; 1857.050;    0.000;    0.000
446.891; 1810.050;    0.000;    0.000
446.938; 1855.050;    0.000;    0.000
446.985; 1829.050;    0.000;    0.000
447.033; 1761.050;    0.000;    0.000
447.080; 1931.050;    0.000;    0.000
447.128; 1884.050;    0.000;    0.000
447.175; 1872.050;    0.000;    0.000
447.222; 1823.050;    0.000;    0.000
447.270; 1945.050;    0.000;    0.000
447.317; 1880.050;    0.000;    0.000
447.364; 1885.050;    0.000;    0.000
447.411; 1969.050;    0.000;    0.000
447.459; 1948.050;    0.000;    0.000
447.506; 1943.050;    0.000;    0.000
447.553; 2031.050;    0.000;    0.000
447.601; 2015.050;    0.000;    0.000
447.648; 1941.050;    0.000;    0.000
447.695; 1963.050;    0.000;    0.000
447.742; 2030.050;    0.000;    0.000
447.789; 1988.050;    0.000;    0.000
447.837; 2142.050;    0.000;    0.000
447.884; 2145.050;    0.000;    0.000
447.931; 2170.050;    0.000;    0.000
447.978; 2082.050;    0.000;    0.000
448.025; 2049.050;    0.000;    0.000
448.072; 2122.050;    0.000;    0.000
448.120; 2121.050;    0.000;    0.000
448.167; 2188.050;    0.000;    0.000
448.214; 2112.050;    0.000;    0.000
448.261; 2073.050;    0.000;    0.000
448.308; 2068.050;    0.000;    0.000
448.355; 2057.050;    0.000;    0.000
448.402; 2107.050;    0.000;    0.000
448.449; 2029.050;    0.000;    0.000
448.496; 2001.050;    0.000;    0.000
448.543; 1943.050;    0.000;    0.000
448.590; 2047.050;    0.000;    0.000
448.637; 1970.050;    0.000;    0.000
448.684; 1919.050;    0.000;    0.000
448.731; 1889.050;    0.000;    0.000
448.778; 1924.050;    0.000;    0.000
448.825; 1940.050;    0.000;    0.000
448.872; 1840.050;    0.000;    0.000
448.919; 1878.050;    0.000;    0.000
448.966; 1983.050;    0.000;    0.000
449.013; 1941.050;    0.000;    0.000
449.060; 1933.050;    0.000;    0.000
449.107; 1837.050;    0.000;    0.000
449.154; 1882.050;    0.000;    0.000
449.200; 1908.050;    0.000;    0.000
449.247; 1883.050;    0.000;    0.000
449.294; 1845.050;    0.000;    0.000
449.341; 1865.050;    0.000;    0.000
449.388; 1840.050;    0.000;    0.000
449.435; 1823.050;    0.000;    0.000
449.481; 1848.050;    0.000;    0.000
449.528; 1749.050;    0.000;    0.000
449.575; 1789.050;    0.000;    0.000
449.622; 1819.050;    0.000;    0.000
449.668; 1746.050;    0.000;    0.000
449.715; 1789.050;    0.000;    0.000
449.762; 1727.050;    0.000;    0.000
449.809; 1779.050;    0.000;    0.000
449.855; 1802.050;    0.000;    0.000
449.902; 1740.050;    0.000;    0.000
449.949; 1823.050;    0.000;    0.000
449.995; 1742.050;    0.000;    0.000
450.042; 1744.050;    0.000;    0.000
450.089; 1782.050;    0.000;    0.000
450.135; 1863.050;    0.000;    0.000
450.182; 1750.050;    0.000;    0.000
450.229; 1752.050;    0.000;    0.000
450.275; 1795.050;    0.000;    0.000
450.322; 1742.050;    0.000;    0.000
450.368; 1736.050;    0.000;    0.000
450.415; 1770.050;    0.000;    0.000
450.462; 1779.050;    0.000;    0.000
450.508; 1756.050;    0.000;    0.000
450.555; 1712.050;    0.000;    0.000
450.601; 1775.050;    0.000;    0.000
450.648; 1802.050;    0.000;    0.000
450.694; 1774.050;    0.000;    0.000
450.741; 1765.050;    0.000;    0.000
450.787; 1797.050;    0.000;    0.000
450.834; 1764.050;    0.000;    0.000
450.880; 1734.050;    0.000;    0.000
450.927; 1662.050;    0.000;    0.000
450.973; 1717.050;    0.000;    0.000
451.019; 1717.050;    0.000;    0.000
451.066; 1717.050;    0.000;    0.000
451.112; 1716.050;    0.000;    0.000
451.159; 1664.050;    0.000;    0.000
451.205; 1707.050;    0.000;    0.000
451.251; 1727.050;    0.000;    0.000
451.298; 1733.050;    0.000;    0.000
451.344; 1693.050;    0.000;    0.000
451.390; 1733.050;    0.000;    0.000
451.437; 1744.050;    0.000;    0.000
451.483; 1780.050;    0.000;    0.000
451.529; 1693.050;    0.000;    0.000
451.576; 1707.050;    0.000;    0.000
451.622; 1641.050;    0.000;    0.000
451.668; 1703.050;    0.000;    0.000
451.714; 1687.050;    0.000;    0.000
451.761; 1787.050;    0.000;    0.000
451.807; 1778.050;    0.000;    0.000
451.853; 1683.050;    0.000;    0.000
451.899; 1710.050;    0.000;    0.000
451.945; 1758.050;    0.000;    0.000
451.992; 1780.050;    0.000;    0.000
452.038; 1670.050;    0.000;    0.000
452.084; 1726.050;    0.000;    0.000
452.130; 1736.050;    0.000;    0.000
452.176; 1644.050;    0.000;    0.000
452.222; 1667.050;    0.000;    0.000
452.268; 1730.050;    0.000;    0.000
452.315; 1704.050;    0.000;    0.000
452.361; 1727.050;    0.000;    0.000
452.407; 1659.050;    0.000;    0.000
452.453; 1572.050;    0.000;    0.000
452.499; 1636.050;    0.000;    0.000
452.545; 1717.050;    0.000;    0.000
452.591; 1794.050;    0.000;    0.000
452.637; 1660.050;    0.000;    0.000
452.683; 1659.050;    0.000;    0.000
452.729; 1721.050;    0.000;    0.000
452.775; 1623.050;    0.000;    0.000
452.821; 1724.050;    0.000;    0.000
452.867; 1681.050;    0.000;    0.000
452.913; 1728.050;    0.000;    0.000
452.959; 1717.050;    0.000;    0.000
453.005; 1682.050;    0.000;    0.000
453.051; 1721.050;    0.000;    0.000
453.097; 1649.050;    0.000;    0.000
453.142; 1661.050;    0.000;    0.000
453.188; 1703.050;    0.000;    0.000
453.234; 1704.050;    0.000;    0.000
453.280; 1675.050;    0.000;    0.000
453.326; 1617.050;    0.000;    0.000
453.372; 1645.050;    0.000;    0.000
453.418; 1680.050;    0.000;    0.000
453.463; 1729.050;    0.000;    0.000
453.509; 1690.050;    0.000;    0.000
453.555; 1739.050;    0.000;    0.000
453.601; 1727.050;    0.000;    0.000
453.647; 1757.050;    0.000;    0.000
453.692; 1715.050;    0.000;    0.000
453.738; 1670.050;    0.000;    0.000
453.784; 1710.050;    0.000;    0.000
453.829; 1762.050;    0.000;    0.000
453.875; 1713.050;    0.000;    0.000
453.921; 1662.050;    0.000;    0.000
453.967; 1672.050;    0.000;    0.000
454.012; 1738.050;    0.000;    0.000
454.058; 1716.050;    0.000;    0.000
454.104; 1681.050;    0.000;    0.000
454.149; 1734.050;    0.000;    0.000
454.195; 1687.050;    0.000;    0.000
454.240; 1732.050;    0.000;    0.000
454.286; 1667.050;    0.000;    0.000
454.332; 1691.050;    0.000;    0.000
454.377; 1676.050;    0.000;    0.000
454.423; 1718.050;    0.000;    0.000
454.468; 1661.050;    0.000;    0.000
454.514; 1722.050;    0.000;    0.000
454.559; 1758.050;    0.000;    0.000
454.605; 1703.050;    0.000;    0.000
454.650; 1742.050;    0.000;    0.000
454.696; 1733.050;    0.000;    0.000
454.741; 1700.050;    0.000;    0.000
454.787; 1670.050;    0.000;    0.000
454.832; 1744.050;    0.000;    0.000
454.878; 1762.050;    0.000;    0.000
454.923; 1697.050;    0.000;    0.000
454.969; 1735.050;    0.000;    0.000
455.014; 1746.050;    0.000;    0.000
455.060; 1683.050;    0.000;    0.000
455.105; 1772.050;    0.000;    0.000
455.150; 1669.050;    0.000;    0.000
455.196; 1666.050;    0.000;    0.000
455.241; 1708.050;    0.000;    0.000
455.286; 1660.050;    0.000;    0.000
455.332; 1693.050;    0.000;    0.000
455.377; 1689.050;    0.000;    0.000
455.422; 1760.050;    0.000;    0.000
455.468; 1735.050;    0.000;    0.000
455.513; 1639.050;    0.000;    0.000
455.558; 1661.050;    0.000;    0.000
455.604; 1655.050;    0.000;    0.000
455.649; 1749.050;    0.000;    0.000
455.694; 1638.050;    0.000;    0.000
455.739; 1782.050;    0.000;    0.000
455.785; 1737.050;    0.000;    0.000
455.830; 1724.050;    0.000;    0.000
455.875; 1659.050;    0.000;    0.000
455.920; 1642.050;    0.000;    0.000
455.965; 1706.050;    0.000;    0.000
456.010; 1789.050;    0.000;    0.000
456.056; 1707.050;    0.000;    0.000
456.101; 1698.050;    0.000;    0.000
456.146; 1710.050;    0.000;    0.000
456.191; 1708.050;    0.000;    0.000
456.236; 1673.050;    0.000;    0.000
456.281; 1668.050;    0.000;    0.000
456.326; 1738.050;    0.000;    0.000
456.371; 1728.050;    0.000;    0.000
456.416; 1729.050;    0.000;    0.000
456.461; 1743.050;    0.000;    0.000
456.506; 1763.050;    0.000;    0.000
456.552; 1784.050;    0.000;    0.000
456.597; 1753.050;    0.000;    0.000
456.642; 1771.050;    0.000;    0.000
456.687; 1758.050;    0.000;    0.000
456.732; 1740.050;    0.000;    0.000
456.776; 1749.050;    0.000;    0.000
456.821; 1731.050;    0.000;    0.000
456.866; 1744.050;    0.000;    0.000
456.911; 1666.050;    0.000;    0.000
456.956; 1735.050;    0.000;    0.000
457.001; 1703.050;    0.000;    0.000
457.046; 1772.050;    0.000;    0.000
457.091; 1701.050;    0.000;    0.000
457.136; 1666.050;    0.000;    0.000
457.181; 1742.050;    0.000;    0.000
457.225; 1770.050;    0.000;    0.000
457.270; 1675.050;    0.000;    0.000
457.315; 1683.050;    0.000;    0.000
457.360; 1704.050;    0.000;    0.000
457.405; 1640.050;    0.000;    0.000
457.450; 1660.050;    0.000;    0.000
457.494; 1722.050;    0.000;    0.000
457.539; 1764.050;    0.000;    0.000
457.584; 1719.050;    0.000;    0.000
457.629; 1829.050;    0.000;    0.000
457.673; 1775.050;    0.000;    0.000
457.718; 1744.050;    0.000;    0.000
457.763; 1791.050;    0.000;    0.000
457.807; 1808.050;    0.000;    0.000
457.852; 1733.050;    0.000;    0.000
457.897; 1758.050;    0.000;    0.000
457.941; 1777.050;    0.000;    0.000
457.986; 1810.050;    0.000;    0.000
458.031; 1767.050;    0.000;    0.000
458.075; 1775.050;    0.000;    0.000
458.120; 1760.050;    0.000;    0.000
458.165; 1683.050;    0.000;    0.000
458.209; 1762.050;    0.000;    0.000
458.254; 1772.050;    0.000;    0.000
458.298; 1848.050;    0.000;    0.000
458.343; 1819.050;    0.000;    0.000
458.387; 1750.050;    0.000;    0.000
458.432; 1730.050;    0.000;    0.000
458.476; 1823.050;    0.000;    0.000
458.521; 1733.050;    0.000;    0.000
458.565; 1818.050;    0.000;    0.000
458.610; 1850.050;    0.000;    0.000
458.654; 1806.050;    0.000;    0.000
458.699; 1802.050;    0.000;    0.000
458.743; 1767.050;    0.000;    0.000
458.788; 1854.050;    0.000;    0.000
458.832; 1820.050;    0.000;    0.000
458.877; 1856.050;    0.000;    0.000
458.921; 1828.050;    0.000;    0.000
458.965; 1794.050;    0.000;    0.000
459.010; 1864.050;    0.000;    0.000
459.054; 1847.050;    0.000;    0.000
459.098; 1823.050;    0.000;    0.000
459.143; 1905.050;    0.000;    0.000
459.187; 1856.050;    0.000;    0.000
459.231; 1861.050;    0.000;    0.000
459.276; 1822.050;    0.000;    0.000
459.320; 1876.050;    0.000;    0.000
459.364; 1843.050;    0.000;    0.000
459.409; 1903.050;    0.000;    0.000
459.453; 1861.050;    0.000;    0.000
459.497; 1926.050;    0.000;    0.000
459.541; 1825.050;    0.000;    0.000
459.586; 1960.050;    0.000;    0.000
459.630; 1894.050;    0.000;    0.000
459.674; 1953.050;    0.000;    0.000
459.718; 1900.050;    0.000;    0.000
459.762; 1905.050;    0.000;    0.000
459.807; 1887.050;    0.000;    0.000
459.851; 1966.050;    0.000;    0.000
459.895; 1959.050;    0.000;    0.000
459.939; 1903.050;    0.000;    0.000
459.983; 1905.050;    0.000;    0.000
460.027; 1922.050;    0.000;    0.000
460.071; 1920.050;    0.000;    0.000
460.115; 1920.050;    0.000;    0.000
460.159; 1918.050;    0.000;    0.000
460.204; 1955.050;    0.000;    0.000
460.248; 1990.050;    0.000;    0.000
460.292; 1965.050;    0.000;    0.000
460.336; 1943.050;    0.000;    0.000
460.380; 1932.050;    0.000;    0.000
460.424; 1964.050;    0.000;    0.000
460.468; 1984.050;    0.000;    0.000
460.512; 1979.050;    0.000;    0.000
460.556; 2036.050;    0.000;    0.000
460.600; 1893.050;    0.000;    0.000
460.643; 1889.050;    0.000;    0.000
460.687; 1949.050;    0.000;    0.000
460.731; 1890.050;    0.000;    0.000
460.775; 1971.050;    0.000;    0.000
460.819; 1971.050;    0.000;    0.000
460.863; 1895.050;    0.000;    0.000
460.907; 1821.050;    0.000;    0.000
460.951; 1930.050;    0.000;    0.000
460.995; 1976.050;    0.000;    0.000
461.038; 1878.050;    0.000;    0.000
461.082; 1936.050;    0.000;    0.000
461.126; 1977.050;    0.000;    0.000
461.170; 1934.050;    0.000;    0.000
461.214; 1915.050;    0.000;    0.000
461.257; 1962.050;    0.000;    0.000
461.301; 1957.050;    0.000;    0.000
461.345; 1971.050;    0.000;    0.000
461.389; 1984.050;    0.000;    0.000
461.432; 1966.050;    0.000;    0.000
461.476; 1954.050;    0.000;    0.000
461.520; 1937.050;    0.000;    0.000
461.563; 1900.050;    0.000;    0.000
461.607; 1995.050;    0.000;    0.000
461.651; 1972.050;    0.000;    0.000
461.694; 1962.050;    0.000;    0.000
461.738; 2003.050;    0.000;    0.000
461.782; 1979.050;    0.000;    0.000
461.825; 1932.050;    0.000;    0.000
461.869; 1975.050;    0.000;    0.000
461.913; 1972.050;    0.000;    0.000
461.956; 1966.050;    0.000;    0.000
462.000; 1974.050;    0.000;    0.000
462.043; 2019.050;    0.000;    0.000
462.087; 1956.050;    0.000;    0.000
462.130; 2001.050;    0.000;    0.000
462.174; 2042.050;    0.000;    0.000
462.217; 2038.050;    0.000;    0.000
462.261; 2010.050;    0.000;    0.000
462.304; 2029.050;    0.000;    0.000
462.348; 2015.050;    0.000;    0.000
462.391; 2006.050;    0.000;    0.000
462.435; 2052.050;    0.000;    0.000
462.478; 2052.050;    0.000;    0.000
462.522; 1927.050;    0.000;    0.000
462.565; 2064.050;    0.000;    0.000
462.608; 2064.050;    0.000;    0.000
462.652; 2087.050;    0.000;    0.000
462.695; 2137.050;    0.000;    0.000
462.739; 2106.050;    0.000;    0.000
462.782; 2103.050;    0.000;    0.000
462.825; 2097.050;    0.000;    0.000
462.869; 2122.050;    0.000;    0.000
462.912; 2171.050;    0.000;    0.000
462.955; 2072.050;    0.000;    0.000
462.998; 2062.050;    0.000;    0.000
463.042; 2075.050;    0.000;    0.000
463.085; 2194.050;    0.000;    0.000
463.128; 2276.050;    0.000;    0.000
463.172; 2039.050;    0.000;    0.000
463.215;  438.050;    0.000;    0.000
463.258;  350.050;    0.000;    0.000
463.301;  308.050;    0.000;    0.000
463.344;  389.050;    0.000;    0.000
463.388;  340.050;    0.000;    0.000
463.431;  310.050;    0.000;    0.000
463.474;  360.050;    0.000;    0.000
463.517;  321.050;    0.000;    0.000
463.560;  341.050;    0.000;    0.000
463.603;  341.050;    0.000;    0.000
463.646;  344.050;    0.000;    0.000
463.690;  347.050;    0.000;    0.000
463.733;  345.050;    0.000;    0.000
463.776;  325.050;    0.000;    0.000
463.819;  321.050;    0.000;    0.000
463.862;  297.050;    0.000;    0.000

