
Integration time [ms]:   1.000
Averaging Nr. [scans]: 1
Smoothing Nr. [pixels]: 0
Data measured with spectrometer [name]: UV2
Wave   ;Sample   ;Dark     ;Reference
[nm]   ;[counts] ;[counts] ;[counts] 

353.533;  215.775;  216.475;    0.000
353.597;  246.775;  244.475;    0.000
353.660;  208.775;  181.475;    0.000
353.723;  193.775;  203.475;    0.000
353.786;  177.775;  180.475;    0.000
353.850;  221.775;  213.475;    0.000
353.913;  194.775;  191.475;    0.000
353.976;  179.775;  195.475;    0.000
354.039;  174.775;  158.475;    0.000
354.102;  196.775;  199.475;    0.000
354.166;  212.775;  185.475;    0.000
354.229;  224.775;  188.475;    0.000
354.292;  177.775;  188.475;    0.000
354.355;  192.775;  226.475;    0.000
354.418;  231.775;  158.475;    0.000
354.481;  199.775;  185.475;    0.000
354.545;  457.775;  191.475;    0.000
354.608;  484.775;  247.475;    0.000
354.671;  465.775;  176.475;    0.000
354.734;  521.775;  198.475;    0.000
354.797;  497.775;  195.475;    0.000
354.860;  492.775;  212.475;    0.000
354.923;  491.775;  184.475;    0.000
354.986;  532.775;  169.475;    0.000
355.050;  530.775;  206.475;    0.000
355.113;  508.775;  210.475;    0.000
355.176;  581.775;  217.475;    0.000
355.239;  555.775;  201.475;    0.000
355.302;  565.775;  193.475;    0.000
355.365;  556.775;  234.475;    0.000
355.428;  609.775;  182.475;    0.000
355.491;  608.775;  233.475;    0.000
355.554;  533.775;  167.475;    0.000
355.617;  604.775;  195.475;    0.000
355.680;  571.775;  198.475;    0.000
355.743;  550.775;  186.475;    0.000
355.806;  493.775;  171.475;    0.000
355.869;  612.775;  244.475;    0.000
355.932;  575.775;  164.475;    0.000
355.995;  609.775;  220.475;    0.000
356.058;  584.775;  172.475;    0.000
356.121;  614.775;  228.475;    0.000
356.184;  623.775;  225.475;    0.000
356.247;  611.775;  161.475;    0.000
356.310;  532.775;  195.475;    0.000
356.373;  627.775;  191.475;    0.000
356.436;  608.775;  147.475;    0.000
356.498;  625.775;  183.475;    0.000
356.561;  623.775;  137.475;    0.000
356.624;  579.775;  186.475;    0.000
356.687;  635.775;  158.475;    0.000
356.750;  571.775;  194.475;    0.000
356.813;  620.775;  186.475;    0.000
356.876;  579.775;  161.475;    0.000
356.939;  615.775;  188.475;    0.000
357.001;  655.775;  200.475;    0.000
357.064;  657.775;  182.475;    0.000
357.127;  717.775;  168.475;    0.000
357.190;  591.775;  157.475;    0.000
357.253;  653.775;  199.475;    0.000
357.316;  691.775;  187.475;    0.000
357.378;  590.775;  174.475;    0.000
357.441;  666.775;  165.475;    0.000
357.504;  579.775;  189.475;    0.000
357.567;  564.775;  116.475;    0.000
357.629;  653.775;  176.475;    0.000
357.692;  628.775;  134.475;    0.000
357.755;  626.775;  175.475;    0.000
357.818;  609.775;  159.475;    0.000
357.880;  655.775;  185.475;    0.000
357.943;  590.775;  159.475;    0.000
358.006;  645.775;  176.475;    0.000
358.069;  652.775;  156.475;    0.000
358.131;  630.775;  170.475;    0.000
358.194;  649.775;  125.475;    0.000
358.257;  658.775;  186.475;    0.000
358.319;  610.775;  139.475;    0.000
358.382;  649.775;  175.475;    0.000
358.445;  616.775;  170.475;    0.000
358.507;  636.775;  129.475;    0.000
358.570;  650.775;  168.475;    0.000
358.633;  622.775;  152.475;    0.000
358.695;  608.775;  194.475;    0.000
358.758;  611.775;  154.475;    0.000
358.821;  629.775;  147.475;    0.000
358.883;  654.775;  163.475;    0.000
358.946;  668.775;  155.475;    0.000
359.008;  745.775;  208.475;    0.000
359.071;  681.775;  182.475;    0.000
359.134;  624.775;  126.475;    0.000
359.196;  614.775;  142.475;    0.000
359.259;  705.775;  138.475;    0.000
359.321;  682.775;  153.475;    0.000
359.384;  634.775;  186.475;    0.000
359.446;  641.775;  152.475;    0.000
359.509;  650.775;  144.475;    0.000
359.571;  646.775;  164.475;    0.000
359.634;  656.775;  171.475;    0.000
359.696;  674.775;  144.475;    0.000
359.759;  682.775;  171.475;    0.000
359.821;  660.775;  161.475;    0.000
359.884;  632.775;  159.475;    0.000
359.946;  749.775;  186.475;    0.000
360.009;  716.775;  171.475;    0.000
360.071;  682.775;  166.475;    0.000
360.134;  699.775;  215.475;    0.000
360.196;  653.775;  138.475;    0.000
360.259;  716.775;  196.475;    0.000
360.321;  701.775;  148.475;    0.000
360.384;  678.775;  150.475;    0.000
360.446;  673.775;  148.475;    0.000
360.508;  670.775;  172.475;    0.000
360.571;  685.775;  155.475;    0.000
360.633;  654.775;  153.475;    0.000
360.696;  648.775;  142.475;    0.000
360.758;  678.775;  165.475;    0.000
360.820;  630.775;  155.475;    0.000
360.883;  702.775;  156.475;    0.000
360.945;  726.775;  171.475;    0.000
361.007;  671.775;  138.475;    0.000
361.070;  746.775;  129.475;    0.000
361.132;  734.775;  166.475;    0.000
361.194;  730.775;  143.475;    0.000
361.257;  660.775;  154.475;    0.000
361.319;  713.775;  176.475;    0.000
361.381;  694.775;  143.475;    0.000
361.443;  688.775;  136.475;    0.000
361.506;  752.775;  160.475;    0.000
361.568;  655.775;  140.475;    0.000
361.630;  720.775;  159.475;    0.000
361.693;  724.775;  162.475;    0.000
361.755;  689.775;  185.475;    0.000
361.817;  723.775;  209.475;    0.000
361.879;  721.775;  161.475;    0.000
361.941;  733.775;  152.475;    0.000
362.004;  725.775;  132.475;    0.000
362.066;  700.775;  159.475;    0.000
362.128;  745.775;  143.475;    0.000
362.190;  750.775;  131.475;    0.000
362.252;  768.775;  131.475;    0.000
362.315;  694.775;  175.475;    0.000
362.377;  731.775;  140.475;    0.000
362.439;  754.775;  140.475;    0.000
362.501;  718.775;  140.475;    0.000
362.563;  711.775;  152.475;    0.000
362.625;  724.775;  174.475;    0.000
362.688;  737.775;  195.475;    0.000
362.750;  806.775;  221.475;    0.000
362.812;  742.775;  171.475;    0.000
362.874;  699.775;  117.475;    0.000
362.936;  775.775;  162.475;    0.000
362.998;  742.775;  142.475;    0.000
363.060;  754.775;  143.475;    0.000
363.122;  732.775;  148.475;    0.000
363.184;  785.775;  179.475;    0.000
363.246;  783.775;  186.475;    0.000
363.308;  714.775;  180.475;    0.000
363.370;  792.775;  200.475;    0.000
363.432;  699.775;  139.475;    0.000
363.494;  734.775;  138.475;    0.000
363.556;  721.775;  114.475;    0.000
363.618;  726.775;  153.475;    0.000
363.680;  785.775;  153.475;    0.000
363.742;  803.775;  178.475;    0.000
363.804;  816.775;  214.475;    0.000
363.866;  794.775;  170.475;    0.000
363.928;  754.775;  145.475;    0.000
363.990;  816.775;  215.475;    0.000
364.052;  761.775;  166.475;    0.000
364.114;  703.775;  168.475;    0.000
364.176;  764.775;  176.475;    0.000
364.238;  840.775;  203.475;    0.000
364.300;  751.775;  158.475;    0.000
364.362;  742.775;  152.475;    0.000
364.424;  723.775;  119.475;    0.000
364.486;  813.775;  187.475;    0.000
364.548;  773.775;  180.475;    0.000
364.609;  787.775;  212.475;    0.000
364.671;  792.775;  165.475;    0.000
364.733;  783.775;  190.475;    0.000
364.795;  754.775;  148.475;    0.000
364.857;  802.775;  159.475;    0.000
364.919;  763.775;  159.475;    0.000
364.981;  775.775;  191.475;    0.000
365.042;  765.775;  170.475;    0.000
365.104;  824.775;  145.475;    0.000
365.166;  708.775;  134.475;    0.000
365.228;  797.775;  150.475;    0.000
365.290;  759.775;  158.475;    0.000
365.351;  770.775;  168.475;    0.000
365.413;  757.775;  173.475;    0.000
365.475;  787.775;  172.475;    0.000
365.537;  766.775;  126.475;    0.000
365.598;  823.775;  160.475;    0.000
365.660;  766.775;  127.475;    0.000
365.722;  792.775;  189.475;    0.000
365.784;  785.775;  161.475;    0.000
365.845;  780.775;  152.475;    0.000
365.907;  785.775;  117.475;    0.000
365.969;  782.775;  146.475;    0.000
366.030;  807.775;  171.475;    0.000
366.092;  792.775;  155.475;    0.000
366.154;  811.775;  137.475;    0.000
366.215;  784.775;  147.475;    0.000
366.277;  786.775;  148.475;    0.000
366.339;  823.775;  158.475;    0.000
366.400;  817.775;  140.475;    0.000
366.462;  785.775;  159.475;    0.000
366.524;  781.775;  160.475;    0.000
366.585;  770.775;  157.475;    0.000
366.647;  837.775;  170.475;    0.000
366.708;  748.775;  123.475;    0.000
366.770;  810.775;  194.475;    0.000
366.832;  834.775;  191.475;    0.000
366.893;  790.775;  155.475;    0.000
366.955;  772.775;  132.475;    0.000
367.016;  819.775;  126.475;    0.000
367.078;  816.775;  202.475;    0.000
367.139;  728.775;  116.475;    0.000
367.201;  808.775;  134.475;    0.000
367.262;  791.775;  157.475;    0.000
367.324;  849.775;  202.475;    0.000
367.385;  785.775;  118.475;    0.000
367.447;  815.775;  155.475;    0.000
367.508;  771.775;  134.475;    0.000
367.570;  797.775;  165.475;    0.000
367.631;  732.775;  118.475;    0.000
367.693;  806.775;  170.475;    0.000
367.754;  771.775;  154.475;    0.000
367.816;  793.775;  146.475;    0.000
367.877;  852.775;  175.475;    0.000
367.939;  817.775;  200.475;    0.000
368.000;  750.775;  168.475;    0.000
368.062;  867.775;  138.475;    0.000
368.123;  834.775;  170.475;    0.000
368.184;  801.775;  188.475;    0.000
368.246;  856.775;  145.475;    0.000
368.307;  828.775;  163.475;    0.000
368.369;  847.775;  144.475;    0.000
368.430;  788.775;  140.475;    0.000
368.491;  830.775;  133.475;    0.000
368.553;  829.775;  145.475;    0.000
368.614;  813.775;  158.475;    0.000
368.675;  799.775;  147.475;    0.000
368.737;  787.775;  157.475;    0.000
368.798;  862.775;  163.475;    0.000
368.859;  828.775;  173.475;    0.000
368.921;  802.775;  122.475;    0.000
368.982;  857.775;  184.475;    0.000
369.043;  799.775;  169.475;    0.000
369.104;  844.775;  142.475;    0.000
369.166;  831.775;  169.475;    0.000
369.227;  788.775;  156.475;    0.000
369.288;  860.775;  151.475;    0.000
369.349;  809.775;  191.475;    0.000
369.411;  849.775;  168.475;    0.000
369.472;  849.775;  155.475;    0.000
369.533;  837.775;  149.475;    0.000
369.594;  845.775;  174.475;    0.000
369.656;  872.775;  188.475;    0.000
369.717;  816.775;  113.475;    0.000
369.778;  790.775;  184.475;    0.000
369.839;  864.775;  151.475;    0.000
369.900;  844.775;  180.475;    0.000
369.961;  863.775;  171.475;    0.000
370.023;  819.775;  143.475;    0.000
370.084;  812.775;  137.475;    0.000
370.145;  893.775;  152.475;    0.000
370.206;  881.775;  151.475;    0.000
370.267;  863.775;  134.475;    0.000
370.328;  881.775;  178.475;    0.000
370.389;  861.775;  181.475;    0.000
370.451;  840.775;  169.475;    0.000
370.512;  784.775;  172.475;    0.000
370.573;  869.775;  148.475;    0.000
370.634;  874.775;  156.475;    0.000
370.695;  820.775;  151.475;    0.000
370.756;  915.775;  185.475;    0.000
370.817;  871.775;  185.475;    0.000
370.878;  874.775;  191.475;    0.000
370.939;  802.775;  147.475;    0.000
371.000;  851.775;  162.475;    0.000
371.061;  875.775;  145.475;    0.000
371.122;  893.775;  179.475;    0.000
371.183;  794.775;  114.475;    0.000
371.244;  834.775;  180.475;    0.000
371.305;  851.775;  138.475;    0.000
371.366;  853.775;  157.475;    0.000
371.427;  846.775;  148.475;    0.000
371.488;  864.775;  138.475;    0.000
371.549;  848.775;  193.475;    0.000
371.610;  865.775;  158.475;    0.000
371.671;  870.775;  119.475;    0.000
371.732;  890.775;  159.475;    0.000
371.793;  845.775;  178.475;    0.000
371.853;  831.775;  155.475;    0.000
371.914;  854.775;  148.475;    0.000
371.975;  860.775;  124.475;    0.000
372.036;  878.775;  158.475;    0.000
372.097;  844.775;  136.475;    0.000
372.158;  831.775;  116.475;    0.000
372.219;  904.775;  157.475;    0.000
372.280;  903.775;  151.475;    0.000
372.340;  826.775;  190.475;    0.000
372.401;  843.775;  151.475;    0.000
372.462;  953.775;  129.475;    0.000
372.523;  915.775;  121.475;    0.000
372.584;  855.775;  152.475;    0.000
372.645;  856.775;  132.475;    0.000
372.705;  889.775;  190.475;    0.000
372.766;  842.775;  153.475;    0.000
372.827;  873.775;  133.475;    0.000
372.888;  867.775;  161.475;    0.000
372.948;  825.775;  159.475;    0.000
373.009;  828.775;  164.475;    0.000
373.070;  880.775;  139.475;    0.000
373.131;  898.775;  137.475;    0.000
373.191;  927.775;  181.475;    0.000
373.252;  922.775;  154.475;    0.000
373.313;  879.775;  179.475;    0.000
373.373;  815.775;  136.475;    0.000
373.434;  916.775;  169.475;    0.000
373.495;  849.775;   97.475;    0.000
373.555;  904.775;  142.475;    0.000
373.616;  865.775;  178.475;    0.000
373.677;  903.775;  167.475;    0.000
373.737;  881.775;  139.475;    0.000
373.798;  852.775;  155.475;    0.000
373.859;  839.775;  162.475;    0.000
373.919;  906.775;  174.475;    0.000
373.980;  887.775;  172.475;    0.000
374.041;  928.775;  166.475;    0.000
374.101;  903.775;  172.475;    0.000
374.162;  919.775;  188.475;    0.000
374.222;  936.775;  186.475;    0.000
374.283;  941.775;  195.475;    0.000
374.343;  915.775;  204.475;    0.000
374.404;  941.775;  187.475;    0.000
374.465;  941.775;  183.475;    0.000
374.525;  885.775;  136.475;    0.000
374.586;  928.775;  140.475;    0.000
374.646;  999.775;  191.475;    0.000
374.707;  926.775;  208.475;    0.000
374.767;  960.775;  178.475;    0.000
374.828;  952.775;  159.475;    0.000
374.888;  937.775;  143.475;    0.000
374.949;  943.775;  202.475;    0.000
375.009;  896.775;  151.475;    0.000
375.070;  947.775;  160.475;    0.000
375.130;  983.775;  160.475;    0.000
375.190;  958.775;  164.475;    0.000
375.251;  933.775;  196.475;    0.000
375.311;  909.775;  154.475;    0.000
375.372;  953.775;  197.475;    0.000
375.432;  899.775;  159.475;    0.000
375.493;  930.775;  197.475;    0.000
375.553;  862.775;  165.475;    0.000
375.613;  896.775;  174.475;    0.000
375.674;  930.775;  165.475;    0.000
375.734;  919.775;  128.475;    0.000
375.794;  882.775;  169.475;    0.000
375.855;  916.775;  193.475;    0.000
375.915;  963.775;  162.475;    0.000
375.975;  872.775;  181.475;    0.000
376.036;  933.775;  161.475;    0.000
376.096;  886.775;  131.475;    0.000
376.156;  989.775;  165.475;    0.000
376.217;  921.775;  182.475;    0.000
376.277;  953.775;  185.475;    0.000
376.337;  958.775;  177.475;    0.000
376.398;  944.775;  162.475;    0.000
376.458;  906.775;  179.475;    0.000
376.518;  876.775;  150.475;    0.000
376.578;  868.775;  165.475;    0.000
376.639;  908.775;  159.475;    0.000
376.699;  905.775;  180.475;    0.000
376.759;  948.775;  206.475;    0.000
376.819;  925.775;  146.475;    0.000
376.880;  973.775;  177.475;    0.000
376.940;  965.775;  160.475;    0.000
377.000;  866.775;  149.475;    0.000
377.060;  983.775;  180.475;    0.000
377.120;  964.775;  146.475;    0.000
377.180;  928.775;  137.475;    0.000
377.241;  926.775;  163.475;    0.000
377.301;  972.775;  169.475;    0.000
377.361;  875.775;  137.475;    0.000
377.421;  931.775;  184.475;    0.000
377.481;  919.775;  185.475;    0.000
377.541;  906.775;  146.475;    0.000
377.601;  961.775;  179.475;    0.000
377.661; 1037.775;  181.475;    0.000
377.722;  999.775;  185.475;    0.000
377.782;  917.775;  147.475;    0.000
377.842;  948.775;  190.475;    0.000
377.902;  982.775;  166.475;    0.000
377.962;  948.775;  153.475;    0.000
378.022;  947.775;  163.475;    0.000
378.082;  958.775;  146.475;    0.000
378.142;  971.775;  152.475;    0.000
378.202;  994.775;  164.475;    0.000
378.262;  927.775;  195.475;    0.000
378.322; 1021.775;  190.475;    0.000
378.382;  988.775;  152.475;    0.000
378.442; 1027.775;  175.475;    0.000
378.502; 1008.775;  153.475;    0.000
378.562;  919.775;  142.475;    0.000
378.622; 1046.775;  166.475;    0.000
378.682; 1057.775;  173.475;    0.000
378.742;  987.775;  182.475;    0.000
378.802;  961.775;  145.475;    0.000
378.862; 1103.775;  210.475;    0.000
378.921; 1076.775;  182.475;    0.000
378.981;  992.775;  185.475;    0.000
379.041; 1023.775;  130.475;    0.000
379.101; 1038.775;  177.475;    0.000
379.161;  959.775;  166.475;    0.000
379.221;  971.775;  162.475;    0.000
379.281; 1083.775;  167.475;    0.000
379.341; 1001.775;  136.475;    0.000
379.401; 1042.775;  145.475;    0.000
379.460; 1041.775;  176.475;    0.000
379.520; 1043.775;  162.475;    0.000
379.580; 1051.775;  144.475;    0.000
379.640; 1036.775;  163.475;    0.000
379.700;  980.775;  157.475;    0.000
379.759; 1082.775;  165.475;    0.000
379.819; 1039.775;  190.475;    0.000
379.879; 1033.775;  143.475;    0.000
379.939; 1139.775;  188.475;    0.000
379.999; 1055.775;  141.475;    0.000
380.058; 1046.775;  169.475;    0.000
380.118; 1117.775;  158.475;    0.000
380.178; 1148.775;  114.475;    0.000
380.237; 1121.775;  157.475;    0.000
380.297; 1047.775;  177.475;    0.000
380.357; 1070.775;  189.475;    0.000
380.417; 1056.775;  182.475;    0.000
380.476; 1085.775;  178.475;    0.000
380.536; 1094.775;  189.475;    0.000
380.596; 1103.775;  183.475;    0.000
380.655; 1108.775;  195.475;    0.000
380.715; 1139.775;  170.475;    0.000
380.775; 1200.775;  170.475;    0.000
380.834; 1168.775;  179.475;    0.000
380.894; 1155.775;  188.475;    0.000
380.954; 1067.775;  142.475;    0.000
381.013; 1153.775;  178.475;    0.000
381.073; 1119.775;  164.475;    0.000
381.132; 1169.775;  192.475;    0.000
381.192; 1151.775;  187.475;    0.000
381.252; 1163.775;  176.475;    0.000
381.311; 1138.775;  206.475;    0.000
381.371; 1197.775;  167.475;    0.000
381.430; 1160.775;  131.475;    0.000
381.490; 1177.775;  150.475;    0.000
381.549; 1125.775;  129.475;    0.000
381.609; 1160.775;  178.475;    0.000
381.668; 1184.775;  194.475;    0.000
381.728; 1203.775;  210.475;    0.000
381.787; 1232.775;  190.475;    0.000
381.847; 1218.775;  181.475;    0.000
381.906; 1189.775;  156.475;    0.000
381.966; 1203.775;  176.475;    0.000
382.025; 1271.775;  186.475;    0.000
382.085; 1201.775;  192.475;    0.000
382.144; 1258.775;  173.475;    0.000
382.204; 1266.775;  207.475;    0.000
382.263; 1249.775;  193.475;    0.000
382.323; 1259.775;  164.475;    0.000
382.382; 1298.775;  161.475;    0.000
382.441; 1316.775;  199.475;    0.000
382.501; 1336.775;  208.475;    0.000
382.560; 1422.775;  173.475;    0.000
382.619; 1405.775;  179.475;    0.000
382.679; 1420.775;  177.475;    0.000
382.738; 1577.775;  190.475;    0.000
382.798; 1581.775;  213.475;    0.000
382.857; 1690.775;  195.475;    0.000
382.916; 1858.775;  184.475;    0.000
382.976; 1967.775;  169.475;    0.000
383.035; 1784.775;  194.475;    0.000
383.094; 1802.775;  185.475;    0.000
383.154; 2020.775;  198.475;    0.000
383.213; 2412.775;  147.475;    0.000
383.272; 2269.775;  175.475;    0.000
383.331; 1843.775;  122.475;    0.000
383.391; 1726.775;  185.475;    0.000
383.450; 1647.775;  160.475;    0.000
383.509; 1691.775;  168.475;    0.000
383.568; 1718.775;  196.475;    0.000
383.628; 1835.775;  156.475;    0.000
383.687; 1894.775;  171.475;    0.000
383.746; 2091.775;  155.475;    0.000
383.805; 2589.775;  201.475;    0.000
383.864; 2614.775;  125.475;    0.000
383.924; 2003.775;  213.475;    0.000
383.983; 1630.775;  188.475;    0.000
384.042; 1621.775;  162.475;    0.000
384.101; 1474.775;  183.475;    0.000
384.160; 1412.775;  155.475;    0.000
384.219; 1413.775;  155.475;    0.000
384.279; 1356.775;  189.475;    0.000
384.338; 1300.775;  156.475;    0.000
384.397; 1286.775;  148.475;    0.000
384.456; 1277.775;  154.475;    0.000
384.515; 1366.775;  160.475;    0.000
384.574; 1301.775;  223.475;    0.000
384.633; 1305.775;  133.475;    0.000
384.692; 1256.775;  163.475;    0.000
384.751; 1316.775;  186.475;    0.000
384.810; 1302.775;  187.475;    0.000
384.869; 1238.775;  172.475;    0.000
384.929; 1270.775;  153.475;    0.000
384.988; 1259.775;  174.475;    0.000
385.047; 1219.775;  154.475;    0.000
385.106; 1236.775;  164.475;    0.000
385.165; 1242.775;  151.475;    0.000
385.224; 1194.775;  147.475;    0.000
385.283; 1237.775;  176.475;    0.000
385.342; 1193.775;  142.475;    0.000
385.401; 1271.775;  175.475;    0.000
385.459; 1280.775;  150.475;    0.000
385.518; 1174.775;  124.475;    0.000
385.577; 1244.775;  115.475;    0.000
385.636; 1198.775;  174.475;    0.000
385.695; 1185.775;  158.475;    0.000
385.754; 1275.775;  150.475;    0.000
385.813; 1232.775;  129.475;    0.000
385.872; 1261.775;  146.475;    0.000
385.931; 1270.775;  194.475;    0.000
385.990; 1216.775;  174.475;    0.000
386.049; 1243.775;  176.475;    0.000
386.107; 1233.775;  151.475;    0.000
386.166; 1236.775;  178.475;    0.000
386.225; 1260.775;  162.475;    0.000
386.284; 1247.775;  180.475;    0.000
386.343; 1299.775;  171.475;    0.000
386.402; 1232.775;  176.475;    0.000
386.460; 1267.775;  144.475;    0.000
386.519; 1223.775;  140.475;    0.000
386.578; 1255.775;  145.475;    0.000
386.637; 1241.775;  164.475;    0.000
386.696; 1247.775;  189.475;    0.000
386.754; 1227.775;  135.475;    0.000
386.813; 1205.775;  139.475;    0.000
386.872; 1141.775;  121.475;    0.000
386.931; 1228.775;  153.475;    0.000
386.989; 1241.775;  211.475;    0.000
387.048; 1305.775;  156.475;    0.000
387.107; 1192.775;  210.475;    0.000
387.165; 1190.775;  129.475;    0.000
387.224; 1219.775;  205.475;    0.000
387.283; 1270.775;  130.475;    0.000
387.342; 1256.775;  171.475;    0.000
387.400; 1233.775;  156.475;    0.000
387.459; 1202.775;  141.475;    0.000
387.517; 1233.775;  219.475;    0.000
387.576; 1132.775;  166.475;    0.000
387.635; 1305.775;  136.475;    0.000
387.693; 1266.775;  191.475;    0.000
387.752; 1186.775;  165.475;    0.000
387.811; 1206.775;  158.475;    0.000
387.869; 1233.775;  204.475;    0.000
387.928; 1260.775;  149.475;    0.000
387.986; 1266.775;  156.475;    0.000
388.045; 1134.775;  123.475;    0.000
388.103; 1242.775;  150.475;    0.000
388.162; 1240.775;  173.475;    0.000
388.221; 1185.775;  143.475;    0.000
388.279; 1190.775;  129.475;    0.000
388.338; 1246.775;  212.475;    0.000
388.396; 1222.775;  150.475;    0.000
388.455; 1193.775;  167.475;    0.000
388.513; 1180.775;  116.475;    0.000
388.572; 1260.775;  181.475;    0.000
388.630; 1276.775;  187.475;    0.000
388.689; 1272.775;  180.475;    0.000
388.747; 1266.775;  154.475;    0.000
388.806; 1203.775;  161.475;    0.000
388.864; 1263.775;  167.475;    0.000
388.922; 1257.775;  184.475;    0.000
388.981; 1149.775;  169.475;    0.000
389.039; 1208.775;  102.475;    0.000
389.098; 1193.775;  183.475;    0.000
389.156; 1205.775;  182.475;    0.000
389.214; 1276.775;  173.475;    0.000
389.273; 1186.775;  167.475;    0.000
389.331; 1217.775;  170.475;    0.000
389.390; 1228.775;  150.475;    0.000
389.448; 1264.775;  156.475;    0.000
389.506; 1273.775;  149.475;    0.000
389.565; 1262.775;  162.475;    0.000
389.623; 1240.775;  188.475;    0.000
389.681; 1265.775;  204.475;    0.000
389.740; 1277.775;  187.475;    0.000
389.798; 1216.775;  153.475;    0.000
389.856; 1284.775;  214.475;    0.000
389.914; 1235.775;  177.475;    0.000
389.973; 1210.775;  189.475;    0.000
390.031; 1280.775;  178.475;    0.000
390.089; 1249.775;  163.475;    0.000
390.147; 1261.775;  170.475;    0.000
390.206; 1237.775;  183.475;    0.000
390.264; 1176.775;  161.475;    0.000
390.322; 1205.775;  148.475;    0.000
390.380; 1258.775;  138.475;    0.000
390.439; 1270.775;  194.475;    0.000
390.497; 1262.775;  170.475;    0.000
390.555; 1205.775;  165.475;    0.000
390.613; 1246.775;  177.475;    0.000
390.671; 1222.775;  170.475;    0.000
390.729; 1232.775;  158.475;    0.000
390.788; 1242.775;  162.475;    0.000
390.846; 1212.775;  161.475;    0.000
390.904; 1286.775;  197.475;    0.000
390.962; 1270.775;  212.475;    0.000
391.020; 1285.775;  224.475;    0.000
391.078; 1270.775;  184.475;    0.000
391.136; 1227.775;  191.475;    0.000
391.194; 1284.775;  187.475;    0.000
391.253; 1248.775;  197.475;    0.000
391.311; 1206.775;  185.475;    0.000
391.369; 1292.775;  207.475;    0.000
391.427; 1289.775;  222.475;    0.000
391.485; 1283.775;  184.475;    0.000
391.543; 1315.775;  203.475;    0.000
391.601; 1318.775;  151.475;    0.000
391.659; 1301.775;  176.475;    0.000
391.717; 1320.775;  190.475;    0.000
391.775; 1301.775;  159.475;    0.000
391.833; 1245.775;  186.475;    0.000
391.891; 1266.775;  154.475;    0.000
391.949; 1334.775;  181.475;    0.000
392.007; 1271.775;  190.475;    0.000
392.065; 1298.775;  182.475;    0.000
392.123; 1268.775;  158.475;    0.000
392.180; 1268.775;  198.475;    0.000
392.238; 1334.775;  191.475;    0.000
392.296; 1339.775;  164.475;    0.000
392.354; 1294.775;  172.475;    0.000
392.412; 1347.775;  194.475;    0.000
392.470; 1319.775;  154.475;    0.000
392.528; 1304.775;  172.475;    0.000
392.586; 1363.775;  179.475;    0.000
392.644; 1398.775;  173.475;    0.000
392.701; 1315.775;  202.475;    0.000
392.759; 1319.775;  180.475;    0.000
392.817; 1349.775;  181.475;    0.000
392.875; 1369.775;  168.475;    0.000
392.933; 1360.775;  161.475;    0.000
392.991; 1329.775;  216.475;    0.000
393.048; 1313.775;  197.475;    0.000
393.106; 1354.775;  199.475;    0.000
393.164; 1332.775;  173.475;    0.000
393.222; 1333.775;  179.475;    0.000
393.279; 1452.775;  209.475;    0.000
393.337; 1458.775;  185.475;    0.000
393.395; 1528.775;  174.475;    0.000
393.453; 1381.775;  181.475;    0.000
393.510; 1358.775;  188.475;    0.000
393.568; 1293.775;  191.475;    0.000
393.626; 1360.775;  151.475;    0.000
393.684; 1387.775;  208.475;    0.000
393.741; 1378.775;  179.475;    0.000
393.799; 1376.775;  149.475;    0.000
393.857; 1322.775;  136.475;    0.000
393.914; 1339.775;  190.475;    0.000
393.972; 1369.775;  155.475;    0.000
394.030; 1326.775;  170.475;    0.000
394.087; 1385.775;  213.475;    0.000
394.145; 1344.775;  191.475;    0.000
394.202; 1381.775;  188.475;    0.000
394.260; 1318.775;  168.475;    0.000
394.318; 1386.775;  176.475;    0.000
394.375; 1392.775;  159.475;    0.000
394.433; 1347.775;  168.475;    0.000
394.490; 1310.775;  163.475;    0.000
394.548; 1332.775;  163.475;    0.000
394.605; 1340.775;  181.475;    0.000
394.663; 1339.775;  180.475;    0.000
394.720; 1367.775;  193.475;    0.000
394.778; 1394.775;  168.475;    0.000
394.836; 1367.775;  128.475;    0.000
394.893; 1343.775;  151.475;    0.000
394.951; 1351.775;  173.475;    0.000
395.008; 1357.775;  201.475;    0.000
395.065; 1406.775;  139.475;    0.000
395.123; 1351.775;  173.475;    0.000
395.180; 1363.775;  144.475;    0.000
395.238; 1375.775;  135.475;    0.000
395.295; 1414.775;  167.475;    0.000
395.353; 1440.775;  150.475;    0.000
395.410; 1399.775;  165.475;    0.000
395.468; 1401.775;  223.475;    0.000
395.525; 1409.775;  156.475;    0.000
395.582; 1420.775;  178.475;    0.000
395.640; 1431.775;  178.475;    0.000
395.697; 1419.775;  173.475;    0.000
395.754; 1398.775;  154.475;    0.000
395.812; 1394.775;  169.475;    0.000
395.869; 1445.775;  196.475;    0.000
395.927; 1387.775;  190.475;    0.000
395.984; 1401.775;  195.475;    0.000
396.041; 1376.775;  160.475;    0.000
396.098; 1378.775;  161.475;    0.000
396.156; 1374.775;  187.475;    0.000
396.213; 1495.775;  200.475;    0.000
396.270; 1472.775;  160.475;    0.000
396.328; 1387.775;  113.475;    0.000
396.385; 1446.775;  165.475;    0.000
396.442; 1456.775;  168.475;    0.000
396.499; 1371.775;  117.475;    0.000
396.557; 1427.775;  203.475;    0.000
396.614; 1457.775;  155.475;    0.000
396.671; 1446.775;  187.475;    0.000
396.728; 1421.775;  169.475;    0.000
396.785; 1495.775;  167.475;    0.000
396.843; 1525.775;  154.475;    0.000
396.900; 1484.775;  172.475;    0.000
396.957; 1500.775;  176.475;    0.000
397.014; 1452.775;  193.475;    0.000
397.071; 1527.775;  170.475;    0.000
397.128; 1456.775;  172.475;    0.000
397.186; 1483.775;  205.475;    0.000
397.243; 1501.775;  163.475;    0.000
397.300; 1475.775;  193.475;    0.000
397.357; 1543.775;  166.475;    0.000
397.414; 1449.775;  149.475;    0.000
397.471; 1421.775;  157.475;    0.000
397.528; 1468.775;  180.475;    0.000
397.585; 1487.775;  203.475;    0.000
397.642; 1495.775;  156.475;    0.000
397.699; 1486.775;  229.475;    0.000
397.756; 1498.775;  185.475;    0.000
397.814; 1571.775;  191.475;    0.000
397.871; 1479.775;  170.475;    0.000
397.928; 1531.775;  191.475;    0.000
397.985; 1428.775;  183.475;    0.000
398.042; 1548.775;  161.475;    0.000
398.099; 1481.775;  192.475;    0.000
398.156; 1515.775;  176.475;    0.000
398.212; 1477.775;  170.475;    0.000
398.269; 1567.775;  158.475;    0.000
398.326; 1497.775;  175.475;    0.000
398.383; 1542.775;  177.475;    0.000
398.440; 1465.775;  169.475;    0.000
398.497; 1496.775;  184.475;    0.000
398.554; 1589.775;  196.475;    0.000
398.611; 1618.775;  198.475;    0.000
398.668; 1526.775;  135.475;    0.000
398.725; 1576.775;  181.475;    0.000
398.782; 1573.775;  195.475;    0.000
398.839; 1620.775;  179.475;    0.000
398.895; 1612.775;  188.475;    0.000
398.952; 1612.775;  176.475;    0.000
399.009; 1635.775;  183.475;    0.000
399.066; 1658.775;  190.475;    0.000
399.123; 1627.775;  174.475;    0.000
399.180; 1651.775;  191.475;    0.000
399.236; 1593.775;  217.475;    0.000
399.293; 1677.775;  154.475;    0.000
399.350; 1644.775;  210.475;    0.000
399.407; 1745.775;  202.475;    0.000
399.463; 1727.775;  162.475;    0.000
399.520; 1736.775;  207.475;    0.000
399.577; 1744.775;  174.475;    0.000
399.634; 1821.775;  170.475;    0.000
399.690; 1784.775;  186.475;    0.000
399.747; 1755.775;  218.475;    0.000
399.804; 1797.775;  200.475;    0.000
399.861; 1773.775;  190.475;    0.000
399.917; 1824.775;  218.475;    0.000
399.974; 1787.775;  200.475;    0.000
400.031; 1789.775;  200.475;    0.000
400.087; 1724.775;  153.475;    0.000
400.144; 1794.775;  188.475;    0.000
400.201; 1783.775;  198.475;    0.000
400.257; 1777.775;  205.475;    0.000
400.314; 1708.775;  183.475;    0.000
400.370; 1693.775;  227.475;    0.000
400.427; 1702.775;  177.475;    0.000
400.484; 1637.775;  202.475;    0.000
400.540; 1636.775;  173.475;    0.000
400.597; 1641.775;  212.475;    0.000
400.653; 1682.775;  182.475;    0.000
400.710; 1700.775;  201.475;    0.000
400.766; 1670.775;  188.475;    0.000
400.823; 1643.775;  205.475;    0.000
400.879; 1720.775;  165.475;    0.000
400.936; 1618.775;  180.475;    0.000
400.993; 1605.775;  181.475;    0.000
401.049; 1618.775;  147.475;    0.000
401.105; 1595.775;  205.475;    0.000
401.162; 1693.775;  197.475;    0.000
401.218; 1652.775;  177.475;    0.000
401.275; 1606.775;  183.475;    0.000
401.331; 1634.775;  198.475;    0.000
401.388; 1731.775;  209.475;    0.000
401.444; 1624.775;  211.475;    0.000
401.501; 1679.775;  185.475;    0.000
401.557; 1584.775;  190.475;    0.000
401.614; 1644.775;  172.475;    0.000
401.670; 1649.775;  185.475;    0.000
401.726; 1635.775;  196.475;    0.000
401.783; 1655.775;  187.475;    0.000
401.839; 1649.775;  192.475;    0.000
401.895; 1649.775;  173.475;    0.000
401.952; 1634.775;  145.475;    0.000
402.008; 1669.775;  197.475;    0.000
402.064; 1663.775;  146.475;    0.000
402.121; 1730.775;  197.475;    0.000
402.177; 1650.775;  173.475;    0.000
402.233; 1704.775;  185.475;    0.000
402.290; 1680.775;  175.475;    0.000
402.346; 1691.775;  164.475;    0.000
402.402; 1710.775;  173.475;    0.000
402.458; 1672.775;  183.475;    0.000
402.515; 1691.775;  147.475;    0.000
402.571; 1701.775;  210.475;    0.000
402.627; 1697.775;  181.475;    0.000
402.683; 1736.775;  177.475;    0.000
402.740; 1719.775;  162.475;    0.000
402.796; 1709.775;  178.475;    0.000
402.852; 1754.775;  138.475;    0.000
402.908; 1696.775;  181.475;    0.000
402.964; 1773.775;  151.475;    0.000
403.021; 1733.775;  170.475;    0.000
403.077; 1662.775;  204.475;    0.000
403.133; 1704.775;  144.475;    0.000
403.189; 1771.775;  207.475;    0.000
403.245; 1770.775;  184.475;    0.000
403.301; 1660.775;  170.475;    0.000
403.357; 1782.775;  201.475;    0.000
403.414; 1713.775;  205.475;    0.000
403.470; 1725.775;  170.475;    0.000
403.526; 1708.775;  135.475;    0.000
403.582; 1739.775;  180.475;    0.000
403.638; 1764.775;  185.475;    0.000
403.694; 1670.775;  169.475;    0.000
403.750; 1758.775;  210.475;    0.000
403.806; 1725.775;  210.475;    0.000
403.862; 1771.775;  219.475;    0.000
403.918; 1729.775;  191.475;    0.000
403.974; 1732.775;  193.475;    0.000
404.030; 1754.775;  154.475;    0.000
404.086; 1748.775;  170.475;    0.000
404.142; 1777.775;  194.475;    0.000
404.198; 1798.775;  224.475;    0.000
404.254; 1833.775;  177.475;    0.000
404.310; 1772.775;  204.475;    0.000
404.366; 1727.775;  170.475;    0.000
404.422; 1712.775;  172.475;    0.000
404.478; 1794.775;  153.475;    0.000
404.534; 1746.775;  159.475;    0.000
404.590; 1807.775;  203.475;    0.000
404.646; 1789.775;  164.475;    0.000
404.701; 1763.775;  141.475;    0.000
404.757; 1780.775;  195.475;    0.000
404.813; 1708.775;  152.475;    0.000
404.869; 1759.775;  174.475;    0.000
404.925; 1820.775;  167.475;    0.000
404.981; 1779.775;  175.475;    0.000
405.037; 1763.775;  170.475;    0.000
405.092; 1779.775;  155.475;    0.000
405.148; 1709.775;  160.475;    0.000
405.204; 1775.775;  158.475;    0.000
405.260; 1771.775;  128.475;    0.000
405.316; 1739.775;  168.475;    0.000
405.371; 1787.775;  162.475;    0.000
405.427; 1806.775;  187.475;    0.000
405.483; 1811.775;  214.475;    0.000
405.539; 1803.775;  163.475;    0.000
405.594; 1763.775;  191.475;    0.000
405.650; 1783.775;  124.475;    0.000
405.706; 1792.775;  188.475;    0.000
405.761; 1803.775;  204.475;    0.000
405.817; 1809.775;  150.475;    0.000
405.873; 1801.775;  152.475;    0.000
405.928; 1827.775;  135.475;    0.000
405.984; 1821.775;  209.475;    0.000
406.040; 1823.775;  165.475;    0.000
406.095; 1750.775;  146.475;    0.000
406.151; 1798.775;  169.475;    0.000
406.207; 1801.775;  174.475;    0.000
406.262; 1814.775;  189.475;    0.000
406.318; 1789.775;  141.475;    0.000
406.374; 1824.775;  178.475;    0.000
406.429; 1890.775;  197.475;    0.000
406.485; 1918.775;  194.475;    0.000
406.540; 1872.775;  149.475;    0.000
406.596; 1846.775;  173.475;    0.000
406.651; 1943.775;  154.475;    0.000
406.707; 1802.775;  183.475;    0.000
406.763; 1922.775;  156.475;    0.000
406.818; 1951.775;  181.475;    0.000
406.874; 1846.775;  135.475;    0.000
406.929; 1965.775;  194.475;    0.000
406.985; 1966.775;  166.475;    0.000
407.040; 1940.775;  207.475;    0.000
407.095; 1955.775;  213.475;    0.000
407.151; 1962.775;  198.475;    0.000
407.206; 1946.775;  186.475;    0.000
407.262; 1948.775;  148.475;    0.000
407.317; 2039.775;  212.475;    0.000
407.373; 2041.775;  209.475;    0.000
407.428; 2024.775;  218.475;    0.000
407.484; 1990.775;  158.475;    0.000
407.539; 2017.775;  165.475;    0.000
407.594; 2007.775;  197.475;    0.000
407.650; 2062.775;  177.475;    0.000
407.705; 1985.775;  154.475;    0.000
407.760; 2102.775;  198.475;    0.000
407.816; 2046.775;  181.475;    0.000
407.871; 2043.775;  185.475;    0.000
407.926; 2052.775;  167.475;    0.000
407.982; 2034.775;  172.475;    0.000
408.037; 2018.775;  202.475;    0.000
408.092; 1966.775;  201.475;    0.000
408.148; 2033.775;  199.475;    0.000
408.203; 1891.775;  174.475;    0.000
408.258; 1916.775;  157.475;    0.000
408.314; 1976.775;  194.475;    0.000
408.369; 1906.775;  189.475;    0.000
408.424; 2028.775;  204.475;    0.000
408.479; 2053.775;  192.475;    0.000
408.534; 2019.775;  215.475;    0.000
408.590; 1925.775;  190.475;    0.000
408.645; 1922.775;  159.475;    0.000
408.700; 1975.775;  191.475;    0.000
408.755; 1942.775;  217.475;    0.000
408.810; 1985.775;  158.475;    0.000
408.866; 1934.775;  166.475;    0.000
408.921; 1962.775;  214.475;    0.000
408.976; 2019.775;  158.475;    0.000
409.031; 1954.775;  185.475;    0.000
409.086; 2004.775;  158.475;    0.000
409.141; 1960.775;  180.475;    0.000
409.196; 1906.775;  188.475;    0.000
409.252; 1995.775;  186.475;    0.000
409.307; 1876.775;  135.475;    0.000
409.362; 1893.775;  162.475;    0.000
409.417; 1943.775;  149.475;    0.000
409.472; 1956.775;  205.475;    0.000
409.527; 1979.775;  184.475;    0.000
409.582; 2003.775;  174.475;    0.000
409.637; 2006.775;  188.475;    0.000
409.692; 1971.775;  211.475;    0.000
409.747; 1935.775;  159.475;    0.000
409.802; 1915.775;  199.475;    0.000
409.857; 1909.775;  118.475;    0.000
409.912; 1990.775;  177.475;    0.000
409.967; 1945.775;  182.475;    0.000
410.022; 2049.775;  188.475;    0.000
410.077; 1967.775;  204.475;    0.000
410.132; 1982.775;  174.475;    0.000
410.187; 1964.775;  169.475;    0.000
410.242; 1978.775;  178.475;    0.000
410.297; 1932.775;  185.475;    0.000
410.351; 1961.775;  203.475;    0.000
410.406; 1918.775;  180.475;    0.000
410.461; 1997.775;  213.475;    0.000
410.516; 1930.775;  198.475;    0.000
410.571; 1965.775;  171.475;    0.000
410.626; 1990.775;  186.475;    0.000
410.681; 1982.775;  187.475;    0.000
410.736; 1992.775;  147.475;    0.000
410.790; 1882.775;  186.475;    0.000
410.845; 1988.775;  152.475;    0.000
410.900; 1970.775;  202.475;    0.000
410.955; 1902.775;  196.475;    0.000
411.010; 1975.775;  150.475;    0.000
411.064; 1976.775;  200.475;    0.000
411.119; 1991.775;  203.475;    0.000
411.174; 2008.775;  176.475;    0.000
411.229; 1978.775;  203.475;    0.000
411.283; 1979.775;  176.475;    0.000
411.338; 1957.775;  153.475;    0.000
411.393; 1911.775;  168.475;    0.000
411.447; 1963.775;  223.475;    0.000
411.502; 2040.775;  238.475;    0.000
411.557; 1995.775;  179.475;    0.000
411.612; 1970.775;  159.475;    0.000
411.666; 1895.775;  189.475;    0.000
411.721; 1945.775;  212.475;    0.000
411.776; 2041.775;  242.475;    0.000
411.830; 2065.775;  194.475;    0.000
411.885; 1990.775;  188.475;    0.000
411.939; 1971.775;  245.475;    0.000
411.994; 1994.775;  177.475;    0.000
412.049; 2004.775;  170.475;    0.000
412.103; 1984.775;  196.475;    0.000
412.158; 1986.775;  215.475;    0.000
412.212; 1977.775;  199.475;    0.000
412.267; 1936.775;  191.475;    0.000
412.322; 2107.775;  238.475;    0.000
412.376; 2005.775;  243.475;    0.000
412.431; 1992.775;  214.475;    0.000
412.485; 1882.775;  210.475;    0.000
412.540; 2035.775;  200.475;    0.000
412.594; 2047.775;  174.475;    0.000
412.649; 2046.775;  246.475;    0.000
412.703; 2011.775;  182.475;    0.000
412.758; 2038.775;  222.475;    0.000
412.812; 1931.775;  201.475;    0.000
412.866; 1961.775;  162.475;    0.000
412.921; 1996.775;  202.475;    0.000
412.975; 1969.775;  212.475;    0.000
413.030; 2040.775;  238.475;    0.000
413.084; 1977.775;  201.475;    0.000
413.139; 1996.775;  210.475;    0.000
413.193; 1977.775;  218.475;    0.000
413.247; 1976.775;  203.475;    0.000
413.302; 2029.775;  176.475;    0.000
413.356; 1882.775;  215.475;    0.000
413.410; 2043.775;  204.475;    0.000
413.465; 1938.775;  186.475;    0.000
413.519; 1983.775;  196.475;    0.000
413.573; 1894.775;  181.475;    0.000
413.628; 1986.775;  200.475;    0.000
413.682; 1919.775;  157.475;    0.000
413.736; 1928.775;  194.475;    0.000
413.791; 2001.775;  193.475;    0.000
413.845; 1958.775;  225.475;    0.000
413.899; 1942.775;  195.475;    0.000
413.953; 1991.775;  173.475;    0.000
414.008; 1955.775;  186.475;    0.000
414.062; 1896.775;  217.475;    0.000
414.116; 1980.775;  169.475;    0.000
414.170; 1968.775;  228.475;    0.000
414.225; 1899.775;  177.475;    0.000
414.279; 1935.775;  210.475;    0.000
414.333; 1987.775;  207.475;    0.000
414.387; 1995.775;  217.475;    0.000
414.441; 1939.775;  187.475;    0.000
414.496; 1959.775;  215.475;    0.000
414.550; 1941.775;  204.475;    0.000
414.604; 1989.775;  206.475;    0.000
414.658; 1893.775;  139.475;    0.000
414.712; 1991.775;  198.475;    0.000
414.766; 1939.775;  208.475;    0.000
414.820; 1942.775;  199.475;    0.000
414.874; 1922.775;  216.475;    0.000
414.928; 1976.775;  186.475;    0.000
414.982; 1933.775;  176.475;    0.000
415.037; 2031.775;  181.475;    0.000
415.091; 1996.775;  208.475;    0.000
415.145; 1968.775;  209.475;    0.000
415.199; 1919.775;  186.475;    0.000
415.253; 1904.775;  203.475;    0.000
415.307; 1977.775;  197.475;    0.000
415.361; 2025.775;  223.475;    0.000
415.415; 1965.775;  213.475;    0.000
415.469; 1957.775;  226.475;    0.000
415.523; 1949.775;  222.475;    0.000
415.577; 1970.775;  205.475;    0.000
415.631; 2014.775;  224.475;    0.000
415.684; 1946.775;  193.475;    0.000
415.738; 1892.775;  224.475;    0.000
415.792; 1940.775;  204.475;    0.000
415.846; 1988.775;  189.475;    0.000
415.900; 1904.775;  223.475;    0.000
415.954; 1872.775;  187.475;    0.000
416.008; 1981.775;  237.475;    0.000
416.062; 1891.775;  195.475;    0.000
416.116; 1853.775;  223.475;    0.000
416.169; 1973.775;  210.475;    0.000
416.223; 1875.775;  232.475;    0.000
416.277; 1970.775;  227.475;    0.000
416.331; 1887.775;  216.475;    0.000
416.385; 1942.775;  186.475;    0.000
416.439; 2002.775;  226.475;    0.000
416.492; 1951.775;  229.475;    0.000
416.546; 2060.775;  216.475;    0.000
416.600; 2023.775;  211.475;    0.000
416.654; 1910.775;  226.475;    0.000
416.707; 1866.775;  248.475;    0.000
416.761; 1905.775;  217.475;    0.000
416.815; 1913.775;  207.475;    0.000
416.869; 2013.775;  226.475;    0.000
416.922; 1944.775;  192.475;    0.000
416.976; 1968.775;  205.475;    0.000
417.030; 1876.775;  233.475;    0.000
417.083; 1910.775;  226.475;    0.000
417.137; 1958.775;  222.475;    0.000
417.191; 1955.775;  217.475;    0.000
417.244; 1929.775;  221.475;    0.000
417.298; 2043.775;  201.475;    0.000
417.352; 1926.775;  170.475;    0.000
417.405; 1986.775;  234.475;    0.000
417.459; 1949.775;  241.475;    0.000
417.512; 1920.775;  247.475;    0.000
417.566; 1911.775;  219.475;    0.000
417.620; 1882.775;  228.475;    0.000
417.673; 1978.775;  192.475;    0.000
417.727; 1860.775;  203.475;    0.000
417.780; 1943.775;  204.475;    0.000
417.834; 1963.775;  234.475;    0.000
417.887; 1924.775;  245.475;    0.000
417.941; 1980.775;  211.475;    0.000
417.994; 1901.775;  244.475;    0.000
418.048; 1925.775;  203.475;    0.000
418.101; 1983.775;  212.475;    0.000
418.155; 1931.775;  251.475;    0.000
418.208; 1999.775;  286.475;    0.000
418.262; 1996.775;  243.475;    0.000
418.315; 1896.775;  214.475;    0.000
418.369; 1881.775;  269.475;    0.000
418.422; 1917.775;  222.475;    0.000
418.476; 1991.775;  226.475;    0.000
418.529; 1927.775;  238.475;    0.000
418.582; 1953.775;  210.475;    0.000
418.636; 1932.775;  221.475;    0.000
418.689; 1940.775;  224.475;    0.000
418.743; 1935.775;  228.475;    0.000
418.796; 1945.775;  192.475;    0.000
418.849; 1944.775;  230.475;    0.000
418.903; 1965.775;  257.475;    0.000
418.956; 1987.775;  241.475;    0.000
419.009; 1983.775;  247.475;    0.000
419.063; 1942.775;  235.475;    0.000
419.116; 1989.775;  218.475;    0.000
419.169; 1904.775;  219.475;    0.000
419.222; 1931.775;  215.475;    0.000
419.276; 1929.775;  202.475;    0.000
419.329; 1976.775;  210.475;    0.000
419.382; 1964.775;  188.475;    0.000
419.435; 1993.775;  222.475;    0.000
419.489; 1997.775;  232.475;    0.000
419.542; 1924.775;  250.475;    0.000
419.595; 1871.775;  240.475;    0.000
419.648; 1901.775;  261.475;    0.000
419.701; 1936.775;  222.475;    0.000
419.755; 1874.775;  233.475;    0.000
419.808; 1929.775;  178.475;    0.000
419.861; 1889.775;  207.475;    0.000
419.914; 1948.775;  223.475;    0.000
419.967; 1899.775;  216.475;    0.000
420.020; 1934.775;  211.475;    0.000
420.073; 1944.775;  200.475;    0.000
420.127; 1888.775;  248.475;    0.000
420.180; 1853.775;  220.475;    0.000
420.233; 1977.775;  215.475;    0.000
420.286; 1892.775;  222.475;    0.000
420.339; 1869.775;  229.475;    0.000
420.392; 1923.775;  245.475;    0.000
420.445; 1926.775;  221.475;    0.000
420.498; 1858.775;  224.475;    0.000
420.551; 1825.775;  170.475;    0.000
420.604; 1870.775;  237.475;    0.000
420.657; 1871.775;  235.475;    0.000
420.710; 1918.775;  223.475;    0.000
420.763; 1900.775;  219.475;    0.000
420.816; 1878.775;  200.475;    0.000
420.869; 1898.775;  197.475;    0.000
420.922; 1839.775;  212.475;    0.000
420.975; 1978.775;  274.475;    0.000
421.028; 1823.775;  228.475;    0.000
421.081; 1848.775;  243.475;    0.000
421.134; 1980.775;  227.475;    0.000
421.187; 1897.775;  245.475;    0.000
421.239; 1814.775;  210.475;    0.000
421.292; 1841.775;  193.475;    0.000
421.345; 1941.775;  226.475;    0.000
421.398; 1895.775;  226.475;    0.000
421.451; 1814.775;  259.475;    0.000
421.504; 1866.775;  204.475;    0.000
421.557; 1816.775;  215.475;    0.000
421.609; 1816.775;  194.475;    0.000
421.662; 1889.775;  216.475;    0.000
421.715; 1796.775;  226.475;    0.000
421.768; 1854.775;  177.475;    0.000
421.821; 1859.775;  210.475;    0.000
421.873; 1789.775;  208.475;    0.000
421.926; 1852.775;  223.475;    0.000
421.979; 1811.775;  230.475;    0.000
422.032; 1882.775;  227.475;    0.000
422.084; 1849.775;  234.475;    0.000
422.137; 1798.775;  207.475;    0.000
422.190; 1835.775;  228.475;    0.000
422.243; 1861.775;  206.475;    0.000
422.295; 1840.775;  236.475;    0.000
422.348; 1836.775;  232.475;    0.000
422.401; 1848.775;  228.475;    0.000
422.453; 1867.775;  239.475;    0.000
422.506; 1842.775;  226.475;    0.000
422.559; 1815.775;  205.475;    0.000
422.611; 1913.775;  235.475;    0.000
422.664; 1853.775;  231.475;    0.000
422.716; 1889.775;  228.475;    0.000
422.769; 1824.775;  204.475;    0.000
422.822; 1761.775;  205.475;    0.000
422.874; 1762.775;  228.475;    0.000
422.927; 1912.775;  266.475;    0.000
422.979; 1820.775;  223.475;    0.000
423.032; 1807.775;  207.475;    0.000
423.084; 1808.775;  211.475;    0.000
423.137; 1726.775;  205.475;    0.000
423.189; 1761.775;  254.475;    0.000
423.242; 1827.775;  208.475;    0.000
423.294; 1839.775;  240.475;    0.000
423.347; 1775.775;  218.475;    0.000
423.399; 1814.775;  237.475;    0.000
423.452; 1800.775;  242.475;    0.000
423.504; 1861.775;  225.475;    0.000
423.557; 1799.775;  195.475;    0.000
423.609; 1821.775;  206.475;    0.000
423.662; 1860.775;  211.475;    0.000
423.714; 1769.775;  252.475;    0.000
423.766; 1832.775;  181.475;    0.000
423.819; 1849.775;  216.475;    0.000
423.871; 1792.775;  216.475;    0.000
423.923; 1799.775;  222.475;    0.000
423.976; 1822.775;  223.475;    0.000
424.028; 1785.775;  229.475;    0.000
424.081; 1798.775;  267.475;    0.000
424.133; 1831.775;  251.475;    0.000
424.185; 1819.775;  238.475;    0.000
424.238; 1790.775;  220.475;    0.000
424.290; 1812.775;  259.475;    0.000
424.342; 1812.775;  248.475;    0.000
424.394; 1801.775;  234.475;    0.000
424.447; 1811.775;  248.475;    0.000
424.499; 1788.775;  233.475;    0.000
424.551; 1799.775;  236.475;    0.000
424.603; 1797.775;  207.475;    0.000
424.656; 1872.775;  210.475;    0.000
424.708; 1791.775;  251.475;    0.000
424.760; 1675.775;  221.475;    0.000
424.812; 1743.775;  275.475;    0.000
424.864; 1808.775;  206.475;    0.000
424.917; 1743.775;  198.475;    0.000
424.969; 1731.775;  246.475;    0.000
425.021; 1771.775;  209.475;    0.000
425.073; 1821.775;  242.475;    0.000
425.125; 1753.775;  254.475;    0.000
425.177; 1691.775;  224.475;    0.000
425.229; 1827.775;  256.475;    0.000
425.282; 1763.775;  265.475;    0.000
425.334; 1784.775;  266.475;    0.000
425.386; 1738.775;  242.475;    0.000
425.438; 1729.775;  205.475;    0.000
425.490; 1777.775;  227.475;    0.000
425.542; 1753.775;  235.475;    0.000
425.594; 1729.775;  210.475;    0.000
425.646; 1770.775;  232.475;    0.000
425.698; 1768.775;  243.475;    0.000
425.750; 1776.775;  230.475;    0.000
425.802; 1786.775;  218.475;    0.000
425.854; 1694.775;  222.475;    0.000
425.906; 1740.775;  235.475;    0.000
425.958; 1645.775;  220.475;    0.000
426.010; 1753.775;  236.475;    0.000
426.062; 1618.775;  230.475;    0.000
426.114; 1766.775;  216.475;    0.000
426.166; 1693.775;  230.475;    0.000
426.218; 1728.775;  237.475;    0.000
426.270; 1704.775;  217.475;    0.000
426.321; 1738.775;  224.475;    0.000
426.373; 1744.775;  207.475;    0.000
426.425; 1828.775;  278.475;    0.000
426.477; 1753.775;  243.475;    0.000
426.529; 1707.775;  247.475;    0.000
426.581; 1672.775;  229.475;    0.000
426.633; 1687.775;  212.475;    0.000
426.684; 1677.775;  244.475;    0.000
426.736; 1726.775;  250.475;    0.000
426.788; 1657.775;  210.475;    0.000
426.840; 1655.775;  201.475;    0.000
426.892; 1711.775;  225.475;    0.000
426.943; 1674.775;  215.475;    0.000
426.995; 1604.775;  216.475;    0.000
427.047; 1698.775;  216.475;    0.000
427.099; 1729.775;  203.475;    0.000
427.150; 1713.775;  195.475;    0.000
427.202; 1712.775;  212.475;    0.000
427.254; 1637.775;  233.475;    0.000
427.306; 1782.775;  211.475;    0.000
427.357; 1680.775;  210.475;    0.000
427.409; 1648.775;  244.475;    0.000
427.461; 1609.775;  187.475;    0.000
427.512; 1642.775;  227.475;    0.000
427.564; 1666.775;  210.475;    0.000
427.616; 1657.775;  202.475;    0.000
427.667; 1693.775;  185.475;    0.000
427.719; 1634.775;  222.475;    0.000
427.770; 1616.775;  230.475;    0.000
427.822; 1712.775;  254.475;    0.000
427.874; 1652.775;  222.475;    0.000
427.925; 1640.775;  199.475;    0.000
427.977; 1648.775;  228.475;    0.000
428.028; 1667.775;  226.475;    0.000
428.080; 1625.775;  236.475;    0.000
428.131; 1637.775;  220.475;    0.000
428.183; 1655.775;  256.475;    0.000
428.234; 1669.775;  217.475;    0.000
428.286; 1647.775;  234.475;    0.000
428.337; 1604.775;  209.475;    0.000
428.389; 1626.775;  219.475;    0.000
428.440; 1689.775;  249.475;    0.000
428.492; 1706.775;  255.475;    0.000
428.543; 1615.775;  224.475;    0.000
428.595; 1629.775;  225.475;    0.000
428.646; 1640.775;  240.475;    0.000
428.697; 1552.775;  211.475;    0.000
428.749; 1634.775;  200.475;    0.000
428.800; 1693.775;  235.475;    0.000
428.852; 1682.775;  265.475;    0.000
428.903; 1635.775;  201.475;    0.000
428.954; 1615.775;  242.475;    0.000
429.006; 1700.775;  245.475;    0.000
429.057; 1662.775;  252.475;    0.000
429.108; 1582.775;  211.475;    0.000
429.160; 1597.775;  217.475;    0.000
429.211; 1623.775;  234.475;    0.000
429.262; 1603.775;  205.475;    0.000
429.314; 1626.775;  211.475;    0.000
429.365; 1626.775;  240.475;    0.000
429.416; 1560.775;  263.475;    0.000
429.467; 1677.775;  244.475;    0.000
429.519; 1613.775;  223.475;    0.000
429.570; 1540.775;  214.475;    0.000
429.621; 1616.775;  235.475;    0.000
429.672; 1655.775;  202.475;    0.000
429.724; 1574.775;  189.475;    0.000
429.775; 1600.775;  214.475;    0.000
429.826; 1565.775;  178.475;    0.000
429.877; 1573.775;  224.475;    0.000
429.928; 1619.775;  230.475;    0.000
429.980; 1648.775;  199.475;    0.000
430.031; 1627.775;  208.475;    0.000
430.082; 1556.775;  224.475;    0.000
430.133; 1612.775;  193.475;    0.000
430.184; 1611.775;  220.475;    0.000
430.235; 1635.775;  184.475;    0.000
430.286; 1579.775;  197.475;    0.000
430.337; 1583.775;  199.475;    0.000
430.388; 1555.775;  207.475;    0.000
430.439; 1597.775;  227.475;    0.000
430.490; 1595.775;  215.475;    0.000
430.542; 1637.775;  211.475;    0.000
430.593; 1561.775;  230.475;    0.000
430.644; 1569.775;  186.475;    0.000
430.695; 1622.775;  232.475;    0.000
430.746; 1587.775;  214.475;    0.000
430.797; 1616.775;  260.475;    0.000
430.848; 1564.775;  214.475;    0.000
430.898; 1526.775;  204.475;    0.000
430.949; 1548.775;  189.475;    0.000
431.000; 1589.775;  240.475;    0.000
431.051; 1581.775;  201.475;    0.000
431.102; 1591.775;  188.475;    0.000
431.153; 1624.775;  209.475;    0.000
431.204; 1465.775;  187.475;    0.000
431.255; 1598.775;  171.475;    0.000
431.306; 1510.775;  181.475;    0.000
431.357; 1597.775;  221.475;    0.000
431.408; 1641.775;  217.475;    0.000
431.458; 1602.775;  206.475;    0.000
431.509; 1570.775;  194.475;    0.000
431.560; 1616.775;  235.475;    0.000
431.611; 1598.775;  213.475;    0.000
431.662; 1652.775;  237.475;    0.000
431.713; 1618.775;  220.475;    0.000
431.763; 1640.775;  212.475;    0.000
431.814; 1633.775;  238.475;    0.000
431.865; 1628.775;  213.475;    0.000
431.916; 1599.775;  191.475;    0.000
431.966; 1540.775;  171.475;    0.000
432.017; 1603.775;  263.475;    0.000
432.068; 1670.775;  240.475;    0.000
432.118; 1647.775;  235.475;    0.000
432.169; 1669.775;  212.475;    0.000
432.220; 1585.775;  188.475;    0.000
432.271; 1531.775;  216.475;    0.000
432.321; 1594.775;  223.475;    0.000
432.372; 1551.775;  254.475;    0.000
432.423; 1584.775;  193.475;    0.000
432.473; 1638.775;  219.475;    0.000
432.524; 1629.775;  215.475;    0.000
432.574; 1582.775;  234.475;    0.000
432.625; 1585.775;  226.475;    0.000
432.676; 1567.775;  219.475;    0.000
432.726; 1586.775;  254.475;    0.000
432.777; 1620.775;  210.475;    0.000
432.827; 1584.775;  234.475;    0.000
432.878; 1580.775;  212.475;    0.000
432.928; 1615.775;  238.475;    0.000
432.979; 1556.775;  252.475;    0.000
433.029; 1545.775;  222.475;    0.000
433.080; 1555.775;  188.475;    0.000
433.130; 1533.775;  223.475;    0.000
433.181; 1595.775;  254.475;    0.000
433.231; 1645.775;  237.475;    0.000
433.282; 1608.775;  242.475;    0.000
433.332; 1569.775;  261.475;    0.000
433.383; 1602.775;  266.475;    0.000
433.433; 1577.775;  286.475;    0.000
433.484; 1512.775;  231.475;    0.000
433.534; 1601.775;  256.475;    0.000
433.585; 1626.775;  253.475;    0.000
433.635; 1588.775;  228.475;    0.000
433.685; 1540.775;  226.475;    0.000
433.736; 1569.775;  276.475;    0.000
433.786; 1536.775;  253.475;    0.000
433.836; 1630.775;  289.475;    0.000
433.887; 1595.775;  241.475;    0.000
433.937; 1625.775;  252.475;    0.000
433.987; 1560.775;  223.475;    0.000
434.038; 1633.775;  241.475;    0.000
434.088; 1570.775;  231.475;    0.000
434.138; 1603.775;  259.475;    0.000
434.189; 1550.775;  263.475;    0.000
434.239; 1631.775;  194.475;    0.000
434.289; 1620.775;  273.475;    0.000
434.339; 1592.775;  212.475;    0.000
434.389; 1579.775;  248.475;    0.000
434.440; 1616.775;  250.475;    0.000
434.490; 1621.775;  278.475;    0.000
434.540; 1647.775;  241.475;    0.000
434.590; 1643.775;  251.475;    0.000
434.640; 1597.775;  207.475;    0.000
434.691; 1641.775;  242.475;    0.000
434.741; 1622.775;  218.475;    0.000
434.791; 1711.775;  267.475;    0.000
434.841; 1657.775;  272.475;    0.000
434.891; 1674.775;  260.475;    0.000
434.941; 1708.775;  258.475;    0.000
434.991; 1688.775;  264.475;    0.000
435.042; 1639.775;  264.475;    0.000
435.092; 1644.775;  271.475;    0.000
435.142; 1632.775;  229.475;    0.000
435.192; 1609.775;  226.475;    0.000
435.242; 1609.775;  253.475;    0.000
435.292; 1609.775;  215.475;    0.000
435.342; 1571.775;  240.475;    0.000
435.392; 1605.775;  235.475;    0.000
435.442; 1644.775;  230.475;    0.000
435.492; 1538.775;  235.475;    0.000
435.542; 1550.775;  230.475;    0.000
435.592; 1555.775;  239.475;    0.000
435.642; 1526.775;  244.475;    0.000
435.692; 1537.775;  236.475;    0.000
435.742; 1626.775;  236.475;    0.000
435.792; 1620.775;  230.475;    0.000
435.842; 1535.775;  248.475;    0.000
435.891; 1532.775;  233.475;    0.000
435.941; 1566.775;  243.475;    0.000
435.991; 1574.775;  279.475;    0.000
436.041; 1585.775;  204.475;    0.000
436.091; 1555.775;  217.475;    0.000
436.141; 1539.775;  205.475;    0.000
436.191; 1546.775;  220.475;    0.000
436.241; 1510.775;  248.475;    0.000
436.290; 1564.775;  255.475;    0.000
436.340; 1539.775;  235.475;    0.000
436.390; 1535.775;  207.475;    0.000
436.440; 1532.775;  207.475;    0.000
436.490; 1514.775;  251.475;    0.000
436.539; 1519.775;  240.475;    0.000
436.589; 1507.775;  198.475;    0.000
436.639; 1553.775;  240.475;    0.000
436.689; 1485.775;  216.475;    0.000
436.738; 1586.775;  246.475;    0.000
436.788; 1393.775;  203.475;    0.000
436.838; 1543.775;  230.475;    0.000
436.887; 1508.775;  235.475;    0.000
436.937; 1560.775;  249.475;    0.000
436.987; 1512.775;  208.475;    0.000
437.036; 1532.775;  232.475;    0.000
437.086; 1487.775;  238.475;    0.000
437.136; 1503.775;  228.475;    0.000
437.185; 1455.775;  219.475;    0.000
437.235; 1583.775;  227.475;    0.000
437.285; 1453.775;  241.475;    0.000
437.334; 1447.775;  216.475;    0.000
437.384; 1525.775;  243.475;    0.000
437.433; 1527.775;  214.475;    0.000
437.483; 1523.775;  246.475;    0.000
437.532; 1510.775;  261.475;    0.000
437.582; 1515.775;  205.475;    0.000
437.631; 1510.775;  218.475;    0.000
437.681; 1489.775;  240.475;    0.000
437.730; 1565.775;  258.475;    0.000
437.780; 1472.775;  237.475;    0.000
437.829; 1503.775;  209.475;    0.000
437.879; 1522.775;  214.475;    0.000
437.928; 1492.775;  223.475;    0.000
437.978; 1480.775;  220.475;    0.000
438.027; 1507.775;  239.475;    0.000
438.077; 1429.775;  231.475;    0.000
438.126; 1502.775;  266.475;    0.000
438.176; 1441.775;  234.475;    0.000
438.225; 1449.775;  237.475;    0.000
438.274; 1437.775;  234.475;    0.000
438.324; 1494.775;  244.475;    0.000
438.373; 1420.775;  232.475;    0.000
438.422; 1482.775;  218.475;    0.000
438.472; 1436.775;  221.475;    0.000
438.521; 1468.775;  190.475;    0.000
438.570; 1474.775;  243.475;    0.000
438.620; 1437.775;  255.475;    0.000
438.669; 1498.775;  210.475;    0.000
438.718; 1403.775;  237.475;    0.000
438.768; 1441.775;  220.475;    0.000
438.817; 1508.775;  218.475;    0.000
438.866; 1400.775;  198.475;    0.000
438.915; 1516.775;  256.475;    0.000
438.965; 1409.775;  221.475;    0.000
439.014; 1522.775;  255.475;    0.000
439.063; 1477.775;  276.475;    0.000
439.112; 1451.775;  220.475;    0.000
439.162; 1419.775;  253.475;    0.000
439.211; 1500.775;  247.475;    0.000
439.260; 1424.775;  220.475;    0.000
439.309; 1438.775;  235.475;    0.000
439.358; 1429.775;  205.475;    0.000
439.407; 1529.775;  207.475;    0.000
439.456; 1475.775;  216.475;    0.000
439.506; 1481.775;  245.475;    0.000
439.555; 1516.775;  264.475;    0.000
439.604; 1466.775;  227.475;    0.000
439.653; 1534.775;  220.475;    0.000
439.702; 1475.775;  223.475;    0.000
439.751; 1484.775;  197.475;    0.000
439.800; 1447.775;  207.475;    0.000
439.849; 1510.775;  238.475;    0.000
439.898; 1424.775;  209.475;    0.000
439.947; 1437.775;  170.475;    0.000
439.996; 1463.775;  233.475;    0.000
440.045; 1519.775;  222.475;    0.000
440.094; 1452.775;  240.475;    0.000
440.143; 1519.775;  249.475;    0.000
440.192; 1548.775;  252.475;    0.000
440.241; 1515.775;  239.475;    0.000
440.290; 1447.775;  234.475;    0.000
440.339; 1529.775;  241.475;    0.000
440.388; 1551.775;  239.475;    0.000
440.437; 1471.775;  231.475;    0.000
440.486; 1487.775;  254.475;    0.000
440.535; 1575.775;  266.475;    0.000
440.583; 1478.775;  205.475;    0.000
440.632; 1503.775;  234.475;    0.000
440.681; 1479.775;  218.475;    0.000
440.730; 1589.775;  248.475;    0.000
440.779; 1509.775;  246.475;    0.000
440.828; 1540.775;  235.475;    0.000
440.876; 1491.775;  218.475;    0.000
440.925; 1539.775;  228.475;    0.000
440.974; 1558.775;  249.475;    0.000
441.023; 1548.775;  192.475;    0.000
441.072; 1615.775;  226.475;    0.000
441.120; 1585.775;  238.475;    0.000
441.169; 1499.775;  255.475;    0.000
441.218; 1506.775;  233.475;    0.000
441.267; 1545.775;  231.475;    0.000
441.315; 1545.775;  214.475;    0.000
441.364; 1546.775;  250.475;    0.000
441.413; 1523.775;  228.475;    0.000
441.461; 1562.775;  209.475;    0.000
441.510; 1606.775;  260.475;    0.000
441.559; 1540.775;  230.475;    0.000
441.607; 1554.775;  220.475;    0.000
441.656; 1555.775;  251.475;    0.000
441.705; 1538.775;  237.475;    0.000
441.753; 1574.775;  257.475;    0.000
441.802; 1585.775;  256.475;    0.000
441.850; 1608.775;  253.475;    0.000
441.899; 1525.775;  212.475;    0.000
441.948; 1620.775;  251.475;    0.000
441.996; 1528.775;  239.475;    0.000
442.045; 1516.775;  223.475;    0.000
442.093; 1557.775;  211.475;    0.000
442.142; 1586.775;  235.475;    0.000
442.190; 1541.775;  254.475;    0.000
442.239; 1557.775;  226.475;    0.000
442.287; 1547.775;  242.475;    0.000
442.336; 1622.775;  256.475;    0.000
442.384; 1560.775;  252.475;    0.000
442.433; 1634.775;  262.475;    0.000
442.481; 1568.775;  246.475;    0.000
442.529; 1589.775;  290.475;    0.000
442.578; 1570.775;  247.475;    0.000
442.626; 1501.775;  247.475;    0.000
442.675; 1570.775;  272.475;    0.000
442.723; 1539.775;  230.475;    0.000
442.771; 1504.775;  234.475;    0.000
442.820; 1502.775;  224.475;    0.000
442.868; 1472.775;  246.475;    0.000
442.917; 1540.775;  249.475;    0.000
442.965; 1553.775;  260.475;    0.000
443.013; 1499.775;  258.475;    0.000
443.062; 1530.775;  259.475;    0.000
443.110; 1479.775;  226.475;    0.000
443.158; 1523.775;  213.475;    0.000
443.206; 1568.775;  201.475;    0.000
443.255; 1603.775;  280.475;    0.000
443.303; 1594.775;  292.475;    0.000
443.351; 1575.775;  256.475;    0.000
443.399; 1593.775;  215.475;    0.000
443.448; 1619.775;  243.475;    0.000
443.496; 1671.775;  249.475;    0.000
443.544; 1536.775;  231.475;    0.000
443.592; 1499.775;  243.475;    0.000
443.640; 1606.775;  252.475;    0.000
443.689; 1595.775;  220.475;    0.000
443.737; 1581.775;  231.475;    0.000
443.785; 1603.775;  256.475;    0.000
443.833; 1639.775;  268.475;    0.000
443.881; 1586.775;  181.475;    0.000
443.929; 1601.775;  245.475;    0.000
443.977; 1586.775;  278.475;    0.000
444.025; 1561.775;  245.475;    0.000
444.074; 1537.775;  233.475;    0.000
444.122; 1640.775;  267.475;    0.000
444.170; 1592.775;  247.475;    0.000
444.218; 1598.775;  246.475;    0.000
444.266; 1668.775;  275.475;    0.000
444.314; 1558.775;  263.475;    0.000
444.362; 1655.775;  240.475;    0.000
444.410; 1625.775;  220.475;    0.000
444.458; 1680.775;  258.475;    0.000
444.506; 1719.775;  258.475;    0.000
444.554; 1602.775;  224.475;    0.000
444.602; 1611.775;  245.475;    0.000
444.650; 1614.775;  261.475;    0.000
444.698; 1695.775;  232.475;    0.000
444.746; 1661.775;  206.475;    0.000
444.793; 1600.775;  249.475;    0.000
444.841; 1723.775;  261.475;    0.000
444.889; 1686.775;  221.475;    0.000
444.937; 1661.775;  215.475;    0.000
444.985; 1640.775;  244.475;    0.000
445.033; 1599.775;  211.475;    0.000
445.081; 1677.775;  225.475;    0.000
445.129; 1646.775;  217.475;    0.000
445.176; 1612.775;  196.475;    0.000
445.224; 1599.775;  211.475;    0.000
445.272; 1653.775;  242.475;    0.000
445.320; 1598.775;  225.475;    0.000
445.368; 1588.775;  249.475;    0.000
445.415; 1659.775;  243.475;    0.000
445.463; 1643.775;  242.475;    0.000
445.511; 1628.775;  248.475;    0.000
445.559; 1706.775;  219.475;    0.000
445.606; 1633.775;  221.475;    0.000
445.654; 1577.775;  202.475;    0.000
445.702; 1643.775;  210.475;    0.000
445.749; 1647.775;  249.475;    0.000
445.797; 1668.775;  206.475;    0.000
445.845; 1664.775;  213.475;    0.000
445.892; 1710.775;  224.475;    0.000
445.940; 1605.775;  214.475;    0.000
445.988; 1571.775;  247.475;    0.000
446.035; 1625.775;  204.475;    0.000
446.083; 1591.775;  235.475;    0.000
446.130; 1642.775;  195.475;    0.000
446.178; 1668.775;  236.475;    0.000
446.226; 1597.775;  218.475;    0.000
446.273; 1652.775;  215.475;    0.000
446.321; 1617.775;  222.475;    0.000
446.368; 1668.775;  228.475;    0.000
446.416; 1653.775;  223.475;    0.000
446.463; 1680.775;  220.475;    0.000
446.511; 1683.775;  198.475;    0.000
446.558; 1630.775;  208.475;    0.000
446.606; 1751.775;  253.475;    0.000
446.653; 1688.775;  198.475;    0.000
446.701; 1703.775;  231.475;    0.000
446.748; 1683.775;  224.475;    0.000
446.796; 1712.775;  201.475;    0.000
446.843; 1735.775;  257.475;    0.000
446.891; 1729.775;  218.475;    0.000
446.938; 1783.775;  232.475;    0.000
446.985; 1727.775;  229.475;    0.000
447.033; 1773.775;  251.475;    0.000
447.080; 1777.775;  257.475;    0.000
447.128; 1696.775;  232.475;    0.000
447.175; 1823.775;  269.475;    0.000
447.222; 1751.775;  185.475;    0.000
447.270; 1784.775;  264.475;    0.000
447.317; 1800.775;  225.475;    0.000
447.364; 1799.775;  243.475;    0.000
447.411; 1835.775;  263.475;    0.000
447.459; 1783.775;  257.475;    0.000
447.506; 1823.775;  175.475;    0.000
447.553; 1865.775;  203.475;    0.000
447.601; 1837.775;  238.475;    0.000
447.648; 1889.775;  244.475;    0.000
447.695; 1857.775;  249.475;    0.000
447.742; 1907.775;  234.475;    0.000
447.789; 1982.775;  228.475;    0.000
447.837; 1958.775;  258.475;    0.000
447.884; 2074.775;  243.475;    0.000
447.931; 2084.775;  235.475;    0.000
447.978; 2129.775;  224.475;    0.000
448.025; 2050.775;  245.475;    0.000
448.072; 2102.775;  212.475;    0.000
448.120; 2104.775;  256.475;    0.000
448.167; 2061.775;  240.475;    0.000
448.214; 2180.775;  247.475;    0.000
448.261; 2032.775;  245.475;    0.000
448.308; 2018.775;  273.475;    0.000
448.355; 2029.775;  257.475;    0.000
448.402; 1942.775;  259.475;    0.000
448.449; 1797.775;  238.475;    0.000
448.496; 1941.775;  245.475;    0.000
448.543; 1894.775;  217.475;    0.000
448.590; 1904.775;  269.475;    0.000
448.637; 1908.775;  250.475;    0.000
448.684; 1828.775;  250.475;    0.000
448.731; 1834.775;  235.475;    0.000
448.778; 1796.775;  265.475;    0.000
448.825; 1709.775;  257.475;    0.000
448.872; 1753.775;  234.475;    0.000
448.919; 1775.775;  216.475;    0.000
448.966; 1732.775;  274.475;    0.000
449.013; 1701.775;  263.475;    0.000
449.060; 1782.775;  247.475;    0.000
449.107; 1612.775;  218.475;    0.000
449.154; 1771.775;  225.475;    0.000
449.200; 1657.775;  212.475;    0.000
449.247; 1696.775;  242.475;    0.000
449.294; 1694.775;  228.475;    0.000
449.341; 1629.775;  232.475;    0.000
449.388; 1667.775;  247.475;    0.000
449.435; 1712.775;  227.475;    0.000
449.481; 1725.775;  270.475;    0.000
449.528; 1650.775;  265.475;    0.000
449.575; 1666.775;  255.475;    0.000
449.622; 1619.775;  210.475;    0.000
449.668; 1643.775;  234.475;    0.000
449.715; 1628.775;  262.475;    0.000
449.762; 1564.775;  247.475;    0.000
449.809; 1618.775;  286.475;    0.000
449.855; 1719.775;  246.475;    0.000
449.902; 1577.775;  224.475;    0.000
449.949; 1637.775;  244.475;    0.000
449.995; 1635.775;  274.475;    0.000
450.042; 1578.775;  272.475;    0.000
450.089; 1543.775;  274.475;    0.000
450.135; 1610.775;  285.475;    0.000
450.182; 1588.775;  251.475;    0.000
450.229; 1669.775;  242.475;    0.000
450.275; 1574.775;  277.475;    0.000
450.322; 1643.775;  260.475;    0.000
450.368; 1534.775;  257.475;    0.000
450.415; 1641.775;  276.475;    0.000
450.462; 1596.775;  298.475;    0.000
450.508; 1650.775;  255.475;    0.000
450.555; 1559.775;  271.475;    0.000
450.601; 1528.775;  281.475;    0.000
450.648; 1524.775;  249.475;    0.000
450.694; 1491.775;  270.475;    0.000
450.741; 1544.775;  256.475;    0.000
450.787; 1525.775;  292.475;    0.000
450.834; 1567.775;  221.475;    0.000
450.880; 1513.775;  265.475;    0.000
450.927; 1531.775;  242.475;    0.000
450.973; 1581.775;  259.475;    0.000
451.019; 1562.775;  221.475;    0.000
451.066; 1489.775;  257.475;    0.000
451.112; 1480.775;  251.475;    0.000
451.159; 1551.775;  278.475;    0.000
451.205; 1492.775;  274.475;    0.000
451.251; 1596.775;  281.475;    0.000
451.298; 1550.775;  273.475;    0.000
451.344; 1493.775;  246.475;    0.000
451.390; 1561.775;  286.475;    0.000
451.437; 1481.775;  268.475;    0.000
451.483; 1545.775;  315.475;    0.000
451.529; 1458.775;  251.475;    0.000
451.576; 1552.775;  306.475;    0.000
451.622; 1498.775;  234.475;    0.000
451.668; 1524.775;  243.475;    0.000
451.714; 1562.775;  256.475;    0.000
451.761; 1494.775;  264.475;    0.000
451.807; 1511.775;  284.475;    0.000
451.853; 1490.775;  282.475;    0.000
451.899; 1423.775;  240.475;    0.000
451.945; 1516.775;  263.475;    0.000
451.992; 1524.775;  255.475;    0.000
452.038; 1449.775;  273.475;    0.000
452.084; 1484.775;  274.475;    0.000
452.130; 1475.775;  261.475;    0.000
452.176; 1439.775;  246.475;    0.000
452.222; 1463.775;  238.475;    0.000
452.268; 1398.775;  267.475;    0.000
452.315; 1483.775;  274.475;    0.000
452.361; 1431.775;  241.475;    0.000
452.407; 1475.775;  274.475;    0.000
452.453; 1473.775;  260.475;    0.000
452.499; 1482.775;  232.475;    0.000
452.545; 1441.775;  252.475;    0.000
452.591; 1463.775;  263.475;    0.000
452.637; 1521.775;  208.475;    0.000
452.683; 1420.775;  237.475;    0.000
452.729; 1416.775;  263.475;    0.000
452.775; 1474.775;  291.475;    0.000
452.821; 1473.775;  238.475;    0.000
452.867; 1442.775;  223.475;    0.000
452.913; 1439.775;  257.475;    0.000
452.959; 1413.775;  238.475;    0.000
453.005; 1484.775;  252.475;    0.000
453.051; 1452.775;  260.475;    0.000
453.097; 1402.775;  268.475;    0.000
453.142; 1477.775;  231.475;    0.000
453.188; 1440.775;  266.475;    0.000
453.234; 1385.775;  233.475;    0.000
453.280; 1415.775;  219.475;    0.000
453.326; 1450.775;  265.475;    0.000
453.372; 1402.775;  238.475;    0.000
453.418; 1383.775;  240.475;    0.000
453.463; 1412.775;  219.475;    0.000
453.509; 1435.775;  264.475;    0.000
453.555; 1408.775;  247.475;    0.000
453.601; 1404.775;  230.475;    0.000
453.647; 1465.775;  285.475;    0.000
453.692; 1387.775;  240.475;    0.000
453.738; 1441.775;  233.475;    0.000
453.784; 1421.775;  230.475;    0.000
453.829; 1447.775;  246.475;    0.000
453.875; 1388.775;  261.475;    0.000
453.921; 1371.775;  203.475;    0.000
453.967; 1386.775;  241.475;    0.000
454.012; 1496.775;  250.475;    0.000
454.058; 1469.775;  252.475;    0.000
454.104; 1429.775;  239.475;    0.000
454.149; 1403.775;  250.475;    0.000
454.195; 1402.775;  243.475;    0.000
454.240; 1409.775;  252.475;    0.000
454.286; 1428.775;  245.475;    0.000
454.332; 1384.775;  286.475;    0.000
454.377; 1389.775;  254.475;    0.000
454.423; 1438.775;  246.475;    0.000
454.468; 1412.775;  235.475;    0.000
454.514; 1383.775;  231.475;    0.000
454.559; 1409.775;  246.475;    0.000
454.605; 1390.775;  204.475;    0.000
454.650; 1416.775;  272.475;    0.000
454.696; 1405.775;  222.475;    0.000
454.741; 1459.775;  290.475;    0.000
454.787; 1402.775;  262.475;    0.000
454.832; 1382.775;  227.475;    0.000
454.878; 1363.775;  241.475;    0.000
454.923; 1412.775;  272.475;    0.000
454.969; 1383.775;  290.475;    0.000
455.014; 1438.775;  278.475;    0.000
455.060; 1448.775;  246.475;    0.000
455.105; 1421.775;  231.475;    0.000
455.150; 1365.775;  265.475;    0.000
455.196; 1417.775;  266.475;    0.000
455.241; 1438.775;  258.475;    0.000
455.286; 1429.775;  266.475;    0.000
455.332; 1412.775;  252.475;    0.000
455.377; 1366.775;  219.475;    0.000
455.422; 1408.775;  262.475;    0.000
455.468; 1422.775;  260.475;    0.000
455.513; 1452.775;  212.475;    0.000
455.558; 1413.775;  197.475;    0.000
455.604; 1404.775;  262.475;    0.000
455.649; 1405.775;  238.475;    0.000
455.694; 1422.775;  221.475;    0.000
455.739; 1407.775;  251.475;    0.000
455.785; 1500.775;  287.475;    0.000
455.830; 1413.775;  284.475;    0.000
455.875; 1410.775;  234.475;    0.000
455.920; 1384.775;  215.475;    0.000
455.965; 1375.775;  256.475;    0.000
456.010; 1403.775;  266.475;    0.000
456.056; 1426.775;  263.475;    0.000
456.101; 1404.775;  240.475;    0.000
456.146; 1369.775;  258.475;    0.000
456.191; 1419.775;  241.475;    0.000
456.236; 1373.775;  252.475;    0.000
456.281; 1374.775;  218.475;    0.000
456.326; 1391.775;  251.475;    0.000
456.371; 1458.775;  256.475;    0.000
456.416; 1407.775;  301.475;    0.000
456.461; 1408.775;  233.475;    0.000
456.507; 1428.775;  218.475;    0.000
456.552; 1419.775;  278.475;    0.000
456.597; 1424.775;  223.475;    0.000
456.642; 1395.775;  203.475;    0.000
456.687; 1481.775;  245.475;    0.000
456.732; 1401.775;  256.475;    0.000
456.776; 1415.775;  244.475;    0.000
456.821; 1381.775;  276.475;    0.000
456.866; 1419.775;  232.475;    0.000
456.911; 1370.775;  225.475;    0.000
456.956; 1460.775;  237.475;    0.000
457.001; 1407.775;  261.475;    0.000
457.046; 1452.775;  205.475;    0.000
457.091; 1465.775;  241.475;    0.000
457.136; 1408.775;  217.475;    0.000
457.181; 1455.775;  251.475;    0.000
457.225; 1427.775;  241.475;    0.000
457.270; 1425.775;  237.475;    0.000
457.315; 1418.775;  279.475;    0.000
457.360; 1365.775;  245.475;    0.000
457.405; 1455.775;  202.475;    0.000
457.450; 1397.775;  247.475;    0.000
457.494; 1400.775;  243.475;    0.000
457.539; 1454.775;  222.475;    0.000
457.584; 1422.775;  239.475;    0.000
457.629; 1425.775;  236.475;    0.000
457.673; 1472.775;  234.475;    0.000
457.718; 1435.775;  202.475;    0.000
457.763; 1474.775;  274.475;    0.000
457.807; 1438.775;  236.475;    0.000
457.852; 1424.775;  265.475;    0.000
457.897; 1383.775;  252.475;    0.000
457.941; 1439.775;  264.475;    0.000
457.986; 1402.775;  280.475;    0.000
458.031; 1420.775;  217.475;    0.000
458.075; 1431.775;  249.475;    0.000
458.120; 1449.775;  257.475;    0.000
458.165; 1341.775;  183.475;    0.000
458.209; 1432.775;  245.475;    0.000
458.254; 1423.775;  245.475;    0.000
458.298; 1459.775;  265.475;    0.000
458.343; 1448.775;  241.475;    0.000
458.387; 1468.775;  262.475;    0.000
458.432; 1517.775;  245.475;    0.000
458.476; 1475.775;  255.475;    0.000
458.521; 1447.775;  269.475;    0.000
458.565; 1437.775;  265.475;    0.000
458.610; 1523.775;  222.475;    0.000
458.654; 1432.775;  257.475;    0.000
458.699; 1471.775;  296.475;    0.000
458.743; 1417.775;  203.475;    0.000
458.788; 1444.775;  267.475;    0.000
458.832; 1517.775;  274.475;    0.000
458.877; 1527.775;  251.475;    0.000
458.921; 1463.775;  237.475;    0.000
458.965; 1476.775;  264.475;    0.000
459.010; 1509.775;  256.475;    0.000
459.054; 1490.775;  280.475;    0.000
459.099; 1473.775;  240.475;    0.000
459.143; 1527.775;  287.475;    0.000
459.187; 1489.775;  257.475;    0.000
459.231; 1520.775;  273.475;    0.000
459.276; 1444.775;  231.475;    0.000
459.320; 1534.775;  261.475;    0.000
459.364; 1605.775;  278.475;    0.000
459.409; 1564.775;  249.475;    0.000
459.453; 1529.775;  235.475;    0.000
459.497; 1533.775;  262.475;    0.000
459.541; 1558.775;  269.475;    0.000
459.586; 1590.775;  240.475;    0.000
459.630; 1525.775;  261.475;    0.000
459.674; 1468.775;  276.475;    0.000
459.718; 1528.775;  236.475;    0.000
459.762; 1618.775;  263.475;    0.000
459.807; 1584.775;  263.475;    0.000
459.851; 1552.775;  225.475;    0.000
459.895; 1525.775;  247.475;    0.000
459.939; 1619.775;  231.475;    0.000
459.983; 1512.775;  242.475;    0.000
460.027; 1535.775;  248.475;    0.000
460.071; 1579.775;  273.475;    0.000
460.115; 1608.775;  282.475;    0.000
460.159; 1645.775;  264.475;    0.000
460.204; 1595.775;  288.475;    0.000
460.248; 1665.775;  293.475;    0.000
460.292; 1573.775;  277.475;    0.000
460.336; 1583.775;  250.475;    0.000
460.380; 1642.775;  275.475;    0.000
460.424; 1617.775;  243.475;    0.000
460.468; 1626.775;  277.475;    0.000
460.512; 1636.775;  261.475;    0.000
460.556; 1625.775;  266.475;    0.000
460.599; 1602.775;  246.475;    0.000
460.643; 1532.775;  256.475;    0.000
460.687; 1616.775;  257.475;    0.000
460.731; 1561.775;  235.475;    0.000
460.775; 1602.775;  278.475;    0.000
460.819; 1682.775;  268.475;    0.000
460.863; 1601.775;  257.475;    0.000
460.907; 1577.775;  213.475;    0.000
460.951; 1638.775;  274.475;    0.000
460.995; 1588.775;  258.475;    0.000
461.038; 1554.775;  219.475;    0.000
461.082; 1618.775;  253.475;    0.000
461.126; 1636.775;  281.475;    0.000
461.170; 1590.775;  244.475;    0.000
461.214; 1583.775;  262.475;    0.000
461.257; 1634.775;  284.475;    0.000
461.301; 1678.775;  275.475;    0.000
461.345; 1625.775;  267.475;    0.000
461.389; 1638.775;  255.475;    0.000
461.432; 1623.775;  282.475;    0.000
461.476; 1620.775;  263.475;    0.000
461.520; 1606.775;  260.475;    0.000
461.563; 1578.775;  278.475;    0.000
461.607; 1606.775;  236.475;    0.000
461.651; 1627.775;  262.475;    0.000
461.694; 1597.775;  236.475;    0.000
461.738; 1604.775;  295.475;    0.000
461.782; 1660.775;  252.475;    0.000
461.825; 1630.775;  271.475;    0.000
461.869; 1641.775;  278.475;    0.000
461.913; 1670.775;  255.475;    0.000
461.956; 1639.775;  254.475;    0.000
462.000; 1625.775;  299.475;    0.000
462.043; 1630.775;  282.475;    0.000
462.087; 1690.775;  274.475;    0.000
462.130; 1662.775;  270.475;    0.000
462.174; 1643.775;  274.475;    0.000
462.217; 1684.775;  272.475;    0.000
462.261; 1718.775;  286.475;    0.000
462.304; 1608.775;  236.475;    0.000
462.348; 1646.775;  262.475;    0.000
462.391; 1707.775;  244.475;    0.000
462.435; 1643.775;  321.475;    0.000
462.478; 1638.775;  230.475;    0.000
462.522; 1703.775;  245.475;    0.000
462.565; 1720.775;  278.475;    0.000
462.608; 1731.775;  303.475;    0.000
462.652; 1713.775;  275.475;    0.000
462.695; 1804.775;  314.475;    0.000
462.739; 1741.775;  307.475;    0.000
462.782; 1769.775;  286.475;    0.000
462.825; 1771.775;  312.475;    0.000
462.869; 1756.775;  338.475;    0.000
462.912; 1827.775;  304.475;    0.000
462.955; 1846.775;  288.475;    0.000
462.998; 1814.775;  292.475;    0.000
463.042; 1855.775;  309.475;    0.000
463.085; 1785.775;  292.475;    0.000
463.128; 1819.775;  317.475;    0.000
463.172; 1824.775;  287.475;    0.000
463.215;  398.775;  313.475;    0.000
463.258;  317.775;  295.475;    0.000
463.301;  308.775;  275.475;    0.000
463.344;  303.775;  311.475;    0.000
463.388;  321.775;  296.475;    0.000
463.431;  294.775;  277.475;    0.000
463.474;  346.775;  364.475;    0.000
463.517;  333.775;  306.475;    0.000
463.560;  295.775;  308.475;    0.000
463.603;  308.775;  343.475;    0.000
463.646;  314.775;  309.475;    0.000
463.690;  340.775;  309.475;    0.000
463.733;  346.775;  320.475;    0.000
463.776;  253.775;  299.475;    0.000
463.819;  327.775;  320.475;    0.000
463.862;  324.775;  283.475;    0.000

