
Integration time [ms]:   1.000
Averaging Nr. [scans]: 1
Smoothing Nr. [pixels]: 0
Data measured with spectrometer [name]: VIS
Wave   ;Sample   ;Dark     ;Reference
[nm]   ;[counts] ;[counts] ;[counts] 

450.961;  209.750;  200.375;    0.000
451.100;  235.750;  241.375;    0.000
451.239;  203.750;  201.375;    0.000
451.377;  237.750;  262.375;    0.000
451.516;  232.750;  229.375;    0.000
451.655;  251.750;  211.375;    0.000
451.794;  218.750;  225.375;    0.000
451.932;  230.750;  247.375;    0.000
452.071;  203.750;  260.375;    0.000
452.210;  224.750;  235.375;    0.000
452.348;  252.750;  276.375;    0.000
452.487;  233.750;  259.375;    0.000
452.626;  193.750;  254.375;    0.000
452.764;  236.750;  233.375;    0.000
452.903;  222.750;  202.375;    0.000
453.042;  276.750;  211.375;    0.000
453.180; 2227.750;  240.375;    0.000
453.319; 2235.750;  238.375;    0.000
453.458; 2232.750;  215.375;    0.000
453.596; 2269.750;  252.375;    0.000
453.735; 2428.750;  240.375;    0.000
453.873; 2254.750;  257.375;    0.000
454.012; 2296.750;  228.375;    0.000
454.150; 2434.750;  270.375;    0.000
454.289; 2391.750;  233.375;    0.000
454.427; 2436.750;  243.375;    0.000
454.566; 2415.750;  257.375;    0.000
454.704; 2456.750;  243.375;    0.000
454.843; 2435.750;  190.375;    0.000
454.981; 2502.750;  271.375;    0.000
455.120; 2440.750;  210.375;    0.000
455.258; 2558.750;  235.375;    0.000
455.397; 2546.750;  214.375;    0.000
455.535; 2530.750;  214.375;    0.000
455.674; 2621.750;  184.375;    0.000
455.812; 2604.750;  228.375;    0.000
455.951; 2631.750;  204.375;    0.000
456.089; 2645.750;  220.375;    0.000
456.227; 2615.750;  196.375;    0.000
456.366; 2729.750;  261.375;    0.000
456.504; 2736.750;  249.375;    0.000
456.642; 2690.750;  245.375;    0.000
456.781; 2723.750;  183.375;    0.000
456.919; 2774.750;  203.375;    0.000
457.057; 2805.750;  177.375;    0.000
457.196; 2814.750;  191.375;    0.000
457.334; 2893.750;  233.375;    0.000
457.472; 3020.750;  214.375;    0.000
457.610; 2973.750;  230.375;    0.000
457.749; 3083.750;  247.375;    0.000
457.887; 3015.750;  220.375;    0.000
458.025; 3049.750;  195.375;    0.000
458.163; 3160.750;  224.375;    0.000
458.301; 3205.750;  228.375;    0.000
458.440; 3180.750;  200.375;    0.000
458.578; 3170.750;  233.375;    0.000
458.716; 3123.750;  182.375;    0.000
458.854; 3378.750;  251.375;    0.000
458.992; 3377.750;  187.375;    0.000
459.130; 3344.750;  229.375;    0.000
459.269; 3351.750;  237.375;    0.000
459.407; 3390.750;  228.375;    0.000
459.545; 3417.750;  216.375;    0.000
459.683; 3381.750;  204.375;    0.000
459.821; 3506.750;  191.375;    0.000
459.959; 3518.750;  227.375;    0.000
460.097; 3547.750;  221.375;    0.000
460.235; 3637.750;  241.375;    0.000
460.373; 3559.750;  231.375;    0.000
460.511; 3573.750;  214.375;    0.000
460.649; 3615.750;  172.375;    0.000
460.787; 3638.750;  275.375;    0.000
460.925; 3703.750;  175.375;    0.000
461.063; 3784.750;  252.375;    0.000
461.201; 3719.750;  210.375;    0.000
461.339; 3654.750;  237.375;    0.000
461.477; 3761.750;  210.375;    0.000
461.615; 3774.750;  236.375;    0.000
461.753; 3902.750;  215.375;    0.000
461.891; 3914.750;  222.375;    0.000
462.029; 4011.750;  227.375;    0.000
462.166; 4079.750;  202.375;    0.000
462.304; 3873.750;  191.375;    0.000
462.442; 4067.750;  210.375;    0.000
462.580; 4069.750;  184.375;    0.000
462.718; 4058.750;  220.375;    0.000
462.856; 4084.750;  226.375;    0.000
462.993; 4095.750;  254.375;    0.000
463.131; 4026.750;  200.375;    0.000
463.269; 4023.750;  215.375;    0.000
463.407; 3989.750;  213.375;    0.000
463.545; 3890.750;  242.375;    0.000
463.682; 3990.750;  212.375;    0.000
463.820; 4041.750;  185.375;    0.000
463.958; 4266.750;  212.375;    0.000
464.095; 4251.750;  181.375;    0.000
464.233; 4321.750;  192.375;    0.000
464.371; 4341.750;  247.375;    0.000
464.509; 4389.750;  151.375;    0.000
464.646; 4321.750;  207.375;    0.000
464.784; 4316.750;  199.375;    0.000
464.921; 4279.750;  253.375;    0.000
465.059; 4193.750;  214.375;    0.000
465.197; 4185.750;  200.375;    0.000
465.334; 4103.750;  180.375;    0.000
465.472; 4032.750;  204.375;    0.000
465.609; 4006.750;  203.375;    0.000
465.747; 3959.750;  214.375;    0.000
465.885; 3959.750;  233.375;    0.000
466.022; 3894.750;  215.375;    0.000
466.160; 4008.750;  201.375;    0.000
466.297; 3867.750;  196.375;    0.000
466.435; 3966.750;  230.375;    0.000
466.572; 3896.750;  227.375;    0.000
466.710; 4021.750;  218.375;    0.000
466.847; 3956.750;  245.375;    0.000
466.985; 3912.750;  223.375;    0.000
467.122; 3889.750;  168.375;    0.000
467.260; 3804.750;  196.375;    0.000
467.397; 3983.750;  198.375;    0.000
467.534; 3934.750;  219.375;    0.000
467.672; 3944.750;  214.375;    0.000
467.809; 3873.750;  185.375;    0.000
467.947; 3974.750;  247.375;    0.000
468.084; 3872.750;  196.375;    0.000
468.221; 3977.750;  238.375;    0.000
468.359; 3836.750;  236.375;    0.000
468.496; 3937.750;  235.375;    0.000
468.633; 3875.750;  218.375;    0.000
468.771; 3920.750;  223.375;    0.000
468.908; 3943.750;  208.375;    0.000
469.045; 3988.750;  249.375;    0.000
469.183; 4063.750;  222.375;    0.000
469.320; 3956.750;  216.375;    0.000
469.457; 4016.750;  224.375;    0.000
469.594; 4076.750;  259.375;    0.000
469.732; 4046.750;  223.375;    0.000
469.869; 4170.750;  234.375;    0.000
470.006; 4060.750;  225.375;    0.000
470.143; 4128.750;  243.375;    0.000
470.280; 4220.750;  208.375;    0.000
470.417; 4251.750;  232.375;    0.000
470.555; 4151.750;  218.375;    0.000
470.692; 4152.750;  223.375;    0.000
470.829; 4246.750;  238.375;    0.000
470.966; 4080.750;  205.375;    0.000
471.103; 4184.750;  259.375;    0.000
471.240; 4148.750;  214.375;    0.000
471.377; 4190.750;  226.375;    0.000
471.514; 4141.750;  250.375;    0.000
471.651; 4118.750;  221.375;    0.000
471.789; 4108.750;  242.375;    0.000
471.926; 4146.750;  190.375;    0.000
472.063; 4123.750;  234.375;    0.000
472.200; 4127.750;  252.375;    0.000
472.337; 4027.750;  241.375;    0.000
472.474; 4040.750;  244.375;    0.000
472.611; 4099.750;  268.375;    0.000
472.748; 4074.750;  222.375;    0.000
472.884; 4102.750;  271.375;    0.000
473.021; 4136.750;  195.375;    0.000
473.158; 4154.750;  205.375;    0.000
473.295; 4014.750;  223.375;    0.000
473.432; 4059.750;  216.375;    0.000
473.569; 4091.750;  196.375;    0.000
473.706; 4068.750;  190.375;    0.000
473.843; 4077.750;  211.375;    0.000
473.980; 4103.750;  254.375;    0.000
474.117; 4060.750;  185.375;    0.000
474.253; 4086.750;  229.375;    0.000
474.390; 4138.750;  238.375;    0.000
474.527; 4105.750;  220.375;    0.000
474.664; 4082.750;  242.375;    0.000
474.801; 4030.750;  229.375;    0.000
474.937; 4127.750;  229.375;    0.000
475.074; 4077.750;  210.375;    0.000
475.211; 4235.750;  219.375;    0.000
475.348; 4117.750;  226.375;    0.000
475.484; 4139.750;  207.375;    0.000
475.621; 4192.750;  233.375;    0.000
475.758; 4129.750;  230.375;    0.000
475.894; 4294.750;  234.375;    0.000
476.031; 4183.750;  202.375;    0.000
476.168; 4152.750;  222.375;    0.000
476.304; 4192.750;  237.375;    0.000
476.441; 4247.750;  238.375;    0.000
476.578; 4241.750;  216.375;    0.000
476.714; 4246.750;  212.375;    0.000
476.851; 4306.750;  210.375;    0.000
476.987; 4280.750;  239.375;    0.000
477.124; 4444.750;  250.375;    0.000
477.261; 4351.750;  227.375;    0.000
477.397; 4385.750;  189.375;    0.000
477.534; 4317.750;  204.375;    0.000
477.670; 4384.750;  190.375;    0.000
477.807; 4368.750;  198.375;    0.000
477.943; 4406.750;  216.375;    0.000
478.080; 4383.750;  213.375;    0.000
478.216; 4473.750;  239.375;    0.000
478.353; 4450.750;  218.375;    0.000
478.489; 4418.750;  184.375;    0.000
478.626; 4571.750;  223.375;    0.000
478.762; 4468.750;  213.375;    0.000
478.898; 4673.750;  216.375;    0.000
479.035; 4579.750;  250.375;    0.000
479.171; 4485.750;  201.375;    0.000
479.308; 4558.750;  242.375;    0.000
479.444; 4568.750;  205.375;    0.000
479.580; 4513.750;  203.375;    0.000
479.717; 4590.750;  260.375;    0.000
479.853; 4533.750;  225.375;    0.000
479.989; 4581.750;  226.375;    0.000
480.126; 4538.750;  211.375;    0.000
480.262; 4689.750;  220.375;    0.000
480.398; 4601.750;  207.375;    0.000
480.535; 4625.750;  179.375;    0.000
480.671; 4679.750;  200.375;    0.000
480.807; 4705.750;  190.375;    0.000
480.943; 4527.750;  165.375;    0.000
481.080; 4551.750;  210.375;    0.000
481.216; 4625.750;  232.375;    0.000
481.352; 4480.750;  235.375;    0.000
481.488; 4649.750;  208.375;    0.000
481.624; 4606.750;  245.375;    0.000
481.760; 4386.750;  210.375;    0.000
481.897; 4615.750;  189.375;    0.000
482.033; 4600.750;  256.375;    0.000
482.169; 4629.750;  257.375;    0.000
482.305; 4635.750;  199.375;    0.000
482.441; 4531.750;  182.375;    0.000
482.577; 4504.750;  223.375;    0.000
482.713; 4700.750;  243.375;    0.000
482.849; 4557.750;  197.375;    0.000
482.985; 4536.750;  240.375;    0.000
483.121; 4516.750;  210.375;    0.000
483.258; 4652.750;  248.375;    0.000
483.394; 4700.750;  224.375;    0.000
483.530; 4591.750;  209.375;    0.000
483.665; 4614.750;  225.375;    0.000
483.801; 4480.750;  216.375;    0.000
483.937; 4618.750;  211.375;    0.000
484.073; 4604.750;  259.375;    0.000
484.209; 4688.750;  191.375;    0.000
484.345; 4659.750;  239.375;    0.000
484.481; 4738.750;  231.375;    0.000
484.617; 4743.750;  216.375;    0.000
484.753; 4734.750;  180.375;    0.000
484.889; 4838.750;  252.375;    0.000
485.025; 4722.750;  244.375;    0.000
485.161; 4687.750;  242.375;    0.000
485.296; 4716.750;  235.375;    0.000
485.432; 4859.750;  247.375;    0.000
485.568; 4785.750;  203.375;    0.000
485.704; 4699.750;  229.375;    0.000
485.840; 4750.750;  230.375;    0.000
485.975; 4756.750;  266.375;    0.000
486.111; 4732.750;  220.375;    0.000
486.247; 4645.750;  264.375;    0.000
486.383; 4720.750;  213.375;    0.000
486.518; 4739.750;  222.375;    0.000
486.654; 4646.750;  244.375;    0.000
486.790; 4720.750;  273.375;    0.000
486.926; 4813.750;  203.375;    0.000
487.061; 4750.750;  227.375;    0.000
487.197; 4808.750;  210.375;    0.000
487.333; 4637.750;  209.375;    0.000
487.468; 4638.750;  197.375;    0.000
487.604; 4695.750;  230.375;    0.000
487.740; 4661.750;  254.375;    0.000
487.875; 4716.750;  286.375;    0.000
488.011; 4661.750;  225.375;    0.000
488.146; 4749.750;  251.375;    0.000
488.282; 4714.750;  242.375;    0.000
488.417; 4781.750;  230.375;    0.000
488.553; 4734.750;  260.375;    0.000
488.688; 4795.750;  207.375;    0.000
488.824; 4781.750;  204.375;    0.000
488.960; 4773.750;  248.375;    0.000
489.095; 4763.750;  204.375;    0.000
489.230; 4735.750;  227.375;    0.000
489.366; 4740.750;  226.375;    0.000
489.501; 4807.750;  199.375;    0.000
489.637; 4787.750;  233.375;    0.000
489.772; 4684.750;  249.375;    0.000
489.908; 4706.750;  200.375;    0.000
490.043; 4800.750;  246.375;    0.000
490.178; 4764.750;  222.375;    0.000
490.314; 4744.750;  219.375;    0.000
490.449; 4852.750;  227.375;    0.000
490.585; 4767.750;  209.375;    0.000
490.720; 4672.750;  238.375;    0.000
490.855; 4694.750;  222.375;    0.000
490.991; 4830.750;  202.375;    0.000
491.126; 4800.750;  272.375;    0.000
491.261; 4766.750;  261.375;    0.000
491.396; 4712.750;  190.375;    0.000
491.532; 4727.750;  202.375;    0.000
491.667; 4773.750;  208.375;    0.000
491.802; 4724.750;  203.375;    0.000
491.937; 4767.750;  253.375;    0.000
492.073; 4688.750;  242.375;    0.000
492.208; 4774.750;  230.375;    0.000
492.343; 4741.750;  183.375;    0.000
492.478; 4732.750;  246.375;    0.000
492.613; 4744.750;  223.375;    0.000
492.749; 4764.750;  230.375;    0.000
492.884; 4633.750;  190.375;    0.000
493.019; 4807.750;  234.375;    0.000
493.154; 4732.750;  218.375;    0.000
493.289; 4710.750;  222.375;    0.000
493.424; 4788.750;  196.375;    0.000
493.559; 4771.750;  202.375;    0.000
493.694; 4756.750;  180.375;    0.000
493.829; 4798.750;  224.375;    0.000
493.964; 4609.750;  218.375;    0.000
494.099; 4776.750;  275.375;    0.000
494.234; 4696.750;  226.375;    0.000
494.369; 4822.750;  225.375;    0.000
494.504; 4675.750;  219.375;    0.000
494.639; 4655.750;  296.375;    0.000
494.774; 4660.750;  228.375;    0.000
494.909; 4884.750;  222.375;    0.000
495.044; 4645.750;  215.375;    0.000
495.179; 4738.750;  200.375;    0.000
495.314; 4866.750;  235.375;    0.000
495.449; 4844.750;  249.375;    0.000
495.584; 4766.750;  228.375;    0.000
495.719; 4733.750;  212.375;    0.000
495.854; 4881.750;  201.375;    0.000
495.988; 4731.750;  248.375;    0.000
496.123; 4732.750;  209.375;    0.000
496.258; 4867.750;  249.375;    0.000
496.393; 4867.750;  223.375;    0.000
496.528; 5023.750;  209.375;    0.000
496.663; 4890.750;  207.375;    0.000
496.797; 4822.750;  229.375;    0.000
496.932; 5010.750;  225.375;    0.000
497.067; 4968.750;  218.375;    0.000
497.202; 5118.750;  163.375;    0.000
497.336; 4963.750;  246.375;    0.000
497.471; 5051.750;  229.375;    0.000
497.606; 5039.750;  251.375;    0.000
497.740; 5122.750;  220.375;    0.000
497.875; 5187.750;  216.375;    0.000
498.010; 5250.750;  226.375;    0.000
498.144; 5278.750;  237.375;    0.000
498.279; 5314.750;  196.375;    0.000
498.414; 5377.750;  219.375;    0.000
498.548; 5448.750;  205.375;    0.000
498.683; 5483.750;  206.375;    0.000
498.817; 5617.750;  225.375;    0.000
498.952; 5777.750;  221.375;    0.000
499.087; 5757.750;  220.375;    0.000
499.221; 6022.750;  233.375;    0.000
499.356; 6068.750;  230.375;    0.000
499.490; 6167.750;  229.375;    0.000
499.625; 6241.750;  231.375;    0.000
499.759; 6481.750;  243.375;    0.000
499.894; 6645.750;  241.375;    0.000
500.028; 6790.750;  264.375;    0.000
500.162; 6804.750;  287.375;    0.000
500.297; 6901.750;  234.375;    0.000
500.431; 6927.750;  230.375;    0.000
500.566; 6977.750;  213.375;    0.000
500.700; 7113.750;  243.375;    0.000
500.835; 6936.750;  272.375;    0.000
500.969; 6681.750;  188.375;    0.000
501.103; 6520.750;  200.375;    0.000
501.238; 6445.750;  257.375;    0.000
501.372; 6351.750;  224.375;    0.000
501.506; 6034.750;  225.375;    0.000
501.641; 5977.750;  271.375;    0.000
501.775; 5884.750;  199.375;    0.000
501.909; 5749.750;  249.375;    0.000
502.043; 5642.750;  211.375;    0.000
502.178; 5543.750;  269.375;    0.000
502.312; 5465.750;  198.375;    0.000
502.446; 5358.750;  256.375;    0.000
502.580; 5351.750;  195.375;    0.000
502.715; 5193.750;  224.375;    0.000
502.849; 5130.750;  245.375;    0.000
502.983; 5071.750;  250.375;    0.000
503.117; 5077.750;  193.375;    0.000
503.251; 4980.750;  242.375;    0.000
503.385; 4881.750;  227.375;    0.000
503.520; 4913.750;  235.375;    0.000
503.654; 4720.750;  220.375;    0.000
503.788; 4843.750;  267.375;    0.000
503.922; 4812.750;  220.375;    0.000
504.056; 4737.750;  238.375;    0.000
504.190; 4673.750;  212.375;    0.000
504.324; 4754.750;  265.375;    0.000
504.458; 4606.750;  228.375;    0.000
504.592; 4564.750;  231.375;    0.000
504.726; 4615.750;  218.375;    0.000
504.860; 4391.750;  253.375;    0.000
504.994; 4479.750;  217.375;    0.000
505.128; 4463.750;  243.375;    0.000
505.262; 4224.750;  194.375;    0.000
505.396; 4296.750;  210.375;    0.000
505.530; 4296.750;  211.375;    0.000
505.664; 4260.750;  219.375;    0.000
505.798; 4088.750;  240.375;    0.000
505.932; 4224.750;  240.375;    0.000
506.066; 4080.750;  252.375;    0.000
506.199; 4246.750;  242.375;    0.000
506.333; 4078.750;  244.375;    0.000
506.467; 4172.750;  223.375;    0.000
506.601; 3956.750;  183.375;    0.000
506.735; 3994.750;  249.375;    0.000
506.869; 3909.750;  270.375;    0.000
507.002; 3965.750;  207.375;    0.000
507.136; 3910.750;  242.375;    0.000
507.270; 3850.750;  232.375;    0.000
507.404; 3911.750;  195.375;    0.000
507.537; 3829.750;  218.375;    0.000
507.671; 3889.750;  246.375;    0.000
507.805; 3873.750;  244.375;    0.000
507.939; 3875.750;  251.375;    0.000
508.072; 3808.750;  212.375;    0.000
508.206; 3767.750;  198.375;    0.000
508.340; 3911.750;  234.375;    0.000
508.473; 3743.750;  217.375;    0.000
508.607; 3736.750;  224.375;    0.000
508.740; 3736.750;  207.375;    0.000
508.874; 3748.750;  230.375;    0.000
509.008; 3744.750;  246.375;    0.000
509.141; 3694.750;  239.375;    0.000
509.275; 3718.750;  229.375;    0.000
509.408; 3588.750;  234.375;    0.000
509.542; 3754.750;  212.375;    0.000
509.675; 3700.750;  256.375;    0.000
509.809; 3629.750;  232.375;    0.000
509.942; 3645.750;  237.375;    0.000
510.076; 3548.750;  226.375;    0.000
510.209; 3571.750;  251.375;    0.000
510.343; 3606.750;  229.375;    0.000
510.476; 3591.750;  285.375;    0.000
510.610; 3579.750;  211.375;    0.000
510.743; 3578.750;  258.375;    0.000
510.877; 3574.750;  244.375;    0.000
511.010; 3605.750;  235.375;    0.000
511.143; 3630.750;  251.375;    0.000
511.277; 3544.750;  228.375;    0.000
511.410; 3563.750;  216.375;    0.000
511.543; 3531.750;  231.375;    0.000
511.677; 3475.750;  244.375;    0.000
511.810; 3551.750;  186.375;    0.000
511.943; 3476.750;  211.375;    0.000
512.077; 3558.750;  201.375;    0.000
512.210; 3530.750;  194.375;    0.000
512.343; 3484.750;  233.375;    0.000
512.476; 3592.750;  234.375;    0.000
512.610; 3546.750;  224.375;    0.000
512.743; 3537.750;  255.375;    0.000
512.876; 3567.750;  264.375;    0.000
513.009; 3636.750;  283.375;    0.000
513.142; 3498.750;  246.375;    0.000
513.276; 3435.750;  217.375;    0.000
513.409; 3511.750;  222.375;    0.000
513.542; 3444.750;  237.375;    0.000
513.675; 3440.750;  238.375;    0.000
513.808; 3433.750;  220.375;    0.000
513.941; 3534.750;  233.375;    0.000
514.074; 3512.750;  248.375;    0.000
514.207; 3562.750;  233.375;    0.000
514.340; 3534.750;  190.375;    0.000
514.474; 3545.750;  221.375;    0.000
514.607; 3539.750;  213.375;    0.000
514.740; 3560.750;  251.375;    0.000
514.873; 3483.750;  257.375;    0.000
515.006; 3565.750;  268.375;    0.000
515.139; 3601.750;  257.375;    0.000
515.272; 3480.750;  227.375;    0.000
515.404; 3494.750;  238.375;    0.000
515.537; 3700.750;  275.375;    0.000
515.670; 3665.750;  239.375;    0.000
515.803; 3679.750;  223.375;    0.000
515.936; 3570.750;  202.375;    0.000
516.069; 3775.750;  188.375;    0.000
516.202; 3792.750;  240.375;    0.000
516.335; 3795.750;  252.375;    0.000
516.468; 3990.750;  254.375;    0.000
516.600; 4735.750;  254.375;    0.000
516.733; 5650.750;  255.375;    0.000
516.866; 5566.750;  265.375;    0.000
516.999; 5024.750;  251.375;    0.000
517.132; 6179.750;  256.375;    0.000
517.264; 8328.750;  202.375;    0.000
517.397; 7941.750;  248.375;    0.000
517.530; 6153.750;  221.375;    0.000
517.663; 5198.750;  244.375;    0.000
517.795; 4894.750;  245.375;    0.000
517.928; 4726.750;  236.375;    0.000
518.061; 4893.750;  219.375;    0.000
518.193; 6151.750;  251.375;    0.000
518.326; 9683.750;  271.375;    0.000
518.459; 9745.750;  207.375;    0.000
518.591; 7437.750;  217.375;    0.000
518.724; 5805.750;  200.375;    0.000
518.857; 5074.750;  204.375;    0.000
518.989; 4754.750;  242.375;    0.000
519.122; 4503.750;  254.375;    0.000
519.254; 4373.750;  239.375;    0.000
519.387; 4157.750;  235.375;    0.000
519.519; 3891.750;  227.375;    0.000
519.652; 3805.750;  178.375;    0.000
519.784; 3820.750;  226.375;    0.000
519.917; 3631.750;  256.375;    0.000
520.049; 3581.750;  234.375;    0.000
520.182; 3514.750;  258.375;    0.000
520.314; 3669.750;  298.375;    0.000
520.447; 3514.750;  204.375;    0.000
520.579; 3530.750;  235.375;    0.000
520.712; 3531.750;  208.375;    0.000
520.844; 3495.750;  272.375;    0.000
520.976; 3387.750;  234.375;    0.000
521.109; 3401.750;  235.375;    0.000
521.241; 3393.750;  250.375;    0.000
521.373; 3380.750;  233.375;    0.000
521.506; 3350.750;  231.375;    0.000
521.638; 3246.750;  258.375;    0.000
521.770; 3223.750;  226.375;    0.000
521.903; 3247.750;  258.375;    0.000
522.035; 3178.750;  263.375;    0.000
522.167; 3171.750;  214.375;    0.000
522.300; 3259.750;  212.375;    0.000
522.432; 3168.750;  220.375;    0.000
522.564; 3240.750;  228.375;    0.000
522.696; 3153.750;  272.375;    0.000
522.828; 3184.750;  222.375;    0.000
522.961; 3172.750;  205.375;    0.000
523.093; 3250.750;  253.375;    0.000
523.225; 3138.750;  239.375;    0.000
523.357; 3183.750;  263.375;    0.000
523.489; 3176.750;  264.375;    0.000
523.621; 3118.750;  259.375;    0.000
523.753; 3141.750;  233.375;    0.000
523.885; 3017.750;  232.375;    0.000
524.018; 3078.750;  214.375;    0.000
524.150; 3018.750;  235.375;    0.000
524.282; 3091.750;  242.375;    0.000
524.414; 3055.750;  261.375;    0.000
524.546; 3031.750;  233.375;    0.000
524.678; 2947.750;  242.375;    0.000
524.810; 2977.750;  216.375;    0.000
524.942; 3024.750;  220.375;    0.000
525.074; 2932.750;  249.375;    0.000
525.206; 2992.750;  227.375;    0.000
525.338; 3018.750;  250.375;    0.000
525.469; 3019.750;  231.375;    0.000
525.601; 2998.750;  245.375;    0.000
525.733; 2876.750;  187.375;    0.000
525.865; 2948.750;  280.375;    0.000
525.997; 2991.750;  216.375;    0.000
526.129; 2934.750;  228.375;    0.000
526.261; 2799.750;  187.375;    0.000
526.393; 2990.750;  228.375;    0.000
526.524; 2896.750;  201.375;    0.000
526.656; 2886.750;  199.375;    0.000
526.788; 2957.750;  233.375;    0.000
526.920; 2820.750;  256.375;    0.000
527.052; 2831.750;  219.375;    0.000
527.183; 2882.750;  227.375;    0.000
527.315; 2969.750;  266.375;    0.000
527.447; 2909.750;  239.375;    0.000
527.578; 2856.750;  213.375;    0.000
527.710; 2914.750;  216.375;    0.000
527.842; 2827.750;  240.375;    0.000
527.973; 2895.750;  286.375;    0.000
528.105; 2889.750;  222.375;    0.000
528.237; 2834.750;  223.375;    0.000
528.368; 2815.750;  211.375;    0.000
528.500; 2746.750;  215.375;    0.000
528.632; 2766.750;  216.375;    0.000
528.763; 2843.750;  234.375;    0.000
528.895; 2697.750;  196.375;    0.000
529.026; 2778.750;  202.375;    0.000
529.158; 2851.750;  226.375;    0.000
529.289; 2873.750;  229.375;    0.000
529.421; 2854.750;  264.375;    0.000
529.552; 2853.750;  265.375;    0.000
529.684; 2915.750;  260.375;    0.000
529.815; 2876.750;  284.375;    0.000
529.947; 2869.750;  237.375;    0.000
530.078; 2723.750;  223.375;    0.000
530.210; 2881.750;  223.375;    0.000
530.341; 2914.750;  209.375;    0.000
530.472; 2790.750;  203.375;    0.000
530.604; 2887.750;  223.375;    0.000
530.735; 2742.750;  218.375;    0.000
530.867; 2767.750;  222.375;    0.000
530.998; 2771.750;  239.375;    0.000
531.129; 2765.750;  250.375;    0.000
531.260; 2828.750;  224.375;    0.000
531.392; 2855.750;  216.375;    0.000
531.523; 2856.750;  234.375;    0.000
531.654; 2900.750;  256.375;    0.000
531.786; 2803.750;  226.375;    0.000
531.917; 2856.750;  239.375;    0.000
532.048; 2816.750;  205.375;    0.000
532.179; 2824.750;  244.375;    0.000
532.311; 2740.750;  235.375;    0.000
532.442; 2842.750;  258.375;    0.000
532.573; 2790.750;  220.375;    0.000
532.704; 2818.750;  213.375;    0.000
532.835; 2868.750;  249.375;    0.000
532.966; 2792.750;  226.375;    0.000
533.097; 2765.750;  246.375;    0.000
533.229; 2679.750;  237.375;    0.000
533.360; 2717.750;  225.375;    0.000
533.491; 2742.750;  241.375;    0.000
533.622; 2780.750;  242.375;    0.000
533.753; 2745.750;  264.375;    0.000
533.884; 2756.750;  245.375;    0.000
534.015; 2775.750;  269.375;    0.000
534.146; 2811.750;  267.375;    0.000
534.277; 2848.750;  282.375;    0.000
534.408; 2729.750;  229.375;    0.000
534.539; 2844.750;  269.375;    0.000
534.670; 2772.750;  231.375;    0.000
534.801; 2736.750;  260.375;    0.000
534.932; 2792.750;  232.375;    0.000
535.063; 2719.750;  227.375;    0.000
535.194; 2736.750;  281.375;    0.000
535.324; 2742.750;  206.375;    0.000
535.455; 2834.750;  257.375;    0.000
535.586; 2850.750;  275.375;    0.000
535.717; 2738.750;  206.375;    0.000
535.848; 2762.750;  271.375;    0.000
535.979; 2811.750;  250.375;    0.000
536.109; 2843.750;  253.375;    0.000
536.240; 2737.750;  234.375;    0.000
536.371; 2663.750;  230.375;    0.000
536.502; 2731.750;  270.375;    0.000
536.632; 2748.750;  228.375;    0.000
536.763; 2770.750;  249.375;    0.000
536.894; 2739.750;  262.375;    0.000
537.025; 2726.750;  258.375;    0.000
537.155; 2744.750;  278.375;    0.000
537.286; 2642.750;  209.375;    0.000
537.417; 2691.750;  255.375;    0.000
537.547; 2664.750;  208.375;    0.000
537.678; 2741.750;  224.375;    0.000
537.808; 2760.750;  224.375;    0.000
537.939; 2699.750;  257.375;    0.000
538.070; 2752.750;  240.375;    0.000
538.200; 2806.750;  259.375;    0.000
538.331; 2717.750;  235.375;    0.000
538.461; 2658.750;  251.375;    0.000
538.592; 2752.750;  245.375;    0.000
538.722; 2732.750;  239.375;    0.000
538.853; 2745.750;  216.375;    0.000
538.983; 2665.750;  226.375;    0.000
539.114; 2719.750;  240.375;    0.000
539.244; 2676.750;  237.375;    0.000
539.375; 2608.750;  198.375;    0.000
539.505; 2641.750;  263.375;    0.000
539.636; 2649.750;  226.375;    0.000
539.766; 2716.750;  229.375;    0.000
539.896; 2686.750;  219.375;    0.000
540.027; 2722.750;  246.375;    0.000
540.157; 2717.750;  218.375;    0.000
540.287; 2673.750;  216.375;    0.000
540.418; 2732.750;  267.375;    0.000
540.548; 2715.750;  260.375;    0.000
540.678; 2671.750;  242.375;    0.000
540.809; 2675.750;  260.375;    0.000
540.939; 2661.750;  257.375;    0.000
541.069; 2714.750;  226.375;    0.000
541.200; 2642.750;  227.375;    0.000
541.330; 2650.750;  218.375;    0.000
541.460; 2726.750;  223.375;    0.000
541.590; 2701.750;  237.375;    0.000
541.720; 2627.750;  222.375;    0.000
541.851; 2665.750;  250.375;    0.000
541.981; 2747.750;  222.375;    0.000
542.111; 2793.750;  212.375;    0.000
542.241; 2685.750;  205.375;    0.000
542.371; 2738.750;  202.375;    0.000
542.501; 2781.750;  218.375;    0.000
542.631; 2844.750;  222.375;    0.000
542.761; 2743.750;  249.375;    0.000
542.891; 2719.750;  173.375;    0.000
543.021; 2697.750;  218.375;    0.000
543.151; 2767.750;  222.375;    0.000
543.281; 2794.750;  188.375;    0.000
543.411; 2786.750;  239.375;    0.000
543.542; 2654.750;  215.375;    0.000
543.671; 2731.750;  250.375;    0.000
543.801; 2618.750;  212.375;    0.000
543.931; 2741.750;  233.375;    0.000
544.061; 2781.750;  194.375;    0.000
544.191; 2687.750;  218.375;    0.000
544.321; 2676.750;  220.375;    0.000
544.451; 2771.750;  183.375;    0.000
544.581; 2809.750;  221.375;    0.000
544.711; 2811.750;  224.375;    0.000
544.841; 2802.750;  214.375;    0.000
544.970; 2778.750;  227.375;    0.000
545.100; 2788.750;  186.375;    0.000
545.230; 2869.750;  205.375;    0.000
545.360; 2804.750;  211.375;    0.000
545.490; 2753.750;  202.375;    0.000
545.619; 2673.750;  182.375;    0.000
545.749; 2710.750;  174.375;    0.000
545.879; 2621.750;  169.375;    0.000
546.009; 2752.750;  182.375;    0.000
546.138; 2753.750;  200.375;    0.000
546.268; 2795.750;  204.375;    0.000
546.398; 2745.750;  200.375;    0.000
546.527; 2745.750;  179.375;    0.000
546.657; 2672.750;  162.375;    0.000
546.786; 2691.750;  179.375;    0.000
546.916; 2746.750;  221.375;    0.000
547.046; 2769.750;  179.375;    0.000
547.175; 2793.750;  168.375;    0.000
547.305; 2786.750;  200.375;    0.000
547.434; 2682.750;  166.375;    0.000
547.564; 2759.750;  177.375;    0.000
547.693; 2669.750;  152.375;    0.000
547.823; 2787.750;  171.375;    0.000
547.953; 2767.750;  195.375;    0.000
548.082; 2811.750;  214.375;    0.000
548.211; 2718.750;  177.375;    0.000
548.341; 2701.750;  189.375;    0.000
548.470; 2788.750;  194.375;    0.000
548.600; 2726.750;  172.375;    0.000
548.729; 2716.750;  158.375;    0.000
548.859; 2665.750;  193.375;    0.000
548.988; 2811.750;  131.375;    0.000
549.117; 2694.750;  204.375;    0.000
549.247; 2789.750;  191.375;    0.000
549.376; 2776.750;  202.375;    0.000
549.505; 2711.750;  187.375;    0.000
549.635; 2754.750;  198.375;    0.000
549.764; 2779.750;  155.375;    0.000
549.893; 2773.750;  176.375;    0.000
550.023; 2794.750;  202.375;    0.000
550.152; 2788.750;  168.375;    0.000
550.281; 2787.750;  180.375;    0.000
550.410; 2878.750;  180.375;    0.000
550.539; 2847.750;  181.375;    0.000
550.669; 2821.750;  168.375;    0.000
550.798; 2920.750;  223.375;    0.000
550.927; 2870.750;  179.375;    0.000
551.056; 2821.750;  159.375;    0.000
551.185; 2798.750;  199.375;    0.000
551.314; 2831.750;  185.375;    0.000
551.443; 2732.750;  172.375;    0.000
551.573; 2825.750;  158.375;    0.000
551.702; 2837.750;  210.375;    0.000
551.831; 2913.750;  238.375;    0.000
551.960; 2854.750;  191.375;    0.000
552.089; 2852.750;  195.375;    0.000
552.218; 2787.750;  196.375;    0.000
552.347; 2877.750;  194.375;    0.000
552.476; 2899.750;  192.375;    0.000
552.605; 2887.750;  172.375;    0.000
552.734; 3014.750;  214.375;    0.000
552.863; 3004.750;  177.375;    0.000
552.992; 3095.750;  190.375;    0.000
553.121; 2982.750;  185.375;    0.000
553.249; 3024.750;  175.375;    0.000
553.378; 2967.750;  192.375;    0.000
553.507; 2902.750;  193.375;    0.000
553.636; 2966.750;  182.375;    0.000
553.765; 2893.750;  187.375;    0.000
553.894; 2956.750;  214.375;    0.000
554.023; 2886.750;  217.375;    0.000
554.151; 2937.750;  223.375;    0.000
554.280; 2901.750;  170.375;    0.000
554.409; 2883.750;  172.375;    0.000
554.538; 2854.750;  182.375;    0.000
554.666; 2905.750;  195.375;    0.000
554.795; 2839.750;  176.375;    0.000
554.924; 2781.750;  164.375;    0.000
555.052; 2854.750;  171.375;    0.000
555.181; 2875.750;  208.375;    0.000
555.310; 2847.750;  214.375;    0.000
555.439; 2752.750;  193.375;    0.000
555.567; 2855.750;  189.375;    0.000
555.696; 2743.750;  196.375;    0.000
555.824; 2732.750;  183.375;    0.000
555.953; 2840.750;  234.375;    0.000
556.082; 2796.750;  183.375;    0.000
556.210; 2668.750;  199.375;    0.000
556.339; 2812.750;  201.375;    0.000
556.467; 2770.750;  208.375;    0.000
556.596; 2766.750;  194.375;    0.000
556.724; 2758.750;  170.375;    0.000
556.853; 2712.750;  166.375;    0.000
556.981; 2740.750;  185.375;    0.000
557.110; 2705.750;  213.375;    0.000
557.238; 2805.750;  188.375;    0.000
557.367; 2707.750;  176.375;    0.000
557.495; 2756.750;  180.375;    0.000
557.623; 2764.750;  193.375;    0.000
557.752; 2739.750;  207.375;    0.000
557.880; 2755.750;  189.375;    0.000
558.008; 2740.750;  169.375;    0.000
558.137; 2750.750;  203.375;    0.000
558.265; 2762.750;  167.375;    0.000
558.393; 2692.750;  204.375;    0.000
558.522; 2648.750;  203.375;    0.000
558.650; 2744.750;  215.375;    0.000
558.778; 2791.750;  190.375;    0.000
558.906; 2755.750;  186.375;    0.000
559.035; 2736.750;  193.375;    0.000
559.163; 2692.750;  198.375;    0.000
559.291; 2802.750;  222.375;    0.000
559.419; 2758.750;  192.375;    0.000
559.548; 2670.750;  186.375;    0.000
559.676; 2754.750;  199.375;    0.000
559.804; 2786.750;  186.375;    0.000
559.932; 2791.750;  202.375;    0.000
560.060; 2761.750;  183.375;    0.000
560.188; 2751.750;  212.375;    0.000
560.316; 2733.750;  192.375;    0.000
560.444; 2737.750;  180.375;    0.000
560.572; 2716.750;  206.375;    0.000
560.700; 2747.750;  184.375;    0.000
560.828; 2796.750;  177.375;    0.000
560.956; 2777.750;  221.375;    0.000
561.085; 2849.750;  227.375;    0.000
561.212; 2772.750;  208.375;    0.000
561.340; 2758.750;  189.375;    0.000
561.468; 2830.750;  189.375;    0.000
561.596; 2835.750;  183.375;    0.000
561.724; 2887.750;  188.375;    0.000
561.852; 2808.750;  183.375;    0.000
561.980; 2883.750;  209.375;    0.000
562.108; 2785.750;  165.375;    0.000
562.236; 2874.750;  188.375;    0.000
562.364; 2994.750;  177.375;    0.000
562.492; 2932.750;  192.375;    0.000
562.619; 2916.750;  187.375;    0.000
562.747; 2881.750;  217.375;    0.000
562.875; 2939.750;  221.375;    0.000
563.003; 2945.750;  199.375;    0.000
563.130; 2994.750;  191.375;    0.000
563.258; 2888.750;  186.375;    0.000
563.386; 2943.750;  191.375;    0.000
563.514; 2950.750;  217.375;    0.000
563.641; 3025.750;  220.375;    0.000
563.769; 3033.750;  186.375;    0.000
563.897; 3102.750;  158.375;    0.000
564.024; 3164.750;  192.375;    0.000
564.152; 3131.750;  217.375;    0.000
564.280; 3043.750;  203.375;    0.000
564.407; 3035.750;  190.375;    0.000
564.535; 3125.750;  188.375;    0.000
564.662; 3186.750;  199.375;    0.000
564.790; 3152.750;  227.375;    0.000
564.917; 3186.750;  160.375;    0.000
565.045; 3194.750;  222.375;    0.000
565.173; 3189.750;  169.375;    0.000
565.300; 3161.750;  208.375;    0.000
565.428; 3246.750;  174.375;    0.000
565.555; 3207.750;  201.375;    0.000
565.682; 3387.750;  180.375;    0.000
565.810; 3333.750;  165.375;    0.000
565.937; 3355.750;  167.375;    0.000
566.065; 3423.750;  190.375;    0.000
566.192; 3474.750;  169.375;    0.000
566.320; 3512.750;  167.375;    0.000
566.447; 3573.750;  151.375;    0.000
566.574; 3490.750;  176.375;    0.000
566.702; 3664.750;  198.375;    0.000
566.829; 3657.750;  209.375;    0.000
566.956; 3690.750;  186.375;    0.000
567.083; 3677.750;  188.375;    0.000
567.211; 3683.750;  159.375;    0.000
567.338; 3714.750;  204.375;    0.000
567.465; 3717.750;  141.375;    0.000
567.593; 3719.750;  168.375;    0.000
567.720; 3775.750;  177.375;    0.000
567.847; 3688.750;  160.375;    0.000
567.974; 3717.750;  139.375;    0.000
568.101; 3663.750;  153.375;    0.000
568.228; 3620.750;  173.375;    0.000
568.356; 3482.750;  149.375;    0.000
568.483; 3478.750;  185.375;    0.000
568.610; 3411.750;  170.375;    0.000
568.737; 3444.750;  223.375;    0.000
568.864; 3284.750;  167.375;    0.000
568.991; 3347.750;  177.375;    0.000
569.118; 3247.750;  169.375;    0.000
569.245; 3210.750;  128.375;    0.000
569.372; 3208.750;  160.375;    0.000
569.499; 3132.750;  156.375;    0.000
569.626; 3196.750;  191.375;    0.000
569.753; 3128.750;  163.375;    0.000
569.880; 3165.750;  167.375;    0.000
570.007; 3078.750;  143.375;    0.000
570.134; 3084.750;  191.375;    0.000
570.261; 3084.750;  164.375;    0.000
570.388; 3120.750;  162.375;    0.000
570.515; 3065.750;  220.375;    0.000
570.642; 2873.750;  184.375;    0.000
570.768; 2962.750;  174.375;    0.000
570.895; 3036.750;  177.375;    0.000
571.022; 2964.750;  152.375;    0.000
571.149; 3043.750;  183.375;    0.000
571.276; 2977.750;  153.375;    0.000
571.402; 2923.750;  190.375;    0.000
571.529; 2946.750;  187.375;    0.000
571.656; 2886.750;  167.375;    0.000
571.783; 2916.750;  186.375;    0.000
571.909; 2915.750;  183.375;    0.000
572.036; 2878.750;  162.375;    0.000
572.163; 2847.750;  196.375;    0.000
572.289; 2875.750;  180.375;    0.000
572.416; 2862.750;  190.375;    0.000
572.543; 2752.750;  174.375;    0.000
572.669; 2825.750;  186.375;    0.000
572.796; 2894.750;  205.375;    0.000
572.922; 2904.750;  185.375;    0.000
573.049; 2829.750;  178.375;    0.000
573.176; 2778.750;  196.375;    0.000
573.302; 2849.750;  202.375;    0.000
573.429; 2777.750;  189.375;    0.000
573.555; 2802.750;  145.375;    0.000
573.682; 2817.750;  228.375;    0.000
573.808; 2845.750;  197.375;    0.000
573.935; 2793.750;  216.375;    0.000
574.061; 2861.750;  173.375;    0.000
574.188; 2931.750;  151.375;    0.000
574.314; 2801.750;  181.375;    0.000
574.440; 2747.750;  167.375;    0.000
574.567; 2803.750;  185.375;    0.000
574.693; 2869.750;  173.375;    0.000
574.820; 2800.750;  164.375;    0.000
574.946; 2799.750;  199.375;    0.000
575.072; 2768.750;  162.375;    0.000
575.198; 2760.750;  225.375;    0.000
575.325; 2779.750;  171.375;    0.000
575.451; 2802.750;  183.375;    0.000
575.577; 2752.750;  190.375;    0.000
575.704; 2740.750;  210.375;    0.000
575.830; 2756.750;  185.375;    0.000
575.956; 2720.750;  168.375;    0.000
576.082; 2737.750;  158.375;    0.000
576.208; 2820.750;  158.375;    0.000
576.335; 2760.750;  196.375;    0.000
576.461; 2676.750;  187.375;    0.000
576.587; 2752.750;  157.375;    0.000
576.713; 2735.750;  156.375;    0.000
576.839; 2752.750;  196.375;    0.000
576.965; 2770.750;  187.375;    0.000
577.091; 2804.750;  204.375;    0.000
577.217; 2742.750;  207.375;    0.000
577.343; 2784.750;  175.375;    0.000
577.469; 2752.750;  197.375;    0.000
577.596; 2667.750;  182.375;    0.000
577.722; 2704.750;  159.375;    0.000
577.848; 2677.750;  162.375;    0.000
577.974; 2724.750;  180.375;    0.000
578.099; 2700.750;  161.375;    0.000
578.225; 2726.750;  180.375;    0.000
578.351; 2752.750;  190.375;    0.000
578.477; 2755.750;  212.375;    0.000
578.603; 2754.750;  179.375;    0.000
578.729; 2696.750;  195.375;    0.000
578.855; 2721.750;  153.375;    0.000
578.981; 2664.750;  162.375;    0.000
579.107; 2728.750;  149.375;    0.000
579.232; 2669.750;  164.375;    0.000
579.358; 2720.750;  162.375;    0.000
579.484; 2719.750;  181.375;    0.000
579.610; 2672.750;  190.375;    0.000
579.735; 2710.750;  191.375;    0.000
579.861; 2751.750;  189.375;    0.000
579.987; 2734.750;  202.375;    0.000
580.113; 2758.750;  197.375;    0.000
580.238; 2760.750;  228.375;    0.000
580.364; 2749.750;  212.375;    0.000
580.490; 2676.750;  225.375;    0.000
580.615; 2769.750;  218.375;    0.000
580.741; 2755.750;  167.375;    0.000
580.867; 2724.750;  215.375;    0.000
580.992; 2755.750;  191.375;    0.000
581.118; 2680.750;  171.375;    0.000
581.243; 2767.750;  204.375;    0.000
581.369; 2716.750;  186.375;    0.000
581.494; 2680.750;  184.375;    0.000
581.620; 2746.750;  212.375;    0.000
581.745; 2766.750;  192.375;    0.000
581.871; 2736.750;  195.375;    0.000
581.996; 2716.750;  160.375;    0.000
582.122; 2724.750;  217.375;    0.000
582.247; 2807.750;  213.375;    0.000
582.373; 2621.750;  187.375;    0.000
582.498; 2750.750;  208.375;    0.000
582.624; 2672.750;  189.375;    0.000
582.749; 2754.750;  185.375;    0.000
582.874; 2676.750;  195.375;    0.000
583.000; 2727.750;  208.375;    0.000
583.125; 2711.750;  147.375;    0.000
583.250; 2778.750;  201.375;    0.000
583.376; 2741.750;  191.375;    0.000
583.501; 2710.750;  206.375;    0.000
583.626; 2628.750;  167.375;    0.000
583.751; 2710.750;  180.375;    0.000
583.877; 2687.750;  185.375;    0.000
584.002; 2799.750;  186.375;    0.000
584.127; 2727.750;  176.375;    0.000
584.252; 2652.750;  214.375;    0.000
584.377; 2653.750;  225.375;    0.000
584.503; 2730.750;  195.375;    0.000
584.628; 2692.750;  206.375;    0.000
584.753; 2794.750;  181.375;    0.000
584.878; 2698.750;  136.375;    0.000
585.003; 2719.750;  215.375;    0.000
585.128; 2769.750;  206.375;    0.000
585.253; 2786.750;  200.375;    0.000
585.378; 2703.750;  169.375;    0.000
585.503; 2763.750;  191.375;    0.000
585.628; 2742.750;  182.375;    0.000
585.753; 2731.750;  164.375;    0.000
585.878; 2673.750;  123.375;    0.000
586.003; 2754.750;  187.375;    0.000
586.128; 2710.750;  198.375;    0.000
586.253; 2725.750;  172.375;    0.000
586.378; 2666.750;  191.375;    0.000
586.503; 2759.750;  190.375;    0.000
586.628; 2689.750;  178.375;    0.000
586.753; 2707.750;  184.375;    0.000
586.878; 2689.750;  169.375;    0.000
587.003; 2767.750;  186.375;    0.000
587.127; 2750.750;  170.375;    0.000
587.252; 2745.750;  170.375;    0.000
587.377; 2752.750;  181.375;    0.000
587.502; 2739.750;  209.375;    0.000
587.627; 2792.750;  210.375;    0.000
587.751; 2691.750;  212.375;    0.000
587.876; 2675.750;  198.375;    0.000
588.001; 2736.750;  161.375;    0.000
588.125; 2716.750;  191.375;    0.000
588.250; 2730.750;  132.375;    0.000
588.375; 2812.750;  183.375;    0.000
588.499; 2876.750;  176.375;    0.000
588.624; 2934.750;  173.375;    0.000
588.749; 3088.750;  204.375;    0.000
588.873; 4129.750;  179.375;    0.000
588.998; 5248.750;  182.375;    0.000
589.122; 4420.750;  165.375;    0.000
589.247; 3373.750;  185.375;    0.000
589.372; 3164.750;  199.375;    0.000
589.496; 3985.750;  182.375;    0.000
589.621; 4510.750;  158.375;    0.000
589.745; 3814.750;  213.375;    0.000
589.870; 2965.750;  175.375;    0.000
589.994; 2900.750;  194.375;    0.000
590.118; 2863.750;  218.375;    0.000
590.243; 2829.750;  170.375;    0.000
590.367; 2841.750;  189.375;    0.000
590.492; 2791.750;  196.375;    0.000
590.616; 2808.750;  182.375;    0.000
590.740; 2932.750;  210.375;    0.000
590.865; 2875.750;  242.375;    0.000
590.989; 2921.750;  191.375;    0.000
591.114; 2908.750;  167.375;    0.000
591.238; 2784.750;  194.375;    0.000
591.362; 2900.750;  236.375;    0.000
591.486; 2888.750;  194.375;    0.000
591.611; 2841.750;  154.375;    0.000
591.735; 2938.750;  186.375;    0.000
591.859; 2844.750;  148.375;    0.000
591.983; 3000.750;  211.375;    0.000
592.107; 2972.750;  204.375;    0.000
592.232; 2909.750;  194.375;    0.000
592.356; 2971.750;  238.375;    0.000
592.480; 2914.750;  179.375;    0.000
592.604; 3020.750;  192.375;    0.000
592.728; 2978.750;  201.375;    0.000
592.852; 2965.750;  158.375;    0.000
592.976; 2936.750;  152.375;    0.000
593.100; 2945.750;  194.375;    0.000
593.224; 2984.750;  235.375;    0.000
593.349; 2997.750;  233.375;    0.000
593.473; 2957.750;  194.375;    0.000
593.597; 3040.750;  215.375;    0.000
593.721; 2985.750;  212.375;    0.000
593.844; 3064.750;  220.375;    0.000
593.968; 3027.750;  221.375;    0.000
594.092; 2941.750;  150.375;    0.000
594.216; 2940.750;  212.375;    0.000
594.340; 2933.750;  209.375;    0.000
594.464; 2934.750;  207.375;    0.000
594.588; 3024.750;  195.375;    0.000
594.712; 2933.750;  176.375;    0.000
594.836; 2898.750;  219.375;    0.000
594.959; 2909.750;  215.375;    0.000
595.083; 2839.750;  200.375;    0.000
595.207; 2894.750;  206.375;    0.000
595.331; 2841.750;  207.375;    0.000
595.455; 2893.750;  206.375;    0.000
595.578; 2863.750;  204.375;    0.000
595.702; 2836.750;  225.375;    0.000
595.826; 2831.750;  186.375;    0.000
595.949; 2797.750;  196.375;    0.000
596.073; 2785.750;  188.375;    0.000
596.197; 2784.750;  217.375;    0.000
596.320; 2884.750;  225.375;    0.000
596.444; 2772.750;  220.375;    0.000
596.568; 2749.750;  155.375;    0.000
596.691; 2799.750;  195.375;    0.000
596.815; 2768.750;  163.375;    0.000
596.938; 2688.750;  181.375;    0.000
597.062; 2710.750;  201.375;    0.000
597.186; 2683.750;  200.375;    0.000
597.309; 2592.750;  214.375;    0.000
597.433; 2692.750;  176.375;    0.000
597.556; 2708.750;  193.375;    0.000
597.680; 2697.750;  241.375;    0.000
597.803; 2698.750;  185.375;    0.000
597.926; 2676.750;  200.375;    0.000
598.050; 2680.750;  193.375;    0.000
598.173; 2622.750;  219.375;    0.000
598.297; 2693.750;  223.375;    0.000
598.420; 2637.750;  187.375;    0.000
598.543; 2614.750;  205.375;    0.000
598.667; 2618.750;  177.375;    0.000
598.790; 2661.750;  208.375;    0.000
598.913; 2623.750;  170.375;    0.000
599.037; 2677.750;  212.375;    0.000
599.160; 2621.750;  165.375;    0.000
599.283; 2665.750;  211.375;    0.000
599.406; 2635.750;  207.375;    0.000
599.530; 2632.750;  182.375;    0.000
599.653; 2589.750;  215.375;    0.000
599.776; 2637.750;  167.375;    0.000
599.899; 2719.750;  190.375;    0.000
600.022; 2644.750;  182.375;    0.000
600.145; 2642.750;  180.375;    0.000
600.269; 2647.750;  208.375;    0.000
600.392; 2557.750;  214.375;    0.000
600.515; 2562.750;  196.375;    0.000
600.638; 2608.750;  204.375;    0.000
600.761; 2617.750;  209.375;    0.000
600.884; 2560.750;  207.375;    0.000
601.007; 2645.750;  234.375;    0.000
601.130; 2585.750;  183.375;    0.000
601.253; 2648.750;  211.375;    0.000
601.376; 2547.750;  199.375;    0.000
601.499; 2520.750;  190.375;    0.000
601.622; 2613.750;  210.375;    0.000
601.745; 2591.750;  180.375;    0.000
601.868; 2588.750;  204.375;    0.000
601.991; 2538.750;  188.375;    0.000
602.113; 2574.750;  210.375;    0.000
602.236; 2493.750;  194.375;    0.000
602.359; 2576.750;  213.375;    0.000
602.482; 2626.750;  169.375;    0.000
602.605; 2551.750;  189.375;    0.000
602.728; 2617.750;  236.375;    0.000
602.850; 2575.750;  230.375;    0.000
602.973; 2568.750;  187.375;    0.000
603.096; 2605.750;  201.375;    0.000
603.219; 2620.750;  209.375;    0.000
603.341; 2595.750;  209.375;    0.000
603.464; 2592.750;  194.375;    0.000
603.587; 2554.750;  166.375;    0.000
603.709; 2577.750;  175.375;    0.000
603.832; 2528.750;  239.375;    0.000
603.955; 2536.750;  205.375;    0.000
604.077; 2546.750;  196.375;    0.000
604.200; 2537.750;  188.375;    0.000
604.323; 2509.750;  224.375;    0.000
604.445; 2484.750;  182.375;    0.000
604.568; 2500.750;  199.375;    0.000
604.690; 2547.750;  175.375;    0.000
604.813; 2525.750;  211.375;    0.000
604.935; 2517.750;  171.375;    0.000
605.058; 2550.750;  196.375;    0.000
605.180; 2536.750;  194.375;    0.000
605.303; 2458.750;  198.375;    0.000
605.425; 2501.750;  212.375;    0.000
605.547; 2477.750;  238.375;    0.000
605.670; 2459.750;  207.375;    0.000
605.792; 2532.750;  204.375;    0.000
605.915; 2467.750;  198.375;    0.000
606.037; 2463.750;  215.375;    0.000
606.159; 2561.750;  170.375;    0.000
606.282; 2458.750;  194.375;    0.000
606.404; 2450.750;  207.375;    0.000
606.526; 2484.750;  208.375;    0.000
606.648; 2434.750;  174.375;    0.000
606.771; 2459.750;  170.375;    0.000
606.893; 2445.750;  182.375;    0.000
607.015; 2477.750;  180.375;    0.000
607.137; 2442.750;  187.375;    0.000
607.260; 2473.750;  202.375;    0.000
607.382; 2442.750;  226.375;    0.000
607.504; 2525.750;  208.375;    0.000
607.626; 2565.750;  229.375;    0.000
607.748; 2549.750;  170.375;    0.000
607.870; 2453.750;  208.375;    0.000
607.992; 2383.750;  184.375;    0.000
608.114; 2407.750;  213.375;    0.000
608.237; 2493.750;  237.375;    0.000
608.359; 2477.750;  176.375;    0.000
608.481; 2433.750;  173.375;    0.000
608.603; 2426.750;  189.375;    0.000
608.725; 2396.750;  185.375;    0.000
608.847; 2441.750;  239.375;    0.000
608.969; 2433.750;  237.375;    0.000
609.090; 2537.750;  189.375;    0.000
609.212; 2397.750;  147.375;    0.000
609.334; 2492.750;  177.375;    0.000
609.456; 2529.750;  196.375;    0.000
609.578; 2473.750;  199.375;    0.000
609.700; 2483.750;  167.375;    0.000
609.822; 2389.750;  140.375;    0.000
609.944; 2520.750;  225.375;    0.000
610.065; 2487.750;  183.375;    0.000
610.187; 2487.750;  170.375;    0.000
610.309; 2472.750;  210.375;    0.000
610.431; 2467.750;  185.375;    0.000
610.552; 2388.750;  197.375;    0.000
610.674; 2438.750;  188.375;    0.000
610.796; 2386.750;  162.375;    0.000
610.918; 2464.750;  200.375;    0.000
611.039; 2406.750;  209.375;    0.000
611.161; 2450.750;  201.375;    0.000
611.282; 2323.750;  197.375;    0.000
611.404; 2429.750;  220.375;    0.000
611.526; 2380.750;  159.375;    0.000
611.647; 2495.750;  205.375;    0.000
611.769; 2385.750;  161.375;    0.000
611.890; 2416.750;  173.375;    0.000
612.012; 2325.750;  225.375;    0.000
612.133; 2380.750;  188.375;    0.000
612.255; 2400.750;  217.375;    0.000
612.377; 2419.750;  219.375;    0.000
612.498; 2356.750;  177.375;    0.000
612.619; 2461.750;  211.375;    0.000
612.741; 2416.750;  185.375;    0.000
612.862; 2454.750;  191.375;    0.000
612.984; 2428.750;  190.375;    0.000
613.105; 2332.750;  211.375;    0.000
613.226; 2415.750;  174.375;    0.000
613.348; 2406.750;  235.375;    0.000
613.469; 2353.750;  230.375;    0.000
613.590; 2336.750;  208.375;    0.000
613.712; 2372.750;  244.375;    0.000
613.833; 2424.750;  202.375;    0.000
613.954; 2339.750;  228.375;    0.000
614.076; 2327.750;  220.375;    0.000
614.197; 2390.750;  191.375;    0.000
614.318; 2440.750;  201.375;    0.000
614.439; 2392.750;  212.375;    0.000
614.560; 2352.750;  219.375;    0.000
614.682; 2362.750;  189.375;    0.000
614.803; 2345.750;  188.375;    0.000
614.924; 2356.750;  225.375;    0.000
615.045; 2270.750;  227.375;    0.000
615.166; 2516.750;  200.375;    0.000
615.287; 2313.750;  195.375;    0.000
615.408; 2383.750;  199.375;    0.000
615.529; 2386.750;  227.375;    0.000
615.650; 2413.750;  176.375;    0.000
615.771; 2276.750;  211.375;    0.000
615.892; 2385.750;  212.375;    0.000
616.013; 2310.750;  172.375;    0.000
616.134; 2321.750;  220.375;    0.000
616.255; 2363.750;  251.375;    0.000
616.376; 2350.750;  186.375;    0.000
616.497; 2373.750;  201.375;    0.000
616.618; 2295.750;  149.375;    0.000
616.739; 2427.750;  213.375;    0.000
616.860; 2330.750;  224.375;    0.000
616.981; 2347.750;  224.375;    0.000
617.102; 2391.750;  217.375;    0.000
617.222; 2362.750;  237.375;    0.000
617.343; 2390.750;  205.375;    0.000
617.464; 2365.750;  229.375;    0.000
617.585; 2332.750;  227.375;    0.000
617.705; 2368.750;  191.375;    0.000
617.826; 2309.750;  237.375;    0.000
617.947; 2341.750;  223.375;    0.000
618.068; 2317.750;  189.375;    0.000
618.188; 2406.750;  194.375;    0.000
618.309; 2256.750;  206.375;    0.000
618.430; 2295.750;  229.375;    0.000
618.550; 2375.750;  250.375;    0.000
618.671; 2303.750;  201.375;    0.000
618.791; 2373.750;  226.375;    0.000
618.912; 2398.750;  246.375;    0.000
619.033; 2392.750;  243.375;    0.000
619.153; 2320.750;  208.375;    0.000
619.274; 2332.750;  223.375;    0.000
619.394; 2349.750;  226.375;    0.000
619.515; 2251.750;  188.375;    0.000
619.635; 2340.750;  216.375;    0.000
619.756; 2312.750;  229.375;    0.000
619.876; 2312.750;  216.375;    0.000
619.996; 2441.750;  244.375;    0.000
620.117; 2322.750;  225.375;    0.000
620.237; 2358.750;  207.375;    0.000
620.358; 2394.750;  239.375;    0.000
620.478; 2332.750;  237.375;    0.000
620.598; 2357.750;  237.375;    0.000
620.719; 2381.750;  223.375;    0.000
620.839; 2371.750;  254.375;    0.000
620.959; 2309.750;  244.375;    0.000
621.079; 2326.750;  193.375;    0.000
621.200; 2297.750;  233.375;    0.000
621.320; 2319.750;  270.375;    0.000
621.440; 2302.750;  206.375;    0.000
621.560; 2361.750;  241.375;    0.000
621.681; 2371.750;  231.375;    0.000
621.801; 2377.750;  235.375;    0.000
621.921; 2298.750;  240.375;    0.000
622.041; 2345.750;  244.375;    0.000
622.161; 2299.750;  225.375;    0.000
622.281; 2296.750;  222.375;    0.000
622.401; 2333.750;  238.375;    0.000
622.521; 2275.750;  233.375;    0.000
622.641; 2245.750;  241.375;    0.000
622.761; 2298.750;  233.375;    0.000
622.882; 2302.750;  230.375;    0.000
623.002; 2271.750;  206.375;    0.000
623.121; 2258.750;  217.375;    0.000
623.241; 2415.750;  263.375;    0.000
623.361; 2239.750;  245.375;    0.000
623.481; 2279.750;  194.375;    0.000
623.601; 2264.750;  228.375;    0.000
623.721; 2275.750;  219.375;    0.000
623.841; 2274.750;  234.375;    0.000
623.961; 2258.750;  235.375;    0.000
624.081; 2288.750;  166.375;    0.000
624.201; 2248.750;  229.375;    0.000
624.320; 2308.750;  224.375;    0.000
624.440; 2235.750;  200.375;    0.000
624.560; 2283.750;  220.375;    0.000
624.680; 2266.750;  214.375;    0.000
624.799; 2234.750;  179.375;    0.000
624.919; 2194.750;  199.375;    0.000
625.039; 2332.750;  211.375;    0.000
625.159; 2192.750;  213.375;    0.000
625.278; 2181.750;  178.375;    0.000
625.398; 2223.750;  206.375;    0.000
625.518; 2245.750;  182.375;    0.000
625.637; 2182.750;  206.375;    0.000
625.757; 2252.750;  197.375;    0.000
625.876; 2189.750;  204.375;    0.000
625.996; 2272.750;  222.375;    0.000
626.115; 2225.750;  222.375;    0.000
626.235; 2215.750;  222.375;    0.000
626.354; 2252.750;  211.375;    0.000
626.474; 2241.750;  217.375;    0.000
626.594; 2162.750;  190.375;    0.000
626.713; 2227.750;  200.375;    0.000
626.832; 2278.750;  234.375;    0.000
626.952; 2210.750;  214.375;    0.000
627.071; 2239.750;  243.375;    0.000
627.191; 2195.750;  192.375;    0.000
627.310; 2218.750;  211.375;    0.000
627.429; 2281.750;  218.375;    0.000
627.549; 2189.750;  214.375;    0.000
627.668; 2198.750;  208.375;    0.000
627.787; 2230.750;  199.375;    0.000
627.907; 2187.750;  208.375;    0.000
628.026; 2239.750;  216.375;    0.000
628.145; 2217.750;  170.375;    0.000
628.264; 2239.750;  217.375;    0.000
628.384; 2151.750;  190.375;    0.000
628.503; 2176.750;  203.375;    0.000
628.622; 2282.750;  197.375;    0.000
628.741; 2225.750;  186.375;    0.000
628.860; 2214.750;  191.375;    0.000
628.980; 2220.750;  196.375;    0.000
629.099; 2144.750;  190.375;    0.000
629.218; 2225.750;  165.375;    0.000
629.337; 2163.750;  190.375;    0.000
629.456; 2239.750;  222.375;    0.000
629.575; 2156.750;  197.375;    0.000
629.694; 2196.750;  210.375;    0.000
629.813; 2205.750;  187.375;    0.000
629.932; 2184.750;  224.375;    0.000
630.051; 2190.750;  216.375;    0.000
630.170; 2174.750;  203.375;    0.000
630.289; 2200.750;  178.375;    0.000
630.408; 2203.750;  192.375;    0.000
630.527; 2182.750;  223.375;    0.000
630.646; 2133.750;  177.375;    0.000
630.764; 2199.750;  224.375;    0.000
630.883; 2212.750;  220.375;    0.000
631.002; 2160.750;  187.375;    0.000
631.121; 2177.750;  208.375;    0.000
631.240; 2149.750;  217.375;    0.000
631.359; 2178.750;  241.375;    0.000
631.477; 2186.750;  189.375;    0.000
631.596; 2202.750;  244.375;    0.000
631.715; 2209.750;  241.375;    0.000
631.834; 2155.750;  219.375;    0.000
631.952; 2147.750;  231.375;    0.000
632.071; 2191.750;  197.375;    0.000
632.190; 2161.750;  193.375;    0.000
632.308; 2151.750;  185.375;    0.000
632.427; 2174.750;  188.375;    0.000
632.546; 2216.750;  208.375;    0.000
632.664; 2130.750;  191.375;    0.000
632.783; 2111.750;  201.375;    0.000
632.901; 2132.750;  239.375;    0.000
633.020; 2241.750;  197.375;    0.000
633.138; 2084.750;  189.375;    0.000
633.257; 2165.750;  210.375;    0.000
633.375; 2084.750;  213.375;    0.000
633.494; 2134.750;  206.375;    0.000
633.612; 2149.750;  231.375;    0.000
633.731; 2142.750;  213.375;    0.000
633.849; 2137.750;  244.375;    0.000
633.968; 2174.750;  251.375;    0.000
634.086; 2167.750;  224.375;    0.000
634.204; 2171.750;  212.375;    0.000
634.323; 2199.750;  213.375;    0.000
634.441; 2177.750;  219.375;    0.000
634.559; 2125.750;  198.375;    0.000
634.678; 2214.750;  201.375;    0.000
634.796; 2062.750;  179.375;    0.000
634.914; 2124.750;  255.375;    0.000
635.032; 2165.750;  264.375;    0.000
635.151; 2185.750;  228.375;    0.000
635.269; 2137.750;  223.375;    0.000
635.387; 2141.750;  228.375;    0.000
635.505; 2208.750;  214.375;    0.000
635.623; 2211.750;  279.375;    0.000
635.742; 2147.750;  237.375;    0.000
635.860; 2125.750;  244.375;    0.000
635.978; 2149.750;  213.375;    0.000
636.096; 2106.750;  230.375;    0.000
636.214; 2112.750;  252.375;    0.000
636.332; 2174.750;  221.375;    0.000
636.450; 2163.750;  227.375;    0.000
636.568; 2063.750;  193.375;    0.000
636.686; 2117.750;  208.375;    0.000
636.804; 2158.750;  213.375;    0.000
636.922; 2045.750;  199.375;    0.000
637.040; 2146.750;  202.375;    0.000
637.158; 2110.750;  239.375;    0.000
637.276; 2137.750;  225.375;    0.000
637.394; 2127.750;  217.375;    0.000
637.512; 2077.750;  192.375;    0.000
637.629; 2139.750;  216.375;    0.000
637.747; 2151.750;  198.375;    0.000
637.865; 2129.750;  265.375;    0.000
637.983; 2148.750;  245.375;    0.000
638.101; 2085.750;  199.375;    0.000
638.218; 2150.750;  197.375;    0.000
638.336; 2046.750;  212.375;    0.000
638.454; 2109.750;  227.375;    0.000
638.572; 2198.750;  215.375;    0.000
638.689; 2097.750;  214.375;    0.000
638.807; 2089.750;  233.375;    0.000
638.925; 2159.750;  217.375;    0.000
639.042; 2169.750;  180.375;    0.000
639.160; 2127.750;  220.375;    0.000
639.278; 2035.750;  180.375;    0.000
639.395; 2153.750;  243.375;    0.000
639.513; 2122.750;  207.375;    0.000
639.630; 2075.750;  183.375;    0.000
639.748; 2108.750;  231.375;    0.000
639.865; 2080.750;  215.375;    0.000
639.983; 2129.750;  182.375;    0.000
640.100; 2123.750;  190.375;    0.000
640.218; 2062.750;  224.375;    0.000
640.335; 2104.750;  214.375;    0.000
640.453; 2124.750;  212.375;    0.000
640.570; 2099.750;  224.375;    0.000
640.688; 2090.750;  220.375;    0.000
640.805; 2215.750;  189.375;    0.000
640.922; 2170.750;  256.375;    0.000
641.040; 2168.750;  209.375;    0.000
641.157; 2200.750;  195.375;    0.000
641.274; 2127.750;  195.375;    0.000
641.391; 2160.750;  231.375;    0.000
641.509; 2149.750;  207.375;    0.000
641.626; 2152.750;  227.375;    0.000
641.743; 2046.750;  188.375;    0.000
641.860; 2088.750;  208.375;    0.000
641.978; 2108.750;  222.375;    0.000
642.095; 2073.750;  194.375;    0.000
642.212; 2196.750;  202.375;    0.000
642.329; 2189.750;  241.375;    0.000
642.446; 2126.750;  261.375;    0.000
642.563; 2122.750;  236.375;    0.000
642.681; 2079.750;  228.375;    0.000
642.798; 2198.750;  242.375;    0.000
642.915; 2149.750;  197.375;    0.000
643.032; 2167.750;  239.375;    0.000
643.149; 2181.750;  241.375;    0.000
643.266; 2158.750;  199.375;    0.000
643.383; 2195.750;  200.375;    0.000
643.500; 2161.750;  221.375;    0.000
643.617; 2126.750;  196.375;    0.000
643.734; 2111.750;  207.375;    0.000
643.850; 2141.750;  222.375;    0.000
643.967; 2228.750;  235.375;    0.000
644.084; 2241.750;  233.375;    0.000
644.201; 2147.750;  229.375;    0.000
644.318; 2166.750;  210.375;    0.000
644.435; 2225.750;  234.375;    0.000
644.552; 2244.750;  220.375;    0.000
644.668; 2235.750;  231.375;    0.000
644.785; 2088.750;  231.375;    0.000
644.902; 2085.750;  238.375;    0.000
645.019; 2215.750;  226.375;    0.000
645.135; 2162.750;  179.375;    0.000
645.252; 2278.750;  224.375;    0.000
645.369; 2240.750;  206.375;    0.000
645.485; 2215.750;  200.375;    0.000
645.602; 2268.750;  210.375;    0.000
645.719; 2283.750;  206.375;    0.000
645.835; 2303.750;  247.375;    0.000
645.952; 2288.750;  222.375;    0.000
646.068; 2320.750;  205.375;    0.000
646.185; 2312.750;  230.375;    0.000
646.302; 2348.750;  254.375;    0.000
646.418; 2328.750;  230.375;    0.000
646.535; 2370.750;  214.375;    0.000
646.651; 2318.750;  179.375;    0.000
646.768; 2278.750;  190.375;    0.000
646.884; 2350.750;  208.375;    0.000
647.000; 2368.750;  262.375;    0.000
647.117; 2415.750;  212.375;    0.000
647.233; 2289.750;  228.375;    0.000
647.350; 2389.750;  208.375;    0.000
647.466; 2365.750;  211.375;    0.000
647.582; 2380.750;  196.375;    0.000
647.699; 2410.750;  217.375;    0.000
647.815; 2379.750;  203.375;    0.000
647.931; 2463.750;  201.375;    0.000
648.047; 2385.750;  182.375;    0.000
648.164; 2462.750;  219.375;    0.000
648.280; 2535.750;  213.375;    0.000
648.396; 2416.750;  202.375;    0.000
648.512; 2460.750;  233.375;    0.000
648.629; 2411.750;  206.375;    0.000
648.745; 2511.750;  188.375;    0.000
648.861; 2468.750;  209.375;    0.000
648.977; 2452.750;  218.375;    0.000
649.093; 2562.750;  225.375;    0.000
649.209; 2478.750;  240.375;    0.000
649.325; 2470.750;  253.375;    0.000
649.441; 2540.750;  263.375;    0.000
649.557; 2526.750;  256.375;    0.000
649.673; 2601.750;  211.375;    0.000
649.789; 2487.750;  237.375;    0.000
649.905; 2433.750;  183.375;    0.000
650.021; 2634.750;  238.375;    0.000
650.137; 2617.750;  241.375;    0.000
650.253; 2699.750;  228.375;    0.000
650.369; 2594.750;  221.375;    0.000
650.485; 2615.750;  240.375;    0.000
650.601; 2615.750;  254.375;    0.000
650.717; 2553.750;  201.375;    0.000
650.833; 2664.750;  257.375;    0.000
650.948; 2601.750;  213.375;    0.000
651.064; 2666.750;  223.375;    0.000
651.180; 2684.750;  230.375;    0.000
651.296; 2631.750;  235.375;    0.000
651.411; 2760.750;  221.375;    0.000
651.527; 2695.750;  233.375;    0.000
651.643; 2809.750;  236.375;    0.000
651.759; 2766.750;  268.375;    0.000
651.874; 2754.750;  214.375;    0.000
651.990; 2802.750;  251.375;    0.000
652.105; 2808.750;  217.375;    0.000
652.221; 2719.750;  243.375;    0.000
652.337; 2863.750;  231.375;    0.000
652.452; 2931.750;  238.375;    0.000
652.568; 2991.750;  188.375;    0.000
652.683; 2874.750;  197.375;    0.000
652.799; 2954.750;  194.375;    0.000
652.914; 3012.750;  222.375;    0.000
653.030; 3038.750;  200.375;    0.000
653.145; 3004.750;  235.375;    0.000
653.261; 3107.750;  261.375;    0.000
653.376; 3087.750;  228.375;    0.000
653.492; 3170.750;  222.375;    0.000
653.607; 3179.750;  227.375;    0.000
653.722; 3264.750;  250.375;    0.000
653.838; 3322.750;  255.375;    0.000
653.953; 3378.750;  235.375;    0.000
654.068; 3363.750;  266.375;    0.000
654.184; 3398.750;  210.375;    0.000
654.299; 3406.750;  240.375;    0.000
654.414; 3533.750;  222.375;    0.000
654.530; 3615.750;  222.375;    0.000
654.645; 3686.750;  256.375;    0.000
654.760; 3749.750;  244.375;    0.000
654.875; 3797.750;  229.375;    0.000
654.990; 3879.750;  226.375;    0.000
655.106; 4116.750;  254.375;    0.000
655.221; 4189.750;  251.375;    0.000
655.336; 4213.750;  245.375;    0.000
655.451; 4383.750;  199.375;    0.000
655.566; 4508.750;  228.375;    0.000
655.681; 4622.750;  208.375;    0.000
655.796; 4655.750;  218.375;    0.000
655.911; 4909.750;  233.375;    0.000
656.026; 5014.750;  232.375;    0.000
656.141; 5308.750;  223.375;    0.000
656.256; 5535.750;  247.375;    0.000
656.371; 5616.750;  220.375;    0.000
656.486; 5529.750;  225.375;    0.000
656.601; 5467.750;  257.375;    0.000
656.716; 5296.750;  248.375;    0.000
656.831; 5280.750;  262.375;    0.000
656.946; 5058.750;  249.375;    0.000
657.060; 5017.750;  245.375;    0.000
657.175; 4836.750;  245.375;    0.000
657.290; 4716.750;  219.375;    0.000
657.405; 4718.750;  286.375;    0.000
657.520; 4593.750;  259.375;    0.000
657.634; 4457.750;  239.375;    0.000
657.749; 4376.750;  227.375;    0.000
657.864; 4246.750;  210.375;    0.000
657.979; 4139.750;  236.375;    0.000
658.093; 4001.750;  210.375;    0.000
658.208; 4015.750;  248.375;    0.000
658.323; 3892.750;  216.375;    0.000
658.437; 3861.750;  248.375;    0.000
658.552; 3788.750;  249.375;    0.000
658.666; 3899.750;  256.375;    0.000
658.781; 3722.750;  247.375;    0.000
658.895; 3722.750;  209.375;    0.000
659.010; 3689.750;  219.375;    0.000
659.125; 3552.750;  215.375;    0.000
659.239; 3460.750;  205.375;    0.000
659.353; 3537.750;  246.375;    0.000
659.468; 3385.750;  245.375;    0.000
659.582; 3453.750;  244.375;    0.000
659.697; 3400.750;  242.375;    0.000
659.811; 3402.750;  239.375;    0.000
659.926; 3411.750;  226.375;    0.000
660.040; 3241.750;  255.375;    0.000
660.154; 3133.750;  225.375;    0.000
660.269; 3078.750;  200.375;    0.000
660.383; 3191.750;  192.375;    0.000
660.497; 3070.750;  218.375;    0.000
660.612; 3133.750;  236.375;    0.000
660.726; 3013.750;  263.375;    0.000
660.840; 2947.750;  205.375;    0.000
660.954; 3000.750;  219.375;    0.000
661.068; 2915.750;  240.375;    0.000
661.183; 2883.750;  221.375;    0.000
661.297; 2887.750;  194.375;    0.000
661.411; 2866.750;  253.375;    0.000
661.525; 2898.750;  246.375;    0.000
661.639; 2762.750;  217.375;    0.000
661.753; 2850.750;  241.375;    0.000
661.867; 2844.750;  276.375;    0.000
661.981; 2741.750;  203.375;    0.000
662.095; 2705.750;  224.375;    0.000
662.209; 2597.750;  217.375;    0.000
662.323; 2575.750;  251.375;    0.000
662.437; 2610.750;  243.375;    0.000
662.551; 2549.750;  244.375;    0.000
662.665; 2551.750;  247.375;    0.000
662.779; 2545.750;  251.375;    0.000
662.893; 2586.750;  254.375;    0.000
663.007; 2539.750;  222.375;    0.000
663.121; 2535.750;  253.375;    0.000
663.235; 2522.750;  270.375;    0.000
663.349; 2477.750;  242.375;    0.000
663.462; 2473.750;  230.375;    0.000
663.576; 2382.750;  230.375;    0.000
663.690; 2432.750;  249.375;    0.000
663.804; 2351.750;  200.375;    0.000
663.917; 2365.750;  204.375;    0.000
664.031; 2401.750;  206.375;    0.000
664.145; 2325.750;  202.375;    0.000
664.258; 2320.750;  221.375;    0.000
664.372; 2358.750;  215.375;    0.000
664.486; 2303.750;  179.375;    0.000
664.599; 2279.750;  208.375;    0.000
664.713; 2265.750;  268.375;    0.000
664.827; 2218.750;  225.375;    0.000
664.940; 2247.750;  222.375;    0.000
665.054; 2256.750;  208.375;    0.000
665.167; 2240.750;  253.375;    0.000
665.281; 2187.750;  237.375;    0.000
665.394; 2215.750;  227.375;    0.000
665.508; 2204.750;  192.375;    0.000
665.621; 2194.750;  175.375;    0.000
665.735; 2152.750;  249.375;    0.000
665.848; 2146.750;  197.375;    0.000
665.961; 2150.750;  206.375;    0.000
666.075; 2168.750;  245.375;    0.000
666.188; 2173.750;  230.375;    0.000
666.301; 2146.750;  219.375;    0.000
666.415; 2119.750;  231.375;    0.000
666.528; 2097.750;  258.375;    0.000
666.641; 2030.750;  243.375;    0.000
666.755; 2057.750;  208.375;    0.000
666.868; 2051.750;  228.375;    0.000
666.981; 2010.750;  244.375;    0.000
667.094; 1959.750;  244.375;    0.000
667.207; 2019.750;  226.375;    0.000
667.321; 2013.750;  175.375;    0.000
667.434; 2024.750;  211.375;    0.000
667.547; 2033.750;  249.375;    0.000
667.660; 2082.750;  225.375;    0.000
667.773; 1996.750;  242.375;    0.000
667.886; 1915.750;  246.375;    0.000
667.999; 2008.750;  244.375;    0.000
668.112; 1973.750;  227.375;    0.000
668.225; 1967.750;  231.375;    0.000
668.338; 1942.750;  256.375;    0.000
668.451; 1940.750;  216.375;    0.000
668.564; 1984.750;  261.375;    0.000
668.677; 1951.750;  230.375;    0.000
668.790; 1860.750;  192.375;    0.000
668.903; 1927.750;  243.375;    0.000
669.016; 1852.750;  201.375;    0.000
669.129; 1920.750;  249.375;    0.000
669.242; 1838.750;  190.375;    0.000
669.354; 1874.750;  219.375;    0.000
669.467; 1812.750;  242.375;    0.000
669.580; 1866.750;  237.375;    0.000
669.693; 1864.750;  243.375;    0.000
669.806; 1827.750;  234.375;    0.000
669.918; 1739.750;  206.375;    0.000
670.031; 1882.750;  258.375;    0.000
670.144; 1787.750;  231.375;    0.000
670.256; 1780.750;  244.375;    0.000
670.369; 1850.750;  262.375;    0.000
670.482; 1822.750;  264.375;    0.000
670.594; 1873.750;  256.375;    0.000
670.707; 1784.750;  224.375;    0.000
670.820; 1754.750;  261.375;    0.000
670.932; 1829.750;  226.375;    0.000
671.045; 1767.750;  243.375;    0.000
671.157; 1745.750;  235.375;    0.000
671.270; 1780.750;  217.375;    0.000
671.382; 1811.750;  267.375;    0.000
671.495; 1775.750;  258.375;    0.000
671.607; 1780.750;  236.375;    0.000
671.720; 1749.750;  200.375;    0.000
671.832; 1778.750;  219.375;    0.000
671.944; 1780.750;  234.375;    0.000
672.057; 1768.750;  226.375;    0.000
672.169; 1794.750;  225.375;    0.000
672.281; 1735.750;  253.375;    0.000
672.394; 1821.750;  238.375;    0.000
672.506; 1794.750;  244.375;    0.000
672.618; 1776.750;  272.375;    0.000
672.731; 1767.750;  247.375;    0.000
672.843; 1720.750;  261.375;    0.000
672.955; 1769.750;  262.375;    0.000
673.067; 1761.750;  253.375;    0.000
673.180; 1810.750;  239.375;    0.000
673.292; 1688.750;  240.375;    0.000
673.404; 1776.750;  243.375;    0.000
673.516; 1671.750;  258.375;    0.000
673.628; 1723.750;  263.375;    0.000
673.740; 1641.750;  250.375;    0.000
673.852; 1708.750;  285.375;    0.000
673.964; 1754.750;  264.375;    0.000
674.076; 1620.750;  260.375;    0.000
674.188; 1710.750;  226.375;    0.000
674.300; 1757.750;  272.375;    0.000
674.412; 1604.750;  259.375;    0.000
674.524; 1709.750;  283.375;    0.000
674.636; 1668.750;  259.375;    0.000
674.748; 1643.750;  238.375;    0.000
674.860; 1645.750;  277.375;    0.000
674.972; 1648.750;  272.375;    0.000
675.084; 1639.750;  244.375;    0.000
675.196; 1706.750;  272.375;    0.000
675.307; 1674.750;  244.375;    0.000
675.419; 1649.750;  219.375;    0.000
675.531; 1722.750;  275.375;    0.000
675.643; 1650.750;  215.375;    0.000
675.755; 1705.750;  243.375;    0.000
675.866; 1621.750;  223.375;    0.000
675.978; 1545.750;  216.375;    0.000
676.090; 1571.750;  242.375;    0.000
676.201; 1653.750;  276.375;    0.000
676.313; 1563.750;  226.375;    0.000
676.425; 1597.750;  234.375;    0.000
676.536; 1649.750;  231.375;    0.000
676.648; 1642.750;  254.375;    0.000
676.759; 1683.750;  273.375;    0.000
676.871; 1620.750;  250.375;    0.000
676.983; 1639.750;  256.375;    0.000
677.094; 1577.750;  210.375;    0.000
677.206; 1563.750;  248.375;    0.000
677.317; 1588.750;  263.375;    0.000
677.429; 1588.750;  238.375;    0.000
677.540; 1540.750;  247.375;    0.000
677.651; 1599.750;  224.375;    0.000
677.763; 1634.750;  217.375;    0.000
677.874; 1650.750;  234.375;    0.000
677.986; 1552.750;  238.375;    0.000
678.097; 1604.750;  226.375;    0.000
678.208; 1588.750;  253.375;    0.000
678.320; 1535.750;  217.375;    0.000
678.431; 1511.750;  238.375;    0.000
678.542; 1558.750;  236.375;    0.000
678.653; 1516.750;  218.375;    0.000
678.765; 1566.750;  275.375;    0.000
678.876; 1534.750;  213.375;    0.000
678.987; 1452.750;  182.375;    0.000
679.098; 1481.750;  221.375;    0.000
679.209; 1606.750;  238.375;    0.000
679.320; 1513.750;  212.375;    0.000
679.432; 1541.750;  231.375;    0.000
679.543; 1498.750;  198.375;    0.000
679.654; 1507.750;  191.375;    0.000
679.765; 1515.750;  214.375;    0.000
679.876; 1537.750;  221.375;    0.000
679.987; 1455.750;  162.375;    0.000
680.098; 1519.750;  230.375;    0.000
680.209; 1518.750;  206.375;    0.000
680.320; 1438.750;  196.375;    0.000
680.431; 1527.750;  191.375;    0.000
680.542; 1414.750;  214.375;    0.000
680.653; 1514.750;  238.375;    0.000
680.763; 1507.750;  182.375;    0.000
680.874; 1503.750;  213.375;    0.000
680.985; 1486.750;  224.375;    0.000
681.096; 1527.750;  222.375;    0.000
681.207; 1437.750;  220.375;    0.000
681.318; 1472.750;  216.375;    0.000
681.428; 1500.750;  229.375;    0.000
681.539; 1435.750;  183.375;    0.000
681.650; 1444.750;  202.375;    0.000
681.760; 1509.750;  223.375;    0.000
681.871; 1544.750;  211.375;    0.000
681.982; 1460.750;  189.375;    0.000
682.093; 1486.750;  222.375;    0.000
682.203; 1458.750;  220.375;    0.000
682.314; 1515.750;  214.375;    0.000
682.424; 1432.750;  208.375;    0.000
682.535; 1488.750;  213.375;    0.000
682.646; 1479.750;  302.375;    0.000
682.756; 1493.750;  255.375;    0.000
682.867; 1508.750;  244.375;    0.000
682.977; 1428.750;  221.375;    0.000
683.088; 1432.750;  259.375;    0.000
683.198; 1448.750;  212.375;    0.000
683.308; 1361.750;  202.375;    0.000
683.419; 1516.750;  255.375;    0.000
683.529; 1432.750;  217.375;    0.000
683.640; 1442.750;  240.375;    0.000
683.750; 1414.750;  181.375;    0.000
683.860; 1483.750;  246.375;    0.000
683.971; 1474.750;  254.375;    0.000
684.081; 1412.750;  235.375;    0.000
684.191; 1481.750;  251.375;    0.000
684.301; 1447.750;  233.375;    0.000
684.412; 1440.750;  202.375;    0.000
684.522; 1427.750;  232.375;    0.000
684.632; 1378.750;  202.375;    0.000
684.742; 1487.750;  254.375;    0.000
684.852; 1422.750;  219.375;    0.000
684.963; 1454.750;  256.375;    0.000
685.073; 1432.750;  253.375;    0.000
685.183; 1481.750;  254.375;    0.000
685.293; 1448.750;  232.375;    0.000
685.403; 1447.750;  242.375;    0.000
685.513; 1517.750;  261.375;    0.000
685.623; 1472.750;  245.375;    0.000
685.733; 1509.750;  254.375;    0.000
685.843; 1432.750;  249.375;    0.000
685.953; 1504.750;  252.375;    0.000
686.063; 1423.750;  227.375;    0.000
686.173; 1390.750;  223.375;    0.000
686.283; 1455.750;  234.375;    0.000
686.393; 1396.750;  239.375;    0.000
686.503; 1454.750;  231.375;    0.000
686.612; 1410.750;  232.375;    0.000
686.722; 1449.750;  258.375;    0.000
686.832; 1436.750;  256.375;    0.000
686.942; 1430.750;  230.375;    0.000
687.052; 1409.750;  274.375;    0.000
687.161; 1379.750;  269.375;    0.000
687.271; 1353.750;  218.375;    0.000
687.381; 1384.750;  235.375;    0.000
687.491; 1475.750;  262.375;    0.000
687.600; 1387.750;  256.375;    0.000
687.710; 1430.750;  225.375;    0.000
687.820; 1471.750;  230.375;    0.000
687.929; 1412.750;  226.375;    0.000
688.039; 1444.750;  228.375;    0.000
688.148; 1470.750;  249.375;    0.000
688.258; 1421.750;  237.375;    0.000
688.367; 1412.750;  260.375;    0.000
688.477; 1346.750;  200.375;    0.000
688.586; 1462.750;  223.375;    0.000
688.696; 1399.750;  223.375;    0.000
688.805; 1363.750;  257.375;    0.000
688.915; 1368.750;  185.375;    0.000
689.024; 1377.750;  227.375;    0.000
689.134; 1405.750;  224.375;    0.000
689.243; 1358.750;  206.375;    0.000
689.352; 1448.750;  275.375;    0.000
689.462; 1312.750;  233.375;    0.000
689.571; 1355.750;  244.375;    0.000
689.680; 1451.750;  261.375;    0.000
689.790; 1381.750;  192.375;    0.000
689.899; 1344.750;  214.375;    0.000
690.008; 1350.750;  255.375;    0.000
690.117; 1370.750;  219.375;    0.000
690.227; 1356.750;  241.375;    0.000
690.336; 1327.750;  231.375;    0.000
690.445; 1374.750;  212.375;    0.000
690.554; 1389.750;  234.375;    0.000
690.663; 1341.750;  210.375;    0.000
690.772; 1384.750;  221.375;    0.000
690.881; 1428.750;  244.375;    0.000
690.990; 1439.750;  247.375;    0.000
691.099; 1379.750;  222.375;    0.000
691.209; 1361.750;  240.375;    0.000
691.318; 1442.750;  223.375;    0.000
691.427; 1382.750;  217.375;    0.000
691.536; 1354.750;  216.375;    0.000
691.644; 1438.750;  194.375;    0.000
691.753; 1333.750;  221.375;    0.000
691.862; 1361.750;  224.375;    0.000
691.971; 1405.750;  191.375;    0.000
692.080; 1375.750;  247.375;    0.000
692.189; 1365.750;  208.375;    0.000
692.298; 1343.750;  203.375;    0.000
692.406; 1397.750;  239.375;    0.000
692.515; 1347.750;  250.375;    0.000
692.624; 1324.750;  226.375;    0.000
692.733; 1333.750;  229.375;    0.000
692.842; 1312.750;  254.375;    0.000
692.950; 1361.750;  242.375;    0.000
693.059; 1290.750;  204.375;    0.000
693.168; 1342.750;  252.375;    0.000
693.276; 1341.750;  195.375;    0.000
693.385; 1354.750;  228.375;    0.000
693.494; 1331.750;  282.375;    0.000
693.602; 1389.750;  221.375;    0.000
693.711; 1369.750;  225.375;    0.000
693.819; 1325.750;  234.375;    0.000
693.928; 1387.750;  229.375;    0.000
694.036; 1328.750;  192.375;    0.000
694.145; 1375.750;  233.375;    0.000
694.253; 1363.750;  277.375;    0.000
694.362; 1283.750;  188.375;    0.000
694.470; 1390.750;  263.375;    0.000
694.579; 1368.750;  253.375;    0.000
694.687; 1354.750;  281.375;    0.000
694.795; 1346.750;  233.375;    0.000
694.904; 1390.750;  223.375;    0.000
695.012; 1415.750;  296.375;    0.000
695.120; 1312.750;  227.375;    0.000
695.229; 1419.750;  269.375;    0.000
695.337; 1297.750;  229.375;    0.000
695.445; 1359.750;  244.375;    0.000
695.553; 1330.750;  259.375;    0.000
695.662; 1344.750;  208.375;    0.000
695.770; 1376.750;  241.375;    0.000
695.878; 1365.750;  239.375;    0.000
695.986; 1420.750;  247.375;    0.000
696.094; 1331.750;  224.375;    0.000
696.202; 1346.750;  205.375;    0.000
696.310; 1354.750;  217.375;    0.000
696.419; 1333.750;  228.375;    0.000
696.527; 1382.750;  246.375;    0.000
696.635; 1308.750;  245.375;    0.000
696.743; 1335.750;  233.375;    0.000
696.851; 1381.750;  251.375;    0.000
696.959; 1355.750;  257.375;    0.000
697.067; 1369.750;  260.375;    0.000
697.174; 1276.750;  223.375;    0.000
697.282; 1346.750;  239.375;    0.000
697.390; 1293.750;  264.375;    0.000
697.498; 1362.750;  227.375;    0.000
697.606; 1321.750;  243.375;    0.000
697.714; 1334.750;  256.375;    0.000
697.822; 1311.750;  278.375;    0.000
697.929; 1353.750;  227.375;    0.000
698.037; 1333.750;  232.375;    0.000
698.145; 1271.750;  256.375;    0.000
698.253; 1307.750;  245.375;    0.000
698.360; 1292.750;  282.375;    0.000
698.468; 1431.750;  244.375;    0.000
698.576; 1371.750;  279.375;    0.000
698.683; 1366.750;  259.375;    0.000
698.791; 1374.750;  265.375;    0.000
698.899; 1312.750;  250.375;    0.000
699.006; 1322.750;  245.375;    0.000
699.114; 1294.750;  280.375;    0.000
699.221; 1339.750;  240.375;    0.000
699.329; 1327.750;  293.375;    0.000
699.436; 1362.750;  216.375;    0.000
699.544; 1385.750;  269.375;    0.000
699.651; 1321.750;  219.375;    0.000
699.759; 1360.750;  245.375;    0.000
699.866; 1298.750;  261.375;    0.000
699.974; 1271.750;  245.375;    0.000
700.081; 1343.750;  257.375;    0.000
700.188; 1353.750;  268.375;    0.000
700.296; 1312.750;  225.375;    0.000
700.403; 1291.750;  257.375;    0.000
700.510; 1308.750;  267.375;    0.000
700.618; 1318.750;  299.375;    0.000
700.725; 1281.750;  223.375;    0.000
700.832; 1264.750;  233.375;    0.000
700.940; 1308.750;  255.375;    0.000
701.047; 1314.750;  244.375;    0.000
701.154; 1309.750;  248.375;    0.000
701.261; 1351.750;  264.375;    0.000
701.368; 1312.750;  299.375;    0.000
701.475; 1312.750;  264.375;    0.000
701.582; 1267.750;  275.375;    0.000
701.690; 1321.750;  261.375;    0.000
701.797; 1364.750;  273.375;    0.000
701.904; 1390.750;  320.375;    0.000
702.011; 1322.750;  299.375;    0.000
702.118; 1386.750;  292.375;    0.000
702.225; 1399.750;  317.375;    0.000
702.332; 1354.750;  307.375;    0.000
702.439; 1347.750;  313.375;    0.000
702.546; 1387.750;  312.375;    0.000
702.652; 1383.750;  297.375;    0.000
702.759; 1404.750;  345.375;    0.000
702.866; 1417.750;  330.375;    0.000
702.973; 1366.750;  303.375;    0.000
703.080; 1390.750;  303.375;    0.000
703.187; 1368.750;  327.375;    0.000
703.294; 1330.750;  325.375;    0.000
703.400; 1275.750;  302.375;    0.000
703.507;  433.750;  344.375;    0.000
703.614;  307.750;  294.375;    0.000
703.720;  326.750;  322.375;    0.000
703.827;  329.750;  329.375;    0.000
703.934;  328.750;  318.375;    0.000
704.040;  305.750;  299.375;    0.000
704.147;  328.750;  352.375;    0.000
704.254;  349.750;  350.375;    0.000
704.360;  283.750;  347.375;    0.000
704.467;  322.750;  336.375;    0.000
704.573;  325.750;  344.375;    0.000
704.680;  324.750;  365.375;    0.000
704.786;  333.750;  332.375;    0.000
704.893;  312.750;  304.375;    0.000
704.999;  317.750;  299.375;    0.000
705.106;  335.750;  365.375;    0.000

