
Integration time [ms]:   1.000
Averaging Nr. [scans]: 1
Smoothing Nr. [pixels]: 0
Data measured with spectrometer [name]: VIS
Wave   ;Sample   ;Dark     ;Reference
[nm]   ;[counts] ;[counts] ;[counts] 

450.961;  203.875;  200.375;    0.000
451.100;  216.875;  241.375;    0.000
451.239;  232.875;  201.375;    0.000
451.377;  221.875;  262.375;    0.000
451.516;  208.875;  229.375;    0.000
451.655;  238.875;  211.375;    0.000
451.794;  219.875;  225.375;    0.000
451.932;  223.875;  247.375;    0.000
452.071;  235.875;  260.375;    0.000
452.210;  237.875;  235.375;    0.000
452.348;  240.875;  276.375;    0.000
452.487;  242.875;  259.375;    0.000
452.626;  236.875;  254.375;    0.000
452.764;  236.875;  233.375;    0.000
452.903;  213.875;  202.375;    0.000
453.042;  207.875;  211.375;    0.000
453.180; 2016.875;  240.375;    0.000
453.319; 1993.875;  238.375;    0.000
453.458; 2001.875;  215.375;    0.000
453.596; 2113.875;  252.375;    0.000
453.735; 2072.875;  240.375;    0.000
453.873; 2137.875;  257.375;    0.000
454.012; 2121.875;  228.375;    0.000
454.150; 2145.875;  270.375;    0.000
454.289; 2071.875;  233.375;    0.000
454.427; 2227.875;  243.375;    0.000
454.566; 2197.875;  257.375;    0.000
454.704; 2203.875;  243.375;    0.000
454.843; 2103.875;  190.375;    0.000
454.981; 2266.875;  271.375;    0.000
455.120; 2240.875;  210.375;    0.000
455.258; 2283.875;  235.375;    0.000
455.397; 2206.875;  214.375;    0.000
455.535; 2276.875;  214.375;    0.000
455.674; 2216.875;  184.375;    0.000
455.812; 2361.875;  228.375;    0.000
455.951; 2346.875;  204.375;    0.000
456.089; 2422.875;  220.375;    0.000
456.227; 2405.875;  196.375;    0.000
456.366; 2441.875;  261.375;    0.000
456.504; 2475.875;  249.375;    0.000
456.642; 2536.875;  245.375;    0.000
456.781; 2428.875;  183.375;    0.000
456.919; 2565.875;  203.375;    0.000
457.057; 2513.875;  177.375;    0.000
457.196; 2528.875;  191.375;    0.000
457.334; 2627.875;  233.375;    0.000
457.472; 2691.875;  214.375;    0.000
457.610; 2637.875;  230.375;    0.000
457.749; 2797.875;  247.375;    0.000
457.887; 2781.875;  220.375;    0.000
458.025; 2690.875;  195.375;    0.000
458.163; 2850.875;  224.375;    0.000
458.301; 2853.875;  228.375;    0.000
458.440; 2889.875;  200.375;    0.000
458.578; 2841.875;  233.375;    0.000
458.716; 3006.875;  182.375;    0.000
458.854; 3014.875;  251.375;    0.000
458.992; 3119.875;  187.375;    0.000
459.130; 3119.875;  229.375;    0.000
459.269; 3181.875;  237.375;    0.000
459.407; 3110.875;  228.375;    0.000
459.545; 3092.875;  216.375;    0.000
459.683; 3192.875;  204.375;    0.000
459.821; 3180.875;  191.375;    0.000
459.959; 3339.875;  227.375;    0.000
460.097; 3340.875;  221.375;    0.000
460.235; 3253.875;  241.375;    0.000
460.373; 3495.875;  231.375;    0.000
460.511; 3347.875;  214.375;    0.000
460.649; 3332.875;  172.375;    0.000
460.787; 3391.875;  275.375;    0.000
460.925; 3319.875;  175.375;    0.000
461.063; 3470.875;  252.375;    0.000
461.201; 3478.875;  210.375;    0.000
461.339; 3489.875;  237.375;    0.000
461.477; 3426.875;  210.375;    0.000
461.615; 3598.875;  236.375;    0.000
461.753; 3554.875;  215.375;    0.000
461.891; 3518.875;  222.375;    0.000
462.029; 3787.875;  227.375;    0.000
462.166; 3740.875;  202.375;    0.000
462.304; 3698.875;  191.375;    0.000
462.442; 3832.875;  210.375;    0.000
462.580; 3838.875;  184.375;    0.000
462.718; 3944.875;  220.375;    0.000
462.856; 3851.875;  226.375;    0.000
462.993; 3954.875;  254.375;    0.000
463.131; 3817.875;  200.375;    0.000
463.269; 3860.875;  215.375;    0.000
463.407; 3897.875;  213.375;    0.000
463.545; 3718.875;  242.375;    0.000
463.682; 3784.875;  212.375;    0.000
463.820; 3925.875;  185.375;    0.000
463.958; 4121.875;  212.375;    0.000
464.095; 4087.875;  181.375;    0.000
464.233; 4124.875;  192.375;    0.000
464.371; 4147.875;  247.375;    0.000
464.509; 4093.875;  151.375;    0.000
464.646; 4033.875;  207.375;    0.000
464.784; 4010.875;  199.375;    0.000
464.921; 4065.875;  253.375;    0.000
465.059; 3872.875;  214.375;    0.000
465.197; 3915.875;  200.375;    0.000
465.334; 3745.875;  180.375;    0.000
465.472; 3834.875;  204.375;    0.000
465.609; 3667.875;  203.375;    0.000
465.747; 3691.875;  214.375;    0.000
465.885; 3590.875;  233.375;    0.000
466.022; 3673.875;  215.375;    0.000
466.160; 3604.875;  201.375;    0.000
466.297; 3618.875;  196.375;    0.000
466.435; 3522.875;  230.375;    0.000
466.572; 3590.875;  227.375;    0.000
466.710; 3589.875;  218.375;    0.000
466.847; 3525.875;  245.375;    0.000
466.985; 3490.875;  223.375;    0.000
467.122; 3466.875;  168.375;    0.000
467.260; 3572.875;  196.375;    0.000
467.397; 3531.875;  198.375;    0.000
467.534; 3583.875;  219.375;    0.000
467.672; 3440.875;  214.375;    0.000
467.809; 3432.875;  185.375;    0.000
467.947; 3493.875;  247.375;    0.000
468.084; 3508.875;  196.375;    0.000
468.221; 3560.875;  238.375;    0.000
468.359; 3397.875;  236.375;    0.000
468.496; 3519.875;  235.375;    0.000
468.633; 3505.875;  218.375;    0.000
468.771; 3555.875;  223.375;    0.000
468.908; 3513.875;  208.375;    0.000
469.045; 3659.875;  249.375;    0.000
469.183; 3642.875;  222.375;    0.000
469.320; 3733.875;  216.375;    0.000
469.457; 3562.875;  224.375;    0.000
469.594; 3695.875;  259.375;    0.000
469.732; 3738.875;  223.375;    0.000
469.869; 3826.875;  234.375;    0.000
470.006; 3761.875;  225.375;    0.000
470.143; 3730.875;  243.375;    0.000
470.280; 3832.875;  208.375;    0.000
470.417; 3772.875;  232.375;    0.000
470.555; 3756.875;  218.375;    0.000
470.692; 3841.875;  223.375;    0.000
470.829; 3750.875;  238.375;    0.000
470.966; 3831.875;  205.375;    0.000
471.103; 3781.875;  259.375;    0.000
471.240; 3821.875;  214.375;    0.000
471.377; 3757.875;  226.375;    0.000
471.514; 3770.875;  250.375;    0.000
471.651; 3836.875;  221.375;    0.000
471.789; 3703.875;  242.375;    0.000
471.926; 3587.875;  190.375;    0.000
472.063; 3631.875;  234.375;    0.000
472.200; 3788.875;  252.375;    0.000
472.337; 3661.875;  241.375;    0.000
472.474; 3696.875;  244.375;    0.000
472.611; 3636.875;  268.375;    0.000
472.748; 3642.875;  222.375;    0.000
472.884; 3701.875;  271.375;    0.000
473.021; 3551.875;  195.375;    0.000
473.158; 3633.875;  205.375;    0.000
473.295; 3647.875;  223.375;    0.000
473.432; 3560.875;  216.375;    0.000
473.569; 3659.875;  196.375;    0.000
473.706; 3624.875;  190.375;    0.000
473.843; 3643.875;  211.375;    0.000
473.980; 3654.875;  254.375;    0.000
474.117; 3633.875;  185.375;    0.000
474.253; 3582.875;  229.375;    0.000
474.390; 3623.875;  238.375;    0.000
474.527; 3626.875;  220.375;    0.000
474.664; 3696.875;  242.375;    0.000
474.801; 3683.875;  229.375;    0.000
474.937; 3616.875;  229.375;    0.000
475.074; 3614.875;  210.375;    0.000
475.211; 3610.875;  219.375;    0.000
475.348; 3699.875;  226.375;    0.000
475.484; 3754.875;  207.375;    0.000
475.621; 3705.875;  233.375;    0.000
475.758; 3774.875;  230.375;    0.000
475.894; 3708.875;  234.375;    0.000
476.031; 3714.875;  202.375;    0.000
476.168; 3718.875;  222.375;    0.000
476.304; 3715.875;  237.375;    0.000
476.441; 3722.875;  238.375;    0.000
476.578; 3799.875;  216.375;    0.000
476.714; 3738.875;  212.375;    0.000
476.851; 3746.875;  210.375;    0.000
476.987; 3824.875;  239.375;    0.000
477.124; 3796.875;  250.375;    0.000
477.261; 3924.875;  227.375;    0.000
477.397; 3888.875;  189.375;    0.000
477.534; 3822.875;  204.375;    0.000
477.670; 3879.875;  190.375;    0.000
477.807; 3965.875;  198.375;    0.000
477.943; 4031.875;  216.375;    0.000
478.080; 4007.875;  213.375;    0.000
478.216; 3932.875;  239.375;    0.000
478.353; 4034.875;  218.375;    0.000
478.489; 4089.875;  184.375;    0.000
478.626; 4130.875;  223.375;    0.000
478.762; 4052.875;  213.375;    0.000
478.898; 4123.875;  216.375;    0.000
479.035; 4190.875;  250.375;    0.000
479.171; 4069.875;  201.375;    0.000
479.308; 4002.875;  242.375;    0.000
479.444; 4197.875;  205.375;    0.000
479.580; 4140.875;  203.375;    0.000
479.717; 4140.875;  260.375;    0.000
479.853; 4201.875;  225.375;    0.000
479.989; 4318.875;  226.375;    0.000
480.126; 4163.875;  211.375;    0.000
480.262; 4179.875;  220.375;    0.000
480.398; 4297.875;  207.375;    0.000
480.535; 4199.875;  179.375;    0.000
480.671; 4266.875;  200.375;    0.000
480.807; 4244.875;  190.375;    0.000
480.943; 4232.875;  165.375;    0.000
481.080; 4213.875;  210.375;    0.000
481.216; 4152.875;  232.375;    0.000
481.352; 4228.875;  235.375;    0.000
481.488; 4195.875;  208.375;    0.000
481.624; 4163.875;  245.375;    0.000
481.760; 4107.875;  210.375;    0.000
481.897; 4183.875;  189.375;    0.000
482.033; 4049.875;  256.375;    0.000
482.169; 4128.875;  257.375;    0.000
482.305; 4048.875;  199.375;    0.000
482.441; 4058.875;  182.375;    0.000
482.577; 4112.875;  223.375;    0.000
482.713; 4047.875;  243.375;    0.000
482.849; 4137.875;  197.375;    0.000
482.985; 4159.875;  240.375;    0.000
483.121; 4142.875;  210.375;    0.000
483.258; 4223.875;  248.375;    0.000
483.394; 4174.875;  224.375;    0.000
483.530; 4217.875;  209.375;    0.000
483.665; 4128.875;  225.375;    0.000
483.801; 4176.875;  216.375;    0.000
483.937; 4078.875;  211.375;    0.000
484.073; 4194.875;  259.375;    0.000
484.209; 4173.875;  191.375;    0.000
484.345; 4317.875;  239.375;    0.000
484.481; 4287.875;  231.375;    0.000
484.617; 4318.875;  216.375;    0.000
484.753; 4246.875;  180.375;    0.000
484.889; 4265.875;  252.375;    0.000
485.025; 4279.875;  244.375;    0.000
485.161; 4222.875;  242.375;    0.000
485.296; 4334.875;  235.375;    0.000
485.432; 4310.875;  247.375;    0.000
485.568; 4237.875;  203.375;    0.000
485.704; 4222.875;  229.375;    0.000
485.840; 4314.875;  230.375;    0.000
485.975; 4206.875;  266.375;    0.000
486.111; 4264.875;  220.375;    0.000
486.247; 4375.875;  264.375;    0.000
486.383; 4220.875;  213.375;    0.000
486.518; 4342.875;  222.375;    0.000
486.654; 4222.875;  244.375;    0.000
486.790; 4287.875;  273.375;    0.000
486.926; 4378.875;  203.375;    0.000
487.061; 4211.875;  227.375;    0.000
487.197; 4384.875;  210.375;    0.000
487.333; 4250.875;  209.375;    0.000
487.468; 4168.875;  197.375;    0.000
487.604; 4206.875;  230.375;    0.000
487.740; 4262.875;  254.375;    0.000
487.875; 4251.875;  286.375;    0.000
488.011; 4292.875;  225.375;    0.000
488.146; 4253.875;  251.375;    0.000
488.282; 4274.875;  242.375;    0.000
488.417; 4280.875;  230.375;    0.000
488.553; 4210.875;  260.375;    0.000
488.688; 4189.875;  207.375;    0.000
488.824; 4201.875;  204.375;    0.000
488.960; 4258.875;  248.375;    0.000
489.095; 4331.875;  204.375;    0.000
489.230; 4168.875;  227.375;    0.000
489.366; 4187.875;  226.375;    0.000
489.501; 4219.875;  199.375;    0.000
489.637; 4216.875;  233.375;    0.000
489.772; 4278.875;  249.375;    0.000
489.908; 4281.875;  200.375;    0.000
490.043; 4304.875;  246.375;    0.000
490.178; 4174.875;  222.375;    0.000
490.314; 4225.875;  219.375;    0.000
490.449; 4190.875;  227.375;    0.000
490.585; 4275.875;  209.375;    0.000
490.720; 4225.875;  238.375;    0.000
490.855; 4166.875;  222.375;    0.000
490.991; 4199.875;  202.375;    0.000
491.126; 4250.875;  272.375;    0.000
491.261; 4224.875;  261.375;    0.000
491.396; 4113.875;  190.375;    0.000
491.532; 4218.875;  202.375;    0.000
491.667; 4254.875;  208.375;    0.000
491.802; 4232.875;  203.375;    0.000
491.937; 4217.875;  253.375;    0.000
492.073; 4255.875;  242.375;    0.000
492.208; 4280.875;  230.375;    0.000
492.343; 4124.875;  183.375;    0.000
492.478; 4273.875;  246.375;    0.000
492.613; 4277.875;  223.375;    0.000
492.749; 4264.875;  230.375;    0.000
492.884; 4315.875;  190.375;    0.000
493.019; 4265.875;  234.375;    0.000
493.154; 4269.875;  218.375;    0.000
493.289; 4245.875;  222.375;    0.000
493.424; 4319.875;  196.375;    0.000
493.559; 4280.875;  202.375;    0.000
493.694; 4261.875;  180.375;    0.000
493.829; 4241.875;  224.375;    0.000
493.964; 4241.875;  218.375;    0.000
494.099; 4334.875;  275.375;    0.000
494.234; 4183.875;  226.375;    0.000
494.369; 4271.875;  225.375;    0.000
494.504; 4329.875;  219.375;    0.000
494.639; 4271.875;  296.375;    0.000
494.774; 4272.875;  228.375;    0.000
494.909; 4122.875;  222.375;    0.000
495.044; 4308.875;  215.375;    0.000
495.179; 4325.875;  200.375;    0.000
495.314; 4208.875;  235.375;    0.000
495.449; 4239.875;  249.375;    0.000
495.584; 4252.875;  228.375;    0.000
495.719; 4177.875;  212.375;    0.000
495.854; 4295.875;  201.375;    0.000
495.988; 4333.875;  248.375;    0.000
496.123; 4224.875;  209.375;    0.000
496.258; 4335.875;  249.375;    0.000
496.393; 4247.875;  223.375;    0.000
496.528; 4404.875;  209.375;    0.000
496.663; 4353.875;  207.375;    0.000
496.797; 4355.875;  229.375;    0.000
496.932; 4440.875;  225.375;    0.000
497.067; 4462.875;  218.375;    0.000
497.202; 4579.875;  163.375;    0.000
497.336; 4603.875;  246.375;    0.000
497.471; 4586.875;  229.375;    0.000
497.606; 4601.875;  251.375;    0.000
497.740; 4686.875;  220.375;    0.000
497.875; 4826.875;  216.375;    0.000
498.010; 4790.875;  226.375;    0.000
498.144; 4964.875;  237.375;    0.000
498.279; 4811.875;  196.375;    0.000
498.414; 5046.875;  219.375;    0.000
498.548; 5096.875;  205.375;    0.000
498.683; 5156.875;  206.375;    0.000
498.817; 5353.875;  225.375;    0.000
498.952; 5496.875;  221.375;    0.000
499.087; 5592.875;  220.375;    0.000
499.221; 5693.875;  233.375;    0.000
499.356; 5991.875;  230.375;    0.000
499.490; 6033.875;  229.375;    0.000
499.625; 6231.875;  231.375;    0.000
499.759; 6421.875;  243.375;    0.000
499.894; 6677.875;  241.375;    0.000
500.028; 6982.875;  264.375;    0.000
500.162; 7153.875;  287.375;    0.000
500.297; 7190.875;  234.375;    0.000
500.431; 7369.875;  230.375;    0.000
500.566; 7331.875;  213.375;    0.000
500.700; 7212.875;  243.375;    0.000
500.835; 7061.875;  272.375;    0.000
500.969; 6854.875;  188.375;    0.000
501.103; 6571.875;  200.375;    0.000
501.238; 6508.875;  257.375;    0.000
501.372; 6081.875;  224.375;    0.000
501.506; 5969.875;  225.375;    0.000
501.641; 5846.875;  271.375;    0.000
501.775; 5542.875;  199.375;    0.000
501.909; 5441.875;  249.375;    0.000
502.043; 5349.875;  211.375;    0.000
502.178; 5285.875;  269.375;    0.000
502.312; 5042.875;  198.375;    0.000
502.446; 5028.875;  256.375;    0.000
502.580; 4959.875;  195.375;    0.000
502.715; 4823.875;  224.375;    0.000
502.849; 4809.875;  245.375;    0.000
502.983; 4680.875;  250.375;    0.000
503.117; 4625.875;  193.375;    0.000
503.251; 4606.875;  242.375;    0.000
503.385; 4474.875;  227.375;    0.000
503.520; 4415.875;  235.375;    0.000
503.654; 4371.875;  220.375;    0.000
503.788; 4401.875;  267.375;    0.000
503.922; 4312.875;  220.375;    0.000
504.056; 4394.875;  238.375;    0.000
504.190; 4292.875;  212.375;    0.000
504.324; 4302.875;  265.375;    0.000
504.458; 4227.875;  228.375;    0.000
504.592; 4283.875;  231.375;    0.000
504.726; 4082.875;  218.375;    0.000
504.860; 4037.875;  253.375;    0.000
504.994; 4002.875;  217.375;    0.000
505.128; 4066.875;  243.375;    0.000
505.262; 3898.875;  194.375;    0.000
505.396; 3880.875;  210.375;    0.000
505.530; 3807.875;  211.375;    0.000
505.664; 3740.875;  219.375;    0.000
505.798; 3828.875;  240.375;    0.000
505.932; 3754.875;  240.375;    0.000
506.066; 3675.875;  252.375;    0.000
506.199; 3598.875;  242.375;    0.000
506.333; 3615.875;  244.375;    0.000
506.467; 3599.875;  223.375;    0.000
506.601; 3432.875;  183.375;    0.000
506.735; 3518.875;  249.375;    0.000
506.869; 3522.875;  270.375;    0.000
507.002; 3488.875;  207.375;    0.000
507.136; 3532.875;  242.375;    0.000
507.270; 3515.875;  232.375;    0.000
507.404; 3468.875;  195.375;    0.000
507.537; 3398.875;  218.375;    0.000
507.671; 3449.875;  246.375;    0.000
507.805; 3391.875;  244.375;    0.000
507.939; 3428.875;  251.375;    0.000
508.072; 3421.875;  212.375;    0.000
508.206; 3322.875;  198.375;    0.000
508.340; 3391.875;  234.375;    0.000
508.473; 3360.875;  217.375;    0.000
508.607; 3359.875;  224.375;    0.000
508.740; 3289.875;  207.375;    0.000
508.874; 3388.875;  230.375;    0.000
509.008; 3302.875;  246.375;    0.000
509.141; 3331.875;  239.375;    0.000
509.275; 3196.875;  229.375;    0.000
509.408; 3237.875;  234.375;    0.000
509.542; 3175.875;  212.375;    0.000
509.675; 3228.875;  256.375;    0.000
509.809; 3216.875;  232.375;    0.000
509.942; 3289.875;  237.375;    0.000
510.076; 3243.875;  226.375;    0.000
510.209; 3180.875;  251.375;    0.000
510.343; 3093.875;  229.375;    0.000
510.476; 3199.875;  285.375;    0.000
510.610; 3083.875;  211.375;    0.000
510.743; 3210.875;  258.375;    0.000
510.877; 3215.875;  244.375;    0.000
511.010; 3121.875;  235.375;    0.000
511.143; 3144.875;  251.375;    0.000
511.277; 3050.875;  228.375;    0.000
511.410; 3096.875;  216.375;    0.000
511.543; 3164.875;  231.375;    0.000
511.677; 3159.875;  244.375;    0.000
511.810; 3133.875;  186.375;    0.000
511.943; 3056.875;  211.375;    0.000
512.077; 3151.875;  201.375;    0.000
512.210; 3125.875;  194.375;    0.000
512.343; 3142.875;  233.375;    0.000
512.476; 3137.875;  234.375;    0.000
512.610; 3073.875;  224.375;    0.000
512.743; 3004.875;  255.375;    0.000
512.876; 3107.875;  264.375;    0.000
513.009; 3066.875;  283.375;    0.000
513.142; 3181.875;  246.375;    0.000
513.276; 3097.875;  217.375;    0.000
513.409; 3149.875;  222.375;    0.000
513.542; 3070.875;  237.375;    0.000
513.675; 3086.875;  238.375;    0.000
513.808; 3165.875;  220.375;    0.000
513.941; 3079.875;  233.375;    0.000
514.074; 3199.875;  248.375;    0.000
514.207; 3188.875;  233.375;    0.000
514.340; 3000.875;  190.375;    0.000
514.474; 3041.875;  221.375;    0.000
514.607; 3008.875;  213.375;    0.000
514.740; 3156.875;  251.375;    0.000
514.873; 3113.875;  257.375;    0.000
515.006; 3113.875;  268.375;    0.000
515.139; 3149.875;  257.375;    0.000
515.272; 3099.875;  227.375;    0.000
515.404; 3123.875;  238.375;    0.000
515.537; 3181.875;  275.375;    0.000
515.670; 3207.875;  239.375;    0.000
515.803; 3207.875;  223.375;    0.000
515.936; 3262.875;  202.375;    0.000
516.069; 3268.875;  188.375;    0.000
516.202; 3295.875;  240.375;    0.000
516.335; 3414.875;  252.375;    0.000
516.468; 3558.875;  254.375;    0.000
516.600; 4078.875;  254.375;    0.000
516.733; 5157.875;  255.375;    0.000
516.866; 4800.875;  265.375;    0.000
516.999; 4380.875;  251.375;    0.000
517.132; 5428.875;  256.375;    0.000
517.264; 7362.875;  202.375;    0.000
517.397; 6915.875;  248.375;    0.000
517.530; 5377.875;  221.375;    0.000
517.663; 4593.875;  244.375;    0.000
517.795; 4313.875;  245.375;    0.000
517.928; 4200.875;  236.375;    0.000
518.061; 4240.875;  219.375;    0.000
518.193; 5459.875;  251.375;    0.000
518.326; 8099.875;  271.375;    0.000
518.459; 8589.875;  207.375;    0.000
518.591; 6185.875;  217.375;    0.000
518.724; 4925.875;  200.375;    0.000
518.857; 4282.875;  204.375;    0.000
518.989; 3998.875;  242.375;    0.000
519.122; 3861.875;  254.375;    0.000
519.254; 3681.875;  239.375;    0.000
519.387; 3543.875;  235.375;    0.000
519.519; 3448.875;  227.375;    0.000
519.652; 3382.875;  178.375;    0.000
519.784; 3363.875;  226.375;    0.000
519.917; 3231.875;  256.375;    0.000
520.049; 3160.875;  234.375;    0.000
520.182; 3143.875;  258.375;    0.000
520.314; 3166.875;  298.375;    0.000
520.447; 3260.875;  204.375;    0.000
520.579; 3162.875;  235.375;    0.000
520.712; 2999.875;  208.375;    0.000
520.844; 3024.875;  272.375;    0.000
520.976; 3044.875;  234.375;    0.000
521.109; 2951.875;  235.375;    0.000
521.241; 2934.875;  250.375;    0.000
521.373; 2896.875;  233.375;    0.000
521.506; 2979.875;  231.375;    0.000
521.638; 2927.875;  258.375;    0.000
521.770; 2810.875;  226.375;    0.000
521.903; 2886.875;  258.375;    0.000
522.035; 2865.875;  263.375;    0.000
522.167; 2862.875;  214.375;    0.000
522.300; 2828.875;  212.375;    0.000
522.432; 2836.875;  220.375;    0.000
522.564; 2810.875;  228.375;    0.000
522.696; 2765.875;  272.375;    0.000
522.828; 2906.875;  222.375;    0.000
522.961; 2823.875;  205.375;    0.000
523.093; 2805.875;  253.375;    0.000
523.225; 2776.875;  239.375;    0.000
523.357; 2845.875;  263.375;    0.000
523.489; 2720.875;  264.375;    0.000
523.621; 2744.875;  259.375;    0.000
523.753; 2609.875;  233.375;    0.000
523.885; 2699.875;  232.375;    0.000
524.018; 2741.875;  214.375;    0.000
524.150; 2699.875;  235.375;    0.000
524.282; 2653.875;  242.375;    0.000
524.414; 2693.875;  261.375;    0.000
524.546; 2684.875;  233.375;    0.000
524.678; 2579.875;  242.375;    0.000
524.810; 2584.875;  216.375;    0.000
524.942; 2527.875;  220.375;    0.000
525.074; 2613.875;  249.375;    0.000
525.206; 2559.875;  227.375;    0.000
525.338; 2548.875;  250.375;    0.000
525.469; 2533.875;  231.375;    0.000
525.601; 2652.875;  245.375;    0.000
525.733; 2595.875;  187.375;    0.000
525.865; 2648.875;  280.375;    0.000
525.997; 2593.875;  216.375;    0.000
526.129; 2503.875;  228.375;    0.000
526.261; 2531.875;  187.375;    0.000
526.393; 2548.875;  228.375;    0.000
526.524; 2605.875;  201.375;    0.000
526.656; 2525.875;  199.375;    0.000
526.788; 2574.875;  233.375;    0.000
526.920; 2544.875;  256.375;    0.000
527.052; 2515.875;  219.375;    0.000
527.183; 2647.875;  227.375;    0.000
527.315; 2613.875;  266.375;    0.000
527.447; 2558.875;  239.375;    0.000
527.578; 2539.875;  213.375;    0.000
527.710; 2524.875;  216.375;    0.000
527.842; 2474.875;  240.375;    0.000
527.973; 2519.875;  286.375;    0.000
528.105; 2482.875;  222.375;    0.000
528.237; 2474.875;  223.375;    0.000
528.368; 2453.875;  211.375;    0.000
528.500; 2470.875;  215.375;    0.000
528.632; 2454.875;  216.375;    0.000
528.763; 2456.875;  234.375;    0.000
528.895; 2456.875;  196.375;    0.000
529.026; 2473.875;  202.375;    0.000
529.158; 2498.875;  226.375;    0.000
529.289; 2416.875;  229.375;    0.000
529.421; 2419.875;  264.375;    0.000
529.552; 2423.875;  265.375;    0.000
529.684; 2495.875;  260.375;    0.000
529.815; 2488.875;  284.375;    0.000
529.947; 2431.875;  237.375;    0.000
530.078; 2548.875;  223.375;    0.000
530.210; 2440.875;  223.375;    0.000
530.341; 2464.875;  209.375;    0.000
530.472; 2485.875;  203.375;    0.000
530.604; 2412.875;  223.375;    0.000
530.735; 2465.875;  218.375;    0.000
530.867; 2437.875;  222.375;    0.000
530.998; 2439.875;  239.375;    0.000
531.129; 2441.875;  250.375;    0.000
531.260; 2519.875;  224.375;    0.000
531.392; 2457.875;  216.375;    0.000
531.523; 2489.875;  234.375;    0.000
531.654; 2604.875;  256.375;    0.000
531.786; 2511.875;  226.375;    0.000
531.917; 2518.875;  239.375;    0.000
532.048; 2431.875;  205.375;    0.000
532.179; 2469.875;  244.375;    0.000
532.311; 2523.875;  235.375;    0.000
532.442; 2468.875;  258.375;    0.000
532.573; 2450.875;  220.375;    0.000
532.704; 2550.875;  213.375;    0.000
532.835; 2577.875;  249.375;    0.000
532.966; 2422.875;  226.375;    0.000
533.097; 2485.875;  246.375;    0.000
533.229; 2426.875;  237.375;    0.000
533.360; 2396.875;  225.375;    0.000
533.491; 2493.875;  241.375;    0.000
533.622; 2544.875;  242.375;    0.000
533.753; 2513.875;  264.375;    0.000
533.884; 2526.875;  245.375;    0.000
534.015; 2517.875;  269.375;    0.000
534.146; 2527.875;  267.375;    0.000
534.277; 2547.875;  282.375;    0.000
534.408; 2457.875;  229.375;    0.000
534.539; 2530.875;  269.375;    0.000
534.670; 2479.875;  231.375;    0.000
534.801; 2518.875;  260.375;    0.000
534.932; 2426.875;  232.375;    0.000
535.063; 2451.875;  227.375;    0.000
535.194; 2420.875;  281.375;    0.000
535.324; 2482.875;  206.375;    0.000
535.455; 2446.875;  257.375;    0.000
535.586; 2464.875;  275.375;    0.000
535.717; 2468.875;  206.375;    0.000
535.848; 2489.875;  271.375;    0.000
535.979; 2498.875;  250.375;    0.000
536.109; 2406.875;  253.375;    0.000
536.240; 2395.875;  234.375;    0.000
536.371; 2389.875;  230.375;    0.000
536.502; 2407.875;  270.375;    0.000
536.632; 2360.875;  228.375;    0.000
536.763; 2498.875;  249.375;    0.000
536.894; 2432.875;  262.375;    0.000
537.025; 2323.875;  258.375;    0.000
537.155; 2388.875;  278.375;    0.000
537.286; 2357.875;  209.375;    0.000
537.417; 2368.875;  255.375;    0.000
537.547; 2301.875;  208.375;    0.000
537.678; 2426.875;  224.375;    0.000
537.808; 2369.875;  224.375;    0.000
537.939; 2377.875;  257.375;    0.000
538.070; 2379.875;  240.375;    0.000
538.200; 2409.875;  259.375;    0.000
538.331; 2376.875;  235.375;    0.000
538.461; 2361.875;  251.375;    0.000
538.592; 2335.875;  245.375;    0.000
538.722; 2314.875;  239.375;    0.000
538.853; 2351.875;  216.375;    0.000
538.983; 2367.875;  226.375;    0.000
539.114; 2399.875;  240.375;    0.000
539.244; 2338.875;  237.375;    0.000
539.375; 2312.875;  198.375;    0.000
539.505; 2426.875;  263.375;    0.000
539.636; 2350.875;  226.375;    0.000
539.766; 2334.875;  229.375;    0.000
539.896; 2374.875;  219.375;    0.000
540.027; 2355.875;  246.375;    0.000
540.157; 2344.875;  218.375;    0.000
540.287; 2354.875;  216.375;    0.000
540.418; 2372.875;  267.375;    0.000
540.548; 2322.875;  260.375;    0.000
540.678; 2344.875;  242.375;    0.000
540.809; 2381.875;  260.375;    0.000
540.939; 2384.875;  257.375;    0.000
541.069; 2345.875;  226.375;    0.000
541.200; 2356.875;  227.375;    0.000
541.330; 2347.875;  218.375;    0.000
541.460; 2319.875;  223.375;    0.000
541.590; 2363.875;  237.375;    0.000
541.720; 2375.875;  222.375;    0.000
541.851; 2317.875;  250.375;    0.000
541.981; 2384.875;  222.375;    0.000
542.111; 2420.875;  212.375;    0.000
542.241; 2454.875;  205.375;    0.000
542.371; 2384.875;  202.375;    0.000
542.501; 2425.875;  218.375;    0.000
542.631; 2399.875;  222.375;    0.000
542.761; 2397.875;  249.375;    0.000
542.891; 2412.875;  173.375;    0.000
543.021; 2443.875;  218.375;    0.000
543.151; 2473.875;  222.375;    0.000
543.281; 2434.875;  188.375;    0.000
543.411; 2507.875;  239.375;    0.000
543.542; 2443.875;  215.375;    0.000
543.671; 2476.875;  250.375;    0.000
543.801; 2403.875;  212.375;    0.000
543.931; 2440.875;  233.375;    0.000
544.061; 2428.875;  194.375;    0.000
544.191; 2402.875;  218.375;    0.000
544.321; 2463.875;  220.375;    0.000
544.451; 2462.875;  183.375;    0.000
544.581; 2493.875;  221.375;    0.000
544.711; 2563.875;  224.375;    0.000
544.841; 2518.875;  214.375;    0.000
544.970; 2526.875;  227.375;    0.000
545.100; 2530.875;  186.375;    0.000
545.230; 2541.875;  205.375;    0.000
545.360; 2532.875;  211.375;    0.000
545.490; 2436.875;  202.375;    0.000
545.619; 2484.875;  182.375;    0.000
545.749; 2372.875;  174.375;    0.000
545.879; 2457.875;  169.375;    0.000
546.009; 2457.875;  182.375;    0.000
546.138; 2479.875;  200.375;    0.000
546.268; 2425.875;  204.375;    0.000
546.398; 2391.875;  200.375;    0.000
546.527; 2447.875;  179.375;    0.000
546.657; 2393.875;  162.375;    0.000
546.786; 2474.875;  179.375;    0.000
546.916; 2457.875;  221.375;    0.000
547.046; 2556.875;  179.375;    0.000
547.175; 2314.875;  168.375;    0.000
547.305; 2459.875;  200.375;    0.000
547.434; 2458.875;  166.375;    0.000
547.564; 2409.875;  177.375;    0.000
547.693; 2473.875;  152.375;    0.000
547.823; 2402.875;  171.375;    0.000
547.953; 2444.875;  195.375;    0.000
548.082; 2414.875;  214.375;    0.000
548.211; 2455.875;  177.375;    0.000
548.341; 2475.875;  189.375;    0.000
548.470; 2456.875;  194.375;    0.000
548.600; 2501.875;  172.375;    0.000
548.729; 2448.875;  158.375;    0.000
548.859; 2440.875;  193.375;    0.000
548.988; 2526.875;  131.375;    0.000
549.117; 2421.875;  204.375;    0.000
549.247; 2479.875;  191.375;    0.000
549.376; 2537.875;  202.375;    0.000
549.505; 2473.875;  187.375;    0.000
549.635; 2560.875;  198.375;    0.000
549.764; 2483.875;  155.375;    0.000
549.893; 2548.875;  176.375;    0.000
550.023; 2481.875;  202.375;    0.000
550.152; 2419.875;  168.375;    0.000
550.281; 2447.875;  180.375;    0.000
550.410; 2498.875;  180.375;    0.000
550.539; 2507.875;  181.375;    0.000
550.669; 2549.875;  168.375;    0.000
550.798; 2528.875;  223.375;    0.000
550.927; 2570.875;  179.375;    0.000
551.056; 2476.875;  159.375;    0.000
551.185; 2550.875;  199.375;    0.000
551.314; 2455.875;  185.375;    0.000
551.443; 2475.875;  172.375;    0.000
551.573; 2470.875;  158.375;    0.000
551.702; 2541.875;  210.375;    0.000
551.831; 2510.875;  238.375;    0.000
551.960; 2472.875;  191.375;    0.000
552.089; 2666.875;  195.375;    0.000
552.218; 2606.875;  196.375;    0.000
552.347; 2653.875;  194.375;    0.000
552.476; 2638.875;  192.375;    0.000
552.605; 2699.875;  172.375;    0.000
552.734; 2764.875;  214.375;    0.000
552.863; 2808.875;  177.375;    0.000
552.992; 2725.875;  190.375;    0.000
553.121; 2714.875;  185.375;    0.000
553.249; 2710.875;  175.375;    0.000
553.378; 2697.875;  192.375;    0.000
553.507; 2639.875;  193.375;    0.000
553.636; 2695.875;  182.375;    0.000
553.765; 2652.875;  187.375;    0.000
553.894; 2624.875;  214.375;    0.000
554.023; 2547.875;  217.375;    0.000
554.151; 2616.875;  223.375;    0.000
554.280; 2574.875;  170.375;    0.000
554.409; 2597.875;  172.375;    0.000
554.538; 2675.875;  182.375;    0.000
554.666; 2576.875;  195.375;    0.000
554.795; 2615.875;  176.375;    0.000
554.924; 2506.875;  164.375;    0.000
555.052; 2489.875;  171.375;    0.000
555.181; 2632.875;  208.375;    0.000
555.310; 2461.875;  214.375;    0.000
555.439; 2560.875;  193.375;    0.000
555.567; 2540.875;  189.375;    0.000
555.696; 2455.875;  196.375;    0.000
555.824; 2463.875;  183.375;    0.000
555.953; 2539.875;  234.375;    0.000
556.082; 2451.875;  183.375;    0.000
556.210; 2445.875;  199.375;    0.000
556.339; 2464.875;  201.375;    0.000
556.467; 2452.875;  208.375;    0.000
556.596; 2368.875;  194.375;    0.000
556.724; 2410.875;  170.375;    0.000
556.853; 2329.875;  166.375;    0.000
556.981; 2485.875;  185.375;    0.000
557.110; 2415.875;  213.375;    0.000
557.238; 2411.875;  188.375;    0.000
557.367; 2438.875;  176.375;    0.000
557.495; 2427.875;  180.375;    0.000
557.623; 2455.875;  193.375;    0.000
557.752; 2388.875;  207.375;    0.000
557.880; 2408.875;  189.375;    0.000
558.008; 2394.875;  169.375;    0.000
558.137; 2402.875;  203.375;    0.000
558.265; 2456.875;  167.375;    0.000
558.393; 2461.875;  204.375;    0.000
558.522; 2459.875;  203.375;    0.000
558.650; 2426.875;  215.375;    0.000
558.778; 2358.875;  190.375;    0.000
558.906; 2433.875;  186.375;    0.000
559.035; 2387.875;  193.375;    0.000
559.163; 2422.875;  198.375;    0.000
559.291; 2446.875;  222.375;    0.000
559.419; 2428.875;  192.375;    0.000
559.548; 2395.875;  186.375;    0.000
559.676; 2424.875;  199.375;    0.000
559.804; 2440.875;  186.375;    0.000
559.932; 2468.875;  202.375;    0.000
560.060; 2447.875;  183.375;    0.000
560.188; 2482.875;  212.375;    0.000
560.316; 2497.875;  192.375;    0.000
560.444; 2453.875;  180.375;    0.000
560.572; 2467.875;  206.375;    0.000
560.700; 2470.875;  184.375;    0.000
560.828; 2476.875;  177.375;    0.000
560.956; 2507.875;  221.375;    0.000
561.085; 2533.875;  227.375;    0.000
561.212; 2542.875;  208.375;    0.000
561.340; 2472.875;  189.375;    0.000
561.468; 2483.875;  189.375;    0.000
561.596; 2454.875;  183.375;    0.000
561.724; 2491.875;  188.375;    0.000
561.852; 2512.875;  183.375;    0.000
561.980; 2489.875;  209.375;    0.000
562.108; 2530.875;  165.375;    0.000
562.236; 2554.875;  188.375;    0.000
562.364; 2560.875;  177.375;    0.000
562.492; 2439.875;  192.375;    0.000
562.619; 2549.875;  187.375;    0.000
562.747; 2542.875;  217.375;    0.000
562.875; 2570.875;  221.375;    0.000
563.003; 2563.875;  199.375;    0.000
563.130; 2592.875;  191.375;    0.000
563.258; 2627.875;  186.375;    0.000
563.386; 2564.875;  191.375;    0.000
563.514; 2698.875;  217.375;    0.000
563.641; 2628.875;  220.375;    0.000
563.769; 2685.875;  186.375;    0.000
563.897; 2690.875;  158.375;    0.000
564.024; 2631.875;  192.375;    0.000
564.152; 2798.875;  217.375;    0.000
564.280; 2755.875;  203.375;    0.000
564.407; 2737.875;  190.375;    0.000
564.535; 2754.875;  188.375;    0.000
564.662; 2810.875;  199.375;    0.000
564.790; 2938.875;  227.375;    0.000
564.917; 2820.875;  160.375;    0.000
565.045; 2827.875;  222.375;    0.000
565.173; 2848.875;  169.375;    0.000
565.300; 2936.875;  208.375;    0.000
565.428; 2870.875;  174.375;    0.000
565.555; 2907.875;  201.375;    0.000
565.682; 2944.875;  180.375;    0.000
565.810; 2995.875;  165.375;    0.000
565.937; 3175.875;  167.375;    0.000
566.065; 3124.875;  190.375;    0.000
566.192; 3182.875;  169.375;    0.000
566.320; 3255.875;  167.375;    0.000
566.447; 3306.875;  151.375;    0.000
566.574; 3328.875;  176.375;    0.000
566.702; 3473.875;  198.375;    0.000
566.829; 3450.875;  209.375;    0.000
566.956; 3506.875;  186.375;    0.000
567.083; 3484.875;  188.375;    0.000
567.211; 3563.875;  159.375;    0.000
567.338; 3613.875;  204.375;    0.000
567.465; 3612.875;  141.375;    0.000
567.593; 3746.875;  168.375;    0.000
567.720; 3719.875;  177.375;    0.000
567.847; 3680.875;  160.375;    0.000
567.974; 3659.875;  139.375;    0.000
568.101; 3585.875;  153.375;    0.000
568.228; 3560.875;  173.375;    0.000
568.356; 3414.875;  149.375;    0.000
568.483; 3277.875;  185.375;    0.000
568.610; 3200.875;  170.375;    0.000
568.737; 3193.875;  223.375;    0.000
568.864; 3129.875;  167.375;    0.000
568.991; 2972.875;  177.375;    0.000
569.118; 3101.875;  169.375;    0.000
569.245; 2975.875;  128.375;    0.000
569.372; 2983.875;  160.375;    0.000
569.499; 2911.875;  156.375;    0.000
569.626; 2853.875;  191.375;    0.000
569.753; 2847.875;  163.375;    0.000
569.880; 2844.875;  167.375;    0.000
570.007; 2808.875;  143.375;    0.000
570.134; 2734.875;  191.375;    0.000
570.261; 2773.875;  164.375;    0.000
570.388; 2856.875;  162.375;    0.000
570.515; 2855.875;  220.375;    0.000
570.642; 2737.875;  184.375;    0.000
570.768; 2732.875;  174.375;    0.000
570.895; 2763.875;  177.375;    0.000
571.022; 2829.875;  152.375;    0.000
571.149; 2676.875;  183.375;    0.000
571.276; 2745.875;  153.375;    0.000
571.402; 2633.875;  190.375;    0.000
571.529; 2602.875;  187.375;    0.000
571.656; 2613.875;  167.375;    0.000
571.783; 2689.875;  186.375;    0.000
571.909; 2573.875;  183.375;    0.000
572.036; 2675.875;  162.375;    0.000
572.163; 2634.875;  196.375;    0.000
572.289; 2579.875;  180.375;    0.000
572.416; 2551.875;  190.375;    0.000
572.543; 2593.875;  174.375;    0.000
572.669; 2562.875;  186.375;    0.000
572.796; 2592.875;  205.375;    0.000
572.922; 2492.875;  185.375;    0.000
573.049; 2504.875;  178.375;    0.000
573.176; 2481.875;  196.375;    0.000
573.302; 2512.875;  202.375;    0.000
573.429; 2549.875;  189.375;    0.000
573.555; 2545.875;  145.375;    0.000
573.682; 2505.875;  228.375;    0.000
573.808; 2493.875;  197.375;    0.000
573.935; 2509.875;  216.375;    0.000
574.061; 2495.875;  173.375;    0.000
574.188; 2457.875;  151.375;    0.000
574.314; 2451.875;  181.375;    0.000
574.440; 2465.875;  167.375;    0.000
574.567; 2473.875;  185.375;    0.000
574.693; 2550.875;  173.375;    0.000
574.820; 2495.875;  164.375;    0.000
574.946; 2526.875;  199.375;    0.000
575.072; 2515.875;  162.375;    0.000
575.198; 2493.875;  225.375;    0.000
575.325; 2490.875;  171.375;    0.000
575.451; 2532.875;  183.375;    0.000
575.577; 2510.875;  190.375;    0.000
575.704; 2384.875;  210.375;    0.000
575.830; 2503.875;  185.375;    0.000
575.956; 2440.875;  168.375;    0.000
576.082; 2441.875;  158.375;    0.000
576.208; 2428.875;  158.375;    0.000
576.335; 2457.875;  196.375;    0.000
576.461; 2404.875;  187.375;    0.000
576.587; 2533.875;  157.375;    0.000
576.713; 2397.875;  156.375;    0.000
576.839; 2419.875;  196.375;    0.000
576.965; 2465.875;  187.375;    0.000
577.091; 2519.875;  204.375;    0.000
577.217; 2455.875;  207.375;    0.000
577.343; 2453.875;  175.375;    0.000
577.469; 2472.875;  197.375;    0.000
577.596; 2447.875;  182.375;    0.000
577.722; 2470.875;  159.375;    0.000
577.848; 2376.875;  162.375;    0.000
577.974; 2455.875;  180.375;    0.000
578.099; 2489.875;  161.375;    0.000
578.225; 2462.875;  180.375;    0.000
578.351; 2438.875;  190.375;    0.000
578.477; 2447.875;  212.375;    0.000
578.603; 2410.875;  179.375;    0.000
578.729; 2375.875;  195.375;    0.000
578.855; 2388.875;  153.375;    0.000
578.981; 2462.875;  162.375;    0.000
579.107; 2408.875;  149.375;    0.000
579.232; 2348.875;  164.375;    0.000
579.358; 2460.875;  162.375;    0.000
579.484; 2421.875;  181.375;    0.000
579.610; 2378.875;  190.375;    0.000
579.735; 2493.875;  191.375;    0.000
579.861; 2379.875;  189.375;    0.000
579.987; 2401.875;  202.375;    0.000
580.113; 2421.875;  197.375;    0.000
580.238; 2266.875;  228.375;    0.000
580.364; 2521.875;  212.375;    0.000
580.490; 2434.875;  225.375;    0.000
580.615; 2389.875;  218.375;    0.000
580.741; 2441.875;  167.375;    0.000
580.867; 2458.875;  215.375;    0.000
580.992; 2483.875;  191.375;    0.000
581.118; 2376.875;  171.375;    0.000
581.243; 2403.875;  204.375;    0.000
581.369; 2461.875;  186.375;    0.000
581.494; 2364.875;  184.375;    0.000
581.620; 2338.875;  212.375;    0.000
581.745; 2401.875;  192.375;    0.000
581.871; 2350.875;  195.375;    0.000
581.996; 2465.875;  160.375;    0.000
582.122; 2495.875;  217.375;    0.000
582.247; 2400.875;  213.375;    0.000
582.373; 2363.875;  187.375;    0.000
582.498; 2404.875;  208.375;    0.000
582.624; 2363.875;  189.375;    0.000
582.749; 2482.875;  185.375;    0.000
582.874; 2413.875;  195.375;    0.000
583.000; 2416.875;  208.375;    0.000
583.125; 2365.875;  147.375;    0.000
583.250; 2402.875;  201.375;    0.000
583.376; 2462.875;  191.375;    0.000
583.501; 2421.875;  206.375;    0.000
583.626; 2401.875;  167.375;    0.000
583.751; 2479.875;  180.375;    0.000
583.877; 2432.875;  185.375;    0.000
584.002; 2364.875;  186.375;    0.000
584.127; 2411.875;  176.375;    0.000
584.252; 2409.875;  214.375;    0.000
584.377; 2432.875;  225.375;    0.000
584.503; 2425.875;  195.375;    0.000
584.628; 2431.875;  206.375;    0.000
584.753; 2438.875;  181.375;    0.000
584.878; 2471.875;  136.375;    0.000
585.003; 2415.875;  215.375;    0.000
585.128; 2451.875;  206.375;    0.000
585.253; 2490.875;  200.375;    0.000
585.378; 2398.875;  169.375;    0.000
585.503; 2388.875;  191.375;    0.000
585.628; 2476.875;  182.375;    0.000
585.753; 2394.875;  164.375;    0.000
585.878; 2366.875;  123.375;    0.000
586.003; 2438.875;  187.375;    0.000
586.128; 2455.875;  198.375;    0.000
586.253; 2433.875;  172.375;    0.000
586.378; 2378.875;  191.375;    0.000
586.503; 2388.875;  190.375;    0.000
586.628; 2440.875;  178.375;    0.000
586.753; 2416.875;  184.375;    0.000
586.878; 2381.875;  169.375;    0.000
587.003; 2444.875;  186.375;    0.000
587.127; 2365.875;  170.375;    0.000
587.252; 2411.875;  170.375;    0.000
587.377; 2407.875;  181.375;    0.000
587.502; 2467.875;  209.375;    0.000
587.627; 2523.875;  210.375;    0.000
587.751; 2497.875;  212.375;    0.000
587.876; 2480.875;  198.375;    0.000
588.001; 2488.875;  161.375;    0.000
588.125; 2496.875;  191.375;    0.000
588.250; 2502.875;  132.375;    0.000
588.375; 2559.875;  183.375;    0.000
588.499; 2569.875;  176.375;    0.000
588.624; 2555.875;  173.375;    0.000
588.749; 2759.875;  204.375;    0.000
588.873; 4108.875;  179.375;    0.000
588.998; 5670.875;  182.375;    0.000
589.122; 4725.875;  165.375;    0.000
589.247; 3242.875;  185.375;    0.000
589.372; 2996.875;  199.375;    0.000
589.496; 4183.875;  182.375;    0.000
589.621; 4760.875;  158.375;    0.000
589.745; 3769.875;  213.375;    0.000
589.870; 2792.875;  175.375;    0.000
589.994; 2683.875;  194.375;    0.000
590.118; 2638.875;  218.375;    0.000
590.243; 2631.875;  170.375;    0.000
590.367; 2529.875;  189.375;    0.000
590.492; 2539.875;  196.375;    0.000
590.616; 2566.875;  182.375;    0.000
590.740; 2594.875;  210.375;    0.000
590.865; 2544.875;  242.375;    0.000
590.989; 2595.875;  191.375;    0.000
591.114; 2670.875;  167.375;    0.000
591.238; 2552.875;  194.375;    0.000
591.362; 2648.875;  236.375;    0.000
591.486; 2649.875;  194.375;    0.000
591.611; 2612.875;  154.375;    0.000
591.735; 2608.875;  186.375;    0.000
591.859; 2671.875;  148.375;    0.000
591.983; 2671.875;  211.375;    0.000
592.107; 2647.875;  204.375;    0.000
592.232; 2695.875;  194.375;    0.000
592.356; 2759.875;  238.375;    0.000
592.480; 2740.875;  179.375;    0.000
592.604; 2678.875;  192.375;    0.000
592.728; 2694.875;  201.375;    0.000
592.852; 2790.875;  158.375;    0.000
592.976; 2782.875;  152.375;    0.000
593.100; 2791.875;  194.375;    0.000
593.224; 2884.875;  235.375;    0.000
593.349; 2820.875;  233.375;    0.000
593.473; 2866.875;  194.375;    0.000
593.597; 2838.875;  215.375;    0.000
593.721; 2904.875;  212.375;    0.000
593.844; 2765.875;  220.375;    0.000
593.968; 2845.875;  221.375;    0.000
594.092; 2858.875;  150.375;    0.000
594.216; 2830.875;  212.375;    0.000
594.340; 2761.875;  209.375;    0.000
594.464; 2737.875;  207.375;    0.000
594.588; 2707.875;  195.375;    0.000
594.712; 2698.875;  176.375;    0.000
594.836; 2790.875;  219.375;    0.000
594.959; 2701.875;  215.375;    0.000
595.083; 2641.875;  200.375;    0.000
595.207; 2642.875;  206.375;    0.000
595.331; 2584.875;  207.375;    0.000
595.455; 2616.875;  206.375;    0.000
595.578; 2663.875;  204.375;    0.000
595.702; 2589.875;  225.375;    0.000
595.826; 2516.875;  186.375;    0.000
595.949; 2635.875;  196.375;    0.000
596.073; 2599.875;  188.375;    0.000
596.197; 2544.875;  217.375;    0.000
596.320; 2559.875;  225.375;    0.000
596.444; 2537.875;  220.375;    0.000
596.568; 2570.875;  155.375;    0.000
596.691; 2574.875;  195.375;    0.000
596.815; 2511.875;  163.375;    0.000
596.938; 2474.875;  181.375;    0.000
597.062; 2437.875;  201.375;    0.000
597.186; 2398.875;  200.375;    0.000
597.309; 2380.875;  214.375;    0.000
597.433; 2410.875;  176.375;    0.000
597.556; 2422.875;  193.375;    0.000
597.680; 2419.875;  241.375;    0.000
597.803; 2402.875;  185.375;    0.000
597.926; 2425.875;  200.375;    0.000
598.050; 2364.875;  193.375;    0.000
598.173; 2328.875;  219.375;    0.000
598.297; 2444.875;  223.375;    0.000
598.420; 2344.875;  187.375;    0.000
598.543; 2429.875;  205.375;    0.000
598.667; 2333.875;  177.375;    0.000
598.790; 2403.875;  208.375;    0.000
598.913; 2337.875;  170.375;    0.000
599.037; 2333.875;  212.375;    0.000
599.160; 2395.875;  165.375;    0.000
599.283; 2375.875;  211.375;    0.000
599.406; 2288.875;  207.375;    0.000
599.530; 2367.875;  182.375;    0.000
599.653; 2381.875;  215.375;    0.000
599.776; 2354.875;  167.375;    0.000
599.899; 2324.875;  190.375;    0.000
600.022; 2359.875;  182.375;    0.000
600.145; 2370.875;  180.375;    0.000
600.269; 2405.875;  208.375;    0.000
600.392; 2298.875;  214.375;    0.000
600.515; 2329.875;  196.375;    0.000
600.638; 2378.875;  204.375;    0.000
600.761; 2290.875;  209.375;    0.000
600.884; 2323.875;  207.375;    0.000
601.007; 2304.875;  234.375;    0.000
601.130; 2285.875;  183.375;    0.000
601.253; 2316.875;  211.375;    0.000
601.376; 2260.875;  199.375;    0.000
601.499; 2354.875;  190.375;    0.000
601.622; 2313.875;  210.375;    0.000
601.745; 2261.875;  180.375;    0.000
601.868; 2305.875;  204.375;    0.000
601.991; 2323.875;  188.375;    0.000
602.113; 2280.875;  210.375;    0.000
602.236; 2293.875;  194.375;    0.000
602.359; 2339.875;  213.375;    0.000
602.482; 2287.875;  169.375;    0.000
602.605; 2270.875;  189.375;    0.000
602.728; 2231.875;  236.375;    0.000
602.850; 2361.875;  230.375;    0.000
602.973; 2216.875;  187.375;    0.000
603.096; 2304.875;  201.375;    0.000
603.219; 2386.875;  209.375;    0.000
603.341; 2294.875;  209.375;    0.000
603.464; 2281.875;  194.375;    0.000
603.587; 2307.875;  166.375;    0.000
603.709; 2299.875;  175.375;    0.000
603.832; 2290.875;  239.375;    0.000
603.955; 2198.875;  205.375;    0.000
604.077; 2281.875;  196.375;    0.000
604.200; 2198.875;  188.375;    0.000
604.323; 2284.875;  224.375;    0.000
604.445; 2200.875;  182.375;    0.000
604.568; 2258.875;  199.375;    0.000
604.690; 2239.875;  175.375;    0.000
604.813; 2216.875;  211.375;    0.000
604.935; 2145.875;  171.375;    0.000
605.058; 2161.875;  196.375;    0.000
605.180; 2254.875;  194.375;    0.000
605.303; 2266.875;  198.375;    0.000
605.425; 2189.875;  212.375;    0.000
605.547; 2291.875;  238.375;    0.000
605.670; 2243.875;  207.375;    0.000
605.792; 2274.875;  204.375;    0.000
605.915; 2178.875;  198.375;    0.000
606.037; 2215.875;  215.375;    0.000
606.159; 2116.875;  170.375;    0.000
606.282; 2212.875;  194.375;    0.000
606.404; 2200.875;  207.375;    0.000
606.526; 2250.875;  208.375;    0.000
606.648; 2108.875;  174.375;    0.000
606.771; 2211.875;  170.375;    0.000
606.893; 2265.875;  182.375;    0.000
607.015; 2147.875;  180.375;    0.000
607.137; 2272.875;  187.375;    0.000
607.260; 2149.875;  202.375;    0.000
607.382; 2294.875;  226.375;    0.000
607.504; 2241.875;  208.375;    0.000
607.626; 2258.875;  229.375;    0.000
607.748; 2239.875;  170.375;    0.000
607.870; 2179.875;  208.375;    0.000
607.992; 2194.875;  184.375;    0.000
608.114; 2241.875;  213.375;    0.000
608.237; 2212.875;  237.375;    0.000
608.359; 2140.875;  176.375;    0.000
608.481; 2182.875;  173.375;    0.000
608.603; 2132.875;  189.375;    0.000
608.725; 2189.875;  185.375;    0.000
608.847; 2215.875;  239.375;    0.000
608.969; 2223.875;  237.375;    0.000
609.090; 2230.875;  189.375;    0.000
609.212; 2163.875;  147.375;    0.000
609.334; 2189.875;  177.375;    0.000
609.456; 2186.875;  196.375;    0.000
609.578; 2230.875;  199.375;    0.000
609.700; 2122.875;  167.375;    0.000
609.822; 2050.875;  140.375;    0.000
609.944; 2241.875;  225.375;    0.000
610.065; 2212.875;  183.375;    0.000
610.187; 2232.875;  170.375;    0.000
610.309; 2142.875;  210.375;    0.000
610.431; 2120.875;  185.375;    0.000
610.552; 2195.875;  197.375;    0.000
610.674; 2089.875;  188.375;    0.000
610.796; 2191.875;  162.375;    0.000
610.918; 2190.875;  200.375;    0.000
611.039; 2183.875;  209.375;    0.000
611.161; 2110.875;  201.375;    0.000
611.282; 2157.875;  197.375;    0.000
611.404; 2080.875;  220.375;    0.000
611.526; 2120.875;  159.375;    0.000
611.647; 2154.875;  205.375;    0.000
611.769; 2106.875;  161.375;    0.000
611.890; 2089.875;  173.375;    0.000
612.012; 2163.875;  225.375;    0.000
612.133; 2177.875;  188.375;    0.000
612.255; 2184.875;  217.375;    0.000
612.377; 2150.875;  219.375;    0.000
612.498; 2169.875;  177.375;    0.000
612.619; 2166.875;  211.375;    0.000
612.741; 2163.875;  185.375;    0.000
612.862; 2183.875;  191.375;    0.000
612.984; 2142.875;  190.375;    0.000
613.105; 2129.875;  211.375;    0.000
613.226; 2190.875;  174.375;    0.000
613.348; 2182.875;  235.375;    0.000
613.469; 2150.875;  230.375;    0.000
613.590; 2060.875;  208.375;    0.000
613.712; 2187.875;  244.375;    0.000
613.833; 2144.875;  202.375;    0.000
613.954; 2150.875;  228.375;    0.000
614.076; 2098.875;  220.375;    0.000
614.197; 2183.875;  191.375;    0.000
614.318; 2134.875;  201.375;    0.000
614.439; 2115.875;  212.375;    0.000
614.560; 2108.875;  219.375;    0.000
614.682; 2104.875;  189.375;    0.000
614.803; 2046.875;  188.375;    0.000
614.924; 2140.875;  225.375;    0.000
615.045; 2116.875;  227.375;    0.000
615.166; 2101.875;  200.375;    0.000
615.287; 2083.875;  195.375;    0.000
615.408; 2140.875;  199.375;    0.000
615.529; 2119.875;  227.375;    0.000
615.650; 2161.875;  176.375;    0.000
615.771; 2171.875;  211.375;    0.000
615.892; 2116.875;  212.375;    0.000
616.013; 2177.875;  172.375;    0.000
616.134; 2154.875;  220.375;    0.000
616.255; 2123.875;  251.375;    0.000
616.376; 2132.875;  186.375;    0.000
616.497; 2103.875;  201.375;    0.000
616.618; 2095.875;  149.375;    0.000
616.739; 2232.875;  213.375;    0.000
616.860; 2174.875;  224.375;    0.000
616.981; 2121.875;  224.375;    0.000
617.102; 2152.875;  217.375;    0.000
617.222; 2182.875;  237.375;    0.000
617.343; 2139.875;  205.375;    0.000
617.464; 2168.875;  229.375;    0.000
617.585; 2133.875;  227.375;    0.000
617.705; 2141.875;  191.375;    0.000
617.826; 2182.875;  237.375;    0.000
617.947; 2030.875;  223.375;    0.000
618.068; 2093.875;  189.375;    0.000
618.188; 2167.875;  194.375;    0.000
618.309; 2079.875;  206.375;    0.000
618.430; 2130.875;  229.375;    0.000
618.550; 2158.875;  250.375;    0.000
618.671; 2033.875;  201.375;    0.000
618.791; 2192.875;  226.375;    0.000
618.912; 2066.875;  246.375;    0.000
619.033; 2072.875;  243.375;    0.000
619.153; 2080.875;  208.375;    0.000
619.274; 2045.875;  223.375;    0.000
619.394; 2137.875;  226.375;    0.000
619.515; 2084.875;  188.375;    0.000
619.635; 2047.875;  216.375;    0.000
619.756; 2133.875;  229.375;    0.000
619.876; 2113.875;  216.375;    0.000
619.996; 2111.875;  244.375;    0.000
620.117; 2117.875;  225.375;    0.000
620.237; 2114.875;  207.375;    0.000
620.358; 2095.875;  239.375;    0.000
620.478; 2099.875;  237.375;    0.000
620.598; 2046.875;  237.375;    0.000
620.719; 2113.875;  223.375;    0.000
620.839; 2084.875;  254.375;    0.000
620.959; 2032.875;  244.375;    0.000
621.079; 2058.875;  193.375;    0.000
621.200; 2052.875;  233.375;    0.000
621.320; 2115.875;  270.375;    0.000
621.440; 2119.875;  206.375;    0.000
621.560; 2037.875;  241.375;    0.000
621.681; 2064.875;  231.375;    0.000
621.801; 2077.875;  235.375;    0.000
621.921; 2142.875;  240.375;    0.000
622.041; 2064.875;  244.375;    0.000
622.161; 2125.875;  225.375;    0.000
622.281; 2039.875;  222.375;    0.000
622.401; 2049.875;  238.375;    0.000
622.521; 2100.875;  233.375;    0.000
622.641; 1989.875;  241.375;    0.000
622.761; 2073.875;  233.375;    0.000
622.882; 2162.875;  230.375;    0.000
623.002; 2049.875;  206.375;    0.000
623.121; 2107.875;  217.375;    0.000
623.241; 2097.875;  263.375;    0.000
623.361; 1999.875;  245.375;    0.000
623.481; 2002.875;  194.375;    0.000
623.601; 2051.875;  228.375;    0.000
623.721; 2094.875;  219.375;    0.000
623.841; 2109.875;  234.375;    0.000
623.961; 2034.875;  235.375;    0.000
624.081; 2008.875;  166.375;    0.000
624.201; 2060.875;  229.375;    0.000
624.320; 2030.875;  224.375;    0.000
624.440; 1987.875;  200.375;    0.000
624.560; 2082.875;  220.375;    0.000
624.680; 1997.875;  214.375;    0.000
624.799; 1917.875;  179.375;    0.000
624.919; 2020.875;  199.375;    0.000
625.039; 2048.875;  211.375;    0.000
625.159; 2044.875;  213.375;    0.000
625.278; 2051.875;  178.375;    0.000
625.398; 2021.875;  206.375;    0.000
625.518; 1967.875;  182.375;    0.000
625.637; 2065.875;  206.375;    0.000
625.757; 2023.875;  197.375;    0.000
625.876; 1974.875;  204.375;    0.000
625.996; 2055.875;  222.375;    0.000
626.115; 2040.875;  222.375;    0.000
626.235; 2011.875;  222.375;    0.000
626.354; 2012.875;  211.375;    0.000
626.474; 2018.875;  217.375;    0.000
626.594; 2044.875;  190.375;    0.000
626.713; 1983.875;  200.375;    0.000
626.832; 2036.875;  234.375;    0.000
626.952; 1957.875;  214.375;    0.000
627.071; 2022.875;  243.375;    0.000
627.191; 1987.875;  192.375;    0.000
627.310; 1970.875;  211.375;    0.000
627.429; 2023.875;  218.375;    0.000
627.549; 1963.875;  214.375;    0.000
627.668; 1932.875;  208.375;    0.000
627.787; 2016.875;  199.375;    0.000
627.907; 2010.875;  208.375;    0.000
628.026; 2060.875;  216.375;    0.000
628.145; 1990.875;  170.375;    0.000
628.264; 2039.875;  217.375;    0.000
628.384; 1971.875;  190.375;    0.000
628.503; 1976.875;  203.375;    0.000
628.622; 1927.875;  197.375;    0.000
628.741; 1970.875;  186.375;    0.000
628.860; 2016.875;  191.375;    0.000
628.980; 1934.875;  196.375;    0.000
629.099; 1951.875;  190.375;    0.000
629.218; 1906.875;  165.375;    0.000
629.337; 2014.875;  190.375;    0.000
629.456; 1991.875;  222.375;    0.000
629.575; 1952.875;  197.375;    0.000
629.694; 1992.875;  210.375;    0.000
629.813; 1934.875;  187.375;    0.000
629.932; 1926.875;  224.375;    0.000
630.051; 1980.875;  216.375;    0.000
630.170; 1945.875;  203.375;    0.000
630.289; 1955.875;  178.375;    0.000
630.408; 1930.875;  192.375;    0.000
630.527; 1988.875;  223.375;    0.000
630.646; 1993.875;  177.375;    0.000
630.764; 1923.875;  224.375;    0.000
630.883; 1944.875;  220.375;    0.000
631.002; 1922.875;  187.375;    0.000
631.121; 1967.875;  208.375;    0.000
631.240; 1945.875;  217.375;    0.000
631.359; 1928.875;  241.375;    0.000
631.477; 1949.875;  189.375;    0.000
631.596; 2028.875;  244.375;    0.000
631.715; 1984.875;  241.375;    0.000
631.834; 1983.875;  219.375;    0.000
631.952; 1965.875;  231.375;    0.000
632.071; 1901.875;  197.375;    0.000
632.190; 1859.875;  193.375;    0.000
632.308; 1879.875;  185.375;    0.000
632.427; 1840.875;  188.375;    0.000
632.546; 1891.875;  208.375;    0.000
632.664; 1929.875;  191.375;    0.000
632.783; 2006.875;  201.375;    0.000
632.901; 1940.875;  239.375;    0.000
633.020; 2007.875;  197.375;    0.000
633.138; 1916.875;  189.375;    0.000
633.257; 1927.875;  210.375;    0.000
633.375; 1948.875;  213.375;    0.000
633.494; 1945.875;  206.375;    0.000
633.612; 1970.875;  231.375;    0.000
633.731; 1921.875;  213.375;    0.000
633.849; 1904.875;  244.375;    0.000
633.968; 1891.875;  251.375;    0.000
634.086; 1923.875;  224.375;    0.000
634.204; 1932.875;  212.375;    0.000
634.323; 1917.875;  213.375;    0.000
634.441; 1955.875;  219.375;    0.000
634.559; 1924.875;  198.375;    0.000
634.678; 1956.875;  201.375;    0.000
634.796; 1893.875;  179.375;    0.000
634.914; 1979.875;  255.375;    0.000
635.032; 2008.875;  264.375;    0.000
635.151; 1929.875;  228.375;    0.000
635.269; 1851.875;  223.375;    0.000
635.387; 1983.875;  228.375;    0.000
635.505; 1846.875;  214.375;    0.000
635.623; 1931.875;  279.375;    0.000
635.742; 1971.875;  237.375;    0.000
635.860; 1962.875;  244.375;    0.000
635.978; 1898.875;  213.375;    0.000
636.096; 1964.875;  230.375;    0.000
636.214; 1956.875;  252.375;    0.000
636.332; 1916.875;  221.375;    0.000
636.450; 1904.875;  227.375;    0.000
636.568; 1912.875;  193.375;    0.000
636.686; 1947.875;  208.375;    0.000
636.804; 2005.875;  213.375;    0.000
636.922; 1867.875;  199.375;    0.000
637.040; 1881.875;  202.375;    0.000
637.158; 1909.875;  239.375;    0.000
637.276; 1928.875;  225.375;    0.000
637.394; 1959.875;  217.375;    0.000
637.512; 1906.875;  192.375;    0.000
637.629; 1921.875;  216.375;    0.000
637.747; 1909.875;  198.375;    0.000
637.865; 1921.875;  265.375;    0.000
637.983; 1978.875;  245.375;    0.000
638.101; 1914.875;  199.375;    0.000
638.218; 1937.875;  197.375;    0.000
638.336; 1969.875;  212.375;    0.000
638.454; 1905.875;  227.375;    0.000
638.572; 1992.875;  215.375;    0.000
638.689; 1942.875;  214.375;    0.000
638.807; 1903.875;  233.375;    0.000
638.925; 1923.875;  217.375;    0.000
639.042; 1869.875;  180.375;    0.000
639.160; 1893.875;  220.375;    0.000
639.278; 1910.875;  180.375;    0.000
639.395; 1944.875;  243.375;    0.000
639.513; 1930.875;  207.375;    0.000
639.630; 1979.875;  183.375;    0.000
639.748; 1817.875;  231.375;    0.000
639.865; 1934.875;  215.375;    0.000
639.983; 1875.875;  182.375;    0.000
640.100; 1898.875;  190.375;    0.000
640.218; 1932.875;  224.375;    0.000
640.335; 1927.875;  214.375;    0.000
640.453; 1894.875;  212.375;    0.000
640.570; 1906.875;  224.375;    0.000
640.688; 1902.875;  220.375;    0.000
640.805; 1925.875;  189.375;    0.000
640.922; 1906.875;  256.375;    0.000
641.040; 1874.875;  209.375;    0.000
641.157; 1884.875;  195.375;    0.000
641.274; 1938.875;  195.375;    0.000
641.391; 1871.875;  231.375;    0.000
641.509; 1978.875;  207.375;    0.000
641.626; 1974.875;  227.375;    0.000
641.743; 1859.875;  188.375;    0.000
641.860; 1956.875;  208.375;    0.000
641.978; 1952.875;  222.375;    0.000
642.095; 1942.875;  194.375;    0.000
642.212; 1896.875;  202.375;    0.000
642.329; 1932.875;  241.375;    0.000
642.446; 1945.875;  261.375;    0.000
642.563; 1977.875;  236.375;    0.000
642.681; 1934.875;  228.375;    0.000
642.798; 1939.875;  242.375;    0.000
642.915; 1881.875;  197.375;    0.000
643.032; 1965.875;  239.375;    0.000
643.149; 1955.875;  241.375;    0.000
643.266; 1920.875;  199.375;    0.000
643.383; 1990.875;  200.375;    0.000
643.500; 1973.875;  221.375;    0.000
643.617; 1909.875;  196.375;    0.000
643.734; 1932.875;  207.375;    0.000
643.850; 1933.875;  222.375;    0.000
643.967; 1936.875;  235.375;    0.000
644.084; 2031.875;  233.375;    0.000
644.201; 2001.875;  229.375;    0.000
644.318; 1981.875;  210.375;    0.000
644.435; 1983.875;  234.375;    0.000
644.552; 1963.875;  220.375;    0.000
644.668; 1968.875;  231.375;    0.000
644.785; 2017.875;  231.375;    0.000
644.902; 1957.875;  238.375;    0.000
645.019; 2042.875;  226.375;    0.000
645.135; 1976.875;  179.375;    0.000
645.252; 1971.875;  224.375;    0.000
645.369; 1951.875;  206.375;    0.000
645.485; 2029.875;  200.375;    0.000
645.602; 1990.875;  210.375;    0.000
645.719; 2037.875;  206.375;    0.000
645.835; 2044.875;  247.375;    0.000
645.952; 2102.875;  222.375;    0.000
646.068; 2099.875;  205.375;    0.000
646.185; 2048.875;  230.375;    0.000
646.302; 2007.875;  254.375;    0.000
646.418; 2053.875;  230.375;    0.000
646.535; 2080.875;  214.375;    0.000
646.651; 2030.875;  179.375;    0.000
646.768; 2037.875;  190.375;    0.000
646.884; 2048.875;  208.375;    0.000
647.000; 2141.875;  262.375;    0.000
647.117; 2067.875;  212.375;    0.000
647.233; 2108.875;  228.375;    0.000
647.350; 2163.875;  208.375;    0.000
647.466; 2131.875;  211.375;    0.000
647.582; 2207.875;  196.375;    0.000
647.699; 2252.875;  217.375;    0.000
647.815; 2147.875;  203.375;    0.000
647.931; 2228.875;  201.375;    0.000
648.047; 2140.875;  182.375;    0.000
648.164; 2232.875;  219.375;    0.000
648.280; 2187.875;  213.375;    0.000
648.396; 2256.875;  202.375;    0.000
648.512; 2241.875;  233.375;    0.000
648.629; 2247.875;  206.375;    0.000
648.745; 2197.875;  188.375;    0.000
648.861; 2284.875;  209.375;    0.000
648.977; 2255.875;  218.375;    0.000
649.093; 2201.875;  225.375;    0.000
649.209; 2280.875;  240.375;    0.000
649.325; 2309.875;  253.375;    0.000
649.441; 2221.875;  263.375;    0.000
649.557; 2322.875;  256.375;    0.000
649.673; 2339.875;  211.375;    0.000
649.789; 2269.875;  237.375;    0.000
649.905; 2291.875;  183.375;    0.000
650.021; 2405.875;  238.375;    0.000
650.137; 2298.875;  241.375;    0.000
650.253; 2378.875;  228.375;    0.000
650.369; 2377.875;  221.375;    0.000
650.485; 2314.875;  240.375;    0.000
650.601; 2405.875;  254.375;    0.000
650.717; 2346.875;  201.375;    0.000
650.833; 2418.875;  257.375;    0.000
650.948; 2405.875;  213.375;    0.000
651.064; 2376.875;  223.375;    0.000
651.180; 2533.875;  230.375;    0.000
651.296; 2368.875;  235.375;    0.000
651.411; 2444.875;  221.375;    0.000
651.527; 2441.875;  233.375;    0.000
651.643; 2465.875;  236.375;    0.000
651.759; 2557.875;  268.375;    0.000
651.874; 2595.875;  214.375;    0.000
651.990; 2569.875;  251.375;    0.000
652.105; 2567.875;  217.375;    0.000
652.221; 2547.875;  243.375;    0.000
652.337; 2545.875;  231.375;    0.000
652.452; 2624.875;  238.375;    0.000
652.568; 2639.875;  188.375;    0.000
652.683; 2630.875;  197.375;    0.000
652.799; 2692.875;  194.375;    0.000
652.914; 2741.875;  222.375;    0.000
653.030; 2689.875;  200.375;    0.000
653.145; 2806.875;  235.375;    0.000
653.261; 2874.875;  261.375;    0.000
653.376; 2889.875;  228.375;    0.000
653.492; 2989.875;  222.375;    0.000
653.607; 2995.875;  227.375;    0.000
653.722; 3090.875;  250.375;    0.000
653.838; 3112.875;  255.375;    0.000
653.953; 3045.875;  235.375;    0.000
654.068; 3213.875;  266.375;    0.000
654.184; 3196.875;  210.375;    0.000
654.299; 3388.875;  240.375;    0.000
654.414; 3271.875;  222.375;    0.000
654.530; 3413.875;  222.375;    0.000
654.645; 3447.875;  256.375;    0.000
654.760; 3513.875;  244.375;    0.000
654.875; 3817.875;  229.375;    0.000
654.990; 3822.875;  226.375;    0.000
655.106; 3913.875;  254.375;    0.000
655.221; 3986.875;  251.375;    0.000
655.336; 4105.875;  245.375;    0.000
655.451; 4239.875;  199.375;    0.000
655.566; 4382.875;  228.375;    0.000
655.681; 4599.875;  208.375;    0.000
655.796; 4746.875;  218.375;    0.000
655.911; 5057.875;  233.375;    0.000
656.026; 5234.875;  232.375;    0.000
656.141; 5456.875;  223.375;    0.000
656.256; 5674.875;  247.375;    0.000
656.371; 5812.875;  220.375;    0.000
656.486; 5631.875;  225.375;    0.000
656.601; 5426.875;  257.375;    0.000
656.716; 5489.875;  248.375;    0.000
656.831; 5312.875;  262.375;    0.000
656.946; 5187.875;  249.375;    0.000
657.060; 4964.875;  245.375;    0.000
657.175; 4806.875;  245.375;    0.000
657.290; 4627.875;  219.375;    0.000
657.405; 4517.875;  286.375;    0.000
657.520; 4408.875;  259.375;    0.000
657.634; 4321.875;  239.375;    0.000
657.749; 4206.875;  227.375;    0.000
657.864; 3990.875;  210.375;    0.000
657.979; 3983.875;  236.375;    0.000
658.093; 3797.875;  210.375;    0.000
658.208; 3779.875;  248.375;    0.000
658.323; 3652.875;  216.375;    0.000
658.437; 3678.875;  248.375;    0.000
658.552; 3652.875;  249.375;    0.000
658.666; 3539.875;  256.375;    0.000
658.781; 3438.875;  247.375;    0.000
658.895; 3407.875;  209.375;    0.000
659.010; 3334.875;  219.375;    0.000
659.125; 3289.875;  215.375;    0.000
659.239; 3332.875;  205.375;    0.000
659.353; 3202.875;  246.375;    0.000
659.468; 3164.875;  245.375;    0.000
659.582; 3156.875;  244.375;    0.000
659.697; 3099.875;  242.375;    0.000
659.811; 3057.875;  239.375;    0.000
659.926; 2976.875;  226.375;    0.000
660.040; 3007.875;  255.375;    0.000
660.154; 2995.875;  225.375;    0.000
660.269; 2942.875;  200.375;    0.000
660.383; 2831.875;  192.375;    0.000
660.497; 2863.875;  218.375;    0.000
660.612; 2834.875;  236.375;    0.000
660.726; 2812.875;  263.375;    0.000
660.840; 2750.875;  205.375;    0.000
660.954; 2638.875;  219.375;    0.000
661.068; 2726.875;  240.375;    0.000
661.183; 2658.875;  221.375;    0.000
661.297; 2593.875;  194.375;    0.000
661.411; 2586.875;  253.375;    0.000
661.525; 2544.875;  246.375;    0.000
661.639; 2510.875;  217.375;    0.000
661.753; 2526.875;  241.375;    0.000
661.867; 2469.875;  276.375;    0.000
661.981; 2460.875;  203.375;    0.000
662.095; 2445.875;  224.375;    0.000
662.209; 2424.875;  217.375;    0.000
662.323; 2424.875;  251.375;    0.000
662.437; 2357.875;  243.375;    0.000
662.551; 2337.875;  244.375;    0.000
662.665; 2311.875;  247.375;    0.000
662.779; 2311.875;  251.375;    0.000
662.893; 2369.875;  254.375;    0.000
663.007; 2233.875;  222.375;    0.000
663.121; 2289.875;  253.375;    0.000
663.235; 2222.875;  270.375;    0.000
663.349; 2208.875;  242.375;    0.000
663.462; 2137.875;  230.375;    0.000
663.576; 2203.875;  230.375;    0.000
663.690; 2105.875;  249.375;    0.000
663.804; 2110.875;  200.375;    0.000
663.917; 2109.875;  204.375;    0.000
664.031; 2103.875;  206.375;    0.000
664.145; 2138.875;  202.375;    0.000
664.258; 2101.875;  221.375;    0.000
664.372; 2052.875;  215.375;    0.000
664.486; 2011.875;  179.375;    0.000
664.599; 2034.875;  208.375;    0.000
664.713; 2108.875;  268.375;    0.000
664.827; 1969.875;  225.375;    0.000
664.940; 2009.875;  222.375;    0.000
665.054; 2012.875;  208.375;    0.000
665.167; 2042.875;  253.375;    0.000
665.281; 1971.875;  237.375;    0.000
665.394; 1945.875;  227.375;    0.000
665.508; 1923.875;  192.375;    0.000
665.621; 1971.875;  175.375;    0.000
665.735; 1942.875;  249.375;    0.000
665.848; 1968.875;  197.375;    0.000
665.961; 1833.875;  206.375;    0.000
666.075; 1936.875;  245.375;    0.000
666.188; 1868.875;  230.375;    0.000
666.301; 1926.875;  219.375;    0.000
666.415; 1935.875;  231.375;    0.000
666.528; 1923.875;  258.375;    0.000
666.641; 1841.875;  243.375;    0.000
666.755; 1869.875;  208.375;    0.000
666.868; 1858.875;  228.375;    0.000
666.981; 1852.875;  244.375;    0.000
667.094; 1870.875;  244.375;    0.000
667.207; 1805.875;  226.375;    0.000
667.321; 1771.875;  175.375;    0.000
667.434; 1794.875;  211.375;    0.000
667.547; 1833.875;  249.375;    0.000
667.660; 1802.875;  225.375;    0.000
667.773; 1831.875;  242.375;    0.000
667.886; 1756.875;  246.375;    0.000
667.999; 1800.875;  244.375;    0.000
668.112; 1801.875;  227.375;    0.000
668.225; 1802.875;  231.375;    0.000
668.338; 1774.875;  256.375;    0.000
668.451; 1659.875;  216.375;    0.000
668.564; 1779.875;  261.375;    0.000
668.677; 1713.875;  230.375;    0.000
668.790; 1746.875;  192.375;    0.000
668.903; 1666.875;  243.375;    0.000
669.016; 1678.875;  201.375;    0.000
669.129; 1738.875;  249.375;    0.000
669.242; 1667.875;  190.375;    0.000
669.354; 1708.875;  219.375;    0.000
669.467; 1720.875;  242.375;    0.000
669.580; 1698.875;  237.375;    0.000
669.693; 1630.875;  243.375;    0.000
669.806; 1674.875;  234.375;    0.000
669.918; 1673.875;  206.375;    0.000
670.031; 1657.875;  258.375;    0.000
670.144; 1644.875;  231.375;    0.000
670.256; 1660.875;  244.375;    0.000
670.369; 1636.875;  262.375;    0.000
670.482; 1591.875;  264.375;    0.000
670.594; 1659.875;  256.375;    0.000
670.707; 1579.875;  224.375;    0.000
670.820; 1695.875;  261.375;    0.000
670.932; 1547.875;  226.375;    0.000
671.045; 1660.875;  243.375;    0.000
671.157; 1634.875;  235.375;    0.000
671.270; 1548.875;  217.375;    0.000
671.382; 1648.875;  267.375;    0.000
671.495; 1618.875;  258.375;    0.000
671.607; 1613.875;  236.375;    0.000
671.720; 1504.875;  200.375;    0.000
671.832; 1543.875;  219.375;    0.000
671.944; 1555.875;  234.375;    0.000
672.057; 1516.875;  226.375;    0.000
672.169; 1531.875;  225.375;    0.000
672.281; 1583.875;  253.375;    0.000
672.394; 1614.875;  238.375;    0.000
672.506; 1622.875;  244.375;    0.000
672.618; 1571.875;  272.375;    0.000
672.731; 1556.875;  247.375;    0.000
672.843; 1576.875;  261.375;    0.000
672.955; 1530.875;  262.375;    0.000
673.067; 1562.875;  253.375;    0.000
673.180; 1554.875;  239.375;    0.000
673.292; 1529.875;  240.375;    0.000
673.404; 1517.875;  243.375;    0.000
673.516; 1510.875;  258.375;    0.000
673.628; 1564.875;  263.375;    0.000
673.740; 1522.875;  250.375;    0.000
673.852; 1569.875;  285.375;    0.000
673.964; 1509.875;  264.375;    0.000
674.076; 1512.875;  260.375;    0.000
674.188; 1517.875;  226.375;    0.000
674.300; 1508.875;  272.375;    0.000
674.412; 1471.875;  259.375;    0.000
674.524; 1593.875;  283.375;    0.000
674.636; 1533.875;  259.375;    0.000
674.748; 1501.875;  238.375;    0.000
674.860; 1467.875;  277.375;    0.000
674.972; 1464.875;  272.375;    0.000
675.084; 1561.875;  244.375;    0.000
675.196; 1527.875;  272.375;    0.000
675.307; 1435.875;  244.375;    0.000
675.419; 1444.875;  219.375;    0.000
675.531; 1531.875;  275.375;    0.000
675.643; 1455.875;  215.375;    0.000
675.755; 1530.875;  243.375;    0.000
675.866; 1442.875;  223.375;    0.000
675.978; 1441.875;  216.375;    0.000
676.090; 1484.875;  242.375;    0.000
676.201; 1434.875;  276.375;    0.000
676.313; 1442.875;  226.375;    0.000
676.425; 1464.875;  234.375;    0.000
676.536; 1435.875;  231.375;    0.000
676.648; 1445.875;  254.375;    0.000
676.759; 1472.875;  273.375;    0.000
676.871; 1458.875;  250.375;    0.000
676.983; 1485.875;  256.375;    0.000
677.094; 1428.875;  210.375;    0.000
677.206; 1423.875;  248.375;    0.000
677.317; 1459.875;  263.375;    0.000
677.429; 1384.875;  238.375;    0.000
677.540; 1465.875;  247.375;    0.000
677.651; 1429.875;  224.375;    0.000
677.763; 1358.875;  217.375;    0.000
677.874; 1428.875;  234.375;    0.000
677.986; 1349.875;  238.375;    0.000
678.097; 1397.875;  226.375;    0.000
678.208; 1447.875;  253.375;    0.000
678.320; 1440.875;  217.375;    0.000
678.431; 1375.875;  238.375;    0.000
678.542; 1411.875;  236.375;    0.000
678.653; 1397.875;  218.375;    0.000
678.765; 1418.875;  275.375;    0.000
678.876; 1385.875;  213.375;    0.000
678.987; 1320.875;  182.375;    0.000
679.098; 1358.875;  221.375;    0.000
679.209; 1393.875;  238.375;    0.000
679.320; 1316.875;  212.375;    0.000
679.432; 1373.875;  231.375;    0.000
679.543; 1345.875;  198.375;    0.000
679.654; 1384.875;  191.375;    0.000
679.765; 1347.875;  214.375;    0.000
679.876; 1317.875;  221.375;    0.000
679.987; 1279.875;  162.375;    0.000
680.098; 1371.875;  230.375;    0.000
680.209; 1347.875;  206.375;    0.000
680.320; 1356.875;  196.375;    0.000
680.431; 1393.875;  191.375;    0.000
680.542; 1366.875;  214.375;    0.000
680.653; 1378.875;  238.375;    0.000
680.763; 1384.875;  182.375;    0.000
680.874; 1391.875;  213.375;    0.000
680.985; 1337.875;  224.375;    0.000
681.096; 1360.875;  222.375;    0.000
681.207; 1288.875;  220.375;    0.000
681.318; 1347.875;  216.375;    0.000
681.428; 1348.875;  229.375;    0.000
681.539; 1345.875;  183.375;    0.000
681.650; 1365.875;  202.375;    0.000
681.760; 1373.875;  223.375;    0.000
681.871; 1310.875;  211.375;    0.000
681.982; 1305.875;  189.375;    0.000
682.093; 1269.875;  222.375;    0.000
682.203; 1343.875;  220.375;    0.000
682.314; 1345.875;  214.375;    0.000
682.424; 1318.875;  208.375;    0.000
682.535; 1369.875;  213.375;    0.000
682.646; 1355.875;  302.375;    0.000
682.756; 1366.875;  255.375;    0.000
682.867; 1295.875;  244.375;    0.000
682.977; 1264.875;  221.375;    0.000
683.088; 1275.875;  259.375;    0.000
683.198; 1288.875;  212.375;    0.000
683.308; 1296.875;  202.375;    0.000
683.419; 1338.875;  255.375;    0.000
683.529; 1309.875;  217.375;    0.000
683.640; 1310.875;  240.375;    0.000
683.750; 1251.875;  181.375;    0.000
683.860; 1301.875;  246.375;    0.000
683.971; 1304.875;  254.375;    0.000
684.081; 1259.875;  235.375;    0.000
684.191; 1324.875;  251.375;    0.000
684.301; 1258.875;  233.375;    0.000
684.412; 1289.875;  202.375;    0.000
684.522; 1309.875;  232.375;    0.000
684.632; 1264.875;  202.375;    0.000
684.742; 1305.875;  254.375;    0.000
684.852; 1326.875;  219.375;    0.000
684.963; 1323.875;  256.375;    0.000
685.073; 1299.875;  253.375;    0.000
685.183; 1289.875;  254.375;    0.000
685.293; 1255.875;  232.375;    0.000
685.403; 1290.875;  242.375;    0.000
685.513; 1356.875;  261.375;    0.000
685.623; 1270.875;  245.375;    0.000
685.733; 1345.875;  254.375;    0.000
685.843; 1308.875;  249.375;    0.000
685.953; 1268.875;  252.375;    0.000
686.063; 1303.875;  227.375;    0.000
686.173; 1348.875;  223.375;    0.000
686.283; 1349.875;  234.375;    0.000
686.393; 1235.875;  239.375;    0.000
686.503; 1197.875;  231.375;    0.000
686.612; 1300.875;  232.375;    0.000
686.722; 1431.875;  258.375;    0.000
686.832; 1279.875;  256.375;    0.000
686.942; 1292.875;  230.375;    0.000
687.052; 1287.875;  274.375;    0.000
687.161; 1281.875;  269.375;    0.000
687.271; 1250.875;  218.375;    0.000
687.381; 1278.875;  235.375;    0.000
687.491; 1255.875;  262.375;    0.000
687.600; 1238.875;  256.375;    0.000
687.710; 1261.875;  225.375;    0.000
687.820; 1264.875;  230.375;    0.000
687.929; 1268.875;  226.375;    0.000
688.039; 1272.875;  228.375;    0.000
688.148; 1326.875;  249.375;    0.000
688.258; 1285.875;  237.375;    0.000
688.367; 1351.875;  260.375;    0.000
688.477; 1243.875;  200.375;    0.000
688.586; 1317.875;  223.375;    0.000
688.696; 1304.875;  223.375;    0.000
688.805; 1265.875;  257.375;    0.000
688.915; 1280.875;  185.375;    0.000
689.024; 1256.875;  227.375;    0.000
689.134; 1293.875;  224.375;    0.000
689.243; 1215.875;  206.375;    0.000
689.352; 1273.875;  275.375;    0.000
689.462; 1229.875;  233.375;    0.000
689.571; 1267.875;  244.375;    0.000
689.680; 1279.875;  261.375;    0.000
689.790; 1144.875;  192.375;    0.000
689.899; 1239.875;  214.375;    0.000
690.008; 1269.875;  255.375;    0.000
690.117; 1254.875;  219.375;    0.000
690.227; 1302.875;  241.375;    0.000
690.336; 1267.875;  231.375;    0.000
690.445; 1248.875;  212.375;    0.000
690.554; 1263.875;  234.375;    0.000
690.663; 1196.875;  210.375;    0.000
690.772; 1294.875;  221.375;    0.000
690.881; 1236.875;  244.375;    0.000
690.990; 1241.875;  247.375;    0.000
691.099; 1254.875;  222.375;    0.000
691.209; 1227.875;  240.375;    0.000
691.318; 1280.875;  223.375;    0.000
691.427; 1217.875;  217.375;    0.000
691.536; 1197.875;  216.375;    0.000
691.644; 1218.875;  194.375;    0.000
691.753; 1208.875;  221.375;    0.000
691.862; 1257.875;  224.375;    0.000
691.971; 1221.875;  191.375;    0.000
692.080; 1251.875;  247.375;    0.000
692.189; 1224.875;  208.375;    0.000
692.298; 1201.875;  203.375;    0.000
692.406; 1227.875;  239.375;    0.000
692.515; 1227.875;  250.375;    0.000
692.624; 1200.875;  226.375;    0.000
692.733; 1207.875;  229.375;    0.000
692.842; 1243.875;  254.375;    0.000
692.950; 1236.875;  242.375;    0.000
693.059; 1170.875;  204.375;    0.000
693.168; 1235.875;  252.375;    0.000
693.276; 1262.875;  195.375;    0.000
693.385; 1200.875;  228.375;    0.000
693.494; 1233.875;  282.375;    0.000
693.602; 1210.875;  221.375;    0.000
693.711; 1268.875;  225.375;    0.000
693.819; 1270.875;  234.375;    0.000
693.928; 1195.875;  229.375;    0.000
694.036; 1247.875;  192.375;    0.000
694.145; 1220.875;  233.375;    0.000
694.253; 1277.875;  277.375;    0.000
694.362; 1246.875;  188.375;    0.000
694.470; 1258.875;  263.375;    0.000
694.579; 1216.875;  253.375;    0.000
694.687; 1293.875;  281.375;    0.000
694.795; 1261.875;  233.375;    0.000
694.904; 1178.875;  223.375;    0.000
695.012; 1348.875;  296.375;    0.000
695.120; 1265.875;  227.375;    0.000
695.229; 1221.875;  269.375;    0.000
695.337; 1189.875;  229.375;    0.000
695.445; 1224.875;  244.375;    0.000
695.553; 1285.875;  259.375;    0.000
695.662; 1183.875;  208.375;    0.000
695.770; 1267.875;  241.375;    0.000
695.878; 1267.875;  239.375;    0.000
695.986; 1253.875;  247.375;    0.000
696.094; 1201.875;  224.375;    0.000
696.202; 1210.875;  205.375;    0.000
696.310; 1260.875;  217.375;    0.000
696.419; 1182.875;  228.375;    0.000
696.527; 1235.875;  246.375;    0.000
696.635; 1223.875;  245.375;    0.000
696.743; 1240.875;  233.375;    0.000
696.851; 1227.875;  251.375;    0.000
696.959; 1200.875;  257.375;    0.000
697.067; 1266.875;  260.375;    0.000
697.174; 1206.875;  223.375;    0.000
697.282; 1171.875;  239.375;    0.000
697.390; 1180.875;  264.375;    0.000
697.498; 1133.875;  227.375;    0.000
697.606; 1214.875;  243.375;    0.000
697.714; 1216.875;  256.375;    0.000
697.822; 1152.875;  278.375;    0.000
697.929; 1205.875;  227.375;    0.000
698.037; 1175.875;  232.375;    0.000
698.145; 1222.875;  256.375;    0.000
698.253; 1195.875;  245.375;    0.000
698.360; 1227.875;  282.375;    0.000
698.468; 1211.875;  244.375;    0.000
698.576; 1208.875;  279.375;    0.000
698.683; 1244.875;  259.375;    0.000
698.791; 1194.875;  265.375;    0.000
698.899; 1240.875;  250.375;    0.000
699.006; 1198.875;  245.375;    0.000
699.114; 1211.875;  280.375;    0.000
699.221; 1241.875;  240.375;    0.000
699.329; 1226.875;  293.375;    0.000
699.436; 1219.875;  216.375;    0.000
699.544; 1220.875;  269.375;    0.000
699.651; 1194.875;  219.375;    0.000
699.759; 1207.875;  245.375;    0.000
699.866; 1226.875;  261.375;    0.000
699.974; 1184.875;  245.375;    0.000
700.081; 1225.875;  257.375;    0.000
700.188; 1260.875;  268.375;    0.000
700.296; 1170.875;  225.375;    0.000
700.403; 1210.875;  257.375;    0.000
700.510; 1207.875;  267.375;    0.000
700.618; 1263.875;  299.375;    0.000
700.725; 1193.875;  223.375;    0.000
700.832; 1180.875;  233.375;    0.000
700.940; 1186.875;  255.375;    0.000
701.047; 1150.875;  244.375;    0.000
701.154; 1184.875;  248.375;    0.000
701.261; 1173.875;  264.375;    0.000
701.368; 1207.875;  299.375;    0.000
701.475; 1140.875;  264.375;    0.000
701.582; 1256.875;  275.375;    0.000
701.690; 1201.875;  261.375;    0.000
701.797; 1261.875;  273.375;    0.000
701.904; 1300.875;  320.375;    0.000
702.011; 1241.875;  299.375;    0.000
702.118; 1229.875;  292.375;    0.000
702.225; 1235.875;  317.375;    0.000
702.332; 1291.875;  307.375;    0.000
702.439; 1215.875;  313.375;    0.000
702.546; 1251.875;  312.375;    0.000
702.652; 1239.875;  297.375;    0.000
702.759; 1262.875;  345.375;    0.000
702.866; 1218.875;  330.375;    0.000
702.973; 1216.875;  303.375;    0.000
703.080; 1242.875;  303.375;    0.000
703.187; 1226.875;  327.375;    0.000
703.294; 1216.875;  325.375;    0.000
703.400; 1166.875;  302.375;    0.000
703.507;  453.875;  344.375;    0.000
703.614;  310.875;  294.375;    0.000
703.720;  312.875;  322.375;    0.000
703.827;  313.875;  329.375;    0.000
703.934;  292.875;  318.375;    0.000
704.040;  259.875;  299.375;    0.000
704.147;  328.875;  352.375;    0.000
704.254;  349.875;  350.375;    0.000
704.360;  317.875;  347.375;    0.000
704.467;  313.875;  336.375;    0.000
704.573;  354.875;  344.375;    0.000
704.680;  323.875;  365.375;    0.000
704.786;  315.875;  332.375;    0.000
704.893;  325.875;  304.375;    0.000
704.999;  321.875;  299.375;    0.000
705.106;  348.875;  365.375;    0.000

