
Integration time [ms]:   1.000
Averaging Nr. [scans]: 1
Smoothing Nr. [pixels]: 0
Data measured with spectrometer [name]: UV2
Wave   ;Sample   ;Dark     ;Reference
[nm]   ;[counts] ;[counts] ;[counts] 

353.533;  206.725;  216.475;    0.000
353.597;  248.725;  244.475;    0.000
353.660;  213.725;  181.475;    0.000
353.723;  181.725;  203.475;    0.000
353.786;  197.725;  180.475;    0.000
353.850;  221.725;  213.475;    0.000
353.913;  162.725;  191.475;    0.000
353.976;  183.725;  195.475;    0.000
354.039;  195.725;  158.475;    0.000
354.102;  201.725;  199.475;    0.000
354.166;  195.725;  185.475;    0.000
354.229;  179.725;  188.475;    0.000
354.292;  198.725;  188.475;    0.000
354.355;  230.725;  226.475;    0.000
354.418;  167.725;  158.475;    0.000
354.481;  188.725;  185.475;    0.000
354.545;  482.725;  191.475;    0.000
354.608;  549.725;  247.475;    0.000
354.671;  521.725;  176.475;    0.000
354.734;  504.725;  198.475;    0.000
354.797;  522.725;  195.475;    0.000
354.860;  557.725;  212.475;    0.000
354.923;  511.725;  184.475;    0.000
354.986;  565.725;  169.475;    0.000
355.050;  552.725;  206.475;    0.000
355.113;  543.725;  210.475;    0.000
355.176;  601.725;  217.475;    0.000
355.239;  624.725;  201.475;    0.000
355.302;  591.725;  193.475;    0.000
355.365;  618.725;  234.475;    0.000
355.428;  614.725;  182.475;    0.000
355.491;  619.725;  233.475;    0.000
355.554;  592.725;  167.475;    0.000
355.617;  620.725;  195.475;    0.000
355.680;  583.725;  198.475;    0.000
355.743;  657.725;  186.475;    0.000
355.806;  648.725;  171.475;    0.000
355.869;  682.725;  244.475;    0.000
355.932;  632.725;  164.475;    0.000
355.995;  662.725;  220.475;    0.000
356.058;  669.725;  172.475;    0.000
356.121;  694.725;  228.475;    0.000
356.184;  679.725;  225.475;    0.000
356.247;  668.725;  161.475;    0.000
356.310;  595.725;  195.475;    0.000
356.373;  699.725;  191.475;    0.000
356.436;  645.725;  147.475;    0.000
356.498;  660.725;  183.475;    0.000
356.561;  692.725;  137.475;    0.000
356.624;  672.725;  186.475;    0.000
356.687;  716.725;  158.475;    0.000
356.750;  671.725;  194.475;    0.000
356.813;  682.725;  186.475;    0.000
356.876;  692.725;  161.475;    0.000
356.939;  730.725;  188.475;    0.000
357.001;  678.725;  200.475;    0.000
357.064;  700.725;  182.475;    0.000
357.127;  729.725;  168.475;    0.000
357.190;  692.725;  157.475;    0.000
357.253;  717.725;  199.475;    0.000
357.316;  693.725;  187.475;    0.000
357.378;  694.725;  174.475;    0.000
357.441;  671.725;  165.475;    0.000
357.504;  702.725;  189.475;    0.000
357.567;  709.725;  116.475;    0.000
357.629;  741.725;  176.475;    0.000
357.692;  677.725;  134.475;    0.000
357.755;  688.725;  175.475;    0.000
357.818;  657.725;  159.475;    0.000
357.880;  683.725;  185.475;    0.000
357.943;  675.725;  159.475;    0.000
358.006;  701.725;  176.475;    0.000
358.069;  724.725;  156.475;    0.000
358.131;  727.725;  170.475;    0.000
358.194;  682.725;  125.475;    0.000
358.257;  724.725;  186.475;    0.000
358.319;  785.725;  139.475;    0.000
358.382;  728.725;  175.475;    0.000
358.445;  732.725;  170.475;    0.000
358.507;  643.725;  129.475;    0.000
358.570;  682.725;  168.475;    0.000
358.633;  681.725;  152.475;    0.000
358.695;  732.725;  194.475;    0.000
358.758;  674.725;  154.475;    0.000
358.821;  702.725;  147.475;    0.000
358.883;  751.725;  163.475;    0.000
358.946;  727.725;  155.475;    0.000
359.008;  746.725;  208.475;    0.000
359.071;  791.725;  182.475;    0.000
359.134;  677.725;  126.475;    0.000
359.196;  720.725;  142.475;    0.000
359.259;  734.725;  138.475;    0.000
359.321;  731.725;  153.475;    0.000
359.384;  764.725;  186.475;    0.000
359.446;  783.725;  152.475;    0.000
359.509;  740.725;  144.475;    0.000
359.571;  707.725;  164.475;    0.000
359.634;  720.725;  171.475;    0.000
359.696;  718.725;  144.475;    0.000
359.759;  790.725;  171.475;    0.000
359.821;  740.725;  161.475;    0.000
359.884;  738.725;  159.475;    0.000
359.946;  794.725;  186.475;    0.000
360.009;  801.725;  171.475;    0.000
360.071;  763.725;  166.475;    0.000
360.134;  784.725;  215.475;    0.000
360.196;  779.725;  138.475;    0.000
360.259;  767.725;  196.475;    0.000
360.321;  765.725;  148.475;    0.000
360.384;  804.725;  150.475;    0.000
360.446;  756.725;  148.475;    0.000
360.508;  802.725;  172.475;    0.000
360.571;  750.725;  155.475;    0.000
360.633;  793.725;  153.475;    0.000
360.696;  734.725;  142.475;    0.000
360.758;  784.725;  165.475;    0.000
360.820;  749.725;  155.475;    0.000
360.883;  771.725;  156.475;    0.000
360.945;  791.725;  171.475;    0.000
361.007;  763.725;  138.475;    0.000
361.070;  730.725;  129.475;    0.000
361.132;  801.725;  166.475;    0.000
361.194;  792.725;  143.475;    0.000
361.257;  812.725;  154.475;    0.000
361.319;  820.725;  176.475;    0.000
361.381;  789.725;  143.475;    0.000
361.443;  789.725;  136.475;    0.000
361.506;  826.725;  160.475;    0.000
361.568;  790.725;  140.475;    0.000
361.630;  824.725;  159.475;    0.000
361.693;  837.725;  162.475;    0.000
361.755;  811.725;  185.475;    0.000
361.817;  839.725;  209.475;    0.000
361.879;  823.725;  161.475;    0.000
361.941;  854.725;  152.475;    0.000
362.004;  849.725;  132.475;    0.000
362.066;  800.725;  159.475;    0.000
362.128;  878.725;  143.475;    0.000
362.190;  852.725;  131.475;    0.000
362.252;  789.725;  131.475;    0.000
362.315;  843.725;  175.475;    0.000
362.377;  834.725;  140.475;    0.000
362.439;  833.725;  140.475;    0.000
362.501;  866.725;  140.475;    0.000
362.563;  835.725;  152.475;    0.000
362.625;  866.725;  174.475;    0.000
362.688;  841.725;  195.475;    0.000
362.750;  869.725;  221.475;    0.000
362.812;  837.725;  171.475;    0.000
362.874;  798.725;  117.475;    0.000
362.936;  915.725;  162.475;    0.000
362.998;  873.725;  142.475;    0.000
363.060;  831.725;  143.475;    0.000
363.122;  801.725;  148.475;    0.000
363.184;  819.725;  179.475;    0.000
363.246;  842.725;  186.475;    0.000
363.308;  793.725;  180.475;    0.000
363.370;  842.725;  200.475;    0.000
363.432;  835.725;  139.475;    0.000
363.494;  868.725;  138.475;    0.000
363.556;  797.725;  114.475;    0.000
363.618;  857.725;  153.475;    0.000
363.680;  829.725;  153.475;    0.000
363.742;  826.725;  178.475;    0.000
363.804;  856.725;  214.475;    0.000
363.866;  869.725;  170.475;    0.000
363.928;  837.725;  145.475;    0.000
363.990;  891.725;  215.475;    0.000
364.052;  847.725;  166.475;    0.000
364.114;  790.725;  168.475;    0.000
364.176;  871.725;  176.475;    0.000
364.238;  859.725;  203.475;    0.000
364.300;  874.725;  158.475;    0.000
364.362;  868.725;  152.475;    0.000
364.424;  853.725;  119.475;    0.000
364.486;  870.725;  187.475;    0.000
364.548;  818.725;  180.475;    0.000
364.609;  849.725;  212.475;    0.000
364.671;  880.725;  165.475;    0.000
364.733;  889.725;  190.475;    0.000
364.795;  917.725;  148.475;    0.000
364.857;  825.725;  159.475;    0.000
364.919;  927.725;  159.475;    0.000
364.981;  862.725;  191.475;    0.000
365.042;  857.725;  170.475;    0.000
365.104;  911.725;  145.475;    0.000
365.166;  837.725;  134.475;    0.000
365.228;  840.725;  150.475;    0.000
365.290;  899.725;  158.475;    0.000
365.351;  879.725;  168.475;    0.000
365.413;  866.725;  173.475;    0.000
365.475;  879.725;  172.475;    0.000
365.537;  876.725;  126.475;    0.000
365.598;  860.725;  160.475;    0.000
365.660;  892.725;  127.475;    0.000
365.722;  847.725;  189.475;    0.000
365.784;  826.725;  161.475;    0.000
365.845;  864.725;  152.475;    0.000
365.907;  918.725;  117.475;    0.000
365.969;  900.725;  146.475;    0.000
366.030;  882.725;  171.475;    0.000
366.092;  895.725;  155.475;    0.000
366.154;  916.725;  137.475;    0.000
366.215;  901.725;  147.475;    0.000
366.277;  894.725;  148.475;    0.000
366.339;  867.725;  158.475;    0.000
366.400;  872.725;  140.475;    0.000
366.462;  848.725;  159.475;    0.000
366.524;  827.725;  160.475;    0.000
366.585;  889.725;  157.475;    0.000
366.647;  900.725;  170.475;    0.000
366.708;  850.725;  123.475;    0.000
366.770;  930.725;  194.475;    0.000
366.832;  892.725;  191.475;    0.000
366.893;  899.725;  155.475;    0.000
366.955;  866.725;  132.475;    0.000
367.016;  883.725;  126.475;    0.000
367.078;  875.725;  202.475;    0.000
367.139;  854.725;  116.475;    0.000
367.201;  900.725;  134.475;    0.000
367.262;  921.725;  157.475;    0.000
367.324;  882.725;  202.475;    0.000
367.385;  866.725;  118.475;    0.000
367.447;  953.725;  155.475;    0.000
367.508;  872.725;  134.475;    0.000
367.570;  915.725;  165.475;    0.000
367.631;  861.725;  118.475;    0.000
367.693;  891.725;  170.475;    0.000
367.754;  905.725;  154.475;    0.000
367.816;  902.725;  146.475;    0.000
367.877;  908.725;  175.475;    0.000
367.939;  913.725;  200.475;    0.000
368.000;  892.725;  168.475;    0.000
368.062;  925.725;  138.475;    0.000
368.123;  947.725;  170.475;    0.000
368.184;  876.725;  188.475;    0.000
368.246;  905.725;  145.475;    0.000
368.307;  916.725;  163.475;    0.000
368.369;  927.725;  144.475;    0.000
368.430;  864.725;  140.475;    0.000
368.491;  892.725;  133.475;    0.000
368.553;  907.725;  145.475;    0.000
368.614;  942.725;  158.475;    0.000
368.675;  892.725;  147.475;    0.000
368.737;  930.725;  157.475;    0.000
368.798;  976.725;  163.475;    0.000
368.859;  930.725;  173.475;    0.000
368.921;  949.725;  122.475;    0.000
368.982;  960.725;  184.475;    0.000
369.043;  931.725;  169.475;    0.000
369.104;  906.725;  142.475;    0.000
369.166;  951.725;  169.475;    0.000
369.227;  923.725;  156.475;    0.000
369.288;  856.725;  151.475;    0.000
369.349;  938.725;  191.475;    0.000
369.411;  921.725;  168.475;    0.000
369.472;  910.725;  155.475;    0.000
369.533;  960.725;  149.475;    0.000
369.594;  940.725;  174.475;    0.000
369.656;  947.725;  188.475;    0.000
369.717;  875.725;  113.475;    0.000
369.778;  949.725;  184.475;    0.000
369.839;  888.725;  151.475;    0.000
369.900;  980.725;  180.475;    0.000
369.961;  886.725;  171.475;    0.000
370.023;  916.725;  143.475;    0.000
370.084;  961.725;  137.475;    0.000
370.145;  950.725;  152.475;    0.000
370.206;  938.725;  151.475;    0.000
370.267;  903.725;  134.475;    0.000
370.328;  972.725;  178.475;    0.000
370.389;  981.725;  181.475;    0.000
370.451;  947.725;  169.475;    0.000
370.512;  951.725;  172.475;    0.000
370.573;  908.725;  148.475;    0.000
370.634; 1054.725;  156.475;    0.000
370.695;  937.725;  151.475;    0.000
370.756;  974.725;  185.475;    0.000
370.817;  998.725;  185.475;    0.000
370.878;  994.725;  191.475;    0.000
370.939;  969.725;  147.475;    0.000
371.000;  925.725;  162.475;    0.000
371.061;  995.725;  145.475;    0.000
371.122;  957.725;  179.475;    0.000
371.183;  919.725;  114.475;    0.000
371.244;  971.725;  180.475;    0.000
371.305;  963.725;  138.475;    0.000
371.366; 1000.725;  157.475;    0.000
371.427;  929.725;  148.475;    0.000
371.488; 1004.725;  138.475;    0.000
371.549;  962.725;  193.475;    0.000
371.610;  954.725;  158.475;    0.000
371.671;  898.725;  119.475;    0.000
371.732;  947.725;  159.475;    0.000
371.793;  972.725;  178.475;    0.000
371.853;  935.725;  155.475;    0.000
371.914;  993.725;  148.475;    0.000
371.975;  937.725;  124.475;    0.000
372.036;  954.725;  158.475;    0.000
372.097;  922.725;  136.475;    0.000
372.158;  972.725;  116.475;    0.000
372.219; 1007.725;  157.475;    0.000
372.280; 1055.725;  151.475;    0.000
372.340;  979.725;  190.475;    0.000
372.401;  977.725;  151.475;    0.000
372.462;  912.725;  129.475;    0.000
372.523; 1006.725;  121.475;    0.000
372.584; 1008.725;  152.475;    0.000
372.645;  986.725;  132.475;    0.000
372.705;  995.725;  190.475;    0.000
372.766; 1010.725;  153.475;    0.000
372.827; 1011.725;  133.475;    0.000
372.888;  974.725;  161.475;    0.000
372.948;  963.725;  159.475;    0.000
373.009;  970.725;  164.475;    0.000
373.070; 1033.725;  139.475;    0.000
373.131;  994.725;  137.475;    0.000
373.191; 1001.725;  181.475;    0.000
373.252; 1018.725;  154.475;    0.000
373.313; 1001.725;  179.475;    0.000
373.373;  985.725;  136.475;    0.000
373.434; 1051.725;  169.475;    0.000
373.495;  973.725;   97.475;    0.000
373.555; 1013.725;  142.475;    0.000
373.616;  981.725;  178.475;    0.000
373.677;  983.725;  167.475;    0.000
373.737; 1006.725;  139.475;    0.000
373.798; 1035.725;  155.475;    0.000
373.859; 1001.725;  162.475;    0.000
373.919; 1037.725;  174.475;    0.000
373.980; 1034.725;  172.475;    0.000
374.041; 1001.725;  166.475;    0.000
374.101; 1022.725;  172.475;    0.000
374.162; 1025.725;  188.475;    0.000
374.222;  997.725;  186.475;    0.000
374.283; 1049.725;  195.475;    0.000
374.343; 1061.725;  204.475;    0.000
374.404; 1027.725;  187.475;    0.000
374.465; 1041.725;  183.475;    0.000
374.525; 1019.725;  136.475;    0.000
374.586;  999.725;  140.475;    0.000
374.646; 1031.725;  191.475;    0.000
374.707; 1084.725;  208.475;    0.000
374.767; 1061.725;  178.475;    0.000
374.828; 1000.725;  159.475;    0.000
374.888; 1064.725;  143.475;    0.000
374.949; 1074.725;  202.475;    0.000
375.009;  978.725;  151.475;    0.000
375.070; 1091.725;  160.475;    0.000
375.130; 1074.725;  160.475;    0.000
375.190; 1038.725;  164.475;    0.000
375.251; 1055.725;  196.475;    0.000
375.311; 1049.725;  154.475;    0.000
375.372; 1008.725;  197.475;    0.000
375.432; 1047.725;  159.475;    0.000
375.493; 1071.725;  197.475;    0.000
375.553;  984.725;  165.475;    0.000
375.613; 1027.725;  174.475;    0.000
375.674; 1020.725;  165.475;    0.000
375.734; 1006.725;  128.475;    0.000
375.794;  960.725;  169.475;    0.000
375.855; 1002.725;  193.475;    0.000
375.915; 1052.725;  162.475;    0.000
375.975; 1026.725;  181.475;    0.000
376.036;  995.725;  161.475;    0.000
376.096; 1034.725;  131.475;    0.000
376.156; 1055.725;  165.475;    0.000
376.217; 1084.725;  182.475;    0.000
376.277; 1099.725;  185.475;    0.000
376.337;  994.725;  177.475;    0.000
376.398;  999.725;  162.475;    0.000
376.458; 1100.725;  179.475;    0.000
376.518; 1036.725;  150.475;    0.000
376.578; 1024.725;  165.475;    0.000
376.639; 1039.725;  159.475;    0.000
376.699;  978.725;  180.475;    0.000
376.759; 1044.725;  206.475;    0.000
376.819; 1062.725;  146.475;    0.000
376.880; 1060.725;  177.475;    0.000
376.940; 1064.725;  160.475;    0.000
377.000; 1039.725;  149.475;    0.000
377.060; 1118.725;  180.475;    0.000
377.120; 1095.725;  146.475;    0.000
377.180; 1074.725;  137.475;    0.000
377.241; 1034.725;  163.475;    0.000
377.301; 1094.725;  169.475;    0.000
377.361; 1057.725;  137.475;    0.000
377.421; 1050.725;  184.475;    0.000
377.481; 1073.725;  185.475;    0.000
377.541; 1087.725;  146.475;    0.000
377.601; 1157.725;  179.475;    0.000
377.661; 1093.725;  181.475;    0.000
377.722; 1071.725;  185.475;    0.000
377.782; 1063.725;  147.475;    0.000
377.842; 1154.725;  190.475;    0.000
377.902; 1047.725;  166.475;    0.000
377.962; 1099.725;  153.475;    0.000
378.022; 1126.725;  163.475;    0.000
378.082; 1084.725;  146.475;    0.000
378.142; 1145.725;  152.475;    0.000
378.202; 1162.725;  164.475;    0.000
378.262; 1136.725;  195.475;    0.000
378.322; 1093.725;  190.475;    0.000
378.382; 1086.725;  152.475;    0.000
378.442; 1115.725;  175.475;    0.000
378.502; 1097.725;  153.475;    0.000
378.562; 1088.725;  142.475;    0.000
378.622; 1165.725;  166.475;    0.000
378.682; 1183.725;  173.475;    0.000
378.742; 1176.725;  182.475;    0.000
378.802; 1147.725;  145.475;    0.000
378.862; 1206.725;  210.475;    0.000
378.921; 1143.725;  182.475;    0.000
378.981; 1156.725;  185.475;    0.000
379.041; 1216.725;  130.475;    0.000
379.101; 1154.725;  177.475;    0.000
379.161; 1171.725;  166.475;    0.000
379.221; 1164.725;  162.475;    0.000
379.281; 1236.725;  167.475;    0.000
379.341; 1180.725;  136.475;    0.000
379.401; 1131.725;  145.475;    0.000
379.460; 1258.725;  176.475;    0.000
379.520; 1220.725;  162.475;    0.000
379.580; 1248.725;  144.475;    0.000
379.640; 1240.725;  163.475;    0.000
379.700; 1216.725;  157.475;    0.000
379.759; 1195.725;  165.475;    0.000
379.819; 1156.725;  190.475;    0.000
379.879; 1170.725;  143.475;    0.000
379.939; 1266.725;  188.475;    0.000
379.999; 1150.725;  141.475;    0.000
380.058; 1220.725;  169.475;    0.000
380.118; 1238.725;  158.475;    0.000
380.178; 1229.725;  114.475;    0.000
380.237; 1327.725;  157.475;    0.000
380.297; 1211.725;  177.475;    0.000
380.357; 1318.725;  189.475;    0.000
380.417; 1269.725;  182.475;    0.000
380.476; 1275.725;  178.475;    0.000
380.536; 1256.725;  189.475;    0.000
380.596; 1238.725;  183.475;    0.000
380.655; 1263.725;  195.475;    0.000
380.715; 1283.725;  170.475;    0.000
380.775; 1254.725;  170.475;    0.000
380.834; 1300.725;  179.475;    0.000
380.894; 1263.725;  188.475;    0.000
380.954; 1302.725;  142.475;    0.000
381.013; 1300.725;  178.475;    0.000
381.073; 1247.725;  164.475;    0.000
381.132; 1344.725;  192.475;    0.000
381.192; 1346.725;  187.475;    0.000
381.252; 1345.725;  176.475;    0.000
381.311; 1358.725;  206.475;    0.000
381.371; 1310.725;  167.475;    0.000
381.430; 1336.725;  131.475;    0.000
381.490; 1315.725;  150.475;    0.000
381.549; 1383.725;  129.475;    0.000
381.609; 1361.725;  178.475;    0.000
381.668; 1347.725;  194.475;    0.000
381.728; 1386.725;  210.475;    0.000
381.787; 1404.725;  190.475;    0.000
381.847; 1314.725;  181.475;    0.000
381.906; 1415.725;  156.475;    0.000
381.966; 1464.725;  176.475;    0.000
382.025; 1491.725;  186.475;    0.000
382.085; 1388.725;  192.475;    0.000
382.144; 1467.725;  173.475;    0.000
382.204; 1476.725;  207.475;    0.000
382.263; 1460.725;  193.475;    0.000
382.323; 1552.725;  164.475;    0.000
382.382; 1492.725;  161.475;    0.000
382.441; 1582.725;  199.475;    0.000
382.501; 1562.725;  208.475;    0.000
382.560; 1598.725;  173.475;    0.000
382.619; 1582.725;  179.475;    0.000
382.679; 1676.725;  177.475;    0.000
382.738; 1753.725;  190.475;    0.000
382.798; 1853.725;  213.475;    0.000
382.857; 2021.725;  195.475;    0.000
382.916; 2253.725;  184.475;    0.000
382.976; 2220.725;  169.475;    0.000
383.035; 2201.725;  194.475;    0.000
383.094; 2137.725;  185.475;    0.000
383.154; 2345.725;  198.475;    0.000
383.213; 2853.725;  147.475;    0.000
383.272; 2712.725;  175.475;    0.000
383.331; 2173.725;  122.475;    0.000
383.391; 2099.725;  185.475;    0.000
383.450; 1959.725;  160.475;    0.000
383.509; 2075.725;  168.475;    0.000
383.568; 2156.725;  196.475;    0.000
383.628; 2235.725;  156.475;    0.000
383.687; 2316.725;  171.475;    0.000
383.746; 2526.725;  155.475;    0.000
383.805; 3046.725;  201.475;    0.000
383.864; 3038.725;  125.475;    0.000
383.924; 2448.725;  213.475;    0.000
383.983; 2066.725;  188.475;    0.000
384.042; 1883.725;  162.475;    0.000
384.101; 1787.725;  183.475;    0.000
384.160; 1693.725;  155.475;    0.000
384.219; 1672.725;  155.475;    0.000
384.279; 1629.725;  189.475;    0.000
384.338; 1604.725;  156.475;    0.000
384.397; 1580.725;  148.475;    0.000
384.456; 1577.725;  154.475;    0.000
384.515; 1472.725;  160.475;    0.000
384.574; 1525.725;  223.475;    0.000
384.633; 1520.725;  133.475;    0.000
384.692; 1506.725;  163.475;    0.000
384.751; 1475.725;  186.475;    0.000
384.810; 1470.725;  187.475;    0.000
384.869; 1479.725;  172.475;    0.000
384.929; 1500.725;  153.475;    0.000
384.988; 1419.725;  174.475;    0.000
385.047; 1462.725;  154.475;    0.000
385.106; 1433.725;  164.475;    0.000
385.165; 1342.725;  151.475;    0.000
385.224; 1430.725;  147.475;    0.000
385.283; 1452.725;  176.475;    0.000
385.342; 1393.725;  142.475;    0.000
385.401; 1499.725;  175.475;    0.000
385.459; 1395.725;  150.475;    0.000
385.518; 1431.725;  124.475;    0.000
385.577; 1406.725;  115.475;    0.000
385.636; 1501.725;  174.475;    0.000
385.695; 1380.725;  158.475;    0.000
385.754; 1416.725;  150.475;    0.000
385.813; 1428.725;  129.475;    0.000
385.872; 1361.725;  146.475;    0.000
385.931; 1457.725;  194.475;    0.000
385.990; 1446.725;  174.475;    0.000
386.049; 1490.725;  176.475;    0.000
386.107; 1462.725;  151.475;    0.000
386.166; 1465.725;  178.475;    0.000
386.225; 1439.725;  162.475;    0.000
386.284; 1421.725;  180.475;    0.000
386.343; 1393.725;  171.475;    0.000
386.402; 1389.725;  176.475;    0.000
386.460; 1433.725;  144.475;    0.000
386.519; 1396.725;  140.475;    0.000
386.578; 1413.725;  145.475;    0.000
386.637; 1419.725;  164.475;    0.000
386.696; 1449.725;  189.475;    0.000
386.754; 1339.725;  135.475;    0.000
386.813; 1366.725;  139.475;    0.000
386.872; 1441.725;  121.475;    0.000
386.931; 1422.725;  153.475;    0.000
386.989; 1415.725;  211.475;    0.000
387.048; 1378.725;  156.475;    0.000
387.107; 1421.725;  210.475;    0.000
387.165; 1369.725;  129.475;    0.000
387.224; 1361.725;  205.475;    0.000
387.283; 1394.725;  130.475;    0.000
387.342; 1311.725;  171.475;    0.000
387.400; 1403.725;  156.475;    0.000
387.459; 1335.725;  141.475;    0.000
387.517; 1417.725;  219.475;    0.000
387.576; 1379.725;  166.475;    0.000
387.635; 1440.725;  136.475;    0.000
387.693; 1466.725;  191.475;    0.000
387.752; 1424.725;  165.475;    0.000
387.811; 1437.725;  158.475;    0.000
387.869; 1424.725;  204.475;    0.000
387.928; 1430.725;  149.475;    0.000
387.986; 1397.725;  156.475;    0.000
388.045; 1346.725;  123.475;    0.000
388.103; 1425.725;  150.475;    0.000
388.162; 1408.725;  173.475;    0.000
388.221; 1389.725;  143.475;    0.000
388.279; 1357.725;  129.475;    0.000
388.338; 1459.725;  212.475;    0.000
388.396; 1331.725;  150.475;    0.000
388.455; 1382.725;  167.475;    0.000
388.513; 1311.725;  116.475;    0.000
388.572; 1379.725;  181.475;    0.000
388.630; 1414.725;  187.475;    0.000
388.689; 1354.725;  180.475;    0.000
388.747; 1381.725;  154.475;    0.000
388.806; 1378.725;  161.475;    0.000
388.864; 1380.725;  167.475;    0.000
388.922; 1403.725;  184.475;    0.000
388.981; 1383.725;  169.475;    0.000
389.039; 1403.725;  102.475;    0.000
389.098; 1345.725;  183.475;    0.000
389.156; 1450.725;  182.475;    0.000
389.214; 1418.725;  173.475;    0.000
389.273; 1448.725;  167.475;    0.000
389.331; 1398.725;  170.475;    0.000
389.390; 1347.725;  150.475;    0.000
389.448; 1417.725;  156.475;    0.000
389.506; 1383.725;  149.475;    0.000
389.565; 1400.725;  162.475;    0.000
389.623; 1355.725;  188.475;    0.000
389.681; 1442.725;  204.475;    0.000
389.740; 1427.725;  187.475;    0.000
389.798; 1396.725;  153.475;    0.000
389.856; 1472.725;  214.475;    0.000
389.914; 1376.725;  177.475;    0.000
389.973; 1329.725;  189.475;    0.000
390.031; 1394.725;  178.475;    0.000
390.089; 1372.725;  163.475;    0.000
390.147; 1374.725;  170.475;    0.000
390.206; 1406.725;  183.475;    0.000
390.264; 1345.725;  161.475;    0.000
390.322; 1395.725;  148.475;    0.000
390.380; 1326.725;  138.475;    0.000
390.439; 1317.725;  194.475;    0.000
390.497; 1385.725;  170.475;    0.000
390.555; 1353.725;  165.475;    0.000
390.613; 1372.725;  177.475;    0.000
390.671; 1405.725;  170.475;    0.000
390.729; 1413.725;  158.475;    0.000
390.788; 1357.725;  162.475;    0.000
390.846; 1359.725;  161.475;    0.000
390.904; 1342.725;  197.475;    0.000
390.962; 1397.725;  212.475;    0.000
391.020; 1427.725;  224.475;    0.000
391.078; 1367.725;  184.475;    0.000
391.136; 1442.725;  191.475;    0.000
391.194; 1411.725;  187.475;    0.000
391.253; 1405.725;  197.475;    0.000
391.311; 1390.725;  185.475;    0.000
391.369; 1416.725;  207.475;    0.000
391.427; 1435.725;  222.475;    0.000
391.485; 1408.725;  184.475;    0.000
391.543; 1469.725;  203.475;    0.000
391.601; 1381.725;  151.475;    0.000
391.659; 1432.725;  176.475;    0.000
391.717; 1424.725;  190.475;    0.000
391.775; 1390.725;  159.475;    0.000
391.833; 1363.725;  186.475;    0.000
391.891; 1477.725;  154.475;    0.000
391.949; 1488.725;  181.475;    0.000
392.007; 1388.725;  190.475;    0.000
392.065; 1413.725;  182.475;    0.000
392.123; 1438.725;  158.475;    0.000
392.180; 1479.725;  198.475;    0.000
392.238; 1492.725;  191.475;    0.000
392.296; 1424.725;  164.475;    0.000
392.354; 1429.725;  172.475;    0.000
392.412; 1443.725;  194.475;    0.000
392.470; 1448.725;  154.475;    0.000
392.528; 1414.725;  172.475;    0.000
392.586; 1432.725;  179.475;    0.000
392.644; 1479.725;  173.475;    0.000
392.701; 1414.725;  202.475;    0.000
392.759; 1422.725;  180.475;    0.000
392.817; 1421.725;  181.475;    0.000
392.875; 1514.725;  168.475;    0.000
392.933; 1484.725;  161.475;    0.000
392.991; 1397.725;  216.475;    0.000
393.048; 1407.725;  197.475;    0.000
393.106; 1499.725;  199.475;    0.000
393.164; 1421.725;  173.475;    0.000
393.222; 1394.725;  179.475;    0.000
393.279; 1527.725;  209.475;    0.000
393.337; 1536.725;  185.475;    0.000
393.395; 1518.725;  174.475;    0.000
393.453; 1455.725;  181.475;    0.000
393.510; 1477.725;  188.475;    0.000
393.568; 1494.725;  191.475;    0.000
393.626; 1454.725;  151.475;    0.000
393.684; 1511.725;  208.475;    0.000
393.741; 1484.725;  179.475;    0.000
393.799; 1379.725;  149.475;    0.000
393.857; 1447.725;  136.475;    0.000
393.914; 1487.725;  190.475;    0.000
393.972; 1444.725;  155.475;    0.000
394.030; 1462.725;  170.475;    0.000
394.087; 1510.725;  213.475;    0.000
394.145; 1492.725;  191.475;    0.000
394.202; 1506.725;  188.475;    0.000
394.260; 1424.725;  168.475;    0.000
394.318; 1485.725;  176.475;    0.000
394.375; 1519.725;  159.475;    0.000
394.433; 1552.725;  168.475;    0.000
394.490; 1445.725;  163.475;    0.000
394.548; 1416.725;  163.475;    0.000
394.605; 1473.725;  181.475;    0.000
394.663; 1456.725;  180.475;    0.000
394.720; 1484.725;  193.475;    0.000
394.778; 1425.725;  168.475;    0.000
394.836; 1424.725;  128.475;    0.000
394.893; 1433.725;  151.475;    0.000
394.951; 1486.725;  173.475;    0.000
395.008; 1482.725;  201.475;    0.000
395.065; 1521.725;  139.475;    0.000
395.123; 1540.725;  173.475;    0.000
395.180; 1483.725;  144.475;    0.000
395.238; 1459.725;  135.475;    0.000
395.295; 1493.725;  167.475;    0.000
395.353; 1473.725;  150.475;    0.000
395.410; 1452.725;  165.475;    0.000
395.468; 1544.725;  223.475;    0.000
395.525; 1442.725;  156.475;    0.000
395.582; 1509.725;  178.475;    0.000
395.640; 1525.725;  178.475;    0.000
395.697; 1524.725;  173.475;    0.000
395.754; 1584.725;  154.475;    0.000
395.812; 1483.725;  169.475;    0.000
395.869; 1509.725;  196.475;    0.000
395.927; 1525.725;  190.475;    0.000
395.984; 1572.725;  195.475;    0.000
396.041; 1512.725;  160.475;    0.000
396.098; 1516.725;  161.475;    0.000
396.156; 1589.725;  187.475;    0.000
396.213; 1527.725;  200.475;    0.000
396.270; 1578.725;  160.475;    0.000
396.328; 1592.725;  113.475;    0.000
396.385; 1538.725;  165.475;    0.000
396.442; 1533.725;  168.475;    0.000
396.499; 1534.725;  117.475;    0.000
396.557; 1581.725;  203.475;    0.000
396.614; 1574.725;  155.475;    0.000
396.671; 1551.725;  187.475;    0.000
396.728; 1505.725;  169.475;    0.000
396.785; 1539.725;  167.475;    0.000
396.843; 1645.725;  154.475;    0.000
396.900; 1621.725;  172.475;    0.000
396.957; 1606.725;  176.475;    0.000
397.014; 1665.725;  193.475;    0.000
397.071; 1618.725;  170.475;    0.000
397.128; 1525.725;  172.475;    0.000
397.186; 1557.725;  205.475;    0.000
397.243; 1635.725;  163.475;    0.000
397.300; 1641.725;  193.475;    0.000
397.357; 1545.725;  166.475;    0.000
397.414; 1617.725;  149.475;    0.000
397.471; 1523.725;  157.475;    0.000
397.528; 1578.725;  180.475;    0.000
397.585; 1641.725;  203.475;    0.000
397.642; 1633.725;  156.475;    0.000
397.699; 1607.725;  229.475;    0.000
397.756; 1590.725;  185.475;    0.000
397.814; 1667.725;  191.475;    0.000
397.871; 1671.725;  170.475;    0.000
397.928; 1669.725;  191.475;    0.000
397.985; 1632.725;  183.475;    0.000
398.042; 1677.725;  161.475;    0.000
398.099; 1598.725;  192.475;    0.000
398.156; 1656.725;  176.475;    0.000
398.212; 1665.725;  170.475;    0.000
398.269; 1680.725;  158.475;    0.000
398.326; 1651.725;  175.475;    0.000
398.383; 1695.725;  177.475;    0.000
398.440; 1692.725;  169.475;    0.000
398.497; 1665.725;  184.475;    0.000
398.554; 1632.725;  196.475;    0.000
398.611; 1664.725;  198.475;    0.000
398.668; 1762.725;  135.475;    0.000
398.725; 1698.725;  181.475;    0.000
398.782; 1703.725;  195.475;    0.000
398.839; 1712.725;  179.475;    0.000
398.895; 1678.725;  188.475;    0.000
398.952; 1701.725;  176.475;    0.000
399.009; 1715.725;  183.475;    0.000
399.066; 1718.725;  190.475;    0.000
399.123; 1760.725;  174.475;    0.000
399.180; 1759.725;  191.475;    0.000
399.236; 1695.725;  217.475;    0.000
399.293; 1838.725;  154.475;    0.000
399.350; 1791.725;  210.475;    0.000
399.407; 1832.725;  202.475;    0.000
399.463; 1848.725;  162.475;    0.000
399.520; 1730.725;  207.475;    0.000
399.577; 1807.725;  174.475;    0.000
399.634; 1862.725;  170.475;    0.000
399.690; 1788.725;  186.475;    0.000
399.747; 1862.725;  218.475;    0.000
399.804; 1831.725;  200.475;    0.000
399.861; 1840.725;  190.475;    0.000
399.917; 1915.725;  218.475;    0.000
399.974; 1926.725;  200.475;    0.000
400.031; 1791.725;  200.475;    0.000
400.087; 1786.725;  153.475;    0.000
400.144; 1788.725;  188.475;    0.000
400.201; 1850.725;  198.475;    0.000
400.257; 1803.725;  205.475;    0.000
400.314; 1896.725;  183.475;    0.000
400.370; 1789.725;  227.475;    0.000
400.427; 1852.725;  177.475;    0.000
400.484; 1777.725;  202.475;    0.000
400.540; 1778.725;  173.475;    0.000
400.597; 1736.725;  212.475;    0.000
400.653; 1775.725;  182.475;    0.000
400.710; 1814.725;  201.475;    0.000
400.766; 1801.725;  188.475;    0.000
400.823; 1827.725;  205.475;    0.000
400.879; 1802.725;  165.475;    0.000
400.936; 1742.725;  180.475;    0.000
400.993; 1733.725;  181.475;    0.000
401.049; 1741.725;  147.475;    0.000
401.105; 1784.725;  205.475;    0.000
401.162; 1793.725;  197.475;    0.000
401.218; 1749.725;  177.475;    0.000
401.275; 1795.725;  183.475;    0.000
401.331; 1753.725;  198.475;    0.000
401.388; 1786.725;  209.475;    0.000
401.444; 1793.725;  211.475;    0.000
401.501; 1825.725;  185.475;    0.000
401.557; 1740.725;  190.475;    0.000
401.614; 1787.725;  172.475;    0.000
401.670; 1779.725;  185.475;    0.000
401.726; 1741.725;  196.475;    0.000
401.783; 1775.725;  187.475;    0.000
401.839; 1756.725;  192.475;    0.000
401.895; 1762.725;  173.475;    0.000
401.952; 1756.725;  145.475;    0.000
402.008; 1733.725;  197.475;    0.000
402.064; 1672.725;  146.475;    0.000
402.121; 1752.725;  197.475;    0.000
402.177; 1835.725;  173.475;    0.000
402.233; 1750.725;  185.475;    0.000
402.290; 1799.725;  175.475;    0.000
402.346; 1794.725;  164.475;    0.000
402.402; 1792.725;  173.475;    0.000
402.458; 1776.725;  183.475;    0.000
402.515; 1803.725;  147.475;    0.000
402.571; 1836.725;  210.475;    0.000
402.627; 1719.725;  181.475;    0.000
402.683; 1750.725;  177.475;    0.000
402.740; 1728.725;  162.475;    0.000
402.796; 1782.725;  178.475;    0.000
402.852; 1726.725;  138.475;    0.000
402.908; 1862.725;  181.475;    0.000
402.964; 1837.725;  151.475;    0.000
403.021; 1832.725;  170.475;    0.000
403.077; 1819.725;  204.475;    0.000
403.133; 1783.725;  144.475;    0.000
403.189; 1903.725;  207.475;    0.000
403.245; 1853.725;  184.475;    0.000
403.301; 1850.725;  170.475;    0.000
403.357; 1860.725;  201.475;    0.000
403.414; 1834.725;  205.475;    0.000
403.470; 1790.725;  170.475;    0.000
403.526; 1807.725;  135.475;    0.000
403.582; 1889.725;  180.475;    0.000
403.638; 1886.725;  185.475;    0.000
403.694; 1903.725;  169.475;    0.000
403.750; 1873.725;  210.475;    0.000
403.806; 1896.725;  210.475;    0.000
403.862; 1903.725;  219.475;    0.000
403.918; 1853.725;  191.475;    0.000
403.974; 1796.725;  193.475;    0.000
404.030; 1853.725;  154.475;    0.000
404.086; 1836.725;  170.475;    0.000
404.142; 1862.725;  194.475;    0.000
404.198; 1891.725;  224.475;    0.000
404.254; 1822.725;  177.475;    0.000
404.310; 1865.725;  204.475;    0.000
404.366; 1882.725;  170.475;    0.000
404.422; 1903.725;  172.475;    0.000
404.478; 1874.725;  153.475;    0.000
404.534; 1801.725;  159.475;    0.000
404.590; 1791.725;  203.475;    0.000
404.646; 1935.725;  164.475;    0.000
404.701; 1808.725;  141.475;    0.000
404.757; 1823.725;  195.475;    0.000
404.813; 1859.725;  152.475;    0.000
404.869; 1860.725;  174.475;    0.000
404.925; 1816.725;  167.475;    0.000
404.981; 1856.725;  175.475;    0.000
405.037; 1886.725;  170.475;    0.000
405.092; 1896.725;  155.475;    0.000
405.148; 1836.725;  160.475;    0.000
405.204; 1868.725;  158.475;    0.000
405.260; 1906.725;  128.475;    0.000
405.316; 1785.725;  168.475;    0.000
405.371; 1902.725;  162.475;    0.000
405.427; 1954.725;  187.475;    0.000
405.483; 1938.725;  214.475;    0.000
405.539; 1891.725;  163.475;    0.000
405.594; 1917.725;  191.475;    0.000
405.650; 1881.725;  124.475;    0.000
405.706; 1959.725;  188.475;    0.000
405.761; 1871.725;  204.475;    0.000
405.817; 1836.725;  150.475;    0.000
405.873; 1889.725;  152.475;    0.000
405.928; 1917.725;  135.475;    0.000
405.984; 1940.725;  209.475;    0.000
406.040; 1940.725;  165.475;    0.000
406.095; 1948.725;  146.475;    0.000
406.151; 1947.725;  169.475;    0.000
406.207; 1971.725;  174.475;    0.000
406.262; 1998.725;  189.475;    0.000
406.318; 1992.725;  141.475;    0.000
406.374; 1860.725;  178.475;    0.000
406.429; 1986.725;  197.475;    0.000
406.485; 2034.725;  194.475;    0.000
406.540; 2001.725;  149.475;    0.000
406.596; 1938.725;  173.475;    0.000
406.651; 1996.725;  154.475;    0.000
406.707; 1863.725;  183.475;    0.000
406.763; 1949.725;  156.475;    0.000
406.818; 1999.725;  181.475;    0.000
406.874; 2007.725;  135.475;    0.000
406.929; 2064.725;  194.475;    0.000
406.985; 2002.725;  166.475;    0.000
407.040; 2049.725;  207.475;    0.000
407.095; 2038.725;  213.475;    0.000
407.151; 2050.725;  198.475;    0.000
407.206; 2000.725;  186.475;    0.000
407.262; 2053.725;  148.475;    0.000
407.317; 2157.725;  212.475;    0.000
407.373; 2047.725;  209.475;    0.000
407.428; 2087.725;  218.475;    0.000
407.484; 2102.725;  158.475;    0.000
407.539; 2103.725;  165.475;    0.000
407.594; 2139.725;  197.475;    0.000
407.650; 2124.725;  177.475;    0.000
407.705; 2142.725;  154.475;    0.000
407.760; 2049.725;  198.475;    0.000
407.816; 2180.725;  181.475;    0.000
407.871; 2110.725;  185.475;    0.000
407.926; 2094.725;  167.475;    0.000
407.982; 2083.725;  172.475;    0.000
408.037; 2059.725;  202.475;    0.000
408.092; 2036.725;  201.475;    0.000
408.148; 2113.725;  199.475;    0.000
408.203; 2069.725;  174.475;    0.000
408.258; 2090.725;  157.475;    0.000
408.314; 2138.725;  194.475;    0.000
408.369; 2152.725;  189.475;    0.000
408.424; 2105.725;  204.475;    0.000
408.479; 2111.725;  192.475;    0.000
408.534; 2063.725;  215.475;    0.000
408.590; 2075.725;  190.475;    0.000
408.645; 2066.725;  159.475;    0.000
408.700; 2051.725;  191.475;    0.000
408.755; 2044.725;  217.475;    0.000
408.810; 2088.725;  158.475;    0.000
408.866; 2018.725;  166.475;    0.000
408.921; 2097.725;  214.475;    0.000
408.976; 2062.725;  158.475;    0.000
409.031; 2084.725;  185.475;    0.000
409.086; 1988.725;  158.475;    0.000
409.141; 2079.725;  180.475;    0.000
409.196; 2047.725;  188.475;    0.000
409.252; 2089.725;  186.475;    0.000
409.307; 2038.725;  135.475;    0.000
409.362; 2062.725;  162.475;    0.000
409.417; 2094.725;  149.475;    0.000
409.472; 2178.725;  205.475;    0.000
409.527; 2099.725;  184.475;    0.000
409.582; 2185.725;  174.475;    0.000
409.637; 2075.725;  188.475;    0.000
409.692; 2089.725;  211.475;    0.000
409.747; 2043.725;  159.475;    0.000
409.802; 2094.725;  199.475;    0.000
409.857; 2125.725;  118.475;    0.000
409.912; 2072.725;  177.475;    0.000
409.967; 2007.725;  182.475;    0.000
410.022; 2054.725;  188.475;    0.000
410.077; 2057.725;  204.475;    0.000
410.132; 2145.725;  174.475;    0.000
410.187; 2030.725;  169.475;    0.000
410.242; 2030.725;  178.475;    0.000
410.297; 2005.725;  185.475;    0.000
410.351; 2101.725;  203.475;    0.000
410.406; 2099.725;  180.475;    0.000
410.461; 2057.725;  213.475;    0.000
410.516; 2053.725;  198.475;    0.000
410.571; 2025.725;  171.475;    0.000
410.626; 2123.725;  186.475;    0.000
410.681; 2064.725;  187.475;    0.000
410.736; 2005.725;  147.475;    0.000
410.790; 2135.725;  186.475;    0.000
410.845; 2117.725;  152.475;    0.000
410.900; 2146.725;  202.475;    0.000
410.955; 2158.725;  196.475;    0.000
411.010; 2053.725;  150.475;    0.000
411.064; 2056.725;  200.475;    0.000
411.119; 2055.725;  203.475;    0.000
411.174; 2029.725;  176.475;    0.000
411.229; 2087.725;  203.475;    0.000
411.283; 2065.725;  176.475;    0.000
411.338; 2078.725;  153.475;    0.000
411.393; 2032.725;  168.475;    0.000
411.447; 2067.725;  223.475;    0.000
411.502; 2156.725;  238.475;    0.000
411.557; 2063.725;  179.475;    0.000
411.612; 2105.725;  159.475;    0.000
411.666; 2120.725;  189.475;    0.000
411.721; 2076.725;  212.475;    0.000
411.776; 2138.725;  242.475;    0.000
411.830; 2126.725;  194.475;    0.000
411.885; 2049.725;  188.475;    0.000
411.939; 2140.725;  245.475;    0.000
411.994; 2068.725;  177.475;    0.000
412.049; 2073.725;  170.475;    0.000
412.103; 2099.725;  196.475;    0.000
412.158; 2113.725;  215.475;    0.000
412.212; 2160.725;  199.475;    0.000
412.267; 2106.725;  191.475;    0.000
412.322; 2145.725;  238.475;    0.000
412.376; 2088.725;  243.475;    0.000
412.431; 2059.725;  214.475;    0.000
412.485; 2158.725;  210.475;    0.000
412.540; 2027.725;  200.475;    0.000
412.594; 2091.725;  174.475;    0.000
412.649; 2190.725;  246.475;    0.000
412.703; 2078.725;  182.475;    0.000
412.758; 2179.725;  222.475;    0.000
412.812; 2066.725;  201.475;    0.000
412.866; 2116.725;  162.475;    0.000
412.921; 2027.725;  202.475;    0.000
412.975; 2007.725;  212.475;    0.000
413.030; 2078.725;  238.475;    0.000
413.084; 2105.725;  201.475;    0.000
413.139; 2082.725;  210.475;    0.000
413.193; 2082.725;  218.475;    0.000
413.247; 2096.725;  203.475;    0.000
413.302; 2011.725;  176.475;    0.000
413.356; 2117.725;  215.475;    0.000
413.410; 2073.725;  204.475;    0.000
413.465; 2085.725;  186.475;    0.000
413.519; 2060.725;  196.475;    0.000
413.573; 2028.725;  181.475;    0.000
413.628; 2065.725;  200.475;    0.000
413.682; 2087.725;  157.475;    0.000
413.736; 2127.725;  194.475;    0.000
413.791; 2072.725;  193.475;    0.000
413.845; 2024.725;  225.475;    0.000
413.899; 2125.725;  195.475;    0.000
413.953; 2044.725;  173.475;    0.000
414.008; 2124.725;  186.475;    0.000
414.062; 2062.725;  217.475;    0.000
414.116; 2104.725;  169.475;    0.000
414.170; 2121.725;  228.475;    0.000
414.225; 2018.725;  177.475;    0.000
414.279; 2074.725;  210.475;    0.000
414.333; 2225.725;  207.475;    0.000
414.387; 2024.725;  217.475;    0.000
414.441; 2077.725;  187.475;    0.000
414.496; 2013.725;  215.475;    0.000
414.550; 2099.725;  204.475;    0.000
414.604; 2137.725;  206.475;    0.000
414.658; 2042.725;  139.475;    0.000
414.712; 2105.725;  198.475;    0.000
414.766; 2065.725;  208.475;    0.000
414.820; 2148.725;  199.475;    0.000
414.874; 2163.725;  216.475;    0.000
414.928; 2099.725;  186.475;    0.000
414.982; 2065.725;  176.475;    0.000
415.037; 2091.725;  181.475;    0.000
415.091; 2058.725;  208.475;    0.000
415.145; 2144.725;  209.475;    0.000
415.199; 1996.725;  186.475;    0.000
415.253; 2163.725;  203.475;    0.000
415.307; 2076.725;  197.475;    0.000
415.361; 2117.725;  223.475;    0.000
415.415; 2084.725;  213.475;    0.000
415.469; 2118.725;  226.475;    0.000
415.523; 2164.725;  222.475;    0.000
415.577; 2114.725;  205.475;    0.000
415.631; 2103.725;  224.475;    0.000
415.684; 2096.725;  193.475;    0.000
415.738; 2067.725;  224.475;    0.000
415.792; 2040.725;  204.475;    0.000
415.846; 2131.725;  189.475;    0.000
415.900; 2062.725;  223.475;    0.000
415.954; 2084.725;  187.475;    0.000
416.008; 2054.725;  237.475;    0.000
416.062; 2062.725;  195.475;    0.000
416.116; 2062.725;  223.475;    0.000
416.169; 2113.725;  210.475;    0.000
416.223; 2068.725;  232.475;    0.000
416.277; 2005.725;  227.475;    0.000
416.331; 2033.725;  216.475;    0.000
416.385; 2087.725;  186.475;    0.000
416.439; 2117.725;  226.475;    0.000
416.492; 2084.725;  229.475;    0.000
416.546; 2065.725;  216.475;    0.000
416.600; 2067.725;  211.475;    0.000
416.654; 2146.725;  226.475;    0.000
416.707; 2049.725;  248.475;    0.000
416.761; 2146.725;  217.475;    0.000
416.815; 2113.725;  207.475;    0.000
416.869; 2012.725;  226.475;    0.000
416.922; 2113.725;  192.475;    0.000
416.976; 1999.725;  205.475;    0.000
417.030; 2059.725;  233.475;    0.000
417.083; 1961.725;  226.475;    0.000
417.137; 2076.725;  222.475;    0.000
417.191; 1993.725;  217.475;    0.000
417.244; 2156.725;  221.475;    0.000
417.298; 2042.725;  201.475;    0.000
417.352; 2043.725;  170.475;    0.000
417.405; 2134.725;  234.475;    0.000
417.459; 2083.725;  241.475;    0.000
417.512; 2064.725;  247.475;    0.000
417.566; 2091.725;  219.475;    0.000
417.620; 2100.725;  228.475;    0.000
417.673; 1937.725;  192.475;    0.000
417.727; 2078.725;  203.475;    0.000
417.780; 2042.725;  204.475;    0.000
417.834; 2098.725;  234.475;    0.000
417.887; 2024.725;  245.475;    0.000
417.941; 2061.725;  211.475;    0.000
417.994; 2027.725;  244.475;    0.000
418.048; 2085.725;  203.475;    0.000
418.101; 2039.725;  212.475;    0.000
418.155; 2086.725;  251.475;    0.000
418.208; 2123.725;  286.475;    0.000
418.262; 2076.725;  243.475;    0.000
418.315; 2071.725;  214.475;    0.000
418.369; 2098.725;  269.475;    0.000
418.422; 2069.725;  222.475;    0.000
418.476; 2138.725;  226.475;    0.000
418.529; 2022.725;  238.475;    0.000
418.582; 2134.725;  210.475;    0.000
418.636; 2033.725;  221.475;    0.000
418.689; 2035.725;  224.475;    0.000
418.743; 2105.725;  228.475;    0.000
418.796; 1959.725;  192.475;    0.000
418.849; 2081.725;  230.475;    0.000
418.903; 2109.725;  257.475;    0.000
418.956; 2094.725;  241.475;    0.000
419.009; 2043.725;  247.475;    0.000
419.063; 2074.725;  235.475;    0.000
419.116; 2107.725;  218.475;    0.000
419.169; 2121.725;  219.475;    0.000
419.222; 2089.725;  215.475;    0.000
419.276; 2118.725;  202.475;    0.000
419.329; 2041.725;  210.475;    0.000
419.382; 2014.725;  188.475;    0.000
419.435; 2107.725;  222.475;    0.000
419.489; 2085.725;  232.475;    0.000
419.542; 2053.725;  250.475;    0.000
419.595; 2005.725;  240.475;    0.000
419.648; 2065.725;  261.475;    0.000
419.701; 2040.725;  222.475;    0.000
419.755; 2071.725;  233.475;    0.000
419.808; 2111.725;  178.475;    0.000
419.861; 2041.725;  207.475;    0.000
419.914; 2027.725;  223.475;    0.000
419.967; 2034.725;  216.475;    0.000
420.020; 2042.725;  211.475;    0.000
420.073; 2028.725;  200.475;    0.000
420.127; 2065.725;  248.475;    0.000
420.180; 1950.725;  220.475;    0.000
420.233; 1971.725;  215.475;    0.000
420.286; 2073.725;  222.475;    0.000
420.339; 2014.725;  229.475;    0.000
420.392; 2035.725;  245.475;    0.000
420.445; 2005.725;  221.475;    0.000
420.498; 1960.725;  224.475;    0.000
420.551; 1979.725;  170.475;    0.000
420.604; 2009.725;  237.475;    0.000
420.657; 1940.725;  235.475;    0.000
420.710; 1995.725;  223.475;    0.000
420.763; 2006.725;  219.475;    0.000
420.816; 2068.725;  200.475;    0.000
420.869; 1981.725;  197.475;    0.000
420.922; 1978.725;  212.475;    0.000
420.975; 2054.725;  274.475;    0.000
421.028; 2117.725;  228.475;    0.000
421.081; 2016.725;  243.475;    0.000
421.134; 2085.725;  227.475;    0.000
421.187; 1983.725;  245.475;    0.000
421.239; 2007.725;  210.475;    0.000
421.292; 2043.725;  193.475;    0.000
421.345; 2048.725;  226.475;    0.000
421.398; 2011.725;  226.475;    0.000
421.451; 1952.725;  259.475;    0.000
421.504; 1960.725;  204.475;    0.000
421.557; 1900.725;  215.475;    0.000
421.609; 1964.725;  194.475;    0.000
421.662; 1942.725;  216.475;    0.000
421.715; 1972.725;  226.475;    0.000
421.768; 1944.725;  177.475;    0.000
421.821; 1940.725;  210.475;    0.000
421.873; 1932.725;  208.475;    0.000
421.926; 1895.725;  223.475;    0.000
421.979; 1980.725;  230.475;    0.000
422.032; 1970.725;  227.475;    0.000
422.084; 1980.725;  234.475;    0.000
422.137; 1866.725;  207.475;    0.000
422.190; 1940.725;  228.475;    0.000
422.243; 1954.725;  206.475;    0.000
422.295; 1951.725;  236.475;    0.000
422.348; 1962.725;  232.475;    0.000
422.401; 1919.725;  228.475;    0.000
422.453; 2034.725;  239.475;    0.000
422.506; 1971.725;  226.475;    0.000
422.559; 1948.725;  205.475;    0.000
422.611; 1987.725;  235.475;    0.000
422.664; 1980.725;  231.475;    0.000
422.716; 1963.725;  228.475;    0.000
422.769; 1984.725;  204.475;    0.000
422.822; 1982.725;  205.475;    0.000
422.874; 1948.725;  228.475;    0.000
422.927; 1928.725;  266.475;    0.000
422.979; 1910.725;  223.475;    0.000
423.032; 1924.725;  207.475;    0.000
423.084; 1963.725;  211.475;    0.000
423.137; 1864.725;  205.475;    0.000
423.189; 1942.725;  254.475;    0.000
423.242; 1967.725;  208.475;    0.000
423.294; 1942.725;  240.475;    0.000
423.347; 1938.725;  218.475;    0.000
423.399; 1994.725;  237.475;    0.000
423.452; 1949.725;  242.475;    0.000
423.504; 2006.725;  225.475;    0.000
423.557; 1889.725;  195.475;    0.000
423.609; 1921.725;  206.475;    0.000
423.662; 1905.725;  211.475;    0.000
423.714; 1931.725;  252.475;    0.000
423.766; 2033.725;  181.475;    0.000
423.819; 1903.725;  216.475;    0.000
423.871; 1963.725;  216.475;    0.000
423.923; 1931.725;  222.475;    0.000
423.976; 1910.725;  223.475;    0.000
424.028; 1899.725;  229.475;    0.000
424.081; 1892.725;  267.475;    0.000
424.133; 1976.725;  251.475;    0.000
424.185; 1868.725;  238.475;    0.000
424.238; 1907.725;  220.475;    0.000
424.290; 1902.725;  259.475;    0.000
424.342; 1898.725;  248.475;    0.000
424.394; 1892.725;  234.475;    0.000
424.447; 1974.725;  248.475;    0.000
424.499; 1856.725;  233.475;    0.000
424.551; 1941.725;  236.475;    0.000
424.603; 1899.725;  207.475;    0.000
424.656; 1872.725;  210.475;    0.000
424.708; 1947.725;  251.475;    0.000
424.760; 1976.725;  221.475;    0.000
424.812; 1907.725;  275.475;    0.000
424.864; 1834.725;  206.475;    0.000
424.917; 1828.725;  198.475;    0.000
424.969; 1982.725;  246.475;    0.000
425.021; 1836.725;  209.475;    0.000
425.073; 1930.725;  242.475;    0.000
425.125; 1901.725;  254.475;    0.000
425.177; 1944.725;  224.475;    0.000
425.229; 1963.725;  256.475;    0.000
425.282; 1922.725;  265.475;    0.000
425.334; 1983.725;  266.475;    0.000
425.386; 1871.725;  242.475;    0.000
425.438; 1906.725;  205.475;    0.000
425.490; 1842.725;  227.475;    0.000
425.542; 1851.725;  235.475;    0.000
425.594; 1864.725;  210.475;    0.000
425.646; 1898.725;  232.475;    0.000
425.698; 1905.725;  243.475;    0.000
425.750; 1873.725;  230.475;    0.000
425.802; 1828.725;  218.475;    0.000
425.854; 1854.725;  222.475;    0.000
425.906; 1943.725;  235.475;    0.000
425.958; 1887.725;  220.475;    0.000
426.010; 1857.725;  236.475;    0.000
426.062; 1852.725;  230.475;    0.000
426.114; 1769.725;  216.475;    0.000
426.166; 1946.725;  230.475;    0.000
426.218; 1802.725;  237.475;    0.000
426.270; 1867.725;  217.475;    0.000
426.321; 1804.725;  224.475;    0.000
426.373; 1805.725;  207.475;    0.000
426.425; 1887.725;  278.475;    0.000
426.477; 1839.725;  243.475;    0.000
426.529; 1848.725;  247.475;    0.000
426.581; 1784.725;  229.475;    0.000
426.633; 1801.725;  212.475;    0.000
426.684; 1852.725;  244.475;    0.000
426.736; 1858.725;  250.475;    0.000
426.788; 1864.725;  210.475;    0.000
426.840; 1758.725;  201.475;    0.000
426.892; 1773.725;  225.475;    0.000
426.943; 1830.725;  215.475;    0.000
426.995; 1771.725;  216.475;    0.000
427.047; 1806.725;  216.475;    0.000
427.099; 1743.725;  203.475;    0.000
427.150; 1827.725;  195.475;    0.000
427.202; 1779.725;  212.475;    0.000
427.254; 1774.725;  233.475;    0.000
427.306; 1827.725;  211.475;    0.000
427.357; 1850.725;  210.475;    0.000
427.409; 1850.725;  244.475;    0.000
427.461; 1758.725;  187.475;    0.000
427.512; 1803.725;  227.475;    0.000
427.564; 1868.725;  210.475;    0.000
427.616; 1815.725;  202.475;    0.000
427.667; 1817.725;  185.475;    0.000
427.719; 1775.725;  222.475;    0.000
427.770; 1766.725;  230.475;    0.000
427.822; 1852.725;  254.475;    0.000
427.874; 1830.725;  222.475;    0.000
427.925; 1789.725;  199.475;    0.000
427.977; 1746.725;  228.475;    0.000
428.028; 1783.725;  226.475;    0.000
428.080; 1750.725;  236.475;    0.000
428.131; 1817.725;  220.475;    0.000
428.183; 1863.725;  256.475;    0.000
428.234; 1761.725;  217.475;    0.000
428.286; 1788.725;  234.475;    0.000
428.337; 1753.725;  209.475;    0.000
428.389; 1697.725;  219.475;    0.000
428.440; 1768.725;  249.475;    0.000
428.492; 1821.725;  255.475;    0.000
428.543; 1708.725;  224.475;    0.000
428.595; 1785.725;  225.475;    0.000
428.646; 1709.725;  240.475;    0.000
428.697; 1754.725;  211.475;    0.000
428.749; 1769.725;  200.475;    0.000
428.800; 1830.725;  235.475;    0.000
428.852; 1783.725;  265.475;    0.000
428.903; 1701.725;  201.475;    0.000
428.954; 1685.725;  242.475;    0.000
429.006; 1781.725;  245.475;    0.000
429.057; 1719.725;  252.475;    0.000
429.108; 1742.725;  211.475;    0.000
429.160; 1801.725;  217.475;    0.000
429.211; 1759.725;  234.475;    0.000
429.262; 1755.725;  205.475;    0.000
429.314; 1748.725;  211.475;    0.000
429.365; 1823.725;  240.475;    0.000
429.416; 1837.725;  263.475;    0.000
429.467; 1782.725;  244.475;    0.000
429.519; 1756.725;  223.475;    0.000
429.570; 1700.725;  214.475;    0.000
429.621; 1724.725;  235.475;    0.000
429.672; 1753.725;  202.475;    0.000
429.724; 1649.725;  189.475;    0.000
429.775; 1696.725;  214.475;    0.000
429.826; 1690.725;  178.475;    0.000
429.877; 1720.725;  224.475;    0.000
429.928; 1787.725;  230.475;    0.000
429.980; 1693.725;  199.475;    0.000
430.031; 1744.725;  208.475;    0.000
430.082; 1667.725;  224.475;    0.000
430.133; 1658.725;  193.475;    0.000
430.184; 1766.725;  220.475;    0.000
430.235; 1719.725;  184.475;    0.000
430.286; 1772.725;  197.475;    0.000
430.337; 1760.725;  199.475;    0.000
430.388; 1725.725;  207.475;    0.000
430.439; 1773.725;  227.475;    0.000
430.490; 1696.725;  215.475;    0.000
430.542; 1674.725;  211.475;    0.000
430.593; 1686.725;  230.475;    0.000
430.644; 1747.725;  186.475;    0.000
430.695; 1793.725;  232.475;    0.000
430.746; 1734.725;  214.475;    0.000
430.797; 1717.725;  260.475;    0.000
430.848; 1753.725;  214.475;    0.000
430.898; 1692.725;  204.475;    0.000
430.949; 1723.725;  189.475;    0.000
431.000; 1685.725;  240.475;    0.000
431.051; 1727.725;  201.475;    0.000
431.102; 1711.725;  188.475;    0.000
431.153; 1736.725;  209.475;    0.000
431.204; 1680.725;  187.475;    0.000
431.255; 1655.725;  171.475;    0.000
431.306; 1742.725;  181.475;    0.000
431.357; 1728.725;  221.475;    0.000
431.408; 1738.725;  217.475;    0.000
431.458; 1722.725;  206.475;    0.000
431.509; 1682.725;  194.475;    0.000
431.560; 1825.725;  235.475;    0.000
431.611; 1708.725;  213.475;    0.000
431.662; 1755.725;  237.475;    0.000
431.713; 1687.725;  220.475;    0.000
431.763; 1667.725;  212.475;    0.000
431.814; 1675.725;  238.475;    0.000
431.865; 1724.725;  213.475;    0.000
431.916; 1638.725;  191.475;    0.000
431.966; 1688.725;  171.475;    0.000
432.017; 1754.725;  263.475;    0.000
432.068; 1722.725;  240.475;    0.000
432.118; 1700.725;  235.475;    0.000
432.169; 1727.725;  212.475;    0.000
432.220; 1724.725;  188.475;    0.000
432.271; 1733.725;  216.475;    0.000
432.321; 1667.725;  223.475;    0.000
432.372; 1728.725;  254.475;    0.000
432.423; 1714.725;  193.475;    0.000
432.473; 1652.725;  219.475;    0.000
432.524; 1729.725;  215.475;    0.000
432.574; 1740.725;  234.475;    0.000
432.625; 1694.725;  226.475;    0.000
432.676; 1683.725;  219.475;    0.000
432.726; 1718.725;  254.475;    0.000
432.777; 1657.725;  210.475;    0.000
432.827; 1722.725;  234.475;    0.000
432.878; 1711.725;  212.475;    0.000
432.928; 1736.725;  238.475;    0.000
432.979; 1707.725;  252.475;    0.000
433.029; 1661.725;  222.475;    0.000
433.080; 1687.725;  188.475;    0.000
433.130; 1646.725;  223.475;    0.000
433.181; 1724.725;  254.475;    0.000
433.231; 1712.725;  237.475;    0.000
433.282; 1705.725;  242.475;    0.000
433.332; 1782.725;  261.475;    0.000
433.383; 1705.725;  266.475;    0.000
433.433; 1772.725;  286.475;    0.000
433.484; 1704.725;  231.475;    0.000
433.534; 1723.725;  256.475;    0.000
433.585; 1711.725;  253.475;    0.000
433.635; 1713.725;  228.475;    0.000
433.685; 1742.725;  226.475;    0.000
433.736; 1702.725;  276.475;    0.000
433.786; 1742.725;  253.475;    0.000
433.836; 1818.725;  289.475;    0.000
433.887; 1719.725;  241.475;    0.000
433.937; 1761.725;  252.475;    0.000
433.987; 1689.725;  223.475;    0.000
434.038; 1801.725;  241.475;    0.000
434.088; 1681.725;  231.475;    0.000
434.138; 1690.725;  259.475;    0.000
434.189; 1735.725;  263.475;    0.000
434.239; 1689.725;  194.475;    0.000
434.289; 1657.725;  273.475;    0.000
434.339; 1659.725;  212.475;    0.000
434.389; 1727.725;  248.475;    0.000
434.440; 1734.725;  250.475;    0.000
434.490; 1749.725;  278.475;    0.000
434.540; 1797.725;  241.475;    0.000
434.590; 1750.725;  251.475;    0.000
434.640; 1614.725;  207.475;    0.000
434.691; 1719.725;  242.475;    0.000
434.741; 1769.725;  218.475;    0.000
434.791; 1741.725;  267.475;    0.000
434.841; 1765.725;  272.475;    0.000
434.891; 1767.725;  260.475;    0.000
434.941; 1764.725;  258.475;    0.000
434.991; 1741.725;  264.475;    0.000
435.042; 1763.725;  264.475;    0.000
435.092; 1715.725;  271.475;    0.000
435.142; 1722.725;  229.475;    0.000
435.192; 1668.725;  226.475;    0.000
435.242; 1727.725;  253.475;    0.000
435.292; 1678.725;  215.475;    0.000
435.342; 1728.725;  240.475;    0.000
435.392; 1671.725;  235.475;    0.000
435.442; 1732.725;  230.475;    0.000
435.492; 1706.725;  235.475;    0.000
435.542; 1667.725;  230.475;    0.000
435.592; 1730.725;  239.475;    0.000
435.642; 1778.725;  244.475;    0.000
435.692; 1712.725;  236.475;    0.000
435.742; 1631.725;  236.475;    0.000
435.792; 1730.725;  230.475;    0.000
435.842; 1727.725;  248.475;    0.000
435.891; 1659.725;  233.475;    0.000
435.941; 1630.725;  243.475;    0.000
435.991; 1682.725;  279.475;    0.000
436.041; 1697.725;  204.475;    0.000
436.091; 1672.725;  217.475;    0.000
436.141; 1612.725;  205.475;    0.000
436.191; 1671.725;  220.475;    0.000
436.241; 1623.725;  248.475;    0.000
436.290; 1731.725;  255.475;    0.000
436.340; 1644.725;  235.475;    0.000
436.390; 1628.725;  207.475;    0.000
436.440; 1660.725;  207.475;    0.000
436.490; 1688.725;  251.475;    0.000
436.539; 1594.725;  240.475;    0.000
436.589; 1642.725;  198.475;    0.000
436.639; 1612.725;  240.475;    0.000
436.689; 1546.725;  216.475;    0.000
436.738; 1608.725;  246.475;    0.000
436.788; 1623.725;  203.475;    0.000
436.838; 1705.725;  230.475;    0.000
436.887; 1608.725;  235.475;    0.000
436.937; 1647.725;  249.475;    0.000
436.987; 1608.725;  208.475;    0.000
437.036; 1620.725;  232.475;    0.000
437.086; 1649.725;  238.475;    0.000
437.136; 1638.725;  228.475;    0.000
437.185; 1618.725;  219.475;    0.000
437.235; 1598.725;  227.475;    0.000
437.285; 1650.725;  241.475;    0.000
437.334; 1639.725;  216.475;    0.000
437.384; 1635.725;  243.475;    0.000
437.433; 1631.725;  214.475;    0.000
437.483; 1619.725;  246.475;    0.000
437.532; 1635.725;  261.475;    0.000
437.582; 1604.725;  205.475;    0.000
437.631; 1654.725;  218.475;    0.000
437.681; 1626.725;  240.475;    0.000
437.730; 1612.725;  258.475;    0.000
437.780; 1644.725;  237.475;    0.000
437.829; 1582.725;  209.475;    0.000
437.879; 1619.725;  214.475;    0.000
437.928; 1607.725;  223.475;    0.000
437.978; 1588.725;  220.475;    0.000
438.027; 1712.725;  239.475;    0.000
438.077; 1653.725;  231.475;    0.000
438.126; 1552.725;  266.475;    0.000
438.176; 1630.725;  234.475;    0.000
438.225; 1570.725;  237.475;    0.000
438.274; 1630.725;  234.475;    0.000
438.324; 1599.725;  244.475;    0.000
438.373; 1580.725;  232.475;    0.000
438.422; 1597.725;  218.475;    0.000
438.472; 1553.725;  221.475;    0.000
438.521; 1525.725;  190.475;    0.000
438.570; 1608.725;  243.475;    0.000
438.620; 1640.725;  255.475;    0.000
438.669; 1587.725;  210.475;    0.000
438.718; 1589.725;  237.475;    0.000
438.768; 1601.725;  220.475;    0.000
438.817; 1504.725;  218.475;    0.000
438.866; 1542.725;  198.475;    0.000
438.915; 1596.725;  256.475;    0.000
438.965; 1587.725;  221.475;    0.000
439.014; 1603.725;  255.475;    0.000
439.063; 1634.725;  276.475;    0.000
439.112; 1643.725;  220.475;    0.000
439.162; 1634.725;  253.475;    0.000
439.211; 1596.725;  247.475;    0.000
439.260; 1606.725;  220.475;    0.000
439.309; 1567.725;  235.475;    0.000
439.358; 1594.725;  205.475;    0.000
439.407; 1549.725;  207.475;    0.000
439.456; 1602.725;  216.475;    0.000
439.506; 1639.725;  245.475;    0.000
439.555; 1646.725;  264.475;    0.000
439.604; 1565.725;  227.475;    0.000
439.653; 1573.725;  220.475;    0.000
439.702; 1609.725;  223.475;    0.000
439.751; 1550.725;  197.475;    0.000
439.800; 1617.725;  207.475;    0.000
439.849; 1629.725;  238.475;    0.000
439.898; 1635.725;  209.475;    0.000
439.947; 1559.725;  170.475;    0.000
439.996; 1569.725;  233.475;    0.000
440.045; 1655.725;  222.475;    0.000
440.094; 1593.725;  240.475;    0.000
440.143; 1674.725;  249.475;    0.000
440.192; 1628.725;  252.475;    0.000
440.241; 1577.725;  239.475;    0.000
440.290; 1638.725;  234.475;    0.000
440.339; 1673.725;  241.475;    0.000
440.388; 1633.725;  239.475;    0.000
440.437; 1650.725;  231.475;    0.000
440.486; 1615.725;  254.475;    0.000
440.535; 1625.725;  266.475;    0.000
440.583; 1653.725;  205.475;    0.000
440.632; 1547.725;  234.475;    0.000
440.681; 1647.725;  218.475;    0.000
440.730; 1730.725;  248.475;    0.000
440.779; 1587.725;  246.475;    0.000
440.828; 1607.725;  235.475;    0.000
440.876; 1564.725;  218.475;    0.000
440.925; 1656.725;  228.475;    0.000
440.974; 1589.725;  249.475;    0.000
441.023; 1666.725;  192.475;    0.000
441.072; 1616.725;  226.475;    0.000
441.120; 1648.725;  238.475;    0.000
441.169; 1686.725;  255.475;    0.000
441.218; 1611.725;  233.475;    0.000
441.267; 1651.725;  231.475;    0.000
441.315; 1692.725;  214.475;    0.000
441.364; 1640.725;  250.475;    0.000
441.413; 1685.725;  228.475;    0.000
441.461; 1680.725;  209.475;    0.000
441.510; 1688.725;  260.475;    0.000
441.559; 1730.725;  230.475;    0.000
441.607; 1732.725;  220.475;    0.000
441.656; 1659.725;  251.475;    0.000
441.705; 1688.725;  237.475;    0.000
441.753; 1682.725;  257.475;    0.000
441.802; 1603.725;  256.475;    0.000
441.850; 1588.725;  253.475;    0.000
441.899; 1660.725;  212.475;    0.000
441.948; 1642.725;  251.475;    0.000
441.996; 1667.725;  239.475;    0.000
442.045; 1618.725;  223.475;    0.000
442.093; 1710.725;  211.475;    0.000
442.142; 1692.725;  235.475;    0.000
442.190; 1733.725;  254.475;    0.000
442.239; 1696.725;  226.475;    0.000
442.287; 1627.725;  242.475;    0.000
442.336; 1675.725;  256.475;    0.000
442.384; 1658.725;  252.475;    0.000
442.433; 1767.725;  262.475;    0.000
442.481; 1714.725;  246.475;    0.000
442.529; 1616.725;  290.475;    0.000
442.578; 1720.725;  247.475;    0.000
442.626; 1607.725;  247.475;    0.000
442.675; 1720.725;  272.475;    0.000
442.723; 1631.725;  230.475;    0.000
442.771; 1646.725;  234.475;    0.000
442.820; 1734.725;  224.475;    0.000
442.868; 1652.725;  246.475;    0.000
442.917; 1664.725;  249.475;    0.000
442.965; 1698.725;  260.475;    0.000
443.013; 1693.725;  258.475;    0.000
443.062; 1647.725;  259.475;    0.000
443.110; 1698.725;  226.475;    0.000
443.158; 1664.725;  213.475;    0.000
443.206; 1699.725;  201.475;    0.000
443.255; 1747.725;  280.475;    0.000
443.303; 1722.725;  292.475;    0.000
443.351; 1651.725;  256.475;    0.000
443.399; 1722.725;  215.475;    0.000
443.448; 1738.725;  243.475;    0.000
443.496; 1668.725;  249.475;    0.000
443.544; 1725.725;  231.475;    0.000
443.592; 1670.725;  243.475;    0.000
443.640; 1791.725;  252.475;    0.000
443.689; 1709.725;  220.475;    0.000
443.737; 1720.725;  231.475;    0.000
443.785; 1731.725;  256.475;    0.000
443.833; 1721.725;  268.475;    0.000
443.881; 1702.725;  181.475;    0.000
443.929; 1727.725;  245.475;    0.000
443.977; 1762.725;  278.475;    0.000
444.025; 1664.725;  245.475;    0.000
444.074; 1785.725;  233.475;    0.000
444.122; 1743.725;  267.475;    0.000
444.170; 1696.725;  247.475;    0.000
444.218; 1729.725;  246.475;    0.000
444.266; 1808.725;  275.475;    0.000
444.314; 1717.725;  263.475;    0.000
444.362; 1742.725;  240.475;    0.000
444.410; 1800.725;  220.475;    0.000
444.458; 1737.725;  258.475;    0.000
444.506; 1748.725;  258.475;    0.000
444.554; 1727.725;  224.475;    0.000
444.602; 1807.725;  245.475;    0.000
444.650; 1816.725;  261.475;    0.000
444.698; 1779.725;  232.475;    0.000
444.746; 1816.725;  206.475;    0.000
444.793; 1742.725;  249.475;    0.000
444.841; 1740.725;  261.475;    0.000
444.889; 1852.725;  221.475;    0.000
444.937; 1806.725;  215.475;    0.000
444.985; 1720.725;  244.475;    0.000
445.033; 1783.725;  211.475;    0.000
445.081; 1842.725;  225.475;    0.000
445.129; 1742.725;  217.475;    0.000
445.176; 1681.725;  196.475;    0.000
445.224; 1776.725;  211.475;    0.000
445.272; 1764.725;  242.475;    0.000
445.320; 1771.725;  225.475;    0.000
445.368; 1777.725;  249.475;    0.000
445.415; 1795.725;  243.475;    0.000
445.463; 1784.725;  242.475;    0.000
445.511; 1804.725;  248.475;    0.000
445.559; 1822.725;  219.475;    0.000
445.606; 1799.725;  221.475;    0.000
445.654; 1734.725;  202.475;    0.000
445.702; 1876.725;  210.475;    0.000
445.749; 1804.725;  249.475;    0.000
445.797; 1823.725;  206.475;    0.000
445.845; 1814.725;  213.475;    0.000
445.892; 1835.725;  224.475;    0.000
445.940; 1836.725;  214.475;    0.000
445.988; 1844.725;  247.475;    0.000
446.035; 1764.725;  204.475;    0.000
446.083; 1807.725;  235.475;    0.000
446.130; 1792.725;  195.475;    0.000
446.178; 1786.725;  236.475;    0.000
446.226; 1858.725;  218.475;    0.000
446.273; 1814.725;  215.475;    0.000
446.321; 1834.725;  222.475;    0.000
446.368; 1810.725;  228.475;    0.000
446.416; 1861.725;  223.475;    0.000
446.463; 1795.725;  220.475;    0.000
446.511; 1935.725;  198.475;    0.000
446.558; 1881.725;  208.475;    0.000
446.606; 1949.725;  253.475;    0.000
446.653; 1871.725;  198.475;    0.000
446.701; 1966.725;  231.475;    0.000
446.748; 1938.725;  224.475;    0.000
446.796; 1871.725;  201.475;    0.000
446.843; 2009.725;  257.475;    0.000
446.891; 1930.725;  218.475;    0.000
446.938; 1911.725;  232.475;    0.000
446.985; 1931.725;  229.475;    0.000
447.033; 1970.725;  251.475;    0.000
447.080; 2003.725;  257.475;    0.000
447.128; 1931.725;  232.475;    0.000
447.175; 1964.725;  269.475;    0.000
447.222; 1958.725;  185.475;    0.000
447.270; 2093.725;  264.475;    0.000
447.317; 1990.725;  225.475;    0.000
447.364; 1992.725;  243.475;    0.000
447.411; 2064.725;  263.475;    0.000
447.459; 2067.725;  257.475;    0.000
447.506; 2009.725;  175.475;    0.000
447.553; 2065.725;  203.475;    0.000
447.601; 2200.725;  238.475;    0.000
447.648; 2102.725;  244.475;    0.000
447.695; 2208.725;  249.475;    0.000
447.742; 2199.725;  234.475;    0.000
447.789; 2243.725;  228.475;    0.000
447.837; 2296.725;  258.475;    0.000
447.884; 2223.725;  243.475;    0.000
447.931; 2316.725;  235.475;    0.000
447.978; 2308.725;  224.475;    0.000
448.025; 2342.725;  245.475;    0.000
448.072; 2344.725;  212.475;    0.000
448.120; 2424.725;  256.475;    0.000
448.167; 2404.725;  240.475;    0.000
448.214; 2282.725;  247.475;    0.000
448.261; 2377.725;  245.475;    0.000
448.308; 2266.725;  273.475;    0.000
448.355; 2214.725;  257.475;    0.000
448.402; 2194.725;  259.475;    0.000
448.449; 2097.725;  238.475;    0.000
448.496; 2133.725;  245.475;    0.000
448.543; 2113.725;  217.475;    0.000
448.590; 2161.725;  269.475;    0.000
448.637; 2115.725;  250.475;    0.000
448.684; 2099.725;  250.475;    0.000
448.731; 2069.725;  235.475;    0.000
448.778; 2015.725;  265.475;    0.000
448.825; 2001.725;  257.475;    0.000
448.872; 1936.725;  234.475;    0.000
448.919; 2016.725;  216.475;    0.000
448.966; 1963.725;  274.475;    0.000
449.013; 1960.725;  263.475;    0.000
449.060; 2009.725;  247.475;    0.000
449.107; 2012.725;  218.475;    0.000
449.154; 1844.725;  225.475;    0.000
449.200; 1902.725;  212.475;    0.000
449.247; 1846.725;  242.475;    0.000
449.294; 1921.725;  228.475;    0.000
449.341; 1954.725;  232.475;    0.000
449.388; 1872.725;  247.475;    0.000
449.435; 1899.725;  227.475;    0.000
449.481; 1847.725;  270.475;    0.000
449.528; 1907.725;  265.475;    0.000
449.575; 1883.725;  255.475;    0.000
449.622; 1816.725;  210.475;    0.000
449.668; 1802.725;  234.475;    0.000
449.715; 1806.725;  262.475;    0.000
449.762; 1848.725;  247.475;    0.000
449.809; 1840.725;  286.475;    0.000
449.855; 1814.725;  246.475;    0.000
449.902; 1753.725;  224.475;    0.000
449.949; 1771.725;  244.475;    0.000
449.995; 1722.725;  274.475;    0.000
450.042; 1780.725;  272.475;    0.000
450.089; 1817.725;  274.475;    0.000
450.135; 1771.725;  285.475;    0.000
450.182; 1696.725;  251.475;    0.000
450.229; 1743.725;  242.475;    0.000
450.275; 1802.725;  277.475;    0.000
450.322; 1681.725;  260.475;    0.000
450.368; 1784.725;  257.475;    0.000
450.415; 1754.725;  276.475;    0.000
450.462; 1750.725;  298.475;    0.000
450.508; 1765.725;  255.475;    0.000
450.555; 1771.725;  271.475;    0.000
450.601; 1744.725;  281.475;    0.000
450.648; 1691.725;  249.475;    0.000
450.694; 1733.725;  270.475;    0.000
450.741; 1705.725;  256.475;    0.000
450.787; 1644.725;  292.475;    0.000
450.834; 1786.725;  221.475;    0.000
450.880; 1660.725;  265.475;    0.000
450.927; 1737.725;  242.475;    0.000
450.973; 1651.725;  259.475;    0.000
451.019; 1692.725;  221.475;    0.000
451.066; 1697.725;  257.475;    0.000
451.112; 1682.725;  251.475;    0.000
451.159; 1689.725;  278.475;    0.000
451.205; 1688.725;  274.475;    0.000
451.251; 1710.725;  281.475;    0.000
451.298; 1681.725;  273.475;    0.000
451.344; 1705.725;  246.475;    0.000
451.390; 1723.725;  286.475;    0.000
451.437; 1720.725;  268.475;    0.000
451.483; 1743.725;  315.475;    0.000
451.529; 1701.725;  251.475;    0.000
451.576; 1689.725;  306.475;    0.000
451.622; 1666.725;  234.475;    0.000
451.668; 1674.725;  243.475;    0.000
451.714; 1650.725;  256.475;    0.000
451.761; 1661.725;  264.475;    0.000
451.807; 1679.725;  284.475;    0.000
451.853; 1651.725;  282.475;    0.000
451.899; 1621.725;  240.475;    0.000
451.945; 1601.725;  263.475;    0.000
451.992; 1661.725;  255.475;    0.000
452.038; 1556.725;  273.475;    0.000
452.084; 1576.725;  274.475;    0.000
452.130; 1669.725;  261.475;    0.000
452.176; 1693.725;  246.475;    0.000
452.222; 1621.725;  238.475;    0.000
452.268; 1552.725;  267.475;    0.000
452.315; 1644.725;  274.475;    0.000
452.361; 1609.725;  241.475;    0.000
452.407; 1665.725;  274.475;    0.000
452.453; 1597.725;  260.475;    0.000
452.499; 1670.725;  232.475;    0.000
452.545; 1530.725;  252.475;    0.000
452.591; 1749.725;  263.475;    0.000
452.637; 1681.725;  208.475;    0.000
452.683; 1563.725;  237.475;    0.000
452.729; 1587.725;  263.475;    0.000
452.775; 1631.725;  291.475;    0.000
452.821; 1645.725;  238.475;    0.000
452.867; 1617.725;  223.475;    0.000
452.913; 1584.725;  257.475;    0.000
452.959; 1538.725;  238.475;    0.000
453.005; 1578.725;  252.475;    0.000
453.051; 1585.725;  260.475;    0.000
453.097; 1469.725;  268.475;    0.000
453.142; 1548.725;  231.475;    0.000
453.188; 1629.725;  266.475;    0.000
453.234; 1601.725;  233.475;    0.000
453.280; 1629.725;  219.475;    0.000
453.326; 1537.725;  265.475;    0.000
453.372; 1572.725;  238.475;    0.000
453.418; 1589.725;  240.475;    0.000
453.463; 1529.725;  219.475;    0.000
453.509; 1503.725;  264.475;    0.000
453.555; 1555.725;  247.475;    0.000
453.601; 1544.725;  230.475;    0.000
453.647; 1631.725;  285.475;    0.000
453.692; 1569.725;  240.475;    0.000
453.738; 1590.725;  233.475;    0.000
453.784; 1550.725;  230.475;    0.000
453.829; 1586.725;  246.475;    0.000
453.875; 1578.725;  261.475;    0.000
453.921; 1539.725;  203.475;    0.000
453.967; 1523.725;  241.475;    0.000
454.012; 1639.725;  250.475;    0.000
454.058; 1565.725;  252.475;    0.000
454.104; 1551.725;  239.475;    0.000
454.149; 1546.725;  250.475;    0.000
454.195; 1572.725;  243.475;    0.000
454.240; 1532.725;  252.475;    0.000
454.286; 1553.725;  245.475;    0.000
454.332; 1624.725;  286.475;    0.000
454.377; 1601.725;  254.475;    0.000
454.423; 1568.725;  246.475;    0.000
454.468; 1508.725;  235.475;    0.000
454.514; 1587.725;  231.475;    0.000
454.559; 1506.725;  246.475;    0.000
454.605; 1597.725;  204.475;    0.000
454.650; 1508.725;  272.475;    0.000
454.696; 1550.725;  222.475;    0.000
454.741; 1586.725;  290.475;    0.000
454.787; 1541.725;  262.475;    0.000
454.832; 1571.725;  227.475;    0.000
454.878; 1564.725;  241.475;    0.000
454.923; 1525.725;  272.475;    0.000
454.969; 1529.725;  290.475;    0.000
455.014; 1569.725;  278.475;    0.000
455.060; 1530.725;  246.475;    0.000
455.105; 1596.725;  231.475;    0.000
455.150; 1561.725;  265.475;    0.000
455.196; 1557.725;  266.475;    0.000
455.241; 1515.725;  258.475;    0.000
455.286; 1527.725;  266.475;    0.000
455.332; 1492.725;  252.475;    0.000
455.377; 1509.725;  219.475;    0.000
455.422; 1509.725;  262.475;    0.000
455.468; 1508.725;  260.475;    0.000
455.513; 1546.725;  212.475;    0.000
455.558; 1534.725;  197.475;    0.000
455.604; 1553.725;  262.475;    0.000
455.649; 1599.725;  238.475;    0.000
455.694; 1480.725;  221.475;    0.000
455.739; 1535.725;  251.475;    0.000
455.785; 1613.725;  287.475;    0.000
455.830; 1561.725;  284.475;    0.000
455.875; 1570.725;  234.475;    0.000
455.920; 1524.725;  215.475;    0.000
455.965; 1558.725;  256.475;    0.000
456.010; 1665.725;  266.475;    0.000
456.056; 1579.725;  263.475;    0.000
456.101; 1541.725;  240.475;    0.000
456.146; 1472.725;  258.475;    0.000
456.191; 1599.725;  241.475;    0.000
456.236; 1555.725;  252.475;    0.000
456.281; 1558.725;  218.475;    0.000
456.326; 1521.725;  251.475;    0.000
456.371; 1550.725;  256.475;    0.000
456.416; 1510.725;  301.475;    0.000
456.461; 1544.725;  233.475;    0.000
456.507; 1503.725;  218.475;    0.000
456.552; 1579.725;  278.475;    0.000
456.597; 1405.725;  223.475;    0.000
456.642; 1541.725;  203.475;    0.000
456.687; 1526.725;  245.475;    0.000
456.732; 1530.725;  256.475;    0.000
456.776; 1538.725;  244.475;    0.000
456.821; 1525.725;  276.475;    0.000
456.866; 1549.725;  232.475;    0.000
456.911; 1557.725;  225.475;    0.000
456.956; 1547.725;  237.475;    0.000
457.001; 1523.725;  261.475;    0.000
457.046; 1487.725;  205.475;    0.000
457.091; 1519.725;  241.475;    0.000
457.136; 1489.725;  217.475;    0.000
457.181; 1520.725;  251.475;    0.000
457.225; 1610.725;  241.475;    0.000
457.270; 1546.725;  237.475;    0.000
457.315; 1602.725;  279.475;    0.000
457.360; 1553.725;  245.475;    0.000
457.405; 1560.725;  202.475;    0.000
457.450; 1617.725;  247.475;    0.000
457.494; 1513.725;  243.475;    0.000
457.539; 1549.725;  222.475;    0.000
457.584; 1537.725;  239.475;    0.000
457.629; 1534.725;  236.475;    0.000
457.673; 1537.725;  234.475;    0.000
457.718; 1495.725;  202.475;    0.000
457.763; 1571.725;  274.475;    0.000
457.807; 1543.725;  236.475;    0.000
457.852; 1535.725;  265.475;    0.000
457.897; 1619.725;  252.475;    0.000
457.941; 1606.725;  264.475;    0.000
457.986; 1610.725;  280.475;    0.000
458.031; 1570.725;  217.475;    0.000
458.075; 1628.725;  249.475;    0.000
458.120; 1606.725;  257.475;    0.000
458.165; 1479.725;  183.475;    0.000
458.209; 1573.725;  245.475;    0.000
458.254; 1651.725;  245.475;    0.000
458.298; 1590.725;  265.475;    0.000
458.343; 1567.725;  241.475;    0.000
458.387; 1610.725;  262.475;    0.000
458.432; 1523.725;  245.475;    0.000
458.476; 1624.725;  255.475;    0.000
458.521; 1573.725;  269.475;    0.000
458.565; 1644.725;  265.475;    0.000
458.610; 1539.725;  222.475;    0.000
458.654; 1568.725;  257.475;    0.000
458.699; 1650.725;  296.475;    0.000
458.743; 1585.725;  203.475;    0.000
458.788; 1586.725;  267.475;    0.000
458.832; 1676.725;  274.475;    0.000
458.877; 1648.725;  251.475;    0.000
458.921; 1633.725;  237.475;    0.000
458.965; 1697.725;  264.475;    0.000
459.010; 1721.725;  256.475;    0.000
459.054; 1682.725;  280.475;    0.000
459.099; 1644.725;  240.475;    0.000
459.143; 1609.725;  287.475;    0.000
459.187; 1573.725;  257.475;    0.000
459.231; 1633.725;  273.475;    0.000
459.276; 1689.725;  231.475;    0.000
459.320; 1654.725;  261.475;    0.000
459.364; 1625.725;  278.475;    0.000
459.409; 1625.725;  249.475;    0.000
459.453; 1707.725;  235.475;    0.000
459.497; 1639.725;  262.475;    0.000
459.541; 1699.725;  269.475;    0.000
459.586; 1659.725;  240.475;    0.000
459.630; 1681.725;  261.475;    0.000
459.674; 1678.725;  276.475;    0.000
459.718; 1646.725;  236.475;    0.000
459.762; 1682.725;  263.475;    0.000
459.807; 1686.725;  263.475;    0.000
459.851; 1645.725;  225.475;    0.000
459.895; 1679.725;  247.475;    0.000
459.939; 1681.725;  231.475;    0.000
459.983; 1649.725;  242.475;    0.000
460.027; 1651.725;  248.475;    0.000
460.071; 1709.725;  273.475;    0.000
460.115; 1692.725;  282.475;    0.000
460.159; 1643.725;  264.475;    0.000
460.204; 1701.725;  288.475;    0.000
460.248; 1688.725;  293.475;    0.000
460.292; 1735.725;  277.475;    0.000
460.336; 1616.725;  250.475;    0.000
460.380; 1652.725;  275.475;    0.000
460.424; 1717.725;  243.475;    0.000
460.468; 1666.725;  277.475;    0.000
460.512; 1750.725;  261.475;    0.000
460.556; 1720.725;  266.475;    0.000
460.599; 1714.725;  246.475;    0.000
460.643; 1701.725;  256.475;    0.000
460.687; 1765.725;  257.475;    0.000
460.731; 1695.725;  235.475;    0.000
460.775; 1680.725;  278.475;    0.000
460.819; 1731.725;  268.475;    0.000
460.863; 1681.725;  257.475;    0.000
460.907; 1635.725;  213.475;    0.000
460.951; 1704.725;  274.475;    0.000
460.995; 1708.725;  258.475;    0.000
461.038; 1684.725;  219.475;    0.000
461.082; 1653.725;  253.475;    0.000
461.126; 1656.725;  281.475;    0.000
461.170; 1764.725;  244.475;    0.000
461.214; 1680.725;  262.475;    0.000
461.257; 1760.725;  284.475;    0.000
461.301; 1741.725;  275.475;    0.000
461.345; 1644.725;  267.475;    0.000
461.389; 1738.725;  255.475;    0.000
461.432; 1754.725;  282.475;    0.000
461.476; 1678.725;  263.475;    0.000
461.520; 1765.725;  260.475;    0.000
461.563; 1736.725;  278.475;    0.000
461.607; 1719.725;  236.475;    0.000
461.651; 1653.725;  262.475;    0.000
461.694; 1673.725;  236.475;    0.000
461.738; 1665.725;  295.475;    0.000
461.782; 1742.725;  252.475;    0.000
461.825; 1726.725;  271.475;    0.000
461.869; 1767.725;  278.475;    0.000
461.913; 1727.725;  255.475;    0.000
461.956; 1769.725;  254.475;    0.000
462.000; 1707.725;  299.475;    0.000
462.043; 1773.725;  282.475;    0.000
462.087; 1780.725;  274.475;    0.000
462.130; 1788.725;  270.475;    0.000
462.174; 1781.725;  274.475;    0.000
462.217; 1688.725;  272.475;    0.000
462.261; 1745.725;  286.475;    0.000
462.304; 1696.725;  236.475;    0.000
462.348; 1794.725;  262.475;    0.000
462.391; 1731.725;  244.475;    0.000
462.435; 1774.725;  321.475;    0.000
462.478; 1703.725;  230.475;    0.000
462.522; 1730.725;  245.475;    0.000
462.565; 1837.725;  278.475;    0.000
462.608; 1848.725;  303.475;    0.000
462.652; 1781.725;  275.475;    0.000
462.695; 1766.725;  314.475;    0.000
462.739; 1799.725;  307.475;    0.000
462.782; 1823.725;  286.475;    0.000
462.825; 1834.725;  312.475;    0.000
462.869; 1797.725;  338.475;    0.000
462.912; 1887.725;  304.475;    0.000
462.955; 1812.725;  288.475;    0.000
462.998; 1762.725;  292.475;    0.000
463.042; 1865.725;  309.475;    0.000
463.085; 1863.725;  292.475;    0.000
463.128; 1840.725;  317.475;    0.000
463.172; 1712.725;  287.475;    0.000
463.215;  365.725;  313.475;    0.000
463.258;  321.725;  295.475;    0.000
463.301;  298.725;  275.475;    0.000
463.344;  342.725;  311.475;    0.000
463.388;  330.725;  296.475;    0.000
463.431;  305.725;  277.475;    0.000
463.474;  341.725;  364.475;    0.000
463.517;  287.725;  306.475;    0.000
463.560;  311.725;  308.475;    0.000
463.603;  339.725;  343.475;    0.000
463.646;  331.725;  309.475;    0.000
463.690;  323.725;  309.475;    0.000
463.733;  334.725;  320.475;    0.000
463.776;  300.725;  299.475;    0.000
463.819;  346.725;  320.475;    0.000
463.862;  312.725;  283.475;    0.000

