
Integration time [ms]:   1.000
Averaging Nr. [scans]: 1
Smoothing Nr. [pixels]: 0
Data measured with spectrometer [name]: UV1
Wave   ;Sample   ;Dark     ;Reference
[nm]   ;[counts] ;[counts] ;[counts] 

236.381;  148.825;  175.825;    0.000
236.451;  190.825;  220.825;    0.000
236.520;  169.825;  178.825;    0.000
236.590;  205.825;  182.825;    0.000
236.660;  161.825;  180.825;    0.000
236.730;  191.825;  201.825;    0.000
236.799;  178.825;  168.825;    0.000
236.869;  179.825;  205.825;    0.000
236.939;  175.825;  175.825;    0.000
237.009;  149.825;  186.825;    0.000
237.078;  180.825;  200.825;    0.000
237.148;  160.825;  156.825;    0.000
237.218;  176.825;  190.825;    0.000
237.287;  170.825;  167.825;    0.000
237.357;  157.825;  213.825;    0.000
237.427;  141.825;  164.825;    0.000
237.496;  779.825;  210.825;    0.000
237.566;  783.825;  193.825;    0.000
237.636;  708.825;  179.825;    0.000
237.705;  705.825;  218.825;    0.000
237.775;  711.825;  160.825;    0.000
237.845;  762.825;  207.825;    0.000
237.914;  656.825;  180.825;    0.000
237.984;  691.825;  207.825;    0.000
238.054;  685.825;  149.825;    0.000
238.123;  752.825;  190.825;    0.000
238.193;  698.825;  167.825;    0.000
238.263;  803.825;  172.825;    0.000
238.332;  706.825;  173.825;    0.000
238.402;  711.825;  214.825;    0.000
238.471;  713.825;  181.825;    0.000
238.541;  658.825;  177.825;    0.000
238.611;  666.825;  138.825;    0.000
238.680;  670.825;  168.825;    0.000
238.750;  692.825;  171.825;    0.000
238.819;  739.825;  156.825;    0.000
238.889;  656.825;  194.825;    0.000
238.958;  704.825;  185.825;    0.000
239.028;  740.825;  170.825;    0.000
239.097;  675.825;  159.825;    0.000
239.167;  716.825;  208.825;    0.000
239.237;  743.825;  167.825;    0.000
239.306;  725.825;  154.825;    0.000
239.376;  695.825;  183.825;    0.000
239.445;  692.825;  221.825;    0.000
239.515;  729.825;  208.825;    0.000
239.584;  710.825;  177.825;    0.000
239.654;  677.825;  133.825;    0.000
239.723;  716.825;  167.825;    0.000
239.793;  667.825;  190.825;    0.000
239.862;  747.825;  192.825;    0.000
239.932;  668.825;  174.825;    0.000
240.001;  687.825;  166.825;    0.000
240.070;  697.825;  179.825;    0.000
240.140;  640.825;  191.825;    0.000
240.209;  702.825;  134.825;    0.000
240.279;  687.825;  185.825;    0.000
240.348;  704.825;  193.825;    0.000
240.418;  683.825;  149.825;    0.000
240.487;  689.825;  197.825;    0.000
240.556;  674.825;  193.825;    0.000
240.626;  646.825;  178.825;    0.000
240.695;  653.825;  194.825;    0.000
240.765;  714.825;  178.825;    0.000
240.834;  687.825;  190.825;    0.000
240.903;  666.825;  212.825;    0.000
240.973;  738.825;  153.825;    0.000
241.042;  669.825;  177.825;    0.000
241.112;  700.825;  193.825;    0.000
241.181;  688.825;  171.825;    0.000
241.250;  644.825;  152.825;    0.000
241.320;  704.825;  176.825;    0.000
241.389;  691.825;  186.825;    0.000
241.458;  721.825;  182.825;    0.000
241.528;  693.825;  175.825;    0.000
241.597;  687.825;  180.825;    0.000
241.666;  729.825;  162.825;    0.000
241.736;  712.825;  187.825;    0.000
241.805;  691.825;  173.825;    0.000
241.874;  681.825;  177.825;    0.000
241.943;  672.825;  208.825;    0.000
242.013;  739.825;  183.825;    0.000
242.082;  655.825;  171.825;    0.000
242.151;  712.825;  208.825;    0.000
242.221;  657.825;  160.825;    0.000
242.290;  649.825;  200.825;    0.000
242.359;  680.825;  167.825;    0.000
242.428;  658.825;  213.825;    0.000
242.498;  581.825;  156.825;    0.000
242.567;  695.825;  200.825;    0.000
242.636;  703.825;  178.825;    0.000
242.705;  671.825;  185.825;    0.000
242.774;  668.825;  190.825;    0.000
242.844;  645.825;  194.825;    0.000
242.913;  690.825;  162.825;    0.000
242.982;  652.825;  189.825;    0.000
243.051;  692.825;  176.825;    0.000
243.120;  629.825;  213.825;    0.000
243.190;  625.825;  155.825;    0.000
243.259;  704.825;  183.825;    0.000
243.328;  669.825;  170.825;    0.000
243.397;  657.825;  224.825;    0.000
243.466;  613.825;  172.825;    0.000
243.535;  661.825;  145.825;    0.000
243.605;  655.825;  157.825;    0.000
243.674;  713.825;  199.825;    0.000
243.743;  671.825;  196.825;    0.000
243.812;  615.825;  152.825;    0.000
243.881;  649.825;  188.825;    0.000
243.950;  650.825;  154.825;    0.000
244.019;  665.825;  195.825;    0.000
244.088;  642.825;  164.825;    0.000
244.158;  640.825;  220.825;    0.000
244.227;  659.825;  150.825;    0.000
244.296;  654.825;  153.825;    0.000
244.365;  675.825;  195.825;    0.000
244.434;  616.825;  136.825;    0.000
244.503;  597.825;  172.825;    0.000
244.572;  656.825;  129.825;    0.000
244.641;  642.825;  132.825;    0.000
244.710;  672.825;  185.825;    0.000
244.779;  689.825;  164.825;    0.000
244.848;  609.825;  132.825;    0.000
244.917;  645.825;  196.825;    0.000
244.986;  652.825;  148.825;    0.000
245.055;  673.825;  192.825;    0.000
245.124;  619.825;  170.825;    0.000
245.193;  653.825;  172.825;    0.000
245.262;  599.825;  146.825;    0.000
245.331;  657.825;  178.825;    0.000
245.400;  609.825;  108.825;    0.000
245.469;  604.825;  173.825;    0.000
245.538;  615.825;  180.825;    0.000
245.607;  638.825;  171.825;    0.000
245.676;  623.825;  149.825;    0.000
245.745;  595.825;  194.825;    0.000
245.814;  609.825;  186.825;    0.000
245.883;  606.825;  192.825;    0.000
245.952;  630.825;  169.825;    0.000
246.021;  602.825;  190.825;    0.000
246.090;  586.825;  181.825;    0.000
246.159;  603.825;  179.825;    0.000
246.227;  612.825;  182.825;    0.000
246.296;  608.825;  182.825;    0.000
246.365;  538.825;  171.825;    0.000
246.434;  680.825;  218.825;    0.000
246.503;  624.825;  147.825;    0.000
246.572;  665.825;  227.825;    0.000
246.641;  583.825;  193.825;    0.000
246.710;  668.825;  207.825;    0.000
246.779;  587.825;  181.825;    0.000
246.847;  607.825;  179.825;    0.000
246.916;  561.825;  155.825;    0.000
246.985;  550.825;  168.825;    0.000
247.054;  627.825;  137.825;    0.000
247.123;  598.825;  128.825;    0.000
247.192;  598.825;  163.825;    0.000
247.260;  589.825;  173.825;    0.000
247.329;  554.825;  174.825;    0.000
247.398;  612.825;  238.825;    0.000
247.467;  576.825;  168.825;    0.000
247.536;  618.825;  203.825;    0.000
247.604;  609.825;  194.825;    0.000
247.673;  564.825;  145.825;    0.000
247.742;  583.825;  167.825;    0.000
247.811;  575.825;  180.825;    0.000
247.879;  552.825;  187.825;    0.000
247.948;  577.825;  187.825;    0.000
248.017;  549.825;  170.825;    0.000
248.086;  662.825;  223.825;    0.000
248.154;  570.825;  160.825;    0.000
248.223;  529.825;  163.825;    0.000
248.292;  595.825;  201.825;    0.000
248.361;  609.825;  205.825;    0.000
248.429;  532.825;  191.825;    0.000
248.498;  508.825;  194.825;    0.000
248.567;  565.825;  217.825;    0.000
248.635;  590.825;  224.825;    0.000
248.704;  609.825;  204.825;    0.000
248.773;  575.825;  175.825;    0.000
248.841;  557.825;  157.825;    0.000
248.910;  587.825;  206.825;    0.000
248.979;  552.825;  170.825;    0.000
249.047;  569.825;  178.825;    0.000
249.116;  568.825;  183.825;    0.000
249.185;  613.825;  202.825;    0.000
249.253;  524.825;  159.825;    0.000
249.322;  571.825;  177.825;    0.000
249.390;  565.825;  157.825;    0.000
249.459;  615.825;  211.825;    0.000
249.528;  551.825;  181.825;    0.000
249.596;  603.825;  179.825;    0.000
249.665;  550.825;  176.825;    0.000
249.733;  549.825;  186.825;    0.000
249.802;  576.825;  185.825;    0.000
249.871;  550.825;  166.825;    0.000
249.939;  568.825;  163.825;    0.000
250.008;  594.825;  212.825;    0.000
250.076;  573.825;  227.825;    0.000
250.145;  575.825;  172.825;    0.000
250.213;  520.825;  173.825;    0.000
250.282;  531.825;  189.825;    0.000
250.350;  530.825;  166.825;    0.000
250.419;  571.825;  161.825;    0.000
250.487;  558.825;  178.825;    0.000
250.556;  553.825;  208.825;    0.000
250.624;  534.825;  190.825;    0.000
250.693;  516.825;  163.825;    0.000
250.761;  540.825;  194.825;    0.000
250.830;  566.825;  225.825;    0.000
250.898;  525.825;  140.825;    0.000
250.967;  522.825;  167.825;    0.000
251.035;  521.825;  155.825;    0.000
251.104;  551.825;  189.825;    0.000
251.172;  532.825;  136.825;    0.000
251.241;  495.825;  148.825;    0.000
251.309;  530.825;  201.825;    0.000
251.378;  577.825;  169.825;    0.000
251.446;  500.825;  178.825;    0.000
251.514;  571.825;  206.825;    0.000
251.583;  514.825;  178.825;    0.000
251.651;  510.825;  168.825;    0.000
251.720;  539.825;  190.825;    0.000
251.788;  555.825;  209.825;    0.000
251.856;  508.825;  173.825;    0.000
251.925;  510.825;  171.825;    0.000
251.993;  580.825;  188.825;    0.000
252.062;  542.825;  169.825;    0.000
252.130;  492.825;  196.825;    0.000
252.198;  483.825;  210.825;    0.000
252.267;  528.825;  181.825;    0.000
252.335;  533.825;  164.825;    0.000
252.403;  512.825;  152.825;    0.000
252.472;  523.825;  166.825;    0.000
252.540;  470.825;  189.825;    0.000
252.608;  515.825;  198.825;    0.000
252.677;  455.825;  156.825;    0.000
252.745;  531.825;  184.825;    0.000
252.813;  484.825;  163.825;    0.000
252.881;  440.825;  130.825;    0.000
252.950;  470.825;  189.825;    0.000
253.018;  504.825;  164.825;    0.000
253.086;  478.825;  172.825;    0.000
253.155;  451.825;  205.825;    0.000
253.223;  449.825;  175.825;    0.000
253.291;  472.825;  176.825;    0.000
253.359;  447.825;  182.825;    0.000
253.428;  472.825;  222.825;    0.000
253.496;  402.825;  166.825;    0.000
253.564;  395.825;  135.825;    0.000
253.632;  403.825;  184.825;    0.000
253.700;  454.825;  173.825;    0.000
253.769;  395.825;  163.825;    0.000
253.837;  404.825;  179.825;    0.000
253.905;  394.825;  157.825;    0.000
253.973;  382.825;  164.825;    0.000
254.041;  430.825;  170.825;    0.000
254.110;  402.825;  169.825;    0.000
254.178;  373.825;  165.825;    0.000
254.246;  376.825;  126.825;    0.000
254.314;  422.825;  166.825;    0.000
254.382;  414.825;  169.825;    0.000
254.450;  436.825;  170.825;    0.000
254.518;  425.825;  196.825;    0.000
254.587;  383.825;  161.825;    0.000
254.655;  428.825;  187.825;    0.000
254.723;  412.825;  144.825;    0.000
254.791;  439.825;  175.825;    0.000
254.859;  453.825;  168.825;    0.000
254.927;  436.825;  198.825;    0.000
254.995;  403.825;  165.825;    0.000
255.063;  425.825;  150.825;    0.000
255.131;  434.825;  181.825;    0.000
255.199;  445.825;  160.825;    0.000
255.267;  401.825;  131.825;    0.000
255.336;  430.825;  188.825;    0.000
255.404;  405.825;  163.825;    0.000
255.472;  444.825;  192.825;    0.000
255.540;  403.825;  158.825;    0.000
255.608;  405.825;  147.825;    0.000
255.676;  430.825;  166.825;    0.000
255.744;  451.825;  159.825;    0.000
255.812;  421.825;  164.825;    0.000
255.880;  466.825;  195.825;    0.000
255.948;  409.825;  167.825;    0.000
256.016;  438.825;  185.825;    0.000
256.084;  436.825;  191.825;    0.000
256.152;  473.825;  214.825;    0.000
256.220;  452.825;  195.825;    0.000
256.288;  457.825;  185.825;    0.000
256.356;  440.825;  168.825;    0.000
256.424;  441.825;  161.825;    0.000
256.491;  445.825;  161.825;    0.000
256.559;  485.825;  157.825;    0.000
256.627;  443.825;  164.825;    0.000
256.695;  439.825;  146.825;    0.000
256.763;  517.825;  194.825;    0.000
256.831;  473.825;  182.825;    0.000
256.899;  557.825;  192.825;    0.000
256.967;  436.825;  172.825;    0.000
257.035;  472.825;  169.825;    0.000
257.103;  549.825;  223.825;    0.000
257.171;  455.825;  141.825;    0.000
257.238;  481.825;  146.825;    0.000
257.306;  545.825;  180.825;    0.000
257.374;  509.825;  138.825;    0.000
257.442;  507.825;  135.825;    0.000
257.510;  554.825;  130.825;    0.000
257.578;  483.825;  123.825;    0.000
257.646;  529.825;  162.825;    0.000
257.713;  503.825;  149.825;    0.000
257.781;  540.825;  125.825;    0.000
257.849;  532.825;  149.825;    0.000
257.917;  476.825;  177.825;    0.000
257.985;  521.825;  143.825;    0.000
258.052;  548.825;  154.825;    0.000
258.120;  559.825;  162.825;    0.000
258.188;  579.825;  172.825;    0.000
258.256;  533.825;  160.825;    0.000
258.324;  595.825;  209.825;    0.000
258.391;  571.825;  153.825;    0.000
258.459;  588.825;  133.825;    0.000
258.527;  620.825;  160.825;    0.000
258.595;  613.825;  128.825;    0.000
258.662;  562.825;  114.825;    0.000
258.730;  612.825;  192.825;    0.000
258.798;  597.825;  144.825;    0.000
258.865;  635.825;  140.825;    0.000
258.933;  583.825;  150.825;    0.000
259.001;  626.825;  149.825;    0.000
259.069;  631.825;  110.825;    0.000
259.136;  635.825;  150.825;    0.000
259.204;  632.825;  156.825;    0.000
259.272;  662.825;  185.825;    0.000
259.339;  636.825;  148.825;    0.000
259.407;  658.825;  163.825;    0.000
259.475;  688.825;  129.825;    0.000
259.542;  689.825;  144.825;    0.000
259.610;  618.825;  164.825;    0.000
259.677;  687.825;  188.825;    0.000
259.745;  716.825;  113.825;    0.000
259.813;  717.825;  188.825;    0.000
259.880;  813.825;  174.825;    0.000
259.948;  648.825;  166.825;    0.000
260.016;  726.825;  150.825;    0.000
260.083;  699.825;  178.825;    0.000
260.151;  691.825;  120.825;    0.000
260.218;  777.825;  175.825;    0.000
260.286;  737.825;  155.825;    0.000
260.353;  768.825;  165.825;    0.000
260.421;  722.825;  169.825;    0.000
260.489;  806.825;  194.825;    0.000
260.556;  761.825;  161.825;    0.000
260.624;  785.825;  179.825;    0.000
260.691;  823.825;  174.825;    0.000
260.759;  832.825;  164.825;    0.000
260.826;  786.825;  125.825;    0.000
260.894;  783.825;  164.825;    0.000
260.961;  771.825;  147.825;    0.000
261.029;  912.825;  167.825;    0.000
261.096;  853.825;  136.825;    0.000
261.164;  794.825;  146.825;    0.000
261.231;  836.825;  190.825;    0.000
261.299;  886.825;  171.825;    0.000
261.366;  847.825;  165.825;    0.000
261.434;  829.825;  160.825;    0.000
261.501;  862.825;  149.825;    0.000
261.568;  859.825;  155.825;    0.000
261.636;  918.825;  137.825;    0.000
261.703;  954.825;  186.825;    0.000
261.771;  879.825;  162.825;    0.000
261.838;  966.825;  190.825;    0.000
261.906;  878.825;  133.825;    0.000
261.973;  902.825;  202.825;    0.000
262.040;  968.825;  179.825;    0.000
262.108;  978.825;  161.825;    0.000
262.175;  972.825;  155.825;    0.000
262.243;  936.825;  158.825;    0.000
262.310;  978.825;  129.825;    0.000
262.377; 1005.825;  157.825;    0.000
262.445; 1042.825;  132.825;    0.000
262.512; 1019.825;  161.825;    0.000
262.579;  967.825;  151.825;    0.000
262.647;  932.825;  174.825;    0.000
262.714; 1033.825;  174.825;    0.000
262.781; 1014.825;  164.825;    0.000
262.849;  992.825;  168.825;    0.000
262.916; 1024.825;  153.825;    0.000
262.983; 1069.825;  201.825;    0.000
263.051; 1049.825;  117.825;    0.000
263.118; 1086.825;  150.825;    0.000
263.185; 1057.825;  172.825;    0.000
263.252; 1029.825;  154.825;    0.000
263.320; 1117.825;  152.825;    0.000
263.387; 1037.825;  136.825;    0.000
263.454; 1060.825;  167.825;    0.000
263.522; 1055.825;  122.825;    0.000
263.589; 1117.825;  147.825;    0.000
263.656; 1087.825;  130.825;    0.000
263.723; 1153.825;  182.825;    0.000
263.790; 1141.825;  163.825;    0.000
263.858; 1072.825;  161.825;    0.000
263.925; 1131.825;  153.825;    0.000
263.992; 1128.825;  139.825;    0.000
264.059; 1163.825;  141.825;    0.000
264.126; 1155.825;  153.825;    0.000
264.194; 1155.825;  144.825;    0.000
264.261; 1160.825;  188.825;    0.000
264.328; 1189.825;  161.825;    0.000
264.395; 1140.825;  184.825;    0.000
264.462; 1218.825;  162.825;    0.000
264.529; 1180.825;  178.825;    0.000
264.597; 1135.825;  160.825;    0.000
264.664; 1213.825;  158.825;    0.000
264.731; 1157.825;  176.825;    0.000
264.798; 1138.825;  137.825;    0.000
264.865; 1273.825;  175.825;    0.000
264.932; 1200.825;  162.825;    0.000
264.999; 1211.825;  153.825;    0.000
265.066; 1269.825;  168.825;    0.000
265.133; 1254.825;  142.825;    0.000
265.201; 1227.825;  163.825;    0.000
265.268; 1289.825;  143.825;    0.000
265.335; 1230.825;  156.825;    0.000
265.402; 1227.825;  136.825;    0.000
265.469; 1264.825;  127.825;    0.000
265.536; 1302.825;  159.825;    0.000
265.603; 1301.825;  191.825;    0.000
265.670; 1218.825;  136.825;    0.000
265.737; 1294.825;  186.825;    0.000
265.804; 1291.825;  147.825;    0.000
265.871; 1282.825;  147.825;    0.000
265.938; 1291.825;  153.825;    0.000
266.005; 1324.825;  172.825;    0.000
266.072; 1338.825;  151.825;    0.000
266.139; 1350.825;  175.825;    0.000
266.206; 1372.825;  165.825;    0.000
266.273; 1296.825;  162.825;    0.000
266.340; 1289.825;  150.825;    0.000
266.407; 1356.825;  169.825;    0.000
266.474; 1348.825;  151.825;    0.000
266.541; 1349.825;  164.825;    0.000
266.608; 1363.825;  111.825;    0.000
266.675; 1449.825;  173.825;    0.000
266.742; 1365.825;  148.825;    0.000
266.808; 1349.825;  185.825;    0.000
266.875; 1389.825;  188.825;    0.000
266.942; 1392.825;  131.825;    0.000
267.009; 1341.825;  184.825;    0.000
267.076; 1467.825;  200.825;    0.000
267.143; 1391.825;  216.825;    0.000
267.210; 1533.825;  138.825;    0.000
267.277; 1435.825;  143.825;    0.000
267.344; 1369.825;  172.825;    0.000
267.410; 1416.825;  172.825;    0.000
267.477; 1426.825;  160.825;    0.000
267.544; 1425.825;  175.825;    0.000
267.611; 1472.825;  189.825;    0.000
267.678; 1425.825;  162.825;    0.000
267.745; 1395.825;  206.825;    0.000
267.811; 1406.825;  146.825;    0.000
267.878; 1465.825;  147.825;    0.000
267.945; 1457.825;  170.825;    0.000
268.012; 1421.825;  153.825;    0.000
268.079; 1470.825;  185.825;    0.000
268.145; 1404.825;  197.825;    0.000
268.212; 1485.825;  167.825;    0.000
268.279; 1423.825;  145.825;    0.000
268.346; 1433.825;  182.825;    0.000
268.412; 1440.825;  144.825;    0.000
268.479; 1409.825;  186.825;    0.000
268.546; 1383.825;  147.825;    0.000
268.613; 1402.825;  188.825;    0.000
268.679; 1409.825;  173.825;    0.000
268.746; 1441.825;  204.825;    0.000
268.813; 1411.825;  199.825;    0.000
268.879; 1512.825;  157.825;    0.000
268.946; 1484.825;  192.825;    0.000
269.013; 1453.825;  136.825;    0.000
269.079; 1441.825;  166.825;    0.000
269.146; 1422.825;  129.825;    0.000
269.213; 1511.825;  178.825;    0.000
269.280; 1475.825;  148.825;    0.000
269.346; 1457.825;  194.825;    0.000
269.413; 1407.825;  135.825;    0.000
269.479; 1438.825;  180.825;    0.000
269.546; 1454.825;  169.825;    0.000
269.613; 1468.825;  160.825;    0.000
269.679; 1505.825;  161.825;    0.000
269.746; 1468.825;  143.825;    0.000
269.813; 1492.825;  172.825;    0.000
269.879; 1488.825;  152.825;    0.000
269.946; 1439.825;  156.825;    0.000
270.012; 1399.825;  190.825;    0.000
270.079; 1435.825;  143.825;    0.000
270.145; 1505.825;  148.825;    0.000
270.212; 1475.825;  176.825;    0.000
270.279; 1452.825;  168.825;    0.000
270.345; 1392.825;  143.825;    0.000
270.412; 1460.825;  155.825;    0.000
270.478; 1427.825;  176.825;    0.000
270.545; 1484.825;  112.825;    0.000
270.611; 1451.825;  186.825;    0.000
270.678; 1439.825;  141.825;    0.000
270.744; 1471.825;  145.825;    0.000
270.811; 1458.825;  120.825;    0.000
270.877; 1353.825;  118.825;    0.000
270.944; 1392.825;  135.825;    0.000
271.010; 1474.825;  128.825;    0.000
271.077; 1450.825;  176.825;    0.000
271.143; 1426.825;  162.825;    0.000
271.210; 1443.825;  133.825;    0.000
271.276; 1421.825;  107.825;    0.000
271.342; 1388.825;  202.825;    0.000
271.409; 1450.825;  160.825;    0.000
271.475; 1426.825;  165.825;    0.000
271.542; 1398.825;  152.825;    0.000
271.608; 1515.825;  163.825;    0.000
271.675; 1381.825;  149.825;    0.000
271.741; 1454.825;  164.825;    0.000
271.807; 1416.825;  128.825;    0.000
271.874; 1522.825;  148.825;    0.000
271.940; 1514.825;  179.825;    0.000
272.007; 1493.825;  148.825;    0.000
272.073; 1526.825;  146.825;    0.000
272.139; 1437.825;  166.825;    0.000
272.206; 1478.825;  198.825;    0.000
272.272; 1472.825;  201.825;    0.000
272.338; 1475.825;  208.825;    0.000
272.405; 1458.825;  181.825;    0.000
272.471; 1465.825;  167.825;    0.000
272.537; 1438.825;  189.825;    0.000
272.604; 1479.825;  162.825;    0.000
272.670; 1464.825;  194.825;    0.000
272.736; 1470.825;  176.825;    0.000
272.802; 1495.825;  163.825;    0.000
272.869; 1448.825;  170.825;    0.000
272.935; 1390.825;  145.825;    0.000
273.001; 1503.825;  149.825;    0.000
273.068; 1532.825;  172.825;    0.000
273.134; 1486.825;  155.825;    0.000
273.200; 1489.825;  183.825;    0.000
273.266; 1498.825;  160.825;    0.000
273.333; 1498.825;  190.825;    0.000
273.399; 1517.825;  132.825;    0.000
273.465; 1564.825;  179.825;    0.000
273.531; 1533.825;  161.825;    0.000
273.597; 1498.825;  194.825;    0.000
273.664; 1610.825;  193.825;    0.000
273.730; 1495.825;  180.825;    0.000
273.796; 1599.825;  145.825;    0.000
273.862; 1553.825;  176.825;    0.000
273.928; 1608.825;  169.825;    0.000
273.995; 1620.825;  202.825;    0.000
274.061; 1592.825;  176.825;    0.000
274.127; 1540.825;  178.825;    0.000
274.193; 1609.825;  106.825;    0.000
274.259; 1593.825;  186.825;    0.000
274.325; 1645.825;  163.825;    0.000
274.391; 1609.825;  162.825;    0.000
274.457; 1605.825;  145.825;    0.000
274.524; 1617.825;  189.825;    0.000
274.590; 1661.825;  161.825;    0.000
274.656; 1643.825;  157.825;    0.000
274.722; 1631.825;  143.825;    0.000
274.788; 1621.825;  166.825;    0.000
274.854; 1605.825;  200.825;    0.000
274.920; 1667.825;  132.825;    0.000
274.986; 1658.825;  184.825;    0.000
275.052; 1782.825;  169.825;    0.000
275.118; 1651.825;  153.825;    0.000
275.184; 1695.825;  182.825;    0.000
275.250; 1760.825;  124.825;    0.000
275.316; 1838.825;  154.825;    0.000
275.382; 1794.825;  150.825;    0.000
275.448; 1778.825;  180.825;    0.000
275.514; 1804.825;  143.825;    0.000
275.580; 1749.825;  120.825;    0.000
275.646; 1816.825;  127.825;    0.000
275.712; 1844.825;  109.825;    0.000
275.778; 1888.825;  126.825;    0.000
275.844; 1865.825;  155.825;    0.000
275.910; 1845.825;  164.825;    0.000
275.976; 1909.825;  161.825;    0.000
276.042; 1965.825;  152.825;    0.000
276.108; 1999.825;  159.825;    0.000
276.174; 2007.825;  149.825;    0.000
276.240; 2013.825;  112.825;    0.000
276.306; 2067.825;  142.825;    0.000
276.372; 2033.825;  136.825;    0.000
276.437; 2114.825;  141.825;    0.000
276.503; 2058.825;  150.825;    0.000
276.569; 2261.825;  178.825;    0.000
276.635; 2188.825;  117.825;    0.000
276.701; 2251.825;  174.825;    0.000
276.767; 2188.825;  136.825;    0.000
276.833; 2348.825;  119.825;    0.000
276.899; 2311.825;  171.825;    0.000
276.964; 2439.825;  146.825;    0.000
277.030; 2506.825;  157.825;    0.000
277.096; 2567.825;  124.825;    0.000
277.162; 2641.825;  185.825;    0.000
277.228; 2800.825;  125.825;    0.000
277.293; 2816.825;  159.825;    0.000
277.359; 2932.825;  186.825;    0.000
277.425; 3016.825;  176.825;    0.000
277.491; 3237.825;  140.825;    0.000
277.557; 3919.825;  172.825;    0.000
277.622; 4863.825;  187.825;    0.000
277.688; 5029.825;  203.825;    0.000
277.754; 5097.825;  170.825;    0.000
277.820; 5567.825;  142.825;    0.000
277.885; 6522.825;  182.825;    0.000
277.951; 7856.825;  171.825;    0.000
278.017; 7005.825;  173.825;    0.000
278.083; 6343.825;  151.825;    0.000
278.148; 6008.825;  159.825;    0.000
278.214; 6128.825;  173.825;    0.000
278.280; 6597.825;  137.825;    0.000
278.345; 6009.825;  190.825;    0.000
278.411; 5610.825;  149.825;    0.000
278.477; 5907.825;  157.825;    0.000
278.542; 6213.825;  136.825;    0.000
278.608; 6835.825;  144.825;    0.000
278.674; 7503.825;  215.825;    0.000
278.739; 8150.825;  148.825;    0.000
278.805; 9304.825;  152.825;    0.000
278.871;10869.825;  170.825;    0.000
278.936;13304.825;  180.825;    0.000
279.002;18190.824;  177.825;    0.000
279.067;22938.824;  172.825;    0.000
279.133;22841.824;  160.825;    0.000
279.199;21439.824;  165.825;    0.000
279.264;21865.824;  130.825;    0.000
279.330;24778.824;  154.825;    0.000
279.395;29860.824;  170.825;    0.000
279.461;34259.824;  136.825;    0.000
279.527;36408.824;  174.825;    0.000
279.592;36197.824;  179.825;    0.000
279.658;33632.824;  187.825;    0.000
279.723;32747.824;  201.825;    0.000
279.789;33956.824;  194.825;    0.000
279.854;30823.824;  171.825;    0.000
279.920;26539.824;  183.825;    0.000
279.985;25009.824;  173.825;    0.000
280.051;25112.824;  194.825;    0.000
280.116;28597.824;  197.825;    0.000
280.182;33602.824;  171.825;    0.000
280.247;36126.824;  131.825;    0.000
280.313;33171.824;  166.825;    0.000
280.378;26663.824;  159.825;    0.000
280.444;21135.824;  190.825;    0.000
280.509;17374.824;  189.825;    0.000
280.574;14972.825;  171.825;    0.000
280.640;12920.825;  167.825;    0.000
280.705;11546.825;  129.825;    0.000
280.771;10538.825;  193.825;    0.000
280.836; 9526.825;  172.825;    0.000
280.902; 8855.825;  189.825;    0.000
280.967; 8167.825;  143.825;    0.000
281.032; 7840.825;  182.825;    0.000
281.098; 7466.825;  172.825;    0.000
281.163; 7042.825;  184.825;    0.000
281.229; 6600.825;  210.825;    0.000
281.294; 6202.825;  223.825;    0.000
281.359; 5985.825;  197.825;    0.000
281.425; 5788.825;  192.825;    0.000
281.490; 5466.825;  162.825;    0.000
281.555; 5315.825;  193.825;    0.000
281.621; 5110.825;  141.825;    0.000
281.686; 4987.825;  166.825;    0.000
281.751; 4927.825;  204.825;    0.000
281.816; 4736.825;  159.825;    0.000
281.882; 4560.825;  146.825;    0.000
281.947; 4476.825;  176.825;    0.000
282.012; 4446.825;  139.825;    0.000
282.078; 4166.825;  186.825;    0.000
282.143; 4045.825;  151.825;    0.000
282.208; 3943.825;  213.825;    0.000
282.273; 3959.825;  160.825;    0.000
282.339; 3860.825;  175.825;    0.000
282.404; 3784.825;  157.825;    0.000
282.469; 3711.825;  185.825;    0.000
282.534; 3584.825;  166.825;    0.000
282.600; 3644.825;  168.825;    0.000
282.665; 3421.825;  167.825;    0.000
282.730; 3461.825;  148.825;    0.000
282.795; 3306.825;  186.825;    0.000
282.860; 3349.825;  161.825;    0.000
282.926; 3269.825;  178.825;    0.000
282.991; 3183.825;  139.825;    0.000
283.056; 3143.825;  158.825;    0.000
283.121; 3200.825;  191.825;    0.000
283.186; 3093.825;  182.825;    0.000
283.251; 3131.825;  181.825;    0.000
283.316; 3214.825;  187.825;    0.000
283.382; 2986.825;  175.825;    0.000
283.447; 3023.825;  183.825;    0.000
283.512; 2967.825;  175.825;    0.000
283.577; 3016.825;  180.825;    0.000
283.642; 3040.825;  193.825;    0.000
283.707; 2916.825;  145.825;    0.000
283.772; 2844.825;  143.825;    0.000
283.837; 2902.825;  143.825;    0.000
283.902; 2853.825;  150.825;    0.000
283.967; 2929.825;  166.825;    0.000
284.032; 2825.825;  126.825;    0.000
284.097; 2819.825;  201.825;    0.000
284.163; 2784.825;  133.825;    0.000
284.228; 2791.825;  193.825;    0.000
284.293; 2721.825;  157.825;    0.000
284.358; 2865.825;  185.825;    0.000
284.423; 2896.825;  142.825;    0.000
284.488; 2975.825;  192.825;    0.000
284.553; 2992.825;  146.825;    0.000
284.618; 3067.825;  154.825;    0.000
284.683; 3161.825;  172.825;    0.000
284.748; 3195.825;  195.825;    0.000
284.812; 3342.825;  190.825;    0.000
284.877; 3701.825;  169.825;    0.000
284.942; 4152.825;  195.825;    0.000
285.007; 4871.825;  204.825;    0.000
285.072; 6586.825;  189.825;    0.000
285.137; 9886.825;  149.825;    0.000
285.202;12801.825;  164.825;    0.000
285.267;12047.825;  161.825;    0.000
285.332; 8652.825;  140.825;    0.000
285.397; 6416.825;  142.825;    0.000
285.462; 5202.825;  146.825;    0.000
285.527; 4483.825;  132.825;    0.000
285.591; 3960.825;  160.825;    0.000
285.656; 3611.825;  136.825;    0.000
285.721; 3411.825;  135.825;    0.000
285.786; 3344.825;  171.825;    0.000
285.851; 3202.825;  168.825;    0.000
285.916; 3067.825;  178.825;    0.000
285.981; 2924.825;  152.825;    0.000
286.045; 2954.825;  167.825;    0.000
286.110; 2823.825;  187.825;    0.000
286.175; 2746.825;  162.825;    0.000
286.240; 2668.825;  163.825;    0.000
286.305; 2681.825;  190.825;    0.000
286.369; 2634.825;  143.825;    0.000
286.434; 2588.825;  185.825;    0.000
286.499; 2578.825;  195.825;    0.000
286.564; 2747.825;  173.825;    0.000
286.628; 2475.825;  159.825;    0.000
286.693; 2448.825;  175.825;    0.000
286.758; 2535.825;  170.825;    0.000
286.823; 2528.825;  129.825;    0.000
286.887; 2412.825;  172.825;    0.000
286.952; 2546.825;  163.825;    0.000
287.017; 2473.825;  217.825;    0.000
287.082; 2536.825;  165.825;    0.000
287.146; 2453.825;  176.825;    0.000
287.211; 2389.825;  192.825;    0.000
287.276; 2392.825;  147.825;    0.000
287.340; 2461.825;  162.825;    0.000
287.405; 2441.825;  196.825;    0.000
287.470; 2349.825;  148.825;    0.000
287.534; 2397.825;  166.825;    0.000
287.599; 2423.825;  193.825;    0.000
287.663; 2335.825;  191.825;    0.000
287.728; 2475.825;  146.825;    0.000
287.793; 2425.825;  234.825;    0.000
287.857; 2401.825;  177.825;    0.000
287.922; 2366.825;  166.825;    0.000
287.987; 2380.825;  169.825;    0.000
288.051; 2382.825;  169.825;    0.000
288.116; 2351.825;  187.825;    0.000
288.180; 2381.825;  200.825;    0.000
288.245; 2346.825;  201.825;    0.000
288.309; 2333.825;  176.825;    0.000
288.374; 2356.825;  162.825;    0.000
288.439; 2412.825;  195.825;    0.000
288.503; 2281.825;  162.825;    0.000
288.568; 2254.825;  228.825;    0.000
288.632; 2337.825;  194.825;    0.000
288.697; 2381.825;  173.825;    0.000
288.761; 2273.825;  153.825;    0.000
288.826; 2297.825;  151.825;    0.000
288.890; 2276.825;  208.825;    0.000
288.955; 2393.825;  159.825;    0.000
289.019; 2283.825;  198.825;    0.000
289.084; 2279.825;  152.825;    0.000
289.148; 2359.825;  171.825;    0.000
289.212; 2359.825;  184.825;    0.000
289.277; 2251.825;  165.825;    0.000
289.341; 2252.825;  207.825;    0.000
289.406; 2208.825;  156.825;    0.000
289.470; 2286.825;  191.825;    0.000
289.535; 2264.825;  222.825;    0.000
289.599; 2276.825;  214.825;    0.000
289.663; 2257.825;  183.825;    0.000
289.728; 2327.825;  192.825;    0.000
289.792; 2224.825;  197.825;    0.000
289.857; 2399.825;  221.825;    0.000
289.921; 2273.825;  177.825;    0.000
289.985; 2203.825;  177.825;    0.000
290.050; 2316.825;  178.825;    0.000
290.114; 2213.825;  112.825;    0.000
290.178; 2218.825;  170.825;    0.000
290.243; 2213.825;  162.825;    0.000
290.307; 2236.825;  178.825;    0.000
290.371; 2189.825;  141.825;    0.000
290.436; 2191.825;  178.825;    0.000
290.500; 2258.825;  135.825;    0.000
290.564; 2319.825;  199.825;    0.000
290.629; 2261.825;  165.825;    0.000
290.693; 2321.825;  154.825;    0.000
290.757; 2246.825;  159.825;    0.000
290.821; 2238.825;  179.825;    0.000
290.886; 2264.825;  141.825;    0.000
290.950; 2353.825;  166.825;    0.000
291.014; 2293.825;  169.825;    0.000
291.078; 2270.825;  191.825;    0.000
291.143; 2378.825;  169.825;    0.000
291.207; 2337.825;  164.825;    0.000
291.271; 2335.825;  193.825;    0.000
291.335; 2395.825;  150.825;    0.000
291.399; 2490.825;  175.825;    0.000
291.464; 2542.825;  128.825;    0.000
291.528; 2701.825;  162.825;    0.000
291.592; 2504.825;  152.825;    0.000
291.656; 2488.825;  175.825;    0.000
291.720; 2532.825;  173.825;    0.000
291.784; 2402.825;  192.825;    0.000
291.849; 2435.825;  159.825;    0.000
291.913; 2399.825;  174.825;    0.000
291.977; 2447.825;  177.825;    0.000
292.041; 2439.825;  188.825;    0.000
292.105; 2570.825;  174.825;    0.000
292.169; 2396.825;  143.825;    0.000
292.233; 2574.825;  149.825;    0.000
292.297; 2600.825;  176.825;    0.000
292.361; 2674.825;  178.825;    0.000
292.425; 2662.825;  153.825;    0.000
292.490; 2827.825;  185.825;    0.000
292.554; 2990.825;  144.825;    0.000
292.618; 3065.825;  166.825;    0.000
292.682; 3244.825;  181.825;    0.000
292.746; 3748.825;  152.825;    0.000
292.810; 4890.825;  208.825;    0.000
292.874; 5892.825;  142.825;    0.000
292.938; 6251.825;  195.825;    0.000
293.002; 5847.825;  156.825;    0.000
293.066; 5247.825;  108.825;    0.000
293.130; 4792.825;  136.825;    0.000
293.194; 4699.825;  135.825;    0.000
293.258; 4570.825;  187.825;    0.000
293.322; 4454.825;  148.825;    0.000
293.386; 4540.825;  186.825;    0.000
293.450; 4801.825;  196.825;    0.000
293.514; 5324.825;  175.825;    0.000
293.577; 6654.825;  137.825;    0.000
293.641; 8936.825;  142.825;    0.000
293.705; 9675.825;  201.825;    0.000
293.769; 8711.825;  150.825;    0.000
293.833; 7689.825;  147.825;    0.000
293.897; 6978.825;  170.825;    0.000
293.961; 6241.825;  121.825;    0.000
294.025; 5674.825;  172.825;    0.000
294.089; 5362.825;  167.825;    0.000
294.152; 4767.825;  167.825;    0.000
294.216; 4490.825;  165.825;    0.000
294.280; 4237.825;  168.825;    0.000
294.344; 4034.825;  160.825;    0.000
294.408; 3828.825;  187.825;    0.000
294.472; 3630.825;  141.825;    0.000
294.536; 3570.825;  184.825;    0.000
294.599; 3405.825;  176.825;    0.000
294.663; 3288.825;  120.825;    0.000
294.727; 3199.825;  159.825;    0.000
294.791; 3214.825;  190.825;    0.000
294.855; 3046.825;  148.825;    0.000
294.918; 2907.825;  160.825;    0.000
294.982; 2959.825;  156.825;    0.000
295.046; 2856.825;  177.825;    0.000
295.110; 2798.825;  149.825;    0.000
295.173; 2656.825;  156.825;    0.000
295.237; 2760.825;  174.825;    0.000
295.301; 2664.825;  152.825;    0.000
295.364; 2615.825;  204.825;    0.000
295.428; 2558.825;  196.825;    0.000
295.492; 2529.825;  178.825;    0.000
295.556; 2571.825;  161.825;    0.000
295.619; 2477.825;  178.825;    0.000
295.683; 2430.825;  152.825;    0.000
295.747; 2404.825;  148.825;    0.000
295.810; 2427.825;  177.825;    0.000
295.874; 2494.825;  146.825;    0.000
295.938; 2361.825;  115.825;    0.000
296.001; 2312.825;  172.825;    0.000
296.065; 2247.825;  146.825;    0.000
296.128; 2356.825;  164.825;    0.000
296.192; 2266.825;  137.825;    0.000
296.256; 2259.825;  143.825;    0.000
296.319; 2165.825;  156.825;    0.000
296.383; 2204.825;  165.825;    0.000
296.447; 2175.825;  170.825;    0.000
296.510; 2192.825;  174.825;    0.000
296.574; 2210.825;  127.825;    0.000
296.637; 2137.825;  132.825;    0.000
296.701; 2231.825;  206.825;    0.000
296.764; 2194.825;  179.825;    0.000
296.828; 2143.825;  213.825;    0.000
296.891; 2180.825;  149.825;    0.000
296.955; 2141.825;  170.825;    0.000
297.018; 2074.825;  185.825;    0.000
297.082; 2234.825;  205.825;    0.000
297.145; 2126.825;  154.825;    0.000
297.209; 2103.825;  200.825;    0.000
297.272; 2073.825;  157.825;    0.000
297.336; 2064.825;  164.825;    0.000
297.399; 2098.825;  166.825;    0.000
297.463; 2076.825;  195.825;    0.000
297.526; 2020.825;  176.825;    0.000
297.590; 2015.825;  198.825;    0.000
297.653; 2013.825;  146.825;    0.000
297.717; 2048.825;  175.825;    0.000
297.780; 2031.825;  139.825;    0.000
297.843; 2073.825;  174.825;    0.000
297.907; 1984.825;  149.825;    0.000
297.970; 2051.825;  161.825;    0.000
298.034; 1987.825;  185.825;    0.000
298.097; 2102.825;  167.825;    0.000
298.160; 1969.825;  195.825;    0.000
298.224; 2147.825;  178.825;    0.000
298.287; 2010.825;  164.825;    0.000
298.350; 2010.825;  194.825;    0.000
298.414; 1904.825;  191.825;    0.000
298.477; 2007.825;  155.825;    0.000
298.540; 1990.825;  139.825;    0.000
298.604; 1948.825;  198.825;    0.000
298.667; 1910.825;  183.825;    0.000
298.730; 1979.825;  185.825;    0.000
298.794; 1904.825;  153.825;    0.000
298.857; 1992.825;  169.825;    0.000
298.920; 1945.825;  159.825;    0.000
298.984; 1888.825;  179.825;    0.000
299.047; 1916.825;  174.825;    0.000
299.110; 1853.825;  144.825;    0.000
299.173; 1833.825;  190.825;    0.000
299.237; 1921.825;  163.825;    0.000
299.300; 1925.825;  153.825;    0.000
299.363; 1801.825;  145.825;    0.000
299.426; 1851.825;  160.825;    0.000
299.489; 1931.825;  173.825;    0.000
299.553; 1835.825;  209.825;    0.000
299.616; 1861.825;  172.825;    0.000
299.679; 1853.825;  204.825;    0.000
299.742; 1806.825;  162.825;    0.000
299.805; 1810.825;  198.825;    0.000
299.868; 1836.825;  176.825;    0.000
299.932; 1805.825;  166.825;    0.000
299.995; 1797.825;  162.825;    0.000
300.058; 1816.825;  175.825;    0.000
300.121; 1804.825;  197.825;    0.000
300.184; 1893.825;  188.825;    0.000
300.247; 1827.825;  181.825;    0.000
300.310; 1883.825;  161.825;    0.000
300.374; 1825.825;  201.825;    0.000
300.437; 1821.825;  156.825;    0.000
300.500; 1889.825;  180.825;    0.000
300.563; 1792.825;  174.825;    0.000
300.626; 1796.825;  206.825;    0.000
300.689; 1753.825;  218.825;    0.000
300.752; 1789.825;  192.825;    0.000
300.815; 1843.825;  172.825;    0.000
300.878; 1783.825;  207.825;    0.000
300.941; 1775.825;  163.825;    0.000
301.004; 1795.825;  171.825;    0.000
301.067; 1791.825;  198.825;    0.000
301.130; 1732.825;  156.825;    0.000
301.193; 1802.825;  173.825;    0.000
301.256; 1796.825;  167.825;    0.000
301.319; 1778.825;  211.825;    0.000
301.382; 1822.825;  167.825;    0.000
301.445; 1789.825;  224.825;    0.000
301.508; 1776.825;  168.825;    0.000
301.571; 1689.825;  161.825;    0.000
301.634; 1802.825;  177.825;    0.000
301.697; 1762.825;  203.825;    0.000
301.760; 1705.825;  190.825;    0.000
301.823; 1763.825;  182.825;    0.000
301.885; 1699.825;  202.825;    0.000
301.948; 1744.825;  200.825;    0.000
302.011; 1768.825;  157.825;    0.000
302.074; 1769.825;  205.825;    0.000
302.137; 1636.825;  149.825;    0.000
302.200; 1730.825;  201.825;    0.000
302.263; 1827.825;  178.825;    0.000
302.326; 1791.825;  184.825;    0.000
302.388; 1761.825;  176.825;    0.000
302.451; 1689.825;  146.825;    0.000
302.514; 1798.825;  192.825;    0.000
302.577; 1688.825;  181.825;    0.000
302.640; 1718.825;  186.825;    0.000
302.703; 1691.825;  164.825;    0.000
302.765; 1657.825;  197.825;    0.000
302.828; 1720.825;  208.825;    0.000
302.891; 1739.825;  168.825;    0.000
302.954; 1782.825;  177.825;    0.000
303.016; 1702.825;  190.825;    0.000
303.079; 1703.825;  216.825;    0.000
303.142; 1713.825;  228.825;    0.000
303.205; 1700.825;  192.825;    0.000
303.267; 1768.825;  182.825;    0.000
303.330; 1736.825;  201.825;    0.000
303.393; 1658.825;  196.825;    0.000
303.456; 1751.825;  184.825;    0.000
303.518; 1669.825;  194.825;    0.000
303.581; 1703.825;  195.825;    0.000
303.644; 1723.825;  184.825;    0.000
303.706; 1754.825;  150.825;    0.000
303.769; 1746.825;  182.825;    0.000
303.832; 1779.825;  143.825;    0.000
303.894; 1752.825;  207.825;    0.000
303.957; 1764.825;  178.825;    0.000
304.020; 1754.825;  203.825;    0.000
304.082; 1688.825;  175.825;    0.000
304.145; 1768.825;  171.825;    0.000
304.207; 1747.825;  157.825;    0.000
304.270; 1713.825;  195.825;    0.000
304.333; 1642.825;  195.825;    0.000
304.395; 1763.825;  197.825;    0.000
304.458; 1737.825;  231.825;    0.000
304.520; 1710.825;  218.825;    0.000
304.583; 1727.825;  177.825;    0.000
304.646; 1758.825;  177.825;    0.000
304.708; 1728.825;  178.825;    0.000
304.771; 1719.825;  143.825;    0.000
304.833; 1738.825;  241.825;    0.000
304.896; 1788.825;  200.825;    0.000
304.958; 1768.825;  176.825;    0.000
305.021; 1717.825;  159.825;    0.000
305.083; 1666.825;  159.825;    0.000
305.146; 1716.825;  190.825;    0.000
305.208; 1765.825;  152.825;    0.000
305.271; 1683.825;  162.825;    0.000
305.333; 1755.825;  219.825;    0.000
305.396; 1720.825;  163.825;    0.000
305.458; 1729.825;  215.825;    0.000
305.520; 1657.825;  174.825;    0.000
305.583; 1716.825;  161.825;    0.000
305.645; 1744.825;  203.825;    0.000
305.708; 1679.825;  163.825;    0.000
305.770; 1777.825;  215.825;    0.000
305.833; 1709.825;  207.825;    0.000
305.895; 1737.825;  166.825;    0.000
305.957; 1665.825;  175.825;    0.000
306.020; 1734.825;  169.825;    0.000
306.082; 1707.825;  203.825;    0.000
306.144; 1761.825;  181.825;    0.000
306.207; 1733.825;  199.825;    0.000
306.269; 1797.825;  177.825;    0.000
306.331; 1662.825;  160.825;    0.000
306.394; 1766.825;  193.825;    0.000
306.456; 1695.825;  136.825;    0.000
306.518; 1657.825;  189.825;    0.000
306.581; 1645.825;  156.825;    0.000
306.643; 1776.825;  190.825;    0.000
306.705; 1698.825;  190.825;    0.000
306.768; 1752.825;  172.825;    0.000
306.830; 1803.825;  214.825;    0.000
306.892; 1743.825;  198.825;    0.000
306.954; 1769.825;  177.825;    0.000
307.017; 1740.825;  183.825;    0.000
307.079; 1783.825;  170.825;    0.000
307.141; 1768.825;  173.825;    0.000
307.203; 1772.825;  171.825;    0.000
307.266; 1771.825;  166.825;    0.000
307.328; 1805.825;  207.825;    0.000
307.390; 1914.825;  201.825;    0.000
307.452; 1823.825;  182.825;    0.000
307.514; 1857.825;  213.825;    0.000
307.577; 1790.825;  213.825;    0.000
307.639; 1903.825;  197.825;    0.000
307.701; 1818.825;  174.825;    0.000
307.763; 1782.825;  181.825;    0.000
307.825; 1775.825;  186.825;    0.000
307.887; 1882.825;  198.825;    0.000
307.949; 1802.825;  158.825;    0.000
308.012; 1854.825;  209.825;    0.000
308.074; 1782.825;  176.825;    0.000
308.136; 1852.825;  227.825;    0.000
308.198; 1806.825;  187.825;    0.000
308.260; 1812.825;  211.825;    0.000
308.322; 1908.825;  206.825;    0.000
308.384; 1862.825;  186.825;    0.000
308.446; 1817.825;  175.825;    0.000
308.508; 1920.825;  211.825;    0.000
308.570; 1913.825;  191.825;    0.000
308.632; 1825.825;  195.825;    0.000
308.694; 1928.825;  173.825;    0.000
308.756; 1887.825;  185.825;    0.000
308.818; 1865.825;  195.825;    0.000
308.880; 1797.825;  189.825;    0.000
308.942; 1985.825;  231.825;    0.000
309.004; 1949.825;  188.825;    0.000
309.066; 1946.825;  196.825;    0.000
309.128; 2053.825;  155.825;    0.000
309.190; 2033.825;  176.825;    0.000
309.252; 2153.825;  191.825;    0.000
309.314; 2221.825;  236.825;    0.000
309.376; 2112.825;  212.825;    0.000
309.438; 2017.825;  201.825;    0.000
309.500; 2063.825;  206.825;    0.000
309.562; 2081.825;  213.825;    0.000
309.624; 2175.825;  196.825;    0.000
309.686; 2265.825;  198.825;    0.000
309.747; 2145.825;  186.825;    0.000
309.809; 2108.825;  215.825;    0.000
309.871; 2145.825;  242.825;    0.000
309.933; 2018.825;  162.825;    0.000
309.995; 2029.825;  163.825;    0.000
310.057; 2085.825;  145.825;    0.000
310.119; 1999.825;  205.825;    0.000
310.180; 1977.825;  195.825;    0.000
310.242; 1984.825;  167.825;    0.000
310.304; 2027.825;  213.825;    0.000
310.366; 2045.825;  224.825;    0.000
310.428; 1922.825;  170.825;    0.000
310.489; 1981.825;  195.825;    0.000
310.551; 2013.825;  207.825;    0.000
310.613; 2038.825;  168.825;    0.000
310.675; 1993.825;  188.825;    0.000
310.737; 1920.825;  211.825;    0.000
310.798; 1989.825;  221.825;    0.000
310.860; 2031.825;  201.825;    0.000
310.922; 1924.825;  206.825;    0.000
310.983; 1987.825;  222.825;    0.000
311.045; 2011.825;  235.825;    0.000
311.107; 1933.825;  184.825;    0.000
311.169; 1914.825;  148.825;    0.000
311.230; 1925.825;  211.825;    0.000
311.292; 1962.825;  235.825;    0.000
311.354; 1964.825;  183.825;    0.000
311.415; 1945.825;  196.825;    0.000
311.477; 1996.825;  200.825;    0.000
311.539; 1933.825;  171.825;    0.000
311.600; 1984.825;  169.825;    0.000
311.662; 1945.825;  231.825;    0.000
311.724; 1981.825;  204.825;    0.000
311.785; 1907.825;  214.825;    0.000
311.847; 1943.825;  193.825;    0.000
311.908; 1965.825;  180.825;    0.000
311.970; 1957.825;  233.825;    0.000
312.032; 1965.825;  192.825;    0.000
312.093; 2040.825;  195.825;    0.000
312.155; 1938.825;  194.825;    0.000
312.216; 1999.825;  238.825;    0.000
312.278; 1929.825;  146.825;    0.000
312.339; 1899.825;  184.825;    0.000
312.401; 1937.825;  201.825;    0.000
312.462; 1856.825;  173.825;    0.000
312.524; 1912.825;  205.825;    0.000
312.585; 1867.825;  199.825;    0.000
312.647; 1878.825;  168.825;    0.000
312.708; 1911.825;  180.825;    0.000
312.770; 1961.825;  180.825;    0.000
312.831; 1871.825;  176.825;    0.000
312.893; 1904.825;  211.825;    0.000
312.954; 1960.825;  178.825;    0.000
313.016; 1980.825;  204.825;    0.000
313.077; 1913.825;  216.825;    0.000
313.139; 1882.825;  172.825;    0.000
313.200; 1979.825;  197.825;    0.000
313.261; 1973.825;  227.825;    0.000
313.323; 1919.825;  204.825;    0.000
313.384; 1931.825;  182.825;    0.000
313.446; 1912.825;  204.825;    0.000
313.507; 1878.825;  164.825;    0.000
313.568; 1899.825;  197.825;    0.000
313.630; 1972.825;  190.825;    0.000
313.691; 1936.825;  185.825;    0.000
313.752; 1967.825;  192.825;    0.000
313.814; 1864.825;  176.825;    0.000
313.875; 1930.825;  210.825;    0.000
313.936; 1959.825;  165.825;    0.000
313.998; 1899.825;  162.825;    0.000
314.059; 1922.825;  178.825;    0.000
314.120; 1899.825;  176.825;    0.000
314.182; 1960.825;  167.825;    0.000
314.243; 1954.825;  204.825;    0.000
314.304; 1960.825;  197.825;    0.000
314.365; 1954.825;  183.825;    0.000
314.427; 1976.825;  176.825;    0.000
314.488; 1891.825;  149.825;    0.000
314.549; 1958.825;  218.825;    0.000
314.610; 1937.825;  160.825;    0.000
314.672; 1964.825;  187.825;    0.000
314.733; 1953.825;  184.825;    0.000
314.794; 1944.825;  164.825;    0.000
314.855; 1900.825;  191.825;    0.000
314.917; 1865.825;  172.825;    0.000
314.978; 1937.825;  185.825;    0.000
315.039; 1935.825;  194.825;    0.000
315.100; 1901.825;  190.825;    0.000
315.161; 1937.825;  185.825;    0.000
315.222; 1955.825;  204.825;    0.000
315.283; 1929.825;  166.825;    0.000
315.345; 1906.825;  133.825;    0.000
315.406; 1941.825;  191.825;    0.000
315.467; 2013.825;  166.825;    0.000
315.528; 1994.825;  194.825;    0.000
315.589; 1885.825;  193.825;    0.000
315.650; 1974.825;  190.825;    0.000
315.711; 1899.825;  219.825;    0.000
315.772; 1931.825;  159.825;    0.000
315.833; 1942.825;  191.825;    0.000
315.894; 1969.825;  202.825;    0.000
315.955; 1972.825;  167.825;    0.000
316.016; 1962.825;  177.825;    0.000
316.078; 1950.825;  185.825;    0.000
316.139; 1960.825;  219.825;    0.000
316.200; 1921.825;  163.825;    0.000
316.261; 1945.825;  183.825;    0.000
316.322; 1984.825;  230.825;    0.000
316.383; 1854.825;  198.825;    0.000
316.444; 1925.825;  209.825;    0.000
316.504; 1973.825;  179.825;    0.000
316.565; 2005.825;  185.825;    0.000
316.626; 1957.825;  155.825;    0.000
316.687; 1934.825;  211.825;    0.000
316.748; 1943.825;  192.825;    0.000
316.809; 1885.825;  183.825;    0.000
316.870; 1973.825;  196.825;    0.000
316.931; 1897.825;  173.825;    0.000
316.992; 2010.825;  179.825;    0.000
317.053; 1936.825;  186.825;    0.000
317.114; 1883.825;  189.825;    0.000
317.175; 2057.825;  226.825;    0.000
317.235; 1931.825;  206.825;    0.000
317.296; 1942.825;  191.825;    0.000
317.357; 1953.825;  173.825;    0.000
317.418; 1938.825;  212.825;    0.000
317.479; 1897.825;  247.825;    0.000
317.540; 1918.825;  205.825;    0.000
317.601; 1910.825;  205.825;    0.000
317.661; 1873.825;  150.825;    0.000
317.722; 1938.825;  198.825;    0.000
317.783; 1953.825;  153.825;    0.000
317.844; 2036.825;  202.825;    0.000
317.904; 1942.825;  180.825;    0.000
317.965; 2029.825;  205.825;    0.000
318.026; 1898.825;  223.825;    0.000
318.087; 1931.825;  218.825;    0.000
318.148; 1869.825;  207.825;    0.000
318.208; 1942.825;  212.825;    0.000
318.269; 1991.825;  174.825;    0.000
318.330; 1970.825;  191.825;    0.000
318.390; 1944.825;  197.825;    0.000
318.451; 1887.825;  167.825;    0.000
318.512; 1886.825;  174.825;    0.000
318.572; 1862.825;  199.825;    0.000
318.633; 1928.825;  233.825;    0.000
318.694; 1905.825;  232.825;    0.000
318.754; 1936.825;  181.825;    0.000
318.815; 1902.825;  199.825;    0.000
318.876; 1890.825;  207.825;    0.000
318.936; 1969.825;  202.825;    0.000
318.997; 1897.825;  182.825;    0.000
319.058; 1993.825;  180.825;    0.000
319.118; 1906.825;  199.825;    0.000
319.179; 1952.825;  199.825;    0.000
319.239; 2025.825;  229.825;    0.000
319.300; 1997.825;  223.825;    0.000
319.361; 1915.825;  210.825;    0.000
319.421; 1908.825;  205.825;    0.000
319.482; 1897.825;  205.825;    0.000
319.542; 1921.825;  176.825;    0.000
319.603; 1885.825;  191.825;    0.000
319.663; 1894.825;  183.825;    0.000
319.724; 1911.825;  174.825;    0.000
319.784; 1929.825;  198.825;    0.000
319.845; 1909.825;  218.825;    0.000
319.905; 1923.825;  217.825;    0.000
319.966; 1794.825;  197.825;    0.000
320.026; 1922.825;  209.825;    0.000
320.087; 1903.825;  225.825;    0.000
320.147; 1895.825;  201.825;    0.000
320.208; 1890.825;  176.825;    0.000
320.268; 1900.825;  168.825;    0.000
320.329; 1954.825;  238.825;    0.000
320.389; 1862.825;  220.825;    0.000
320.449; 1894.825;  230.825;    0.000
320.510; 1908.825;  234.825;    0.000
320.570; 1889.825;  210.825;    0.000
320.631; 1862.825;  207.825;    0.000
320.691; 1966.825;  222.825;    0.000
320.751; 1908.825;  195.825;    0.000
320.812; 1933.825;  193.825;    0.000
320.872; 2007.825;  237.825;    0.000
320.932; 1884.825;  213.825;    0.000
320.993; 1930.825;  185.825;    0.000
321.053; 1955.825;  245.825;    0.000
321.113; 1917.825;  206.825;    0.000
321.174; 1926.825;  202.825;    0.000
321.234; 2013.825;  244.825;    0.000
321.294; 1862.825;  228.825;    0.000
321.355; 1934.825;  208.825;    0.000
321.415; 1877.825;  223.825;    0.000
321.475; 1808.825;  203.825;    0.000
321.535; 1861.825;  230.825;    0.000
321.596; 1842.825;  186.825;    0.000
321.656; 1976.825;  216.825;    0.000
321.716; 1977.825;  207.825;    0.000
321.776; 1927.825;  181.825;    0.000
321.837; 1895.825;  207.825;    0.000
321.897; 1874.825;  225.825;    0.000
321.957; 2061.825;  222.825;    0.000
322.017; 1995.825;  215.825;    0.000
322.077; 1880.825;  250.825;    0.000
322.138; 1910.825;  189.825;    0.000
322.198; 1860.825;  200.825;    0.000
322.258; 1909.825;  217.825;    0.000
322.318; 1942.825;  183.825;    0.000
322.378; 1909.825;  231.825;    0.000
322.438; 1864.825;  228.825;    0.000
322.499; 1953.825;  248.825;    0.000
322.559; 1835.825;  198.825;    0.000
322.619; 1862.825;  221.825;    0.000
322.679; 1837.825;  217.825;    0.000
322.739; 1905.825;  204.825;    0.000
322.799; 1835.825;  236.825;    0.000
322.859; 1910.825;  213.825;    0.000
322.919; 1938.825;  210.825;    0.000
322.979; 1869.825;  244.825;    0.000
323.039; 1949.825;  218.825;    0.000
323.099; 1912.825;  232.825;    0.000
323.159; 1918.825;  216.825;    0.000
323.219; 1898.825;  169.825;    0.000
323.279; 1887.825;  236.825;    0.000
323.339; 1885.825;  243.825;    0.000
323.399; 1915.825;  208.825;    0.000
323.459; 1966.825;  220.825;    0.000
323.519; 1922.825;  228.825;    0.000
323.579; 1872.825;  164.825;    0.000
323.639; 1909.825;  209.825;    0.000
323.699; 1888.825;  188.825;    0.000
323.759; 1844.825;  206.825;    0.000
323.819; 1874.825;  204.825;    0.000
323.879; 1955.825;  222.825;    0.000
323.939; 1935.825;  206.825;    0.000
323.999; 1953.825;  202.825;    0.000
324.059; 1887.825;  245.825;    0.000
324.119; 1904.825;  214.825;    0.000
324.178; 1998.825;  183.825;    0.000
324.238; 1830.825;  193.825;    0.000
324.298; 1871.825;  207.825;    0.000
324.358; 1882.825;  196.825;    0.000
324.418; 1819.825;  193.825;    0.000
324.478; 1850.825;  191.825;    0.000
324.538; 1902.825;  224.825;    0.000
324.597; 1830.825;  187.825;    0.000
324.657; 1910.825;  208.825;    0.000
324.717; 1904.825;  198.825;    0.000
324.777; 1772.825;  159.825;    0.000
324.837; 1874.825;  180.825;    0.000
324.896; 1846.825;  215.825;    0.000
324.956; 1818.825;  210.825;    0.000
325.016; 1823.825;  187.825;    0.000
325.076; 1941.825;  197.825;    0.000
325.135; 1898.825;  226.825;    0.000
325.195; 1902.825;  201.825;    0.000
325.255; 1882.825;  167.825;    0.000
325.315; 1886.825;  217.825;    0.000
325.374; 1965.825;  196.825;    0.000
325.434; 1866.825;  167.825;    0.000
325.494; 1938.825;  214.825;    0.000
325.553; 1852.825;  203.825;    0.000
325.613; 1866.825;  206.825;    0.000
325.673; 1869.825;  148.825;    0.000
325.732; 1868.825;  207.825;    0.000
325.792; 1800.825;  151.825;    0.000
325.852; 1845.825;  195.825;    0.000
325.911; 1828.825;  201.825;    0.000
325.971; 1873.825;  224.825;    0.000
326.031; 1803.825;  201.825;    0.000
326.090; 1835.825;  203.825;    0.000
326.150; 1841.825;  183.825;    0.000
326.209; 1883.825;  226.825;    0.000
326.269; 1875.825;  194.825;    0.000
326.328; 1960.825;  200.825;    0.000
326.388; 1886.825;  177.825;    0.000
326.448; 1909.825;  239.825;    0.000
326.507; 1888.825;  197.825;    0.000
326.567; 1866.825;  161.825;    0.000
326.626; 1781.825;  220.825;    0.000
326.686; 1806.825;  178.825;    0.000
326.745; 1813.825;  167.825;    0.000
326.805; 1805.825;  176.825;    0.000
326.864; 1800.825;  204.825;    0.000
326.924; 1845.825;  218.825;    0.000
326.983; 1882.825;  201.825;    0.000
327.043; 1901.825;  219.825;    0.000
327.102; 1875.825;  202.825;    0.000
327.161; 1857.825;  228.825;    0.000
327.221; 1841.825;  217.825;    0.000
327.280; 1720.825;  188.825;    0.000
327.340; 1803.825;  209.825;    0.000
327.399; 1818.825;  189.825;    0.000
327.459; 1861.825;  216.825;    0.000
327.518; 1733.825;  200.825;    0.000
327.577; 1785.825;  194.825;    0.000
327.637; 1728.825;  180.825;    0.000
327.696; 1880.825;  208.825;    0.000
327.755; 1779.825;  218.825;    0.000
327.815; 1805.825;  234.825;    0.000
327.874; 1885.825;  259.825;    0.000
327.933; 1797.825;  192.825;    0.000
327.993; 1831.825;  208.825;    0.000
328.052; 1790.825;  221.825;    0.000
328.111; 1829.825;  203.825;    0.000
328.171; 1815.825;  221.825;    0.000
328.230; 1817.825;  222.825;    0.000
328.289; 1822.825;  254.825;    0.000
328.349; 1796.825;  232.825;    0.000
328.408; 1795.825;  223.825;    0.000
328.467; 1798.825;  198.825;    0.000
328.526; 1829.825;  217.825;    0.000
328.586; 1778.825;  185.825;    0.000
328.645; 1727.825;  210.825;    0.000
328.704; 1794.825;  211.825;    0.000
328.763; 1728.825;  231.825;    0.000
328.822; 1723.825;  254.825;    0.000
328.882; 1810.825;  216.825;    0.000
328.941; 1832.825;  239.825;    0.000
329.000; 1752.825;  251.825;    0.000
329.059; 1747.825;  227.825;    0.000
329.118; 1820.825;  233.825;    0.000
329.177; 1704.825;  188.825;    0.000
329.237; 1779.825;  257.825;    0.000
329.296; 1811.825;  265.825;    0.000
329.355; 1830.825;  245.825;    0.000
329.414; 1797.825;  236.825;    0.000
329.473; 1817.825;  242.825;    0.000
329.532; 1930.825;  228.825;    0.000
329.591; 1838.825;  206.825;    0.000
329.650; 1810.825;  250.825;    0.000
329.709; 1819.825;  278.825;    0.000
329.768; 1893.825;  219.825;    0.000
329.827; 1872.825;  254.825;    0.000
329.886; 1856.825;  221.825;    0.000
329.945; 1836.825;  239.825;    0.000
330.004; 1790.825;  245.825;    0.000
330.063; 1831.825;  201.825;    0.000
330.122; 1837.825;  227.825;    0.000
330.181; 1825.825;  196.825;    0.000
330.240; 1789.825;  203.825;    0.000
330.299; 1710.825;  214.825;    0.000
330.358; 1768.825;  196.825;    0.000
330.417; 1777.825;  201.825;    0.000
330.476; 1769.825;  248.825;    0.000
330.535; 1789.825;  253.825;    0.000
330.594; 1762.825;  231.825;    0.000
330.653; 1727.825;  210.825;    0.000
330.712; 1747.825;  242.825;    0.000
330.771; 1787.825;  240.825;    0.000
330.830; 1745.825;  230.825;    0.000
330.889; 1686.825;  217.825;    0.000
330.948; 1726.825;  211.825;    0.000
331.006; 1708.825;  217.825;    0.000
331.065; 1742.825;  170.825;    0.000
331.124; 1763.825;  211.825;    0.000
331.183; 1794.825;  192.825;    0.000
331.242; 1704.825;  227.825;    0.000
331.301; 1695.825;  240.825;    0.000
331.359; 1730.825;  223.825;    0.000
331.418; 1716.825;  215.825;    0.000
331.477; 1758.825;  230.825;    0.000
331.536; 1787.825;  221.825;    0.000
331.595; 1702.825;  198.825;    0.000
331.653; 1708.825;  207.825;    0.000
331.712; 1749.825;  217.825;    0.000
331.771; 1678.825;  221.825;    0.000
331.830; 1732.825;  222.825;    0.000
331.888; 1670.825;  213.825;    0.000
331.947; 1679.825;  233.825;    0.000
332.006; 1755.825;  212.825;    0.000
332.065; 1744.825;  200.825;    0.000
332.123; 1763.825;  223.825;    0.000
332.182; 1788.825;  180.825;    0.000
332.241; 1692.825;  192.825;    0.000
332.299; 1628.825;  172.825;    0.000
332.358; 1745.825;  216.825;    0.000
332.417; 1764.825;  211.825;    0.000
332.475; 1747.825;  222.825;    0.000
332.534; 1691.825;  238.825;    0.000
332.592; 1729.825;  216.825;    0.000
332.651; 1769.825;  196.825;    0.000
332.710; 1745.825;  215.825;    0.000
332.768; 1780.825;  193.825;    0.000
332.827; 1688.825;  201.825;    0.000
332.885; 1735.825;  226.825;    0.000
332.944; 1727.825;  174.825;    0.000
333.003; 1775.825;  187.825;    0.000
333.061; 1773.825;  208.825;    0.000
333.120; 1829.825;  202.825;    0.000
333.178; 1874.825;  227.825;    0.000
333.237; 1856.825;  215.825;    0.000
333.295; 1818.825;  245.825;    0.000
333.354; 1779.825;  194.825;    0.000
333.412; 1793.825;  165.825;    0.000
333.471; 1818.825;  219.825;    0.000
333.529; 1865.825;  255.825;    0.000
333.588; 1894.825;  264.825;    0.000
333.646; 1980.825;  231.825;    0.000
333.705; 1969.825;  232.825;    0.000
333.763; 1910.825;  233.825;    0.000
333.822; 1819.825;  221.825;    0.000
333.880; 1832.825;  180.825;    0.000
333.938; 1799.825;  229.825;    0.000
333.997; 1831.825;  194.825;    0.000
334.055; 1896.825;  230.825;    0.000
334.114; 1820.825;  230.825;    0.000
334.172; 1759.825;  170.825;    0.000
334.230; 1806.825;  192.825;    0.000
334.289; 1850.825;  225.825;    0.000
334.347; 1859.825;  233.825;    0.000
334.405; 1807.825;  207.825;    0.000
334.464; 1788.825;  175.825;    0.000
334.522; 1808.825;  180.825;    0.000
334.580; 1730.825;  172.825;    0.000
334.639; 1844.825;  230.825;    0.000
334.697; 1760.825;  217.825;    0.000
334.755; 1705.825;  217.825;    0.000
334.814; 1815.825;  210.825;    0.000
334.872; 1762.825;  170.825;    0.000
334.930; 1699.825;  167.825;    0.000
334.988; 1741.825;  244.825;    0.000
335.047; 1853.825;  202.825;    0.000
335.105; 1754.825;  181.825;    0.000
335.163; 1780.825;  195.825;    0.000
335.221; 1836.825;  203.825;    0.000
335.280; 1777.825;  216.825;    0.000
335.338; 1797.825;  197.825;    0.000
335.396; 1846.825;  232.825;    0.000
335.454; 1685.825;  211.825;    0.000
335.512; 1735.825;  221.825;    0.000
335.570; 1723.825;  216.825;    0.000
335.629; 1869.825;  244.825;    0.000
335.687; 1800.825;  244.825;    0.000
335.745; 1903.825;  189.825;    0.000
335.803; 1902.825;  198.825;    0.000
335.861; 1884.825;  236.825;    0.000
335.919; 1861.825;  234.825;    0.000
335.977; 1917.825;  214.825;    0.000
336.035; 1810.825;  242.825;    0.000
336.094; 1798.825;  219.825;    0.000
336.152; 1839.825;  196.825;    0.000
336.210; 1775.825;  221.825;    0.000
336.268; 1895.825;  257.825;    0.000
336.326; 1854.825;  211.825;    0.000
336.384; 1808.825;  217.825;    0.000
336.442; 1820.825;  176.825;    0.000
336.500; 1800.825;  242.825;    0.000
336.558; 1794.825;  238.825;    0.000
336.616; 1840.825;  261.825;    0.000
336.674; 1751.825;  200.825;    0.000
336.732; 1793.825;  208.825;    0.000
336.790; 1815.825;  183.825;    0.000
336.848; 1792.825;  199.825;    0.000
336.906; 1821.825;  240.825;    0.000
336.964; 1838.825;  234.825;    0.000
337.022; 1809.825;  282.825;    0.000
337.080; 1834.825;  265.825;    0.000
337.138; 1853.825;  255.825;    0.000
337.195; 1759.825;  200.825;    0.000
337.253; 1742.825;  199.825;    0.000
337.311; 1871.825;  233.825;    0.000
337.369; 1770.825;  250.825;    0.000
337.427; 1787.825;  201.825;    0.000
337.485; 1768.825;  228.825;    0.000
337.543; 1704.825;  221.825;    0.000
337.601; 1812.825;  232.825;    0.000
337.658; 1774.825;  215.825;    0.000
337.716; 1830.825;  198.825;    0.000
337.774; 1751.825;  262.825;    0.000
337.832; 1787.825;  220.825;    0.000
337.890; 1709.825;  194.825;    0.000
337.947; 1754.825;  205.825;    0.000
338.005; 1698.825;  229.825;    0.000
338.063; 1702.825;  237.825;    0.000
338.121; 1706.825;  220.825;    0.000
338.178; 1749.825;  227.825;    0.000
338.236; 1708.825;  238.825;    0.000
338.294; 1780.825;  242.825;    0.000
338.352; 1770.825;  230.825;    0.000
338.409; 1718.825;  222.825;    0.000
338.467; 1695.825;  233.825;    0.000
338.525; 1789.825;  253.825;    0.000
338.583; 1743.825;  221.825;    0.000
338.640; 1672.825;  225.825;    0.000
338.698; 1636.825;  229.825;    0.000
338.756; 1658.825;  238.825;    0.000
338.813; 1759.825;  260.825;    0.000
338.871; 1794.825;  246.825;    0.000
338.928; 1739.825;  240.825;    0.000
338.986; 1771.825;  228.825;    0.000
339.044; 1790.825;  265.825;    0.000
339.101; 1656.825;  224.825;    0.000
339.159; 1770.825;  235.825;    0.000
339.216; 1736.825;  244.825;    0.000
339.274; 1800.825;  266.825;    0.000
339.332; 1730.825;  248.825;    0.000
339.389; 1725.825;  246.825;    0.000
339.447; 1782.825;  237.825;    0.000
339.504; 1671.825;  244.825;    0.000
339.562; 1707.825;  249.825;    0.000
339.619; 1758.825;  266.825;    0.000
339.677; 1755.825;  263.825;    0.000
339.734; 1730.825;  216.825;    0.000
339.792; 1758.825;  276.825;    0.000
339.849; 1752.825;  240.825;    0.000
339.907; 1778.825;  275.825;    0.000
339.964; 1728.825;  243.825;    0.000
340.022; 1760.825;  224.825;    0.000
340.079; 1746.825;  230.825;    0.000
340.137; 1683.825;  232.825;    0.000
340.194; 1808.825;  261.825;    0.000
340.252; 1745.825;  219.825;    0.000
340.309; 1685.825;  212.825;    0.000
340.366; 1754.825;  231.825;    0.000
340.424; 1672.825;  244.825;    0.000
340.481; 1723.825;  238.825;    0.000
340.538; 1697.825;  217.825;    0.000
340.596; 1721.825;  224.825;    0.000
340.653; 1768.825;  225.825;    0.000
340.711; 1819.825;  276.825;    0.000
340.768; 1880.825;  239.825;    0.000
340.825; 1731.825;  216.825;    0.000
340.883; 1789.825;  264.825;    0.000
340.940; 1729.825;  256.825;    0.000
340.997; 1780.825;  230.825;    0.000
341.054; 1717.825;  229.825;    0.000
341.112; 1714.825;  220.825;    0.000
341.169; 1817.825;  276.825;    0.000
341.226; 1771.825;  224.825;    0.000
341.284; 1781.825;  235.825;    0.000
341.341; 1785.825;  226.825;    0.000
341.398; 1706.825;  200.825;    0.000
341.455; 1801.825;  242.825;    0.000
341.512; 1762.825;  226.825;    0.000
341.570; 1787.825;  299.825;    0.000
341.627; 1723.825;  221.825;    0.000
341.684; 1744.825;  204.825;    0.000
341.741; 1787.825;  285.825;    0.000
341.798; 1842.825;  237.825;    0.000
341.856; 1780.825;  223.825;    0.000
341.913; 1806.825;  232.825;    0.000
341.970; 1791.825;  250.825;    0.000
342.027; 1732.825;  272.825;    0.000
342.084; 1818.825;  242.825;    0.000
342.141; 1739.825;  207.825;    0.000
342.198; 1776.825;  252.825;    0.000
342.255; 1746.825;  189.825;    0.000
342.313; 1765.825;  222.825;    0.000
342.370; 1730.825;  203.825;    0.000
342.427; 1752.825;  261.825;    0.000
342.484; 1707.825;  230.825;    0.000
342.541; 1714.825;  224.825;    0.000
342.598; 1769.825;  245.825;    0.000
342.655; 1676.825;  235.825;    0.000
342.712; 1741.825;  238.825;    0.000
342.769; 1758.825;  235.825;    0.000
342.826; 1748.825;  232.825;    0.000
342.883; 1763.825;  212.825;    0.000
342.940; 1723.825;  189.825;    0.000
342.997; 1749.825;  241.825;    0.000
343.054; 1732.825;  235.825;    0.000
343.111; 1817.825;  216.825;    0.000
343.168; 1724.825;  202.825;    0.000
343.225; 1840.825;  228.825;    0.000
343.282; 1777.825;  208.825;    0.000
343.339; 1837.825;  241.825;    0.000
343.395; 1777.825;  206.825;    0.000
343.452; 1829.825;  227.825;    0.000
343.509; 1821.825;  212.825;    0.000
343.566; 1763.825;  266.825;    0.000
343.623; 1867.825;  240.825;    0.000
343.680; 1807.825;  215.825;    0.000
343.737; 1839.825;  231.825;    0.000
343.794; 1869.825;  256.825;    0.000
343.850; 1884.825;  235.825;    0.000
343.907; 1718.825;  246.825;    0.000
343.964; 1874.825;  241.825;    0.000
344.021; 1858.825;  237.825;    0.000
344.078; 1913.825;  248.825;    0.000
344.134; 1843.825;  225.825;    0.000
344.191; 1932.825;  209.825;    0.000
344.248; 1920.825;  234.825;    0.000
344.305; 1794.825;  224.825;    0.000
344.361; 1895.825;  194.825;    0.000
344.418; 1848.825;  240.825;    0.000
344.475; 1865.825;  252.825;    0.000
344.532; 1933.825;  251.825;    0.000
344.588; 1876.825;  240.825;    0.000
344.645; 1840.825;  253.825;    0.000
344.702; 1813.825;  216.825;    0.000
344.758; 1925.825;  258.825;    0.000
344.815; 1879.825;  239.825;    0.000
344.872; 1807.825;  216.825;    0.000
344.928; 1867.825;  236.825;    0.000
344.985; 1897.825;  238.825;    0.000
345.042; 1831.825;  211.825;    0.000
345.098; 1782.825;  223.825;    0.000
345.155; 1840.825;  266.825;    0.000
345.212; 1826.825;  266.825;    0.000
345.268; 1831.825;  245.825;    0.000
345.325; 1782.825;  225.825;    0.000
345.381; 1784.825;  223.825;    0.000
345.438; 1891.825;  259.825;    0.000
345.495; 1908.825;  233.825;    0.000
345.551; 1884.825;  254.825;    0.000
345.608; 1898.825;  212.825;    0.000
345.664; 1829.825;  225.825;    0.000
345.721; 1818.825;  223.825;    0.000
345.777; 1819.825;  226.825;    0.000
345.834; 1793.825;  215.825;    0.000
345.890; 1788.825;  230.825;    0.000
345.947; 1793.825;  232.825;    0.000
346.003; 1816.825;  241.825;    0.000
346.060; 1858.825;  241.825;    0.000
346.116; 1859.825;  231.825;    0.000
346.173; 1839.825;  229.825;    0.000
346.229; 1891.825;  262.825;    0.000
346.285; 1897.825;  232.825;    0.000
346.342; 1812.825;  228.825;    0.000
346.398; 1832.825;  203.825;    0.000
346.455; 1864.825;  214.825;    0.000
346.511; 1988.825;  245.825;    0.000
346.567; 1863.825;  192.825;    0.000
346.624; 1931.825;  206.825;    0.000
346.680; 1965.825;  209.825;    0.000
346.737; 1959.825;  239.825;    0.000
346.793; 1909.825;  234.825;    0.000
346.849; 1952.825;  252.825;    0.000
346.906; 1952.825;  247.825;    0.000
346.962; 2007.825;  274.825;    0.000
347.018; 1884.825;  225.825;    0.000
347.074; 1989.825;  261.825;    0.000
347.131; 1971.825;  230.825;    0.000
347.187; 1867.825;  269.825;    0.000
347.243; 1936.825;  261.825;    0.000
347.300; 1855.825;  236.825;    0.000
347.356; 1855.825;  284.825;    0.000
347.412; 1902.825;  243.825;    0.000
347.468; 1832.825;  276.825;    0.000
347.524; 1787.825;  232.825;    0.000
347.581; 1882.825;  242.825;    0.000
347.637; 1974.825;  270.825;    0.000
347.693; 1872.825;  269.825;    0.000
347.749; 1877.825;  278.825;    0.000
347.805; 1834.825;  224.825;    0.000
347.862; 1870.825;  207.825;    0.000
347.918; 1984.825;  259.825;    0.000
347.974; 1857.825;  244.825;    0.000
348.030; 1911.825;  219.825;    0.000
348.086; 1880.825;  250.825;    0.000
348.142; 1866.825;  251.825;    0.000
348.198; 1851.825;  267.825;    0.000
348.254; 1937.825;  230.825;    0.000
348.311; 1848.825;  261.825;    0.000
348.367; 1813.825;  259.825;    0.000
348.423; 1818.825;  251.825;    0.000
348.479; 1908.825;  251.825;    0.000
348.535; 1881.825;  269.825;    0.000
348.591; 1877.825;  238.825;    0.000
348.647; 1891.825;  273.825;    0.000
348.703; 1910.825;  291.825;    0.000
348.759; 1881.825;  231.825;    0.000
348.815; 1909.825;  286.825;    0.000
348.871; 1947.825;  265.825;    0.000
348.927; 1810.825;  234.825;    0.000
348.983; 1946.825;  267.825;    0.000
349.039; 1873.825;  233.825;    0.000
349.095; 1963.825;  225.825;    0.000
349.151; 1920.825;  242.825;    0.000
349.207; 1854.825;  223.825;    0.000
349.263; 1876.825;  219.825;    0.000
349.319; 1893.825;  226.825;    0.000
349.374; 1930.825;  232.825;    0.000
349.430; 1921.825;  235.825;    0.000
349.486; 1980.825;  227.825;    0.000
349.542; 1959.825;  253.825;    0.000
349.598; 1915.825;  227.825;    0.000
349.654; 1950.825;  270.825;    0.000
349.710; 1929.825;  233.825;    0.000
349.766; 1897.825;  245.825;    0.000
349.821; 1902.825;  242.825;    0.000
349.877; 1878.825;  229.825;    0.000
349.933; 1918.825;  229.825;    0.000
349.989; 1917.825;  230.825;    0.000
350.045; 1879.825;  236.825;    0.000
350.100; 1928.825;  237.825;    0.000
350.156; 1850.825;  230.825;    0.000
350.212; 1990.825;  254.825;    0.000
350.268; 1895.825;  239.825;    0.000
350.323; 1880.825;  204.825;    0.000
350.379; 1879.825;  246.825;    0.000
350.435; 1954.825;  249.825;    0.000
350.491; 1910.825;  217.825;    0.000
350.546; 1916.825;  231.825;    0.000
350.602; 1893.825;  240.825;    0.000
350.658; 1944.825;  235.825;    0.000
350.713; 1868.825;  234.825;    0.000
350.769; 1864.825;  218.825;    0.000
350.825; 1891.825;  227.825;    0.000
350.880; 1875.825;  226.825;    0.000
350.936; 1935.825;  247.825;    0.000
350.992; 1891.825;  213.825;    0.000
351.047; 1977.825;  207.825;    0.000
351.103; 1978.825;  271.825;    0.000
351.158; 1866.825;  251.825;    0.000
351.214; 1894.825;  199.825;    0.000
351.270; 1988.825;  214.825;    0.000
351.325; 1927.825;  235.825;    0.000
351.381; 2006.825;  223.825;    0.000
351.436; 2028.825;  237.825;    0.000
351.492; 1970.825;  221.825;    0.000
351.547; 1979.825;  237.825;    0.000
351.603; 1960.825;  239.825;    0.000
351.658; 1948.825;  209.825;    0.000
351.714; 1871.825;  226.825;    0.000
351.769; 1914.825;  238.825;    0.000
351.825; 1970.825;  226.825;    0.000
351.880; 1975.825;  217.825;    0.000
351.936; 2005.825;  246.825;    0.000
351.991; 1996.825;  233.825;    0.000
352.047; 1954.825;  215.825;    0.000
352.102; 1870.825;  243.825;    0.000
352.158; 1930.825;  234.825;    0.000
352.213; 1829.825;  201.825;    0.000
352.268; 1951.825;  234.825;    0.000
352.324; 1972.825;  211.825;    0.000
352.379; 2028.825;  221.825;    0.000
352.434; 2002.825;  259.825;    0.000
352.490; 1963.825;  250.825;    0.000
352.545; 1892.825;  251.825;    0.000
352.601; 1989.825;  283.825;    0.000
352.656; 1929.825;  236.825;    0.000
352.711; 1912.825;  237.825;    0.000
352.767; 1932.825;  201.825;    0.000
352.822; 1877.825;  209.825;    0.000
352.877; 1863.825;  239.825;    0.000
352.932; 1889.825;  228.825;    0.000
352.988; 1955.825;  202.825;    0.000
353.043; 1911.825;  268.825;    0.000
353.098; 1929.825;  208.825;    0.000
353.153; 1930.825;  219.825;    0.000
353.209; 1931.825;  252.825;    0.000
353.264; 1944.825;  225.825;    0.000
353.319; 1918.825;  234.825;    0.000
353.374; 1935.825;  236.825;    0.000
353.430; 1934.825;  245.825;    0.000
353.485; 1944.825;  238.825;    0.000
353.540; 1911.825;  238.825;    0.000
353.595; 1928.825;  215.825;    0.000
353.650; 1976.825;  238.825;    0.000
353.705; 1962.825;  274.825;    0.000
353.761; 1969.825;  229.825;    0.000
353.816; 1858.825;  275.825;    0.000
353.871; 1931.825;  245.825;    0.000
353.926; 1853.825;  253.825;    0.000
353.981; 1936.825;  269.825;    0.000
354.036; 1961.825;  246.825;    0.000
354.091; 1994.825;  257.825;    0.000
354.146; 1896.825;  278.825;    0.000
354.201; 1927.825;  276.825;    0.000
354.256; 1889.825;  224.825;    0.000
354.311; 1961.825;  287.825;    0.000
354.367; 2016.825;  210.825;    0.000
354.422; 1913.825;  231.825;    0.000
354.477; 1936.825;  226.825;    0.000
354.532; 2013.825;  262.825;    0.000
354.587; 1925.825;  275.825;    0.000
354.642; 2035.825;  247.825;    0.000
354.697; 1991.825;  251.825;    0.000
354.751; 2045.825;  249.825;    0.000
354.806; 1963.825;  217.825;    0.000
354.861; 1941.825;  247.825;    0.000
354.916; 2024.825;  259.825;    0.000
354.971; 2056.825;  241.825;    0.000
355.026; 2011.825;  250.825;    0.000
355.081; 1988.825;  244.825;    0.000
355.136; 1873.825;  203.825;    0.000
355.191; 1975.825;  241.825;    0.000
355.246; 1931.825;  248.825;    0.000
355.301; 1906.825;  259.825;    0.000
355.355; 1965.825;  236.825;    0.000
355.410; 1899.825;  221.825;    0.000
355.465; 2030.825;  206.825;    0.000
355.520; 1948.825;  258.825;    0.000
355.575; 1950.825;  273.825;    0.000
355.630; 1949.825;  252.825;    0.000
355.684; 1940.825;  246.825;    0.000
355.739; 1944.825;  251.825;    0.000
355.794; 1949.825;  247.825;    0.000
355.849; 1938.825;  246.825;    0.000
355.904; 1863.825;  262.825;    0.000
355.958; 1877.825;  249.825;    0.000
356.013; 1885.825;  213.825;    0.000
356.068; 1931.825;  255.825;    0.000
356.123; 1936.825;  205.825;    0.000
356.177; 1994.825;  239.825;    0.000
356.232; 1991.825;  258.825;    0.000
356.287; 1997.825;  248.825;    0.000
356.341; 1968.825;  221.825;    0.000
356.396; 1941.825;  220.825;    0.000
356.451; 1970.825;  231.825;    0.000
356.505; 1962.825;  231.825;    0.000
356.560; 1927.825;  254.825;    0.000
356.615; 1941.825;  234.825;    0.000
356.669; 1949.825;  250.825;    0.000
356.724; 1976.825;  261.825;    0.000
356.778; 1904.825;  207.825;    0.000
356.833; 1842.825;  205.825;    0.000
356.888; 1977.825;  235.825;    0.000
356.942; 1919.825;  205.825;    0.000
356.997; 1997.825;  276.825;    0.000
357.051; 1939.825;  243.825;    0.000
357.106; 1974.825;  242.825;    0.000
357.160; 1933.825;  241.825;    0.000
357.215; 1930.825;  212.825;    0.000
357.269; 1937.825;  238.825;    0.000
357.324; 1928.825;  223.825;    0.000
357.378; 1918.825;  221.825;    0.000
357.433; 1885.825;  262.825;    0.000
357.487; 1924.825;  246.825;    0.000
357.542; 1947.825;  221.825;    0.000
357.596; 2031.825;  225.825;    0.000
357.651; 2022.825;  244.825;    0.000
357.705; 1991.825;  269.825;    0.000
357.760; 2023.825;  209.825;    0.000
357.814; 1978.825;  250.825;    0.000
357.868; 1966.825;  266.825;    0.000
357.923; 1950.825;  248.825;    0.000
357.977; 1908.825;  262.825;    0.000
358.032; 1866.825;  228.825;    0.000
358.086; 1940.825;  257.825;    0.000
358.140; 1890.825;  217.825;    0.000
358.195; 1870.825;  246.825;    0.000
358.249; 1959.825;  255.825;    0.000
358.303; 1972.825;  252.825;    0.000
358.358; 2001.825;  278.825;    0.000
358.412; 1884.825;  276.825;    0.000
358.466; 1946.825;  275.825;    0.000
358.521; 1884.825;  229.825;    0.000
358.575; 1877.825;  270.825;    0.000
358.629; 1925.825;  239.825;    0.000
358.683; 1909.825;  254.825;    0.000
358.738; 2008.825;  239.825;    0.000
358.792; 1843.825;  272.825;    0.000
358.846; 1919.825;  289.825;    0.000
358.900; 1913.825;  299.825;    0.000
358.954; 1941.825;  247.825;    0.000
359.009; 1925.825;  245.825;    0.000
359.063; 1988.825;  272.825;    0.000
359.117; 2016.825;  242.825;    0.000
359.171; 1991.825;  279.825;    0.000
359.225; 1961.825;  221.825;    0.000
359.280; 1947.825;  238.825;    0.000
359.334; 1931.825;  264.825;    0.000
359.388; 1929.825;  273.825;    0.000
359.442; 1990.825;  233.825;    0.000
359.496; 1871.825;  226.825;    0.000
359.550; 1906.825;  271.825;    0.000
359.604; 2002.825;  296.825;    0.000
359.658; 1859.825;  252.825;    0.000
359.712; 1876.825;  256.825;    0.000
359.766; 1900.825;  257.825;    0.000
359.820; 1934.825;  239.825;    0.000
359.875; 1916.825;  252.825;    0.000
359.929; 1964.825;  258.825;    0.000
359.983; 1863.825;  232.825;    0.000
360.037; 1903.825;  268.825;    0.000
360.091; 1876.825;  303.825;    0.000
360.145; 1899.825;  232.825;    0.000
360.199; 1955.825;  255.825;    0.000
360.253; 1964.825;  252.825;    0.000
360.306; 1848.825;  278.825;    0.000
360.360; 1951.825;  249.825;    0.000
360.414; 1896.825;  274.825;    0.000
360.468; 1930.825;  247.825;    0.000
360.522; 1973.825;  268.825;    0.000
360.576; 1865.825;  263.825;    0.000
360.630; 1952.825;  296.825;    0.000
360.684; 1965.825;  253.825;    0.000
360.738; 2006.825;  301.825;    0.000
360.792; 1917.825;  282.825;    0.000
360.846; 1861.825;  277.825;    0.000
360.899; 1927.825;  292.825;    0.000
360.953; 1927.825;  266.825;    0.000
361.007; 1924.825;  240.825;    0.000
361.061; 1873.825;  247.825;    0.000
361.115; 1909.825;  276.825;    0.000
361.168; 1924.825;  288.825;    0.000
361.222; 1974.825;  271.825;    0.000
361.276; 1929.825;  270.825;    0.000
361.330; 1949.825;  295.825;    0.000
361.384; 1881.825;  276.825;    0.000
361.437; 1937.825;  280.825;    0.000
361.491; 1966.825;  261.825;    0.000
361.545; 1997.825;  273.825;    0.000
361.599; 1865.825;  269.825;    0.000
361.652; 1939.825;  258.825;    0.000
361.706; 1915.825;  270.825;    0.000
361.760; 1864.825;  294.825;    0.000
361.813; 1979.825;  244.825;    0.000
361.867; 1969.825;  294.825;    0.000
361.921; 1854.825;  285.825;    0.000
361.974; 1860.825;  269.825;    0.000
362.028; 1857.825;  275.825;    0.000
362.082; 1892.825;  270.825;    0.000
362.135; 1943.825;  259.825;    0.000
362.189; 1888.825;  302.825;    0.000
362.242; 1919.825;  296.825;    0.000
362.296; 1899.825;  285.825;    0.000
362.350; 1857.825;  303.825;    0.000
362.403; 1962.825;  271.825;    0.000
362.457; 1949.825;  285.825;    0.000
362.510; 1880.825;  288.825;    0.000
362.564; 1862.825;  268.825;    0.000
362.617; 1845.825;  285.825;    0.000
362.671; 1866.825;  277.825;    0.000
362.724; 1853.825;  242.825;    0.000
362.778; 1917.825;  274.825;    0.000
362.831; 1812.825;  280.825;    0.000
362.885; 1931.825;  284.825;    0.000
362.938; 1792.825;  276.825;    0.000
362.992;  309.825;  289.825;    0.000
363.045;  267.825;  247.825;    0.000
363.099;  243.825;  260.825;    0.000
363.152;  242.825;  258.825;    0.000
363.205;  277.825;  286.825;    0.000
363.259;  279.825;  236.825;    0.000
363.312;  306.825;  297.825;    0.000
363.366;  284.825;  266.825;    0.000
363.419;  282.825;  309.825;    0.000
363.472;  289.825;  293.825;    0.000
363.526;  268.825;  270.825;    0.000
363.579;  280.825;  276.825;    0.000
363.632;  275.825;  279.825;    0.000
363.686;  288.825;  292.825;    0.000
363.739;  273.825;  248.825;    0.000
363.792;  277.825;  287.825;    0.000

