
Integration time [ms]:   1.000
Averaging Nr. [scans]: 1
Smoothing Nr. [pixels]: 0
Data measured with spectrometer [name]: UV1
Wave   ;Sample   ;Dark     ;Reference
[nm]   ;[counts] ;[counts] ;[counts] 

236.381;  156.525;  175.825;    0.000
236.451;  167.525;  220.825;    0.000
236.520;  186.525;  178.825;    0.000
236.590;  199.525;  182.825;    0.000
236.660;  167.525;  180.825;    0.000
236.730;  182.525;  201.825;    0.000
236.799;  172.525;  168.825;    0.000
236.869;  205.525;  205.825;    0.000
236.939;  172.525;  175.825;    0.000
237.009;  172.525;  186.825;    0.000
237.078;  169.525;  200.825;    0.000
237.148;  148.525;  156.825;    0.000
237.218;  179.525;  190.825;    0.000
237.287;  172.525;  167.825;    0.000
237.357;  152.525;  213.825;    0.000
237.427;  179.525;  164.825;    0.000
237.496;  970.525;  210.825;    0.000
237.566;  954.525;  193.825;    0.000
237.636;  958.525;  179.825;    0.000
237.705;  926.525;  218.825;    0.000
237.775;  890.525;  160.825;    0.000
237.845;  963.525;  207.825;    0.000
237.914;  907.525;  180.825;    0.000
237.984;  909.525;  207.825;    0.000
238.054;  895.525;  149.825;    0.000
238.123;  951.525;  190.825;    0.000
238.193;  936.525;  167.825;    0.000
238.263;  984.525;  172.825;    0.000
238.332;  951.525;  173.825;    0.000
238.402; 1006.525;  214.825;    0.000
238.471;  966.525;  181.825;    0.000
238.541; 1016.525;  177.825;    0.000
238.611;  932.525;  138.825;    0.000
238.680;  908.525;  168.825;    0.000
238.750;  919.525;  171.825;    0.000
238.819;  985.525;  156.825;    0.000
238.889;  920.525;  194.825;    0.000
238.958;  924.525;  185.825;    0.000
239.028;  930.525;  170.825;    0.000
239.097;  898.525;  159.825;    0.000
239.167;  941.525;  208.825;    0.000
239.237;  980.525;  167.825;    0.000
239.306;  872.525;  154.825;    0.000
239.376;  941.525;  183.825;    0.000
239.445;  989.525;  221.825;    0.000
239.515; 1003.525;  208.825;    0.000
239.584;  984.525;  177.825;    0.000
239.654;  952.525;  133.825;    0.000
239.723;  969.525;  167.825;    0.000
239.793;  919.525;  190.825;    0.000
239.862;  900.525;  192.825;    0.000
239.932;  970.525;  174.825;    0.000
240.001;  866.525;  166.825;    0.000
240.070;  959.525;  179.825;    0.000
240.140;  910.525;  191.825;    0.000
240.209;  830.525;  134.825;    0.000
240.279;  919.525;  185.825;    0.000
240.348;  905.525;  193.825;    0.000
240.418;  848.525;  149.825;    0.000
240.487;  947.525;  197.825;    0.000
240.556;  927.525;  193.825;    0.000
240.626;  918.525;  178.825;    0.000
240.695;  997.525;  194.825;    0.000
240.765;  882.525;  178.825;    0.000
240.834;  910.525;  190.825;    0.000
240.903;  916.525;  212.825;    0.000
240.973;  905.525;  153.825;    0.000
241.042;  915.525;  177.825;    0.000
241.112;  953.525;  193.825;    0.000
241.181;  921.525;  171.825;    0.000
241.250;  922.525;  152.825;    0.000
241.320;  955.525;  176.825;    0.000
241.389;  892.525;  186.825;    0.000
241.458;  887.525;  182.825;    0.000
241.528;  893.525;  175.825;    0.000
241.597;  931.525;  180.825;    0.000
241.666;  904.525;  162.825;    0.000
241.736;  956.525;  187.825;    0.000
241.805;  936.525;  173.825;    0.000
241.874;  843.525;  177.825;    0.000
241.943;  882.525;  208.825;    0.000
242.013;  940.525;  183.825;    0.000
242.082;  874.525;  171.825;    0.000
242.151;  898.525;  208.825;    0.000
242.221;  910.525;  160.825;    0.000
242.290;  909.525;  200.825;    0.000
242.359;  856.525;  167.825;    0.000
242.428;  925.525;  213.825;    0.000
242.498;  843.525;  156.825;    0.000
242.567;  861.525;  200.825;    0.000
242.636;  897.525;  178.825;    0.000
242.705;  912.525;  185.825;    0.000
242.774;  873.525;  190.825;    0.000
242.844;  882.525;  194.825;    0.000
242.913;  913.525;  162.825;    0.000
242.982;  861.525;  189.825;    0.000
243.051;  894.525;  176.825;    0.000
243.120;  867.525;  213.825;    0.000
243.190;  859.525;  155.825;    0.000
243.259;  941.525;  183.825;    0.000
243.328;  883.525;  170.825;    0.000
243.397;  875.525;  224.825;    0.000
243.466;  942.525;  172.825;    0.000
243.535;  872.525;  145.825;    0.000
243.605;  877.525;  157.825;    0.000
243.674;  856.525;  199.825;    0.000
243.743;  894.525;  196.825;    0.000
243.812;  939.525;  152.825;    0.000
243.881;  862.525;  188.825;    0.000
243.950;  863.525;  154.825;    0.000
244.019;  906.525;  195.825;    0.000
244.088;  873.525;  164.825;    0.000
244.158;  872.525;  220.825;    0.000
244.227;  791.525;  150.825;    0.000
244.296;  864.525;  153.825;    0.000
244.365;  891.525;  195.825;    0.000
244.434;  833.525;  136.825;    0.000
244.503;  852.525;  172.825;    0.000
244.572;  816.525;  129.825;    0.000
244.641;  818.525;  132.825;    0.000
244.710;  914.525;  185.825;    0.000
244.779;  895.525;  164.825;    0.000
244.848;  840.525;  132.825;    0.000
244.917;  884.525;  196.825;    0.000
244.986;  819.525;  148.825;    0.000
245.055;  867.525;  192.825;    0.000
245.124;  806.525;  170.825;    0.000
245.193;  814.525;  172.825;    0.000
245.262;  810.525;  146.825;    0.000
245.331;  774.525;  178.825;    0.000
245.400;  806.525;  108.825;    0.000
245.469;  833.525;  173.825;    0.000
245.538;  845.525;  180.825;    0.000
245.607;  791.525;  171.825;    0.000
245.676;  807.525;  149.825;    0.000
245.745;  789.525;  194.825;    0.000
245.814;  773.525;  186.825;    0.000
245.883;  871.525;  192.825;    0.000
245.952;  778.525;  169.825;    0.000
246.021;  760.525;  190.825;    0.000
246.090;  767.525;  181.825;    0.000
246.159;  791.525;  179.825;    0.000
246.227;  730.525;  182.825;    0.000
246.296;  759.525;  182.825;    0.000
246.365;  758.525;  171.825;    0.000
246.434;  854.525;  218.825;    0.000
246.503;  780.525;  147.825;    0.000
246.572;  787.525;  227.825;    0.000
246.641;  794.525;  193.825;    0.000
246.710;  729.525;  207.825;    0.000
246.779;  745.525;  181.825;    0.000
246.847;  792.525;  179.825;    0.000
246.916;  712.525;  155.825;    0.000
246.985;  711.525;  168.825;    0.000
247.054;  775.525;  137.825;    0.000
247.123;  721.525;  128.825;    0.000
247.192;  694.525;  163.825;    0.000
247.260;  820.525;  173.825;    0.000
247.329;  754.525;  174.825;    0.000
247.398;  768.525;  238.825;    0.000
247.467;  731.525;  168.825;    0.000
247.536;  745.525;  203.825;    0.000
247.604;  784.525;  194.825;    0.000
247.673;  757.525;  145.825;    0.000
247.742;  690.525;  167.825;    0.000
247.811;  768.525;  180.825;    0.000
247.879;  737.525;  187.825;    0.000
247.948;  720.525;  187.825;    0.000
248.017;  735.525;  170.825;    0.000
248.086;  749.525;  223.825;    0.000
248.154;  720.525;  160.825;    0.000
248.223;  769.525;  163.825;    0.000
248.292;  742.525;  201.825;    0.000
248.361;  746.525;  205.825;    0.000
248.429;  681.525;  191.825;    0.000
248.498;  710.525;  194.825;    0.000
248.567;  723.525;  217.825;    0.000
248.635;  781.525;  224.825;    0.000
248.704;  773.525;  204.825;    0.000
248.773;  723.525;  175.825;    0.000
248.841;  743.525;  157.825;    0.000
248.910;  710.525;  206.825;    0.000
248.979;  687.525;  170.825;    0.000
249.047;  703.525;  178.825;    0.000
249.116;  688.525;  183.825;    0.000
249.185;  746.525;  202.825;    0.000
249.253;  667.525;  159.825;    0.000
249.322;  712.525;  177.825;    0.000
249.390;  712.525;  157.825;    0.000
249.459;  722.525;  211.825;    0.000
249.528;  731.525;  181.825;    0.000
249.596;  716.525;  179.825;    0.000
249.665;  656.525;  176.825;    0.000
249.733;  674.525;  186.825;    0.000
249.802;  731.525;  185.825;    0.000
249.871;  778.525;  166.825;    0.000
249.939;  748.525;  163.825;    0.000
250.008;  736.525;  212.825;    0.000
250.076;  717.525;  227.825;    0.000
250.145;  708.525;  172.825;    0.000
250.213;  651.525;  173.825;    0.000
250.282;  708.525;  189.825;    0.000
250.350;  622.525;  166.825;    0.000
250.419;  695.525;  161.825;    0.000
250.487;  756.525;  178.825;    0.000
250.556;  740.525;  208.825;    0.000
250.624;  706.525;  190.825;    0.000
250.693;  669.525;  163.825;    0.000
250.761;  716.525;  194.825;    0.000
250.830;  728.525;  225.825;    0.000
250.898;  722.525;  140.825;    0.000
250.967;  693.525;  167.825;    0.000
251.035;  679.525;  155.825;    0.000
251.104;  660.525;  189.825;    0.000
251.172;  690.525;  136.825;    0.000
251.241;  629.525;  148.825;    0.000
251.309;  691.525;  201.825;    0.000
251.378;  682.525;  169.825;    0.000
251.446;  650.525;  178.825;    0.000
251.514;  707.525;  206.825;    0.000
251.583;  711.525;  178.825;    0.000
251.651;  620.525;  168.825;    0.000
251.720;  699.525;  190.825;    0.000
251.788;  681.525;  209.825;    0.000
251.856;  662.525;  173.825;    0.000
251.925;  688.525;  171.825;    0.000
251.993;  708.525;  188.825;    0.000
252.062;  686.525;  169.825;    0.000
252.130;  649.525;  196.825;    0.000
252.198;  669.525;  210.825;    0.000
252.267;  644.525;  181.825;    0.000
252.335;  618.525;  164.825;    0.000
252.403;  659.525;  152.825;    0.000
252.472;  665.525;  166.825;    0.000
252.540;  675.525;  189.825;    0.000
252.608;  646.525;  198.825;    0.000
252.677;  639.525;  156.825;    0.000
252.745;  678.525;  184.825;    0.000
252.813;  639.525;  163.825;    0.000
252.881;  608.525;  130.825;    0.000
252.950;  619.525;  189.825;    0.000
253.018;  632.525;  164.825;    0.000
253.086;  529.525;  172.825;    0.000
253.155;  558.525;  205.825;    0.000
253.223;  560.525;  175.825;    0.000
253.291;  562.525;  176.825;    0.000
253.359;  554.525;  182.825;    0.000
253.428;  619.525;  222.825;    0.000
253.496;  533.525;  166.825;    0.000
253.564;  492.525;  135.825;    0.000
253.632;  493.525;  184.825;    0.000
253.700;  553.525;  173.825;    0.000
253.769;  494.525;  163.825;    0.000
253.837;  563.525;  179.825;    0.000
253.905;  534.525;  157.825;    0.000
253.973;  521.525;  164.825;    0.000
254.041;  505.525;  170.825;    0.000
254.110;  501.525;  169.825;    0.000
254.178;  542.525;  165.825;    0.000
254.246;  453.525;  126.825;    0.000
254.314;  521.525;  166.825;    0.000
254.382;  523.525;  169.825;    0.000
254.450;  525.525;  170.825;    0.000
254.518;  495.525;  196.825;    0.000
254.587;  493.525;  161.825;    0.000
254.655;  497.525;  187.825;    0.000
254.723;  504.525;  144.825;    0.000
254.791;  535.525;  175.825;    0.000
254.859;  512.525;  168.825;    0.000
254.927;  499.525;  198.825;    0.000
254.995;  531.525;  165.825;    0.000
255.063;  498.525;  150.825;    0.000
255.131;  498.525;  181.825;    0.000
255.199;  524.525;  160.825;    0.000
255.267;  526.525;  131.825;    0.000
255.336;  506.525;  188.825;    0.000
255.404;  511.525;  163.825;    0.000
255.472;  519.525;  192.825;    0.000
255.540;  498.525;  158.825;    0.000
255.608;  547.525;  147.825;    0.000
255.676;  539.525;  166.825;    0.000
255.744;  548.525;  159.825;    0.000
255.812;  552.525;  164.825;    0.000
255.880;  581.525;  195.825;    0.000
255.948;  548.525;  167.825;    0.000
256.016;  570.525;  185.825;    0.000
256.084;  606.525;  191.825;    0.000
256.152;  596.525;  214.825;    0.000
256.220;  587.525;  195.825;    0.000
256.288;  558.525;  185.825;    0.000
256.356;  545.525;  168.825;    0.000
256.424;  571.525;  161.825;    0.000
256.491;  544.525;  161.825;    0.000
256.559;  622.525;  157.825;    0.000
256.627;  565.525;  164.825;    0.000
256.695;  555.525;  146.825;    0.000
256.763;  564.525;  194.825;    0.000
256.831;  596.525;  182.825;    0.000
256.899;  575.525;  192.825;    0.000
256.967;  537.525;  172.825;    0.000
257.035;  620.525;  169.825;    0.000
257.103;  632.525;  223.825;    0.000
257.171;  596.525;  141.825;    0.000
257.238;  590.525;  146.825;    0.000
257.306;  635.525;  180.825;    0.000
257.374;  566.525;  138.825;    0.000
257.442;  628.525;  135.825;    0.000
257.510;  662.525;  130.825;    0.000
257.578;  659.525;  123.825;    0.000
257.646;  664.525;  162.825;    0.000
257.713;  645.525;  149.825;    0.000
257.781;  608.525;  125.825;    0.000
257.849;  649.525;  149.825;    0.000
257.917;  632.525;  177.825;    0.000
257.985;  614.525;  143.825;    0.000
258.052;  619.525;  154.825;    0.000
258.120;  742.525;  162.825;    0.000
258.188;  679.525;  172.825;    0.000
258.256;  754.525;  160.825;    0.000
258.324;  753.525;  209.825;    0.000
258.391;  748.525;  153.825;    0.000
258.459;  777.525;  133.825;    0.000
258.527;  760.525;  160.825;    0.000
258.595;  803.525;  128.825;    0.000
258.662;  733.525;  114.825;    0.000
258.730;  822.525;  192.825;    0.000
258.798;  815.525;  144.825;    0.000
258.865;  774.525;  140.825;    0.000
258.933;  834.525;  150.825;    0.000
259.001;  789.525;  149.825;    0.000
259.069;  781.525;  110.825;    0.000
259.136;  804.525;  150.825;    0.000
259.204;  887.525;  156.825;    0.000
259.272;  847.525;  185.825;    0.000
259.339;  817.525;  148.825;    0.000
259.407;  881.525;  163.825;    0.000
259.475;  866.525;  129.825;    0.000
259.542;  806.525;  144.825;    0.000
259.610;  874.525;  164.825;    0.000
259.677;  897.525;  188.825;    0.000
259.745;  953.525;  113.825;    0.000
259.813; 1079.525;  188.825;    0.000
259.880; 1139.525;  174.825;    0.000
259.948; 1023.525;  166.825;    0.000
260.016; 1037.525;  150.825;    0.000
260.083;  939.525;  178.825;    0.000
260.151;  980.525;  120.825;    0.000
260.218; 1026.525;  175.825;    0.000
260.286;  976.525;  155.825;    0.000
260.353; 1015.525;  165.825;    0.000
260.421;  912.525;  169.825;    0.000
260.489;  938.525;  194.825;    0.000
260.556; 1055.525;  161.825;    0.000
260.624; 1110.525;  179.825;    0.000
260.691; 1082.525;  174.825;    0.000
260.759; 1062.525;  164.825;    0.000
260.826; 1029.525;  125.825;    0.000
260.894; 1042.525;  164.825;    0.000
260.961; 1097.525;  147.825;    0.000
261.029; 1103.525;  167.825;    0.000
261.096; 1143.525;  136.825;    0.000
261.164; 1219.525;  146.825;    0.000
261.231; 1139.525;  190.825;    0.000
261.299; 1153.525;  171.825;    0.000
261.366; 1158.525;  165.825;    0.000
261.434; 1182.525;  160.825;    0.000
261.501; 1194.525;  149.825;    0.000
261.568; 1140.525;  155.825;    0.000
261.636; 1131.525;  137.825;    0.000
261.703; 1271.525;  186.825;    0.000
261.771; 1259.525;  162.825;    0.000
261.838; 1187.525;  190.825;    0.000
261.906; 1190.525;  133.825;    0.000
261.973; 1218.525;  202.825;    0.000
262.040; 1196.525;  179.825;    0.000
262.108; 1258.525;  161.825;    0.000
262.175; 1252.525;  155.825;    0.000
262.243; 1245.525;  158.825;    0.000
262.310; 1215.525;  129.825;    0.000
262.377; 1268.525;  157.825;    0.000
262.445; 1355.525;  132.825;    0.000
262.512; 1310.525;  161.825;    0.000
262.579; 1381.525;  151.825;    0.000
262.647; 1342.525;  174.825;    0.000
262.714; 1356.525;  174.825;    0.000
262.781; 1382.525;  164.825;    0.000
262.849; 1377.525;  168.825;    0.000
262.916; 1441.525;  153.825;    0.000
262.983; 1435.525;  201.825;    0.000
263.051; 1566.525;  117.825;    0.000
263.118; 1589.525;  150.825;    0.000
263.185; 1469.525;  172.825;    0.000
263.252; 1411.525;  154.825;    0.000
263.320; 1452.525;  152.825;    0.000
263.387; 1361.525;  136.825;    0.000
263.454; 1457.525;  167.825;    0.000
263.522; 1407.525;  122.825;    0.000
263.589; 1468.525;  147.825;    0.000
263.656; 1430.525;  130.825;    0.000
263.723; 1385.525;  182.825;    0.000
263.790; 1437.525;  163.825;    0.000
263.858; 1488.525;  161.825;    0.000
263.925; 1474.525;  153.825;    0.000
263.992; 1545.525;  139.825;    0.000
264.059; 1573.525;  141.825;    0.000
264.126; 1517.525;  153.825;    0.000
264.194; 1510.525;  144.825;    0.000
264.261; 1591.525;  188.825;    0.000
264.328; 1639.525;  161.825;    0.000
264.395; 1481.525;  184.825;    0.000
264.462; 1593.525;  162.825;    0.000
264.529; 1575.525;  178.825;    0.000
264.597; 1552.525;  160.825;    0.000
264.664; 1594.525;  158.825;    0.000
264.731; 1569.525;  176.825;    0.000
264.798; 1613.525;  137.825;    0.000
264.865; 1580.525;  175.825;    0.000
264.932; 1630.525;  162.825;    0.000
264.999; 1607.525;  153.825;    0.000
265.066; 1601.525;  168.825;    0.000
265.133; 1691.525;  142.825;    0.000
265.201; 1690.525;  163.825;    0.000
265.268; 1693.525;  143.825;    0.000
265.335; 1750.525;  156.825;    0.000
265.402; 1679.525;  136.825;    0.000
265.469; 1696.525;  127.825;    0.000
265.536; 1629.525;  159.825;    0.000
265.603; 1739.525;  191.825;    0.000
265.670; 1691.525;  136.825;    0.000
265.737; 1682.525;  186.825;    0.000
265.804; 1742.525;  147.825;    0.000
265.871; 1715.525;  147.825;    0.000
265.938; 1682.525;  153.825;    0.000
266.005; 1728.525;  172.825;    0.000
266.072; 1745.525;  151.825;    0.000
266.139; 1767.525;  175.825;    0.000
266.206; 1762.525;  165.825;    0.000
266.273; 1713.525;  162.825;    0.000
266.340; 1770.525;  150.825;    0.000
266.407; 1823.525;  169.825;    0.000
266.474; 1862.525;  151.825;    0.000
266.541; 1789.525;  164.825;    0.000
266.608; 1861.525;  111.825;    0.000
266.675; 1897.525;  173.825;    0.000
266.742; 1824.525;  148.825;    0.000
266.808; 1845.525;  185.825;    0.000
266.875; 1861.525;  188.825;    0.000
266.942; 1853.525;  131.825;    0.000
267.009; 1875.525;  184.825;    0.000
267.076; 1944.525;  200.825;    0.000
267.143; 1823.525;  216.825;    0.000
267.210; 1879.525;  138.825;    0.000
267.277; 1797.525;  143.825;    0.000
267.344; 1856.525;  172.825;    0.000
267.410; 1872.525;  172.825;    0.000
267.477; 1906.525;  160.825;    0.000
267.544; 1898.525;  175.825;    0.000
267.611; 1901.525;  189.825;    0.000
267.678; 1898.525;  162.825;    0.000
267.745; 1880.525;  206.825;    0.000
267.811; 1973.525;  146.825;    0.000
267.878; 1901.525;  147.825;    0.000
267.945; 1783.525;  170.825;    0.000
268.012; 1903.525;  153.825;    0.000
268.079; 1898.525;  185.825;    0.000
268.145; 1963.525;  197.825;    0.000
268.212; 1929.525;  167.825;    0.000
268.279; 1912.525;  145.825;    0.000
268.346; 1908.525;  182.825;    0.000
268.412; 1913.525;  144.825;    0.000
268.479; 1970.525;  186.825;    0.000
268.546; 1953.525;  147.825;    0.000
268.613; 2014.525;  188.825;    0.000
268.679; 1928.525;  173.825;    0.000
268.746; 1929.525;  204.825;    0.000
268.813; 1843.525;  199.825;    0.000
268.879; 1835.525;  157.825;    0.000
268.946; 1907.525;  192.825;    0.000
269.013; 1958.525;  136.825;    0.000
269.079; 1869.525;  166.825;    0.000
269.146; 1872.525;  129.825;    0.000
269.213; 1930.525;  178.825;    0.000
269.280; 1888.525;  148.825;    0.000
269.346; 1871.525;  194.825;    0.000
269.413; 1859.525;  135.825;    0.000
269.479; 1950.525;  180.825;    0.000
269.546; 1919.525;  169.825;    0.000
269.613; 1892.525;  160.825;    0.000
269.679; 1914.525;  161.825;    0.000
269.746; 1982.525;  143.825;    0.000
269.813; 1947.525;  172.825;    0.000
269.879; 1968.525;  152.825;    0.000
269.946; 1926.525;  156.825;    0.000
270.012; 1929.525;  190.825;    0.000
270.079; 1887.525;  143.825;    0.000
270.145; 1894.525;  148.825;    0.000
270.212; 1872.525;  176.825;    0.000
270.279; 1913.525;  168.825;    0.000
270.345; 1867.525;  143.825;    0.000
270.412; 2018.525;  155.825;    0.000
270.478; 1869.525;  176.825;    0.000
270.545; 1890.525;  112.825;    0.000
270.611; 1855.525;  186.825;    0.000
270.678; 1828.525;  141.825;    0.000
270.744; 1869.525;  145.825;    0.000
270.811; 1895.525;  120.825;    0.000
270.877; 1853.525;  118.825;    0.000
270.944; 1862.525;  135.825;    0.000
271.010; 1828.525;  128.825;    0.000
271.077; 1787.525;  176.825;    0.000
271.143; 1904.525;  162.825;    0.000
271.210; 1877.525;  133.825;    0.000
271.276; 1787.525;  107.825;    0.000
271.342; 1794.525;  202.825;    0.000
271.409; 1900.525;  160.825;    0.000
271.475; 1854.525;  165.825;    0.000
271.542; 1835.525;  152.825;    0.000
271.608; 1944.525;  163.825;    0.000
271.675; 1821.525;  149.825;    0.000
271.741; 2006.525;  164.825;    0.000
271.807; 1917.525;  128.825;    0.000
271.874; 1958.525;  148.825;    0.000
271.940; 1900.525;  179.825;    0.000
272.007; 1881.525;  148.825;    0.000
272.073; 1945.525;  146.825;    0.000
272.139; 1861.525;  166.825;    0.000
272.206; 1867.525;  198.825;    0.000
272.272; 1896.525;  201.825;    0.000
272.338; 1849.525;  208.825;    0.000
272.405; 1943.525;  181.825;    0.000
272.471; 1867.525;  167.825;    0.000
272.537; 1842.525;  189.825;    0.000
272.604; 1822.525;  162.825;    0.000
272.670; 1913.525;  194.825;    0.000
272.736; 1900.525;  176.825;    0.000
272.802; 1894.525;  163.825;    0.000
272.869; 1813.525;  170.825;    0.000
272.935; 1861.525;  145.825;    0.000
273.001; 1869.525;  149.825;    0.000
273.068; 1876.525;  172.825;    0.000
273.134; 1839.525;  155.825;    0.000
273.200; 2009.525;  183.825;    0.000
273.266; 1913.525;  160.825;    0.000
273.333; 1987.525;  190.825;    0.000
273.399; 1774.525;  132.825;    0.000
273.465; 1912.525;  179.825;    0.000
273.531; 1875.525;  161.825;    0.000
273.597; 2017.525;  194.825;    0.000
273.664; 2042.525;  193.825;    0.000
273.730; 1969.525;  180.825;    0.000
273.796; 2048.525;  145.825;    0.000
273.862; 2092.525;  176.825;    0.000
273.928; 2083.525;  169.825;    0.000
273.995; 2031.525;  202.825;    0.000
274.061; 2049.525;  176.825;    0.000
274.127; 2010.525;  178.825;    0.000
274.193; 1990.525;  106.825;    0.000
274.259; 2108.525;  186.825;    0.000
274.325; 1996.525;  163.825;    0.000
274.391; 2013.525;  162.825;    0.000
274.457; 2067.525;  145.825;    0.000
274.524; 2109.525;  189.825;    0.000
274.590; 2126.525;  161.825;    0.000
274.656; 2248.525;  157.825;    0.000
274.722; 2149.525;  143.825;    0.000
274.788; 2148.525;  166.825;    0.000
274.854; 2335.525;  200.825;    0.000
274.920; 2269.525;  132.825;    0.000
274.986; 2208.525;  184.825;    0.000
275.052; 2251.525;  169.825;    0.000
275.118; 2086.525;  153.825;    0.000
275.184; 2182.525;  182.825;    0.000
275.250; 2245.525;  124.825;    0.000
275.316; 2258.525;  154.825;    0.000
275.382; 2282.525;  150.825;    0.000
275.448; 2267.525;  180.825;    0.000
275.514; 2373.525;  143.825;    0.000
275.580; 2469.525;  120.825;    0.000
275.646; 2309.525;  127.825;    0.000
275.712; 2277.525;  109.825;    0.000
275.778; 2226.525;  126.825;    0.000
275.844; 2279.525;  155.825;    0.000
275.910; 2371.525;  164.825;    0.000
275.976; 2353.525;  161.825;    0.000
276.042; 2347.525;  152.825;    0.000
276.108; 2419.525;  159.825;    0.000
276.174; 2528.525;  149.825;    0.000
276.240; 2478.525;  112.825;    0.000
276.306; 2491.525;  142.825;    0.000
276.372; 2596.525;  136.825;    0.000
276.437; 2672.525;  141.825;    0.000
276.503; 2624.525;  150.825;    0.000
276.569; 2739.525;  178.825;    0.000
276.635; 2738.525;  117.825;    0.000
276.701; 2866.525;  174.825;    0.000
276.767; 2724.525;  136.825;    0.000
276.833; 2876.525;  119.825;    0.000
276.899; 2910.525;  171.825;    0.000
276.964; 2999.525;  146.825;    0.000
277.030; 3111.525;  157.825;    0.000
277.096; 3090.525;  124.825;    0.000
277.162; 3148.525;  185.825;    0.000
277.228; 3391.525;  125.825;    0.000
277.293; 3378.525;  159.825;    0.000
277.359; 3486.525;  186.825;    0.000
277.425; 3635.525;  176.825;    0.000
277.491; 3868.525;  140.825;    0.000
277.557; 4616.525;  172.825;    0.000
277.622; 6081.525;  187.825;    0.000
277.688; 5997.525;  203.825;    0.000
277.754; 6232.525;  170.825;    0.000
277.820; 6632.525;  142.825;    0.000
277.885; 8114.525;  182.825;    0.000
277.951;10483.525;  171.825;    0.000
278.017; 8775.525;  173.825;    0.000
278.083; 7414.525;  151.825;    0.000
278.148; 7350.525;  159.825;    0.000
278.214; 7487.525;  173.825;    0.000
278.280; 7970.525;  137.825;    0.000
278.345; 7472.525;  190.825;    0.000
278.411; 6807.525;  149.825;    0.000
278.477; 6931.525;  157.825;    0.000
278.542; 7732.525;  136.825;    0.000
278.608; 8379.525;  144.825;    0.000
278.674; 9124.525;  215.825;    0.000
278.739;10072.525;  148.825;    0.000
278.805;11734.525;  152.825;    0.000
278.871;14140.525;  170.825;    0.000
278.936;18182.525;  180.825;    0.000
279.002;28198.525;  177.825;    0.000
279.067;37658.523;  172.825;    0.000
279.133;35821.523;  160.825;    0.000
279.199;31468.525;  165.825;    0.000
279.264;31877.525;  130.825;    0.000
279.330;37723.523;  154.825;    0.000
279.395;49671.523;  170.825;    0.000
279.461;65304.523;  136.825;    0.000
279.527;65304.523;  174.825;    0.000
279.592;65304.523;  179.825;    0.000
279.658;56860.523;  187.825;    0.000
279.723;55188.523;  201.825;    0.000
279.789;57822.523;  194.825;    0.000
279.854;51328.523;  171.825;    0.000
279.920;41837.523;  183.825;    0.000
279.985;37264.523;  173.825;    0.000
280.051;37752.523;  194.825;    0.000
280.116;44759.523;  197.825;    0.000
280.182;61072.523;  171.825;    0.000
280.247;65304.523;  131.825;    0.000
280.313;59152.523;  166.825;    0.000
280.378;40538.523;  159.825;    0.000
280.444;29084.525;  190.825;    0.000
280.509;22514.525;  189.825;    0.000
280.574;18775.525;  171.825;    0.000
280.640;15902.525;  167.825;    0.000
280.705;14015.525;  129.825;    0.000
280.771;12746.525;  193.825;    0.000
280.836;11579.525;  172.825;    0.000
280.902;10730.525;  189.825;    0.000
280.967;10043.525;  143.825;    0.000
281.032; 9438.525;  182.825;    0.000
281.098; 8739.525;  172.825;    0.000
281.163; 8392.525;  184.825;    0.000
281.229; 7823.525;  210.825;    0.000
281.294; 7524.525;  223.825;    0.000
281.359; 7137.525;  197.825;    0.000
281.425; 6922.525;  192.825;    0.000
281.490; 6716.525;  162.825;    0.000
281.555; 6306.525;  193.825;    0.000
281.621; 6224.525;  141.825;    0.000
281.686; 5925.525;  166.825;    0.000
281.751; 5763.525;  204.825;    0.000
281.816; 5550.525;  159.825;    0.000
281.882; 5377.525;  146.825;    0.000
281.947; 5194.525;  176.825;    0.000
282.012; 5041.525;  139.825;    0.000
282.078; 4954.525;  186.825;    0.000
282.143; 4765.525;  151.825;    0.000
282.208; 4729.525;  213.825;    0.000
282.273; 4661.525;  160.825;    0.000
282.339; 4573.525;  175.825;    0.000
282.404; 4393.525;  157.825;    0.000
282.469; 4401.525;  185.825;    0.000
282.534; 4197.525;  166.825;    0.000
282.600; 4231.525;  168.825;    0.000
282.665; 4149.525;  167.825;    0.000
282.730; 4031.525;  148.825;    0.000
282.795; 4181.525;  186.825;    0.000
282.860; 4073.525;  161.825;    0.000
282.926; 4008.525;  178.825;    0.000
282.991; 3887.525;  139.825;    0.000
283.056; 3938.525;  158.825;    0.000
283.121; 3937.525;  191.825;    0.000
283.186; 3857.525;  182.825;    0.000
283.251; 3714.525;  181.825;    0.000
283.316; 3764.525;  187.825;    0.000
283.382; 3741.525;  175.825;    0.000
283.447; 3695.525;  183.825;    0.000
283.512; 3639.525;  175.825;    0.000
283.577; 3699.525;  180.825;    0.000
283.642; 3516.525;  193.825;    0.000
283.707; 3507.525;  145.825;    0.000
283.772; 3496.525;  143.825;    0.000
283.837; 3508.525;  143.825;    0.000
283.902; 3472.525;  150.825;    0.000
283.967; 3488.525;  166.825;    0.000
284.032; 3382.525;  126.825;    0.000
284.097; 3520.525;  201.825;    0.000
284.163; 3330.525;  133.825;    0.000
284.228; 3378.525;  193.825;    0.000
284.293; 3476.525;  157.825;    0.000
284.358; 3527.525;  185.825;    0.000
284.423; 3450.525;  142.825;    0.000
284.488; 3491.525;  192.825;    0.000
284.553; 3645.525;  146.825;    0.000
284.618; 3538.525;  154.825;    0.000
284.683; 3768.525;  172.825;    0.000
284.748; 3869.525;  195.825;    0.000
284.812; 3984.525;  190.825;    0.000
284.877; 4361.525;  169.825;    0.000
284.942; 5019.525;  195.825;    0.000
285.007; 5922.525;  204.825;    0.000
285.072; 8835.525;  189.825;    0.000
285.137;16868.525;  149.825;    0.000
285.202;22507.525;  164.825;    0.000
285.267;17448.525;  161.825;    0.000
285.332; 9923.525;  140.825;    0.000
285.397; 7192.525;  142.825;    0.000
285.462; 5914.525;  146.825;    0.000
285.527; 5024.525;  132.825;    0.000
285.591; 4678.525;  160.825;    0.000
285.656; 4312.525;  136.825;    0.000
285.721; 4140.525;  135.825;    0.000
285.786; 4037.525;  171.825;    0.000
285.851; 3768.525;  168.825;    0.000
285.916; 3615.525;  178.825;    0.000
285.981; 3518.525;  152.825;    0.000
286.045; 3548.525;  167.825;    0.000
286.110; 3487.525;  187.825;    0.000
286.175; 3424.525;  162.825;    0.000
286.240; 3326.525;  163.825;    0.000
286.305; 3349.525;  190.825;    0.000
286.369; 3254.525;  143.825;    0.000
286.434; 3246.525;  185.825;    0.000
286.499; 3278.525;  195.825;    0.000
286.564; 3207.525;  173.825;    0.000
286.628; 3221.525;  159.825;    0.000
286.693; 3179.525;  175.825;    0.000
286.758; 3095.525;  170.825;    0.000
286.823; 3043.525;  129.825;    0.000
286.887; 2994.525;  172.825;    0.000
286.952; 2951.525;  163.825;    0.000
287.017; 3146.525;  217.825;    0.000
287.082; 3106.525;  165.825;    0.000
287.146; 2996.525;  176.825;    0.000
287.211; 3047.525;  192.825;    0.000
287.276; 3068.525;  147.825;    0.000
287.340; 3015.525;  162.825;    0.000
287.405; 3107.525;  196.825;    0.000
287.470; 3068.525;  148.825;    0.000
287.534; 2980.525;  166.825;    0.000
287.599; 3018.525;  193.825;    0.000
287.663; 2978.525;  191.825;    0.000
287.728; 3014.525;  146.825;    0.000
287.793; 3022.525;  234.825;    0.000
287.857; 3040.525;  177.825;    0.000
287.922; 2999.525;  166.825;    0.000
287.987; 3117.525;  169.825;    0.000
288.051; 3099.525;  169.825;    0.000
288.116; 3417.525;  187.825;    0.000
288.180; 3344.525;  200.825;    0.000
288.245; 3026.525;  201.825;    0.000
288.309; 3061.525;  176.825;    0.000
288.374; 2900.525;  162.825;    0.000
288.439; 2981.525;  195.825;    0.000
288.503; 2964.525;  162.825;    0.000
288.568; 2975.525;  228.825;    0.000
288.632; 2953.525;  194.825;    0.000
288.697; 3006.525;  173.825;    0.000
288.761; 2795.525;  153.825;    0.000
288.826; 2960.525;  151.825;    0.000
288.890; 2944.525;  208.825;    0.000
288.955; 2915.525;  159.825;    0.000
289.019; 2885.525;  198.825;    0.000
289.084; 2874.525;  152.825;    0.000
289.148; 2894.525;  171.825;    0.000
289.212; 2904.525;  184.825;    0.000
289.277; 2930.525;  165.825;    0.000
289.341; 2893.525;  207.825;    0.000
289.406; 2907.525;  156.825;    0.000
289.470; 2927.525;  191.825;    0.000
289.535; 2926.525;  222.825;    0.000
289.599; 2901.525;  214.825;    0.000
289.663; 2881.525;  183.825;    0.000
289.728; 2868.525;  192.825;    0.000
289.792; 2880.525;  197.825;    0.000
289.857; 2951.525;  221.825;    0.000
289.921; 2933.525;  177.825;    0.000
289.985; 2915.525;  177.825;    0.000
290.050; 2924.525;  178.825;    0.000
290.114; 2778.525;  112.825;    0.000
290.178; 2880.525;  170.825;    0.000
290.243; 2905.525;  162.825;    0.000
290.307; 3030.525;  178.825;    0.000
290.371; 2864.525;  141.825;    0.000
290.436; 2869.525;  178.825;    0.000
290.500; 2922.525;  135.825;    0.000
290.564; 2933.525;  199.825;    0.000
290.629; 2913.525;  165.825;    0.000
290.693; 2864.525;  154.825;    0.000
290.757; 2947.525;  159.825;    0.000
290.821; 2951.525;  179.825;    0.000
290.886; 2893.525;  141.825;    0.000
290.950; 2879.525;  166.825;    0.000
291.014; 3006.525;  169.825;    0.000
291.078; 2894.525;  191.825;    0.000
291.143; 3034.525;  169.825;    0.000
291.207; 2977.525;  164.825;    0.000
291.271; 2870.525;  193.825;    0.000
291.335; 2933.525;  150.825;    0.000
291.399; 3151.525;  175.825;    0.000
291.464; 3227.525;  128.825;    0.000
291.528; 3407.525;  162.825;    0.000
291.592; 3327.525;  152.825;    0.000
291.656; 3153.525;  175.825;    0.000
291.720; 3120.525;  173.825;    0.000
291.784; 3160.525;  192.825;    0.000
291.849; 3096.525;  159.825;    0.000
291.913; 3100.525;  174.825;    0.000
291.977; 3065.525;  177.825;    0.000
292.041; 3164.525;  188.825;    0.000
292.105; 3282.525;  174.825;    0.000
292.169; 3098.525;  143.825;    0.000
292.233; 3190.525;  149.825;    0.000
292.297; 3365.525;  176.825;    0.000
292.361; 3400.525;  178.825;    0.000
292.425; 3393.525;  153.825;    0.000
292.490; 3659.525;  185.825;    0.000
292.554; 3777.525;  144.825;    0.000
292.618; 4067.525;  166.825;    0.000
292.682; 4332.525;  181.825;    0.000
292.746; 5255.525;  152.825;    0.000
292.810; 7558.525;  208.825;    0.000
292.874; 9585.525;  142.825;    0.000
292.938; 9582.525;  195.825;    0.000
293.002; 8140.525;  156.825;    0.000
293.066; 7170.525;  108.825;    0.000
293.130; 6403.525;  136.825;    0.000
293.194; 6067.525;  135.825;    0.000
293.258; 5753.525;  187.825;    0.000
293.322; 5652.525;  148.825;    0.000
293.386; 5817.525;  186.825;    0.000
293.450; 6396.525;  196.825;    0.000
293.514; 7350.525;  175.825;    0.000
293.577;10339.525;  137.825;    0.000
293.641;14850.525;  142.825;    0.000
293.705;15783.525;  201.825;    0.000
293.769;13390.525;  150.825;    0.000
293.833;10955.525;  147.825;    0.000
293.897; 9402.525;  170.825;    0.000
293.961; 8129.525;  121.825;    0.000
294.025; 7230.525;  172.825;    0.000
294.089; 6571.525;  167.825;    0.000
294.152; 6090.525;  167.825;    0.000
294.216; 5881.525;  165.825;    0.000
294.280; 5317.525;  168.825;    0.000
294.344; 4973.525;  160.825;    0.000
294.408; 4854.525;  187.825;    0.000
294.472; 4587.525;  141.825;    0.000
294.536; 4369.525;  184.825;    0.000
294.599; 4251.525;  176.825;    0.000
294.663; 4031.525;  120.825;    0.000
294.727; 4015.525;  159.825;    0.000
294.791; 3870.525;  190.825;    0.000
294.855; 3833.525;  148.825;    0.000
294.918; 3630.525;  160.825;    0.000
294.982; 3630.525;  156.825;    0.000
295.046; 3622.525;  177.825;    0.000
295.110; 3521.525;  149.825;    0.000
295.173; 3413.525;  156.825;    0.000
295.237; 3413.525;  174.825;    0.000
295.301; 3265.525;  152.825;    0.000
295.364; 3331.525;  204.825;    0.000
295.428; 3221.525;  196.825;    0.000
295.492; 3341.525;  178.825;    0.000
295.556; 3303.525;  161.825;    0.000
295.619; 3231.525;  178.825;    0.000
295.683; 3126.525;  152.825;    0.000
295.747; 3031.525;  148.825;    0.000
295.810; 3099.525;  177.825;    0.000
295.874; 3066.525;  146.825;    0.000
295.938; 3044.525;  115.825;    0.000
296.001; 2973.525;  172.825;    0.000
296.065; 2980.525;  146.825;    0.000
296.128; 2878.525;  164.825;    0.000
296.192; 2909.525;  137.825;    0.000
296.256; 2858.525;  143.825;    0.000
296.319; 2909.525;  156.825;    0.000
296.383; 2900.525;  165.825;    0.000
296.447; 2819.525;  170.825;    0.000
296.510; 2891.525;  174.825;    0.000
296.574; 2743.525;  127.825;    0.000
296.637; 2803.525;  132.825;    0.000
296.701; 2808.525;  206.825;    0.000
296.764; 2778.525;  179.825;    0.000
296.828; 2808.525;  213.825;    0.000
296.891; 2776.525;  149.825;    0.000
296.955; 2788.525;  170.825;    0.000
297.018; 2766.525;  185.825;    0.000
297.082; 2871.525;  205.825;    0.000
297.145; 2716.525;  154.825;    0.000
297.209; 2684.525;  200.825;    0.000
297.272; 2784.525;  157.825;    0.000
297.336; 2691.525;  164.825;    0.000
297.399; 2662.525;  166.825;    0.000
297.463; 2654.525;  195.825;    0.000
297.526; 2706.525;  176.825;    0.000
297.590; 2688.525;  198.825;    0.000
297.653; 2634.525;  146.825;    0.000
297.717; 2695.525;  175.825;    0.000
297.780; 2637.525;  139.825;    0.000
297.843; 2629.525;  174.825;    0.000
297.907; 2586.525;  149.825;    0.000
297.970; 2607.525;  161.825;    0.000
298.034; 2624.525;  185.825;    0.000
298.097; 2703.525;  167.825;    0.000
298.160; 2557.525;  195.825;    0.000
298.224; 2539.525;  178.825;    0.000
298.287; 2628.525;  164.825;    0.000
298.350; 2698.525;  194.825;    0.000
298.414; 2710.525;  191.825;    0.000
298.477; 2503.525;  155.825;    0.000
298.540; 2580.525;  139.825;    0.000
298.604; 2634.525;  198.825;    0.000
298.667; 2575.525;  183.825;    0.000
298.730; 2531.525;  185.825;    0.000
298.794; 2514.525;  153.825;    0.000
298.857; 2546.525;  169.825;    0.000
298.920; 2453.525;  159.825;    0.000
298.984; 2566.525;  179.825;    0.000
299.047; 2536.525;  174.825;    0.000
299.110; 2433.525;  144.825;    0.000
299.173; 2469.525;  190.825;    0.000
299.237; 2435.525;  163.825;    0.000
299.300; 2509.525;  153.825;    0.000
299.363; 2434.525;  145.825;    0.000
299.426; 2449.525;  160.825;    0.000
299.489; 2357.525;  173.825;    0.000
299.553; 2498.525;  209.825;    0.000
299.616; 2447.525;  172.825;    0.000
299.679; 2427.525;  204.825;    0.000
299.742; 2359.525;  162.825;    0.000
299.805; 2501.525;  198.825;    0.000
299.868; 2435.525;  176.825;    0.000
299.932; 2402.525;  166.825;    0.000
299.995; 2448.525;  162.825;    0.000
300.058; 2436.525;  175.825;    0.000
300.121; 2303.525;  197.825;    0.000
300.184; 2356.525;  188.825;    0.000
300.247; 2361.525;  181.825;    0.000
300.310; 2374.525;  161.825;    0.000
300.374; 2376.525;  201.825;    0.000
300.437; 2382.525;  156.825;    0.000
300.500; 2428.525;  180.825;    0.000
300.563; 2375.525;  174.825;    0.000
300.626; 2375.525;  206.825;    0.000
300.689; 2448.525;  218.825;    0.000
300.752; 2335.525;  192.825;    0.000
300.815; 2302.525;  172.825;    0.000
300.878; 2324.525;  207.825;    0.000
300.941; 2388.525;  163.825;    0.000
301.004; 2306.525;  171.825;    0.000
301.067; 2410.525;  198.825;    0.000
301.130; 2273.525;  156.825;    0.000
301.193; 2298.525;  173.825;    0.000
301.256; 2344.525;  167.825;    0.000
301.319; 2301.525;  211.825;    0.000
301.382; 2437.525;  167.825;    0.000
301.445; 2407.525;  224.825;    0.000
301.508; 2333.525;  168.825;    0.000
301.571; 2308.525;  161.825;    0.000
301.634; 2341.525;  177.825;    0.000
301.697; 2305.525;  203.825;    0.000
301.760; 2316.525;  190.825;    0.000
301.823; 2399.525;  182.825;    0.000
301.885; 2382.525;  202.825;    0.000
301.948; 2367.525;  200.825;    0.000
302.011; 2381.525;  157.825;    0.000
302.074; 2436.525;  205.825;    0.000
302.137; 2328.525;  149.825;    0.000
302.200; 2353.525;  201.825;    0.000
302.263; 2296.525;  178.825;    0.000
302.326; 2327.525;  184.825;    0.000
302.388; 2384.525;  176.825;    0.000
302.451; 2286.525;  146.825;    0.000
302.514; 2293.525;  192.825;    0.000
302.577; 2248.525;  181.825;    0.000
302.640; 2366.525;  186.825;    0.000
302.703; 2344.525;  164.825;    0.000
302.765; 2371.525;  197.825;    0.000
302.828; 2231.525;  208.825;    0.000
302.891; 2332.525;  168.825;    0.000
302.954; 2213.525;  177.825;    0.000
303.016; 2366.525;  190.825;    0.000
303.079; 2304.525;  216.825;    0.000
303.142; 2288.525;  228.825;    0.000
303.205; 2226.525;  192.825;    0.000
303.267; 2259.525;  182.825;    0.000
303.330; 2283.525;  201.825;    0.000
303.393; 2214.525;  196.825;    0.000
303.456; 2282.525;  184.825;    0.000
303.518; 2327.525;  194.825;    0.000
303.581; 2240.525;  195.825;    0.000
303.644; 2256.525;  184.825;    0.000
303.706; 2227.525;  150.825;    0.000
303.769; 2225.525;  182.825;    0.000
303.832; 2298.525;  143.825;    0.000
303.894; 2218.525;  207.825;    0.000
303.957; 2276.525;  178.825;    0.000
304.020; 2264.525;  203.825;    0.000
304.082; 2249.525;  175.825;    0.000
304.145; 2271.525;  171.825;    0.000
304.207; 2337.525;  157.825;    0.000
304.270; 2244.525;  195.825;    0.000
304.333; 2358.525;  195.825;    0.000
304.395; 2253.525;  197.825;    0.000
304.458; 2284.525;  231.825;    0.000
304.520; 2353.525;  218.825;    0.000
304.583; 2356.525;  177.825;    0.000
304.646; 2239.525;  177.825;    0.000
304.708; 2291.525;  178.825;    0.000
304.771; 2280.525;  143.825;    0.000
304.833; 2197.525;  241.825;    0.000
304.896; 2304.525;  200.825;    0.000
304.958; 2210.525;  176.825;    0.000
305.021; 2206.525;  159.825;    0.000
305.083; 2240.525;  159.825;    0.000
305.146; 2273.525;  190.825;    0.000
305.208; 2242.525;  152.825;    0.000
305.271; 2277.525;  162.825;    0.000
305.333; 2333.525;  219.825;    0.000
305.396; 2270.525;  163.825;    0.000
305.458; 2267.525;  215.825;    0.000
305.520; 2203.525;  174.825;    0.000
305.583; 2253.525;  161.825;    0.000
305.645; 2281.525;  203.825;    0.000
305.708; 2229.525;  163.825;    0.000
305.770; 2284.525;  215.825;    0.000
305.833; 2308.525;  207.825;    0.000
305.895; 2303.525;  166.825;    0.000
305.957; 2293.525;  175.825;    0.000
306.020; 2299.525;  169.825;    0.000
306.082; 2274.525;  203.825;    0.000
306.144; 2272.525;  181.825;    0.000
306.207; 2238.525;  199.825;    0.000
306.269; 2339.525;  177.825;    0.000
306.331; 2226.525;  160.825;    0.000
306.394; 2235.525;  193.825;    0.000
306.456; 2308.525;  136.825;    0.000
306.518; 2255.525;  189.825;    0.000
306.581; 2264.525;  156.825;    0.000
306.643; 2285.525;  190.825;    0.000
306.705; 2288.525;  190.825;    0.000
306.768; 2220.525;  172.825;    0.000
306.830; 2334.525;  214.825;    0.000
306.892; 2306.525;  198.825;    0.000
306.954; 2279.525;  177.825;    0.000
307.017; 2338.525;  183.825;    0.000
307.079; 2266.525;  170.825;    0.000
307.141; 2281.525;  173.825;    0.000
307.203; 2353.525;  171.825;    0.000
307.266; 2294.525;  166.825;    0.000
307.328; 2393.525;  207.825;    0.000
307.390; 2343.525;  201.825;    0.000
307.452; 2421.525;  182.825;    0.000
307.514; 2349.525;  213.825;    0.000
307.577; 2429.525;  213.825;    0.000
307.639; 2325.525;  197.825;    0.000
307.701; 2394.525;  174.825;    0.000
307.763; 2409.525;  181.825;    0.000
307.825; 2327.525;  186.825;    0.000
307.887; 2405.525;  198.825;    0.000
307.949; 2339.525;  158.825;    0.000
308.012; 2445.525;  209.825;    0.000
308.074; 2383.525;  176.825;    0.000
308.136; 2488.525;  227.825;    0.000
308.198; 2447.525;  187.825;    0.000
308.260; 2362.525;  211.825;    0.000
308.322; 2463.525;  206.825;    0.000
308.384; 2380.525;  186.825;    0.000
308.446; 2392.525;  175.825;    0.000
308.508; 2438.525;  211.825;    0.000
308.570; 2483.525;  191.825;    0.000
308.632; 2364.525;  195.825;    0.000
308.694; 2460.525;  173.825;    0.000
308.756; 2522.525;  185.825;    0.000
308.818; 2567.525;  195.825;    0.000
308.880; 2436.525;  189.825;    0.000
308.942; 2498.525;  231.825;    0.000
309.004; 2604.525;  188.825;    0.000
309.066; 2647.525;  196.825;    0.000
309.128; 2620.525;  155.825;    0.000
309.190; 2706.525;  176.825;    0.000
309.252; 2955.525;  191.825;    0.000
309.314; 2982.525;  236.825;    0.000
309.376; 2842.525;  212.825;    0.000
309.438; 2654.525;  201.825;    0.000
309.500; 2775.525;  206.825;    0.000
309.562; 2766.525;  213.825;    0.000
309.624; 2877.525;  196.825;    0.000
309.686; 3139.525;  198.825;    0.000
309.747; 2911.525;  186.825;    0.000
309.809; 2786.525;  215.825;    0.000
309.871; 2725.525;  242.825;    0.000
309.933; 2683.525;  162.825;    0.000
309.995; 2656.525;  163.825;    0.000
310.057; 2554.525;  145.825;    0.000
310.119; 2669.525;  205.825;    0.000
310.180; 2651.525;  195.825;    0.000
310.242; 2624.525;  167.825;    0.000
310.304; 2584.525;  213.825;    0.000
310.366; 2631.525;  224.825;    0.000
310.428; 2427.525;  170.825;    0.000
310.489; 2614.525;  195.825;    0.000
310.551; 2606.525;  207.825;    0.000
310.613; 2536.525;  168.825;    0.000
310.675; 2614.525;  188.825;    0.000
310.737; 2516.525;  211.825;    0.000
310.798; 2573.525;  221.825;    0.000
310.860; 2545.525;  201.825;    0.000
310.922; 2564.525;  206.825;    0.000
310.983; 2551.525;  222.825;    0.000
311.045; 2488.525;  235.825;    0.000
311.107; 2537.525;  184.825;    0.000
311.169; 2547.525;  148.825;    0.000
311.230; 2458.525;  211.825;    0.000
311.292; 2532.525;  235.825;    0.000
311.354; 2458.525;  183.825;    0.000
311.415; 2495.525;  196.825;    0.000
311.477; 2534.525;  200.825;    0.000
311.539; 2543.525;  171.825;    0.000
311.600; 2570.525;  169.825;    0.000
311.662; 2545.525;  231.825;    0.000
311.724; 2496.525;  204.825;    0.000
311.785; 2491.525;  214.825;    0.000
311.847; 2542.525;  193.825;    0.000
311.908; 2553.525;  180.825;    0.000
311.970; 2499.525;  233.825;    0.000
312.032; 2556.525;  192.825;    0.000
312.093; 2530.525;  195.825;    0.000
312.155; 2521.525;  194.825;    0.000
312.216; 2563.525;  238.825;    0.000
312.278; 2576.525;  146.825;    0.000
312.339; 2454.525;  184.825;    0.000
312.401; 2589.525;  201.825;    0.000
312.462; 2445.525;  173.825;    0.000
312.524; 2572.525;  205.825;    0.000
312.585; 2518.525;  199.825;    0.000
312.647; 2513.525;  168.825;    0.000
312.708; 2553.525;  180.825;    0.000
312.770; 2529.525;  180.825;    0.000
312.831; 2538.525;  176.825;    0.000
312.893; 2449.525;  211.825;    0.000
312.954; 2561.525;  178.825;    0.000
313.016; 2507.525;  204.825;    0.000
313.077; 2423.525;  216.825;    0.000
313.139; 2505.525;  172.825;    0.000
313.200; 2503.525;  197.825;    0.000
313.261; 2517.525;  227.825;    0.000
313.323; 2504.525;  204.825;    0.000
313.384; 2510.525;  182.825;    0.000
313.446; 2535.525;  204.825;    0.000
313.507; 2502.525;  164.825;    0.000
313.568; 2451.525;  197.825;    0.000
313.630; 2542.525;  190.825;    0.000
313.691; 2523.525;  185.825;    0.000
313.752; 2558.525;  192.825;    0.000
313.814; 2525.525;  176.825;    0.000
313.875; 2502.525;  210.825;    0.000
313.936; 2611.525;  165.825;    0.000
313.998; 2552.525;  162.825;    0.000
314.059; 2521.525;  178.825;    0.000
314.120; 2563.525;  176.825;    0.000
314.182; 2523.525;  167.825;    0.000
314.243; 2568.525;  204.825;    0.000
314.304; 2572.525;  197.825;    0.000
314.365; 2517.525;  183.825;    0.000
314.427; 2570.525;  176.825;    0.000
314.488; 2516.525;  149.825;    0.000
314.549; 2616.525;  218.825;    0.000
314.610; 2582.525;  160.825;    0.000
314.672; 2577.525;  187.825;    0.000
314.733; 2473.525;  184.825;    0.000
314.794; 2498.525;  164.825;    0.000
314.855; 2626.525;  191.825;    0.000
314.917; 2513.525;  172.825;    0.000
314.978; 2537.525;  185.825;    0.000
315.039; 2553.525;  194.825;    0.000
315.100; 2561.525;  190.825;    0.000
315.161; 2599.525;  185.825;    0.000
315.222; 2521.525;  204.825;    0.000
315.283; 2533.525;  166.825;    0.000
315.345; 2589.525;  133.825;    0.000
315.406; 2535.525;  191.825;    0.000
315.467; 2472.525;  166.825;    0.000
315.528; 2491.525;  194.825;    0.000
315.589; 2621.525;  193.825;    0.000
315.650; 2567.525;  190.825;    0.000
315.711; 2542.525;  219.825;    0.000
315.772; 2646.525;  159.825;    0.000
315.833; 2568.525;  191.825;    0.000
315.894; 2545.525;  202.825;    0.000
315.955; 2612.525;  167.825;    0.000
316.016; 2617.525;  177.825;    0.000
316.078; 2585.525;  185.825;    0.000
316.139; 2672.525;  219.825;    0.000
316.200; 2527.525;  163.825;    0.000
316.261; 2600.525;  183.825;    0.000
316.322; 2535.525;  230.825;    0.000
316.383; 2503.525;  198.825;    0.000
316.444; 2508.525;  209.825;    0.000
316.504; 2530.525;  179.825;    0.000
316.565; 2548.525;  185.825;    0.000
316.626; 2492.525;  155.825;    0.000
316.687; 2486.525;  211.825;    0.000
316.748; 2514.525;  192.825;    0.000
316.809; 2493.525;  183.825;    0.000
316.870; 2530.525;  196.825;    0.000
316.931; 2522.525;  173.825;    0.000
316.992; 2575.525;  179.825;    0.000
317.053; 2529.525;  186.825;    0.000
317.114; 2475.525;  189.825;    0.000
317.175; 2603.525;  226.825;    0.000
317.235; 2527.525;  206.825;    0.000
317.296; 2534.525;  191.825;    0.000
317.357; 2469.525;  173.825;    0.000
317.418; 2492.525;  212.825;    0.000
317.479; 2616.525;  247.825;    0.000
317.540; 2558.525;  205.825;    0.000
317.601; 2481.525;  205.825;    0.000
317.661; 2523.525;  150.825;    0.000
317.722; 2528.525;  198.825;    0.000
317.783; 2544.525;  153.825;    0.000
317.844; 2725.525;  202.825;    0.000
317.904; 2743.525;  180.825;    0.000
317.965; 2716.525;  205.825;    0.000
318.026; 2676.525;  223.825;    0.000
318.087; 2702.525;  218.825;    0.000
318.148; 2709.525;  207.825;    0.000
318.208; 2604.525;  212.825;    0.000
318.269; 2540.525;  174.825;    0.000
318.330; 2518.525;  191.825;    0.000
318.390; 2547.525;  197.825;    0.000
318.451; 2553.525;  167.825;    0.000
318.512; 2472.525;  174.825;    0.000
318.572; 2578.525;  199.825;    0.000
318.633; 2549.525;  233.825;    0.000
318.694; 2550.525;  232.825;    0.000
318.754; 2399.525;  181.825;    0.000
318.815; 2530.525;  199.825;    0.000
318.876; 2475.525;  207.825;    0.000
318.936; 2501.525;  202.825;    0.000
318.997; 2479.525;  182.825;    0.000
319.058; 2486.525;  180.825;    0.000
319.118; 2549.525;  199.825;    0.000
319.179; 2498.525;  199.825;    0.000
319.239; 2419.525;  229.825;    0.000
319.300; 2532.525;  223.825;    0.000
319.361; 2425.525;  210.825;    0.000
319.421; 2485.525;  205.825;    0.000
319.482; 2437.525;  205.825;    0.000
319.542; 2564.525;  176.825;    0.000
319.603; 2466.525;  191.825;    0.000
319.663; 2527.525;  183.825;    0.000
319.724; 2415.525;  174.825;    0.000
319.784; 2461.525;  198.825;    0.000
319.845; 2482.525;  218.825;    0.000
319.905; 2445.525;  217.825;    0.000
319.966; 2460.525;  197.825;    0.000
320.026; 2490.525;  209.825;    0.000
320.087; 2445.525;  225.825;    0.000
320.147; 2523.525;  201.825;    0.000
320.208; 2421.525;  176.825;    0.000
320.268; 2450.525;  168.825;    0.000
320.329; 2397.525;  238.825;    0.000
320.389; 2445.525;  220.825;    0.000
320.449; 2460.525;  230.825;    0.000
320.510; 2397.525;  234.825;    0.000
320.570; 2337.525;  210.825;    0.000
320.631; 2441.525;  207.825;    0.000
320.691; 2487.525;  222.825;    0.000
320.751; 2446.525;  195.825;    0.000
320.812; 2365.525;  193.825;    0.000
320.872; 2517.525;  237.825;    0.000
320.932; 2487.525;  213.825;    0.000
320.993; 2426.525;  185.825;    0.000
321.053; 2455.525;  245.825;    0.000
321.113; 2459.525;  206.825;    0.000
321.174; 2433.525;  202.825;    0.000
321.234; 2514.525;  244.825;    0.000
321.294; 2445.525;  228.825;    0.000
321.355; 2376.525;  208.825;    0.000
321.415; 2376.525;  223.825;    0.000
321.475; 2459.525;  203.825;    0.000
321.535; 2503.525;  230.825;    0.000
321.596; 2427.525;  186.825;    0.000
321.656; 2374.525;  216.825;    0.000
321.716; 2432.525;  207.825;    0.000
321.776; 2494.525;  181.825;    0.000
321.837; 2452.525;  207.825;    0.000
321.897; 2516.525;  225.825;    0.000
321.957; 2393.525;  222.825;    0.000
322.017; 2426.525;  215.825;    0.000
322.077; 2467.525;  250.825;    0.000
322.138; 2464.525;  189.825;    0.000
322.198; 2422.525;  200.825;    0.000
322.258; 2337.525;  217.825;    0.000
322.318; 2387.525;  183.825;    0.000
322.378; 2482.525;  231.825;    0.000
322.438; 2336.525;  228.825;    0.000
322.499; 2503.525;  248.825;    0.000
322.559; 2361.525;  198.825;    0.000
322.619; 2474.525;  221.825;    0.000
322.679; 2365.525;  217.825;    0.000
322.739; 2430.525;  204.825;    0.000
322.799; 2422.525;  236.825;    0.000
322.859; 2447.525;  213.825;    0.000
322.919; 2467.525;  210.825;    0.000
322.979; 2429.525;  244.825;    0.000
323.039; 2411.525;  218.825;    0.000
323.099; 2469.525;  232.825;    0.000
323.159; 2418.525;  216.825;    0.000
323.219; 2388.525;  169.825;    0.000
323.279; 2375.525;  236.825;    0.000
323.339; 2462.525;  243.825;    0.000
323.399; 2427.525;  208.825;    0.000
323.459; 2389.525;  220.825;    0.000
323.519; 2444.525;  228.825;    0.000
323.579; 2322.525;  164.825;    0.000
323.639; 2459.525;  209.825;    0.000
323.699; 2360.525;  188.825;    0.000
323.759; 2433.525;  206.825;    0.000
323.819; 2380.525;  204.825;    0.000
323.879; 2451.525;  222.825;    0.000
323.939; 2374.525;  206.825;    0.000
323.999; 2406.525;  202.825;    0.000
324.059; 2567.525;  245.825;    0.000
324.119; 2456.525;  214.825;    0.000
324.178; 2398.525;  183.825;    0.000
324.238; 2373.525;  193.825;    0.000
324.298; 2435.525;  207.825;    0.000
324.358; 2392.525;  196.825;    0.000
324.418; 2430.525;  193.825;    0.000
324.478; 2475.525;  191.825;    0.000
324.538; 2459.525;  224.825;    0.000
324.597; 2418.525;  187.825;    0.000
324.657; 2384.525;  208.825;    0.000
324.717; 2443.525;  198.825;    0.000
324.777; 2402.525;  159.825;    0.000
324.837; 2346.525;  180.825;    0.000
324.896; 2493.525;  215.825;    0.000
324.956; 2442.525;  210.825;    0.000
325.016; 2392.525;  187.825;    0.000
325.076; 2427.525;  197.825;    0.000
325.135; 2339.525;  226.825;    0.000
325.195; 2379.525;  201.825;    0.000
325.255; 2379.525;  167.825;    0.000
325.315; 2378.525;  217.825;    0.000
325.374; 2356.525;  196.825;    0.000
325.434; 2370.525;  167.825;    0.000
325.494; 2480.525;  214.825;    0.000
325.553; 2414.525;  203.825;    0.000
325.613; 2455.525;  206.825;    0.000
325.673; 2398.525;  148.825;    0.000
325.732; 2403.525;  207.825;    0.000
325.792; 2396.525;  151.825;    0.000
325.852; 2447.525;  195.825;    0.000
325.911; 2372.525;  201.825;    0.000
325.971; 2415.525;  224.825;    0.000
326.031; 2440.525;  201.825;    0.000
326.090; 2396.525;  203.825;    0.000
326.150; 2438.525;  183.825;    0.000
326.209; 2462.525;  226.825;    0.000
326.269; 2364.525;  194.825;    0.000
326.328; 2342.525;  200.825;    0.000
326.388; 2378.525;  177.825;    0.000
326.448; 2477.525;  239.825;    0.000
326.507; 2475.525;  197.825;    0.000
326.567; 2340.525;  161.825;    0.000
326.626; 2365.525;  220.825;    0.000
326.686; 2327.525;  178.825;    0.000
326.745; 2313.525;  167.825;    0.000
326.805; 2362.525;  176.825;    0.000
326.864; 2366.525;  204.825;    0.000
326.924; 2369.525;  218.825;    0.000
326.983; 2346.525;  201.825;    0.000
327.043; 2349.525;  219.825;    0.000
327.102; 2311.525;  202.825;    0.000
327.161; 2325.525;  228.825;    0.000
327.221; 2311.525;  217.825;    0.000
327.280; 2375.525;  188.825;    0.000
327.340; 2347.525;  209.825;    0.000
327.399; 2372.525;  189.825;    0.000
327.459; 2341.525;  216.825;    0.000
327.518; 2286.525;  200.825;    0.000
327.577; 2340.525;  194.825;    0.000
327.637; 2400.525;  180.825;    0.000
327.696; 2312.525;  208.825;    0.000
327.755; 2301.525;  218.825;    0.000
327.815; 2337.525;  234.825;    0.000
327.874; 2354.525;  259.825;    0.000
327.933; 2252.525;  192.825;    0.000
327.993; 2360.525;  208.825;    0.000
328.052; 2281.525;  221.825;    0.000
328.111; 2295.525;  203.825;    0.000
328.171; 2249.525;  221.825;    0.000
328.230; 2296.525;  222.825;    0.000
328.289; 2272.525;  254.825;    0.000
328.349; 2291.525;  232.825;    0.000
328.408; 2250.525;  223.825;    0.000
328.467; 2215.525;  198.825;    0.000
328.526; 2278.525;  217.825;    0.000
328.586; 2308.525;  185.825;    0.000
328.645; 2206.525;  210.825;    0.000
328.704; 2223.525;  211.825;    0.000
328.763; 2238.525;  231.825;    0.000
328.822; 2289.525;  254.825;    0.000
328.882; 2180.525;  216.825;    0.000
328.941; 2221.525;  239.825;    0.000
329.000; 2206.525;  251.825;    0.000
329.059; 2233.525;  227.825;    0.000
329.118; 2297.525;  233.825;    0.000
329.177; 2258.525;  188.825;    0.000
329.237; 2193.525;  257.825;    0.000
329.296; 2309.525;  265.825;    0.000
329.355; 2287.525;  245.825;    0.000
329.414; 2287.525;  236.825;    0.000
329.473; 2325.525;  242.825;    0.000
329.532; 2289.525;  228.825;    0.000
329.591; 2243.525;  206.825;    0.000
329.650; 2262.525;  250.825;    0.000
329.709; 2326.525;  278.825;    0.000
329.768; 2315.525;  219.825;    0.000
329.827; 2273.525;  254.825;    0.000
329.886; 2286.525;  221.825;    0.000
329.945; 2205.525;  239.825;    0.000
330.004; 2293.525;  245.825;    0.000
330.063; 2290.525;  201.825;    0.000
330.122; 2219.525;  227.825;    0.000
330.181; 2243.525;  196.825;    0.000
330.240; 2211.525;  203.825;    0.000
330.299; 2195.525;  214.825;    0.000
330.358; 2173.525;  196.825;    0.000
330.417; 2220.525;  201.825;    0.000
330.476; 2260.525;  248.825;    0.000
330.535; 2204.525;  253.825;    0.000
330.594; 2216.525;  231.825;    0.000
330.653; 2261.525;  210.825;    0.000
330.712; 2206.525;  242.825;    0.000
330.771; 2240.525;  240.825;    0.000
330.830; 2150.525;  230.825;    0.000
330.889; 2244.525;  217.825;    0.000
330.948; 2235.525;  211.825;    0.000
331.006; 2259.525;  217.825;    0.000
331.065; 2160.525;  170.825;    0.000
331.124; 2303.525;  211.825;    0.000
331.183; 2156.525;  192.825;    0.000
331.242; 2234.525;  227.825;    0.000
331.301; 2240.525;  240.825;    0.000
331.359; 2228.525;  223.825;    0.000
331.418; 2238.525;  215.825;    0.000
331.477; 2246.525;  230.825;    0.000
331.536; 2157.525;  221.825;    0.000
331.595; 2216.525;  198.825;    0.000
331.653; 2130.525;  207.825;    0.000
331.712; 2223.525;  217.825;    0.000
331.771; 2203.525;  221.825;    0.000
331.830; 2173.525;  222.825;    0.000
331.888; 2232.525;  213.825;    0.000
331.947; 2145.525;  233.825;    0.000
332.006; 2174.525;  212.825;    0.000
332.065; 2284.525;  200.825;    0.000
332.123; 2195.525;  223.825;    0.000
332.182; 2218.525;  180.825;    0.000
332.241; 2299.525;  192.825;    0.000
332.299; 2205.525;  172.825;    0.000
332.358; 2252.525;  216.825;    0.000
332.417; 2220.525;  211.825;    0.000
332.475; 2287.525;  222.825;    0.000
332.534; 2142.525;  238.825;    0.000
332.592; 2155.525;  216.825;    0.000
332.651; 2168.525;  196.825;    0.000
332.710; 2236.525;  215.825;    0.000
332.768; 2322.525;  193.825;    0.000
332.827; 2185.525;  201.825;    0.000
332.885; 2338.525;  226.825;    0.000
332.944; 2348.525;  174.825;    0.000
333.003; 2382.525;  187.825;    0.000
333.061; 2359.525;  208.825;    0.000
333.120; 2431.525;  202.825;    0.000
333.178; 2455.525;  227.825;    0.000
333.237; 2450.525;  215.825;    0.000
333.295; 2443.525;  245.825;    0.000
333.354; 2428.525;  194.825;    0.000
333.412; 2374.525;  165.825;    0.000
333.471; 2356.525;  219.825;    0.000
333.529; 2471.525;  255.825;    0.000
333.588; 2506.525;  264.825;    0.000
333.646; 2566.525;  231.825;    0.000
333.705; 2571.525;  232.825;    0.000
333.763; 2510.525;  233.825;    0.000
333.822; 2518.525;  221.825;    0.000
333.880; 2471.525;  180.825;    0.000
333.938; 2383.525;  229.825;    0.000
333.997; 2374.525;  194.825;    0.000
334.055; 2465.525;  230.825;    0.000
334.114; 2413.525;  230.825;    0.000
334.172; 2430.525;  170.825;    0.000
334.230; 2346.525;  192.825;    0.000
334.289; 2375.525;  225.825;    0.000
334.347; 2329.525;  233.825;    0.000
334.405; 2431.525;  207.825;    0.000
334.464; 2449.525;  175.825;    0.000
334.522; 2305.525;  180.825;    0.000
334.580; 2320.525;  172.825;    0.000
334.639; 2459.525;  230.825;    0.000
334.697; 2376.525;  217.825;    0.000
334.755; 2411.525;  217.825;    0.000
334.814; 2423.525;  210.825;    0.000
334.872; 2404.525;  170.825;    0.000
334.930; 2326.525;  167.825;    0.000
334.988; 2448.525;  244.825;    0.000
335.047; 2288.525;  202.825;    0.000
335.105; 2400.525;  181.825;    0.000
335.163; 2332.525;  195.825;    0.000
335.221; 2405.525;  203.825;    0.000
335.280; 2292.525;  216.825;    0.000
335.338; 2350.525;  197.825;    0.000
335.396; 2366.525;  232.825;    0.000
335.454; 2392.525;  211.825;    0.000
335.512; 2291.525;  221.825;    0.000
335.570; 2266.525;  216.825;    0.000
335.629; 2411.525;  244.825;    0.000
335.687; 2285.525;  244.825;    0.000
335.745; 2354.525;  189.825;    0.000
335.803; 2336.525;  198.825;    0.000
335.861; 2303.525;  236.825;    0.000
335.919; 2338.525;  234.825;    0.000
335.977; 2425.525;  214.825;    0.000
336.035; 2347.525;  242.825;    0.000
336.094; 2336.525;  219.825;    0.000
336.152; 2460.525;  196.825;    0.000
336.210; 2393.525;  221.825;    0.000
336.268; 2479.525;  257.825;    0.000
336.326; 2320.525;  211.825;    0.000
336.384; 2362.525;  217.825;    0.000
336.442; 2372.525;  176.825;    0.000
336.500; 2353.525;  242.825;    0.000
336.558; 2360.525;  238.825;    0.000
336.616; 2358.525;  261.825;    0.000
336.674; 2247.525;  200.825;    0.000
336.732; 2304.525;  208.825;    0.000
336.790; 2221.525;  183.825;    0.000
336.848; 2304.525;  199.825;    0.000
336.906; 2343.525;  240.825;    0.000
336.964; 2286.525;  234.825;    0.000
337.022; 2340.525;  282.825;    0.000
337.080; 2379.525;  265.825;    0.000
337.138; 2294.525;  255.825;    0.000
337.195; 2312.525;  200.825;    0.000
337.253; 2341.525;  199.825;    0.000
337.311; 2280.525;  233.825;    0.000
337.369; 2238.525;  250.825;    0.000
337.427; 2253.525;  201.825;    0.000
337.485; 2282.525;  228.825;    0.000
337.543; 2271.525;  221.825;    0.000
337.601; 2364.525;  232.825;    0.000
337.658; 2263.525;  215.825;    0.000
337.716; 2211.525;  198.825;    0.000
337.774; 2229.525;  262.825;    0.000
337.832; 2294.525;  220.825;    0.000
337.890; 2122.525;  194.825;    0.000
337.947; 2170.525;  205.825;    0.000
338.005; 2272.525;  229.825;    0.000
338.063; 2223.525;  237.825;    0.000
338.121; 2307.525;  220.825;    0.000
338.178; 2131.525;  227.825;    0.000
338.236; 2271.525;  238.825;    0.000
338.294; 2316.525;  242.825;    0.000
338.352; 2224.525;  230.825;    0.000
338.409; 2248.525;  222.825;    0.000
338.467; 2116.525;  233.825;    0.000
338.525; 2270.525;  253.825;    0.000
338.583; 2182.525;  221.825;    0.000
338.640; 2218.525;  225.825;    0.000
338.698; 2168.525;  229.825;    0.000
338.756; 2214.525;  238.825;    0.000
338.813; 2253.525;  260.825;    0.000
338.871; 2177.525;  246.825;    0.000
338.928; 2301.525;  240.825;    0.000
338.986; 2272.525;  228.825;    0.000
339.044; 2289.525;  265.825;    0.000
339.101; 2213.525;  224.825;    0.000
339.159; 2177.525;  235.825;    0.000
339.216; 2271.525;  244.825;    0.000
339.274; 2214.525;  266.825;    0.000
339.332; 2217.525;  248.825;    0.000
339.389; 2213.525;  246.825;    0.000
339.447; 2211.525;  237.825;    0.000
339.504; 2200.525;  244.825;    0.000
339.562; 2191.525;  249.825;    0.000
339.619; 2175.525;  266.825;    0.000
339.677; 2251.525;  263.825;    0.000
339.734; 2160.525;  216.825;    0.000
339.792; 2306.525;  276.825;    0.000
339.849; 2178.525;  240.825;    0.000
339.907; 2222.525;  275.825;    0.000
339.964; 2226.525;  243.825;    0.000
340.022; 2224.525;  224.825;    0.000
340.079; 2179.525;  230.825;    0.000
340.137; 2185.525;  232.825;    0.000
340.194; 2235.525;  261.825;    0.000
340.252; 2117.525;  219.825;    0.000
340.309; 2112.525;  212.825;    0.000
340.366; 2116.525;  231.825;    0.000
340.424; 2117.525;  244.825;    0.000
340.481; 2186.525;  238.825;    0.000
340.538; 2171.525;  217.825;    0.000
340.596; 2112.525;  224.825;    0.000
340.653; 2130.525;  225.825;    0.000
340.711; 2217.525;  276.825;    0.000
340.768; 2229.525;  239.825;    0.000
340.825; 2130.525;  216.825;    0.000
340.883; 2200.525;  264.825;    0.000
340.940; 2211.525;  256.825;    0.000
340.997; 2191.525;  230.825;    0.000
341.054; 2193.525;  229.825;    0.000
341.112; 2129.525;  220.825;    0.000
341.169; 2322.525;  276.825;    0.000
341.226; 2184.525;  224.825;    0.000
341.284; 2186.525;  235.825;    0.000
341.341; 2165.525;  226.825;    0.000
341.398; 2215.525;  200.825;    0.000
341.455; 2203.525;  242.825;    0.000
341.512; 2198.525;  226.825;    0.000
341.570; 2161.525;  299.825;    0.000
341.627; 2211.525;  221.825;    0.000
341.684; 2268.525;  204.825;    0.000
341.741; 2298.525;  285.825;    0.000
341.798; 2251.525;  237.825;    0.000
341.856; 2213.525;  223.825;    0.000
341.913; 2268.525;  232.825;    0.000
341.970; 2182.525;  250.825;    0.000
342.027; 2281.525;  272.825;    0.000
342.084; 2232.525;  242.825;    0.000
342.141; 2217.525;  207.825;    0.000
342.198; 2274.525;  252.825;    0.000
342.255; 2245.525;  189.825;    0.000
342.313; 2253.525;  222.825;    0.000
342.370; 2262.525;  203.825;    0.000
342.427; 2257.525;  261.825;    0.000
342.484; 2201.525;  230.825;    0.000
342.541; 2199.525;  224.825;    0.000
342.598; 2199.525;  245.825;    0.000
342.655; 2247.525;  235.825;    0.000
342.712; 2197.525;  238.825;    0.000
342.769; 2211.525;  235.825;    0.000
342.826; 2190.525;  232.825;    0.000
342.883; 2240.525;  212.825;    0.000
342.940; 2190.525;  189.825;    0.000
342.997; 2179.525;  241.825;    0.000
343.054; 2188.525;  235.825;    0.000
343.111; 2233.525;  216.825;    0.000
343.168; 2258.525;  202.825;    0.000
343.225; 2225.525;  228.825;    0.000
343.282; 2240.525;  208.825;    0.000
343.339; 2308.525;  241.825;    0.000
343.395; 2287.525;  206.825;    0.000
343.452; 2335.525;  227.825;    0.000
343.509; 2309.525;  212.825;    0.000
343.566; 2388.525;  266.825;    0.000
343.623; 2352.525;  240.825;    0.000
343.680; 2352.525;  215.825;    0.000
343.737; 2428.525;  231.825;    0.000
343.794; 2525.525;  256.825;    0.000
343.850; 2422.525;  235.825;    0.000
343.907; 2406.525;  246.825;    0.000
343.964; 2510.525;  241.825;    0.000
344.021; 2492.525;  237.825;    0.000
344.078; 2445.525;  248.825;    0.000
344.134; 2453.525;  225.825;    0.000
344.191; 2393.525;  209.825;    0.000
344.248; 2489.525;  234.825;    0.000
344.305; 2420.525;  224.825;    0.000
344.361; 2395.525;  194.825;    0.000
344.418; 2461.525;  240.825;    0.000
344.475; 2393.525;  252.825;    0.000
344.532; 2393.525;  251.825;    0.000
344.588; 2490.525;  240.825;    0.000
344.645; 2450.525;  253.825;    0.000
344.702; 2411.525;  216.825;    0.000
344.758; 2425.525;  258.825;    0.000
344.815; 2343.525;  239.825;    0.000
344.872; 2339.525;  216.825;    0.000
344.928; 2389.525;  236.825;    0.000
344.985; 2388.525;  238.825;    0.000
345.042; 2325.525;  211.825;    0.000
345.098; 2330.525;  223.825;    0.000
345.155; 2374.525;  266.825;    0.000
345.212; 2307.525;  266.825;    0.000
345.268; 2354.525;  245.825;    0.000
345.325; 2319.525;  225.825;    0.000
345.381; 2387.525;  223.825;    0.000
345.438; 2373.525;  259.825;    0.000
345.495; 2520.525;  233.825;    0.000
345.551; 2389.525;  254.825;    0.000
345.608; 2314.525;  212.825;    0.000
345.664; 2368.525;  225.825;    0.000
345.721; 2321.525;  223.825;    0.000
345.777; 2242.525;  226.825;    0.000
345.834; 2167.525;  215.825;    0.000
345.890; 2275.525;  230.825;    0.000
345.947; 2334.525;  232.825;    0.000
346.003; 2287.525;  241.825;    0.000
346.060; 2301.525;  241.825;    0.000
346.116; 2320.525;  231.825;    0.000
346.173; 2292.525;  229.825;    0.000
346.229; 2311.525;  262.825;    0.000
346.285; 2354.525;  232.825;    0.000
346.342; 2343.525;  228.825;    0.000
346.398; 2370.525;  203.825;    0.000
346.455; 2434.525;  214.825;    0.000
346.511; 2324.525;  245.825;    0.000
346.567; 2353.525;  192.825;    0.000
346.624; 2380.525;  206.825;    0.000
346.680; 2363.525;  209.825;    0.000
346.737; 2379.525;  239.825;    0.000
346.793; 2394.525;  234.825;    0.000
346.849; 2335.525;  252.825;    0.000
346.906; 2408.525;  247.825;    0.000
346.962; 2396.525;  274.825;    0.000
347.018; 2400.525;  225.825;    0.000
347.074; 2407.525;  261.825;    0.000
347.131; 2374.525;  230.825;    0.000
347.187; 2380.525;  269.825;    0.000
347.243; 2400.525;  261.825;    0.000
347.300; 2302.525;  236.825;    0.000
347.356; 2370.525;  284.825;    0.000
347.412; 2431.525;  243.825;    0.000
347.468; 2490.525;  276.825;    0.000
347.524; 2350.525;  232.825;    0.000
347.581; 2355.525;  242.825;    0.000
347.637; 2377.525;  270.825;    0.000
347.693; 2380.525;  269.825;    0.000
347.749; 2415.525;  278.825;    0.000
347.805; 2391.525;  224.825;    0.000
347.862; 2338.525;  207.825;    0.000
347.918; 2383.525;  259.825;    0.000
347.974; 2410.525;  244.825;    0.000
348.030; 2386.525;  219.825;    0.000
348.086; 2416.525;  250.825;    0.000
348.142; 2435.525;  251.825;    0.000
348.198; 2338.525;  267.825;    0.000
348.254; 2391.525;  230.825;    0.000
348.311; 2371.525;  261.825;    0.000
348.367; 2370.525;  259.825;    0.000
348.423; 2396.525;  251.825;    0.000
348.479; 2431.525;  251.825;    0.000
348.535; 2416.525;  269.825;    0.000
348.591; 2426.525;  238.825;    0.000
348.647; 2363.525;  273.825;    0.000
348.703; 2332.525;  291.825;    0.000
348.759; 2380.525;  231.825;    0.000
348.815; 2396.525;  286.825;    0.000
348.871; 2431.525;  265.825;    0.000
348.927; 2414.525;  234.825;    0.000
348.983; 2480.525;  267.825;    0.000
349.039; 2430.525;  233.825;    0.000
349.095; 2374.525;  225.825;    0.000
349.151; 2352.525;  242.825;    0.000
349.207; 2321.525;  223.825;    0.000
349.263; 2392.525;  219.825;    0.000
349.319; 2375.525;  226.825;    0.000
349.374; 2453.525;  232.825;    0.000
349.430; 2440.525;  235.825;    0.000
349.486; 2427.525;  227.825;    0.000
349.542; 2444.525;  253.825;    0.000
349.598; 2488.525;  227.825;    0.000
349.654; 2459.525;  270.825;    0.000
349.710; 2340.525;  233.825;    0.000
349.766; 2382.525;  245.825;    0.000
349.821; 2478.525;  242.825;    0.000
349.877; 2400.525;  229.825;    0.000
349.933; 2452.525;  229.825;    0.000
349.989; 2474.525;  230.825;    0.000
350.045; 2471.525;  236.825;    0.000
350.100; 2439.525;  237.825;    0.000
350.156; 2402.525;  230.825;    0.000
350.212; 2420.525;  254.825;    0.000
350.268; 2461.525;  239.825;    0.000
350.323; 2352.525;  204.825;    0.000
350.379; 2444.525;  246.825;    0.000
350.435; 2395.525;  249.825;    0.000
350.491; 2382.525;  217.825;    0.000
350.546; 2471.525;  231.825;    0.000
350.602; 2436.525;  240.825;    0.000
350.658; 2444.525;  235.825;    0.000
350.713; 2380.525;  234.825;    0.000
350.769; 2393.525;  218.825;    0.000
350.825; 2376.525;  227.825;    0.000
350.880; 2412.525;  226.825;    0.000
350.936; 2504.525;  247.825;    0.000
350.992; 2494.525;  213.825;    0.000
351.047; 2457.525;  207.825;    0.000
351.103; 2436.525;  271.825;    0.000
351.158; 2386.525;  251.825;    0.000
351.214; 2352.525;  199.825;    0.000
351.270; 2427.525;  214.825;    0.000
351.325; 2415.525;  235.825;    0.000
351.381; 2544.525;  223.825;    0.000
351.436; 2507.525;  237.825;    0.000
351.492; 2442.525;  221.825;    0.000
351.547; 2450.525;  237.825;    0.000
351.603; 2452.525;  239.825;    0.000
351.658; 2394.525;  209.825;    0.000
351.714; 2462.525;  226.825;    0.000
351.769; 2455.525;  238.825;    0.000
351.825; 2443.525;  226.825;    0.000
351.880; 2486.525;  217.825;    0.000
351.936; 2451.525;  246.825;    0.000
351.991; 2397.525;  233.825;    0.000
352.047; 2432.525;  215.825;    0.000
352.102; 2400.525;  243.825;    0.000
352.158; 2365.525;  234.825;    0.000
352.213; 2378.525;  201.825;    0.000
352.268; 2473.525;  234.825;    0.000
352.324; 2392.525;  211.825;    0.000
352.379; 2448.525;  221.825;    0.000
352.434; 2457.525;  259.825;    0.000
352.490; 2451.525;  250.825;    0.000
352.545; 2441.525;  251.825;    0.000
352.601; 2484.525;  283.825;    0.000
352.656; 2396.525;  236.825;    0.000
352.711; 2425.525;  237.825;    0.000
352.767; 2438.525;  201.825;    0.000
352.822; 2391.525;  209.825;    0.000
352.877; 2416.525;  239.825;    0.000
352.932; 2404.525;  228.825;    0.000
352.988; 2411.525;  202.825;    0.000
353.043; 2489.525;  268.825;    0.000
353.098; 2468.525;  208.825;    0.000
353.153; 2444.525;  219.825;    0.000
353.209; 2434.525;  252.825;    0.000
353.264; 2458.525;  225.825;    0.000
353.319; 2479.525;  234.825;    0.000
353.374; 2352.525;  236.825;    0.000
353.430; 2438.525;  245.825;    0.000
353.485; 2441.525;  238.825;    0.000
353.540; 2461.525;  238.825;    0.000
353.595; 2402.525;  215.825;    0.000
353.650; 2460.525;  238.825;    0.000
353.705; 2463.525;  274.825;    0.000
353.761; 2485.525;  229.825;    0.000
353.816; 2533.525;  275.825;    0.000
353.871; 2343.525;  245.825;    0.000
353.926; 2480.525;  253.825;    0.000
353.981; 2526.525;  269.825;    0.000
354.036; 2467.525;  246.825;    0.000
354.091; 2517.525;  257.825;    0.000
354.146; 2502.525;  278.825;    0.000
354.201; 2408.525;  276.825;    0.000
354.256; 2437.525;  224.825;    0.000
354.311; 2444.525;  287.825;    0.000
354.367; 2439.525;  210.825;    0.000
354.422; 2471.525;  231.825;    0.000
354.477; 2446.525;  226.825;    0.000
354.532; 2523.525;  262.825;    0.000
354.587; 2598.525;  275.825;    0.000
354.642; 2440.525;  247.825;    0.000
354.697; 2478.525;  251.825;    0.000
354.751; 2417.525;  249.825;    0.000
354.806; 2452.525;  217.825;    0.000
354.861; 2481.525;  247.825;    0.000
354.916; 2486.525;  259.825;    0.000
354.971; 2459.525;  241.825;    0.000
355.026; 2481.525;  250.825;    0.000
355.081; 2548.525;  244.825;    0.000
355.136; 2505.525;  203.825;    0.000
355.191; 2483.525;  241.825;    0.000
355.246; 2480.525;  248.825;    0.000
355.301; 2529.525;  259.825;    0.000
355.355; 2532.525;  236.825;    0.000
355.410; 2487.525;  221.825;    0.000
355.465; 2452.525;  206.825;    0.000
355.520; 2502.525;  258.825;    0.000
355.575; 2559.525;  273.825;    0.000
355.630; 2546.525;  252.825;    0.000
355.684; 2526.525;  246.825;    0.000
355.739; 2420.525;  251.825;    0.000
355.794; 2489.525;  247.825;    0.000
355.849; 2418.525;  246.825;    0.000
355.904; 2441.525;  262.825;    0.000
355.958; 2491.525;  249.825;    0.000
356.013; 2472.525;  213.825;    0.000
356.068; 2539.525;  255.825;    0.000
356.123; 2459.525;  205.825;    0.000
356.177; 2631.525;  239.825;    0.000
356.232; 2500.525;  258.825;    0.000
356.287; 2562.525;  248.825;    0.000
356.341; 2550.525;  221.825;    0.000
356.396; 2474.525;  220.825;    0.000
356.451; 2568.525;  231.825;    0.000
356.505; 2504.525;  231.825;    0.000
356.560; 2603.525;  254.825;    0.000
356.615; 2507.525;  234.825;    0.000
356.669; 2513.525;  250.825;    0.000
356.724; 2466.525;  261.825;    0.000
356.778; 2488.525;  207.825;    0.000
356.833; 2446.525;  205.825;    0.000
356.888; 2492.525;  235.825;    0.000
356.942; 2491.525;  205.825;    0.000
356.997; 2635.525;  276.825;    0.000
357.051; 2492.525;  243.825;    0.000
357.106; 2581.525;  242.825;    0.000
357.160; 2490.525;  241.825;    0.000
357.215; 2410.525;  212.825;    0.000
357.269; 2526.525;  238.825;    0.000
357.324; 2516.525;  223.825;    0.000
357.378; 2527.525;  221.825;    0.000
357.433; 2391.525;  262.825;    0.000
357.487; 2545.525;  246.825;    0.000
357.542; 2517.525;  221.825;    0.000
357.596; 2594.525;  225.825;    0.000
357.651; 2546.525;  244.825;    0.000
357.705; 2482.525;  269.825;    0.000
357.760; 2513.525;  209.825;    0.000
357.814; 2547.525;  250.825;    0.000
357.868; 2569.525;  266.825;    0.000
357.923; 2461.525;  248.825;    0.000
357.977; 2443.525;  262.825;    0.000
358.032; 2591.525;  228.825;    0.000
358.086; 2598.525;  257.825;    0.000
358.140; 2535.525;  217.825;    0.000
358.195; 2545.525;  246.825;    0.000
358.249; 2552.525;  255.825;    0.000
358.303; 2562.525;  252.825;    0.000
358.358; 2437.525;  278.825;    0.000
358.412; 2490.525;  276.825;    0.000
358.466; 2495.525;  275.825;    0.000
358.521; 2478.525;  229.825;    0.000
358.575; 2421.525;  270.825;    0.000
358.629; 2509.525;  239.825;    0.000
358.683; 2549.525;  254.825;    0.000
358.738; 2506.525;  239.825;    0.000
358.792; 2509.525;  272.825;    0.000
358.846; 2379.525;  289.825;    0.000
358.900; 2563.525;  299.825;    0.000
358.954; 2483.525;  247.825;    0.000
359.009; 2537.525;  245.825;    0.000
359.063; 2503.525;  272.825;    0.000
359.117; 2436.525;  242.825;    0.000
359.171; 2520.525;  279.825;    0.000
359.225; 2482.525;  221.825;    0.000
359.280; 2423.525;  238.825;    0.000
359.334; 2504.525;  264.825;    0.000
359.388; 2582.525;  273.825;    0.000
359.442; 2470.525;  233.825;    0.000
359.496; 2369.525;  226.825;    0.000
359.550; 2508.525;  271.825;    0.000
359.604; 2578.525;  296.825;    0.000
359.658; 2461.525;  252.825;    0.000
359.712; 2531.525;  256.825;    0.000
359.766; 2391.525;  257.825;    0.000
359.820; 2482.525;  239.825;    0.000
359.875; 2407.525;  252.825;    0.000
359.929; 2479.525;  258.825;    0.000
359.983; 2424.525;  232.825;    0.000
360.037; 2466.525;  268.825;    0.000
360.091; 2501.525;  303.825;    0.000
360.145; 2402.525;  232.825;    0.000
360.199; 2438.525;  255.825;    0.000
360.253; 2424.525;  252.825;    0.000
360.306; 2491.525;  278.825;    0.000
360.360; 2465.525;  249.825;    0.000
360.414; 2577.525;  274.825;    0.000
360.468; 2523.525;  247.825;    0.000
360.522; 2476.525;  268.825;    0.000
360.576; 2464.525;  263.825;    0.000
360.630; 2533.525;  296.825;    0.000
360.684; 2525.525;  253.825;    0.000
360.738; 2486.525;  301.825;    0.000
360.792; 2540.525;  282.825;    0.000
360.846; 2540.525;  277.825;    0.000
360.899; 2503.525;  292.825;    0.000
360.953; 2465.525;  266.825;    0.000
361.007; 2447.525;  240.825;    0.000
361.061; 2512.525;  247.825;    0.000
361.115; 2508.525;  276.825;    0.000
361.168; 2518.525;  288.825;    0.000
361.222; 2457.525;  271.825;    0.000
361.276; 2506.525;  270.825;    0.000
361.330; 2474.525;  295.825;    0.000
361.384; 2464.525;  276.825;    0.000
361.437; 2509.525;  280.825;    0.000
361.491; 2481.525;  261.825;    0.000
361.545; 2507.525;  273.825;    0.000
361.599; 2437.525;  269.825;    0.000
361.652; 2540.525;  258.825;    0.000
361.706; 2517.525;  270.825;    0.000
361.760; 2449.525;  294.825;    0.000
361.813; 2506.525;  244.825;    0.000
361.867; 2501.525;  294.825;    0.000
361.921; 2530.525;  285.825;    0.000
361.974; 2489.525;  269.825;    0.000
362.028; 2441.525;  275.825;    0.000
362.082; 2493.525;  270.825;    0.000
362.135; 2397.525;  259.825;    0.000
362.189; 2483.525;  302.825;    0.000
362.242; 2475.525;  296.825;    0.000
362.296; 2509.525;  285.825;    0.000
362.350; 2461.525;  303.825;    0.000
362.403; 2529.525;  271.825;    0.000
362.457; 2458.525;  285.825;    0.000
362.510; 2440.525;  288.825;    0.000
362.564; 2413.525;  268.825;    0.000
362.617; 2419.525;  285.825;    0.000
362.671; 2483.525;  277.825;    0.000
362.724; 2463.525;  242.825;    0.000
362.778; 2436.525;  274.825;    0.000
362.831; 2389.525;  280.825;    0.000
362.885; 2438.525;  284.825;    0.000
362.938; 2368.525;  276.825;    0.000
362.992;  318.525;  289.825;    0.000
363.045;  268.525;  247.825;    0.000
363.099;  251.525;  260.825;    0.000
363.152;  271.525;  258.825;    0.000
363.205;  284.525;  286.825;    0.000
363.259;  259.525;  236.825;    0.000
363.312;  272.525;  297.825;    0.000
363.366;  254.525;  266.825;    0.000
363.419;  318.525;  309.825;    0.000
363.472;  320.525;  293.825;    0.000
363.526;  274.525;  270.825;    0.000
363.579;  278.525;  276.825;    0.000
363.632;  279.525;  279.825;    0.000
363.686;  281.525;  292.825;    0.000
363.739;  264.525;  248.825;    0.000
363.792;  281.525;  287.825;    0.000

