
Integration time [ms]:   0.300
Averaging Nr. [scans]: 1
Smoothing Nr. [pixels]: 0
Data measured with spectrometer [name]: UV1
Wave   ;Sample   ;Dark     ;Reference
[nm]   ;[counts] ;[counts] ;[counts] 

236.381;  129.675;  160.350;    0.000
236.451;  194.675;  198.350;    0.000
236.520;  180.675;  179.350;    0.000
236.590;  179.675;  205.350;    0.000
236.660;  198.675;  199.350;    0.000
236.730;  168.675;  178.350;    0.000
236.799;  199.675;  201.350;    0.000
236.869;  224.675;  197.350;    0.000
236.939;  157.675;  180.350;    0.000
237.009;  213.675;  165.350;    0.000
237.078;  190.675;  191.350;    0.000
237.148;  195.675;  146.350;    0.000
237.218;  162.675;  142.350;    0.000
237.287;  182.675;  190.350;    0.000
237.357;  168.675;  182.350;    0.000
237.427;  175.675;  139.350;    0.000
237.496; 1285.675;  221.350;    0.000
237.566; 1257.675;  183.350;    0.000
237.636; 1221.675;  157.350;    0.000
237.705; 1288.675;  189.350;    0.000
237.775; 1163.675;  169.350;    0.000
237.845; 1206.675;  156.350;    0.000
237.914; 1194.675;  185.350;    0.000
237.984; 1270.675;  194.350;    0.000
238.054; 1298.675;  138.350;    0.000
238.123; 1201.675;  166.350;    0.000
238.193; 1203.675;  174.350;    0.000
238.263; 1259.675;  158.350;    0.000
238.332; 1215.675;  167.350;    0.000
238.402; 1253.675;  173.350;    0.000
238.471; 1174.675;  153.350;    0.000
238.541; 1233.675;  167.350;    0.000
238.611; 1229.675;  165.350;    0.000
238.680; 1161.675;  157.350;    0.000
238.750; 1272.675;  152.350;    0.000
238.819; 1223.675;  190.350;    0.000
238.889; 1196.675;  151.350;    0.000
238.958; 1250.675;  166.350;    0.000
239.028; 1164.675;  180.350;    0.000
239.097; 1230.675;  170.350;    0.000
239.167; 1177.675;  177.350;    0.000
239.237; 1198.675;  195.350;    0.000
239.306; 1233.675;  145.350;    0.000
239.376; 1252.675;  158.350;    0.000
239.445; 1293.675;  187.350;    0.000
239.515; 1242.675;  160.350;    0.000
239.584; 1235.675;  173.350;    0.000
239.654; 1216.675;  184.350;    0.000
239.723; 1190.675;  195.350;    0.000
239.793; 1190.675;  183.350;    0.000
239.862; 1221.675;  190.350;    0.000
239.932; 1129.675;  168.350;    0.000
240.001; 1218.675;  164.350;    0.000
240.070; 1249.675;  183.350;    0.000
240.140; 1167.675;  175.350;    0.000
240.209; 1196.675;  135.350;    0.000
240.279; 1142.675;  176.350;    0.000
240.348; 1189.675;  184.350;    0.000
240.418; 1198.675;  157.350;    0.000
240.487; 1149.675;  189.350;    0.000
240.556; 1112.675;  157.350;    0.000
240.626; 1181.675;  174.350;    0.000
240.695; 1172.675;  180.350;    0.000
240.765; 1241.675;  152.350;    0.000
240.834; 1196.675;  136.350;    0.000
240.903; 1174.675;  196.350;    0.000
240.973; 1164.675;  183.350;    0.000
241.042; 1192.675;  150.350;    0.000
241.112; 1208.675;  168.350;    0.000
241.181; 1194.675;  152.350;    0.000
241.250; 1155.675;  132.350;    0.000
241.320; 1166.675;  209.350;    0.000
241.389; 1134.675;  169.350;    0.000
241.458; 1132.675;  204.350;    0.000
241.528; 1207.675;  176.350;    0.000
241.597; 1187.675;  170.350;    0.000
241.666; 1181.675;  168.350;    0.000
241.736; 1221.675;  172.350;    0.000
241.805; 1148.675;  160.350;    0.000
241.874; 1205.675;  176.350;    0.000
241.943; 1149.675;  165.350;    0.000
242.013; 1164.675;  206.350;    0.000
242.082; 1130.675;  162.350;    0.000
242.151; 1160.675;  180.350;    0.000
242.221; 1198.675;  154.350;    0.000
242.290; 1150.675;  122.350;    0.000
242.359; 1142.675;  121.350;    0.000
242.428; 1229.675;  187.350;    0.000
242.498; 1050.675;  140.350;    0.000
242.567; 1179.675;  173.350;    0.000
242.636; 1117.675;  155.350;    0.000
242.705; 1153.675;  108.350;    0.000
242.774; 1100.675;  145.350;    0.000
242.844; 1113.675;  162.350;    0.000
242.913; 1099.675;  178.350;    0.000
242.982; 1140.675;  163.350;    0.000
243.051; 1106.675;  138.350;    0.000
243.120; 1154.675;  172.350;    0.000
243.190; 1134.675;  155.350;    0.000
243.259; 1173.675;  159.350;    0.000
243.328; 1100.675;  173.350;    0.000
243.397; 1123.675;  175.350;    0.000
243.466; 1119.675;  170.350;    0.000
243.535; 1119.675;  161.350;    0.000
243.605; 1108.675;  149.350;    0.000
243.674; 1086.675;  162.350;    0.000
243.743; 1173.675;  175.350;    0.000
243.812; 1139.675;  159.350;    0.000
243.881; 1125.675;  158.350;    0.000
243.950; 1164.675;  154.350;    0.000
244.019; 1171.675;  185.350;    0.000
244.088; 1138.675;  175.350;    0.000
244.158; 1167.675;  167.350;    0.000
244.227; 1144.675;  159.350;    0.000
244.296; 1064.675;  143.350;    0.000
244.365; 1059.675;  182.350;    0.000
244.434; 1109.675;  117.350;    0.000
244.503; 1115.675;  109.350;    0.000
244.572; 1040.675;  147.350;    0.000
244.641; 1130.675;  129.350;    0.000
244.710; 1133.675;  159.350;    0.000
244.779; 1076.675;  166.350;    0.000
244.848; 1057.675;  122.350;    0.000
244.917; 1078.675;  167.350;    0.000
244.986; 1049.675;  158.350;    0.000
245.055; 1084.675;  175.350;    0.000
245.124; 1116.675;  153.350;    0.000
245.193; 1102.675;  155.350;    0.000
245.262; 1113.675;  137.350;    0.000
245.331; 1076.675;  145.350;    0.000
245.400; 1044.675;  107.350;    0.000
245.469;  986.675;  162.350;    0.000
245.538; 1047.675;  165.350;    0.000
245.607; 1056.675;  178.350;    0.000
245.676; 1020.675;  166.350;    0.000
245.745;  980.675;  169.350;    0.000
245.814;  989.675;  155.350;    0.000
245.883; 1031.675;  186.350;    0.000
245.952; 1002.675;  165.350;    0.000
246.021; 1000.675;  169.350;    0.000
246.090;  964.675;  170.350;    0.000
246.159;  972.675;  155.350;    0.000
246.227; 1021.675;  161.350;    0.000
246.296;  975.675;  142.350;    0.000
246.365;  956.675;  160.350;    0.000
246.434; 1056.675;  199.350;    0.000
246.503; 1006.675;  155.350;    0.000
246.572;  986.675;  206.350;    0.000
246.641; 1061.675;  177.350;    0.000
246.710;  968.675;  178.350;    0.000
246.779; 1014.675;  193.350;    0.000
246.847;  955.675;  147.350;    0.000
246.916;  949.675;  131.350;    0.000
246.985;  928.675;  168.350;    0.000
247.054;  912.675;  143.350;    0.000
247.123;  931.675;  130.350;    0.000
247.192; 1013.675;  175.350;    0.000
247.260;  920.675;  171.350;    0.000
247.329;  982.675;  162.350;    0.000
247.398;  964.675;  163.350;    0.000
247.467;  945.675;  155.350;    0.000
247.536; 1002.675;  149.350;    0.000
247.604;  940.675;  191.350;    0.000
247.673;  965.675;  193.350;    0.000
247.742;  934.675;  159.350;    0.000
247.811;  916.675;  167.350;    0.000
247.879;  923.675;  176.350;    0.000
247.948; 1002.675;  157.350;    0.000
248.017;  930.675;  150.350;    0.000
248.086;  969.675;  153.350;    0.000
248.154;  910.675;  157.350;    0.000
248.223;  925.675;  198.350;    0.000
248.292;  947.675;  188.350;    0.000
248.361;  953.675;  157.350;    0.000
248.429;  886.675;  138.350;    0.000
248.498;  885.675;  166.350;    0.000
248.567;  984.675;  179.350;    0.000
248.635;  889.675;  210.350;    0.000
248.704;  946.675;  168.350;    0.000
248.773;  903.675;  147.350;    0.000
248.841;  942.675;  155.350;    0.000
248.910;  966.675;  183.350;    0.000
248.979;  906.675;  171.350;    0.000
249.047;  983.675;  152.350;    0.000
249.116;  883.675;  155.350;    0.000
249.185;  931.675;  217.350;    0.000
249.253;  943.675;  149.350;    0.000
249.322;  895.675;  167.350;    0.000
249.390;  873.675;  182.350;    0.000
249.459;  903.675;  173.350;    0.000
249.528;  957.675;  162.350;    0.000
249.596;  913.675;  162.350;    0.000
249.665;  859.675;  163.350;    0.000
249.733;  856.675;  147.350;    0.000
249.802;  905.675;  170.350;    0.000
249.871;  856.675;  179.350;    0.000
249.939;  884.675;  179.350;    0.000
250.008;  945.675;  201.350;    0.000
250.076;  902.675;  189.350;    0.000
250.145;  860.675;  171.350;    0.000
250.213;  856.675;  161.350;    0.000
250.282;  880.675;  171.350;    0.000
250.350;  916.675;  138.350;    0.000
250.419;  875.675;  172.350;    0.000
250.487;  966.675;  207.350;    0.000
250.556;  946.675;  160.350;    0.000
250.624;  866.675;  187.350;    0.000
250.693;  834.675;  141.350;    0.000
250.761;  891.675;  182.350;    0.000
250.830;  903.675;  203.350;    0.000
250.898;  869.675;  160.350;    0.000
250.967;  907.675;  143.350;    0.000
251.035;  805.675;  142.350;    0.000
251.104;  843.675;  159.350;    0.000
251.172;  831.675;  189.350;    0.000
251.241;  858.675;  134.350;    0.000
251.309;  879.675;  179.350;    0.000
251.378;  840.675;  203.350;    0.000
251.446;  839.675;  151.350;    0.000
251.514;  871.675;  176.350;    0.000
251.583;  857.675;  173.350;    0.000
251.651;  871.675;  163.350;    0.000
251.720;  930.675;  151.350;    0.000
251.788;  885.675;  205.350;    0.000
251.856;  815.675;  126.350;    0.000
251.925;  776.675;  118.350;    0.000
251.993;  849.675;  139.350;    0.000
252.062;  909.675;  161.350;    0.000
252.130;  846.675;  180.350;    0.000
252.198;  839.675;  141.350;    0.000
252.267;  866.675;  145.350;    0.000
252.335;  866.675;  159.350;    0.000
252.403;  844.675;  158.350;    0.000
252.472;  867.675;  142.350;    0.000
252.540;  761.675;  162.350;    0.000
252.608;  837.675;  180.350;    0.000
252.677;  823.675;  137.350;    0.000
252.745;  864.675;  183.350;    0.000
252.813;  843.675;  151.350;    0.000
252.881;  800.675;  109.350;    0.000
252.950;  810.675;  174.350;    0.000
253.018;  731.675;  136.350;    0.000
253.086;  726.675;  149.350;    0.000
253.155;  715.675;  127.350;    0.000
253.223;  650.675;  156.350;    0.000
253.291;  755.675;  163.350;    0.000
253.359;  727.675;  174.350;    0.000
253.428;  753.675;  174.350;    0.000
253.496;  727.675;  161.350;    0.000
253.564;  657.675;  128.350;    0.000
253.632;  649.675;  153.350;    0.000
253.700;  685.675;  185.350;    0.000
253.769;  656.675;  163.350;    0.000
253.837;  679.675;  176.350;    0.000
253.905;  656.675;  164.350;    0.000
253.973;  662.675;  156.350;    0.000
254.041;  656.675;  154.350;    0.000
254.110;  658.675;  165.350;    0.000
254.178;  647.675;  148.350;    0.000
254.246;  666.675;  138.350;    0.000
254.314;  693.675;  164.350;    0.000
254.382;  660.675;  167.350;    0.000
254.450;  637.675;  134.350;    0.000
254.518;  719.675;  192.350;    0.000
254.587;  613.675;  139.350;    0.000
254.655;  718.675;  162.350;    0.000
254.723;  614.675;  131.350;    0.000
254.791;  694.675;  181.350;    0.000
254.859;  711.675;  146.350;    0.000
254.927;  736.675;  189.350;    0.000
254.995;  647.675;  141.350;    0.000
255.063;  677.675;  181.350;    0.000
255.131;  707.675;  156.350;    0.000
255.199;  685.675;  175.350;    0.000
255.267;  630.675;  120.350;    0.000
255.336;  701.675;  186.350;    0.000
255.404;  674.675;  134.350;    0.000
255.472;  689.675;  172.350;    0.000
255.540;  660.675;  157.350;    0.000
255.608;  721.675;  186.350;    0.000
255.676;  674.675;  155.350;    0.000
255.744;  681.675;  143.350;    0.000
255.812;  728.675;  134.350;    0.000
255.880;  752.675;  188.350;    0.000
255.948;  696.675;  163.350;    0.000
256.016;  729.675;  175.350;    0.000
256.084;  778.675;  191.350;    0.000
256.152;  716.675;  187.350;    0.000
256.220;  670.675;  152.350;    0.000
256.288;  772.675;  141.350;    0.000
256.356;  730.675;  139.350;    0.000
256.424;  757.675;  121.350;    0.000
256.491;  750.675;  139.350;    0.000
256.559;  757.675;  144.350;    0.000
256.627;  796.675;  158.350;    0.000
256.695;  781.675;  121.350;    0.000
256.763;  784.675;  150.350;    0.000
256.831;  837.675;  181.350;    0.000
256.899;  832.675;  146.350;    0.000
256.967;  772.675;   71.350;    0.000
257.035;  786.675;  164.350;    0.000
257.103;  824.675;  191.350;    0.000
257.171;  848.675;  140.350;    0.000
257.238;  810.675;  165.350;    0.000
257.306;  874.675;  127.350;    0.000
257.374;  857.675;  120.350;    0.000
257.442;  834.675;  139.350;    0.000
257.510;  866.675;  158.350;    0.000
257.578;  913.675;  164.350;    0.000
257.646;  935.675;  151.350;    0.000
257.713;  884.675;  136.350;    0.000
257.781;  961.675;  137.350;    0.000
257.849;  921.675;  151.350;    0.000
257.917;  896.675;  154.350;    0.000
257.985;  921.675;  113.350;    0.000
258.052;  904.675;  140.350;    0.000
258.120; 1002.675;  176.350;    0.000
258.188; 1004.675;  157.350;    0.000
258.256;  942.675;  153.350;    0.000
258.324;  958.675;  184.350;    0.000
258.391;  982.675;  144.350;    0.000
258.459; 1031.675;  162.350;    0.000
258.527; 1032.675;  154.350;    0.000
258.595; 1019.675;  122.350;    0.000
258.662; 1031.675;  164.350;    0.000
258.730; 1047.675;  114.350;    0.000
258.798; 1085.675;  131.350;    0.000
258.865; 1070.675;  171.350;    0.000
258.933; 1135.675;  145.350;    0.000
259.001; 1083.675;  150.350;    0.000
259.069; 1123.675;  123.350;    0.000
259.136; 1202.675;  139.350;    0.000
259.204; 1225.675;  165.350;    0.000
259.272; 1211.675;  114.350;    0.000
259.339; 1193.675;  179.350;    0.000
259.407; 1243.675;  153.350;    0.000
259.475; 1191.675;  143.350;    0.000
259.542; 1294.675;  136.350;    0.000
259.610; 1205.675;  133.350;    0.000
259.677; 1250.675;  159.350;    0.000
259.745; 1185.675;  130.350;    0.000
259.813; 1307.675;  175.350;    0.000
259.880; 1373.675;  158.350;    0.000
259.948; 1250.675;  124.350;    0.000
260.016; 1281.675;  105.350;    0.000
260.083; 1394.675;  169.350;    0.000
260.151; 1335.675;  133.350;    0.000
260.218; 1336.675;  143.350;    0.000
260.286; 1353.675;  134.350;    0.000
260.353; 1390.675;  160.350;    0.000
260.421; 1379.675;  128.350;    0.000
260.489; 1477.675;  150.350;    0.000
260.556; 1426.675;  179.350;    0.000
260.624; 1498.675;  113.350;    0.000
260.691; 1469.675;  128.350;    0.000
260.759; 1555.675;  146.350;    0.000
260.826; 1488.675;  111.350;    0.000
260.894; 1553.675;  115.350;    0.000
260.961; 1487.675;  138.350;    0.000
261.029; 1532.675;  152.350;    0.000
261.096; 1517.675;  175.350;    0.000
261.164; 1562.675;  131.350;    0.000
261.231; 1700.675;  141.350;    0.000
261.299; 1641.675;  125.350;    0.000
261.366; 1504.675;  142.350;    0.000
261.434; 1636.675;  133.350;    0.000
261.501; 1605.675;  137.350;    0.000
261.568; 1640.675;  184.350;    0.000
261.636; 1654.675;  138.350;    0.000
261.703; 1698.675;  161.350;    0.000
261.771; 1692.675;  160.350;    0.000
261.838; 1746.675;  178.350;    0.000
261.906; 1684.675;  128.350;    0.000
261.973; 1711.675;  139.350;    0.000
262.040; 1855.675;  148.350;    0.000
262.108; 1798.675;  130.350;    0.000
262.175; 1783.675;  117.350;    0.000
262.243; 1806.675;  174.350;    0.000
262.310; 1829.675;  145.350;    0.000
262.377; 1883.675;  108.350;    0.000
262.445; 1859.675;  147.350;    0.000
262.512; 1827.675;  124.350;    0.000
262.579; 1855.675;  127.350;    0.000
262.647; 1922.675;  166.350;    0.000
262.714; 1899.675;  150.350;    0.000
262.781; 1939.675;  121.350;    0.000
262.849; 1925.675;  126.350;    0.000
262.916; 2047.675;  119.350;    0.000
262.983; 2083.675;  155.350;    0.000
263.051; 2059.675;  137.350;    0.000
263.118; 2069.675;  160.350;    0.000
263.185; 2088.675;  151.350;    0.000
263.252; 2087.675;  167.350;    0.000
263.320; 2019.675;  123.350;    0.000
263.387; 2005.675;  134.350;    0.000
263.454; 2088.675;  144.350;    0.000
263.522; 2082.675;  153.350;    0.000
263.589; 2033.675;  161.350;    0.000
263.656; 2123.675;  117.350;    0.000
263.723; 2070.675;  101.350;    0.000
263.790; 2200.675;  128.350;    0.000
263.858; 2171.675;  142.350;    0.000
263.925; 2182.675;  182.350;    0.000
263.992; 2101.675;  146.350;    0.000
264.059; 2215.675;  132.350;    0.000
264.126; 2266.675;  154.350;    0.000
264.194; 2247.675;  153.350;    0.000
264.261; 2359.675;  157.350;    0.000
264.328; 2188.675;  171.350;    0.000
264.395; 2339.675;  166.350;    0.000
264.462; 2303.675;  165.350;    0.000
264.529; 2281.675;  124.350;    0.000
264.597; 2349.675;  120.350;    0.000
264.664; 2332.675;  159.350;    0.000
264.731; 2367.675;  145.350;    0.000
264.798; 2313.675;  100.350;    0.000
264.865; 2386.675;  166.350;    0.000
264.932; 2384.675;  132.350;    0.000
264.999; 2370.675;  137.350;    0.000
265.066; 2379.675;  124.350;    0.000
265.133; 2360.675;  162.350;    0.000
265.201; 2431.675;  163.350;    0.000
265.268; 2478.675;  174.350;    0.000
265.335; 2427.675;  132.350;    0.000
265.402; 2463.675;  116.350;    0.000
265.469; 2494.675;  121.350;    0.000
265.536; 2563.675;  157.350;    0.000
265.603; 2535.675;  151.350;    0.000
265.670; 2521.675;  164.350;    0.000
265.737; 2559.675;  142.350;    0.000
265.804; 2569.675;  146.350;    0.000
265.871; 2599.675;  168.350;    0.000
265.938; 2575.675;  131.350;    0.000
266.005; 2586.675;  208.350;    0.000
266.072; 2597.675;  125.350;    0.000
266.139; 2636.675;  161.350;    0.000
266.206; 2553.675;  134.350;    0.000
266.273; 2683.675;  155.350;    0.000
266.340; 2677.675;  122.350;    0.000
266.407; 2732.675;  134.350;    0.000
266.474; 2684.675;  126.350;    0.000
266.541; 2686.675;  153.350;    0.000
266.608; 2679.675;  129.350;    0.000
266.675; 2758.675;  185.350;    0.000
266.742; 2770.675;  153.350;    0.000
266.808; 2772.675;  169.350;    0.000
266.875; 2783.675;  156.350;    0.000
266.942; 2699.675;  172.350;    0.000
267.009; 2771.675;  150.350;    0.000
267.076; 2731.675;  184.350;    0.000
267.143; 2740.675;  170.350;    0.000
267.210; 2819.675;  132.350;    0.000
267.277; 2761.675;  146.350;    0.000
267.344; 2709.675;  159.350;    0.000
267.410; 2735.675;  174.350;    0.000
267.477; 2856.675;  169.350;    0.000
267.544; 2753.675;  130.350;    0.000
267.611; 2836.675;  169.350;    0.000
267.678; 2812.675;  197.350;    0.000
267.745; 2905.675;  185.350;    0.000
267.811; 2810.675;  160.350;    0.000
267.878; 2882.675;  143.350;    0.000
267.945; 2836.675;  126.350;    0.000
268.012; 2800.675;  172.350;    0.000
268.079; 2836.675;  156.350;    0.000
268.145; 2893.675;  128.350;    0.000
268.212; 2807.675;  107.350;    0.000
268.279; 2764.675;  135.350;    0.000
268.346; 2898.675;  166.350;    0.000
268.412; 2810.675;  150.350;    0.000
268.479; 2800.675;  176.350;    0.000
268.546; 2923.675;  119.350;    0.000
268.613; 2800.675;  201.350;    0.000
268.679; 2891.675;  141.350;    0.000
268.746; 2757.675;  177.350;    0.000
268.813; 2810.675;  134.350;    0.000
268.879; 2799.675;  141.350;    0.000
268.946; 2842.675;  172.350;    0.000
269.013; 2779.675;  150.350;    0.000
269.079; 2816.675;  124.350;    0.000
269.146; 2791.675;  135.350;    0.000
269.213; 2759.675;  200.350;    0.000
269.280; 2897.675;  142.350;    0.000
269.346; 2889.675;  153.350;    0.000
269.413; 2770.675;  140.350;    0.000
269.479; 2761.675;  171.350;    0.000
269.546; 2865.675;  156.350;    0.000
269.613; 2762.675;  145.350;    0.000
269.679; 2824.675;  168.350;    0.000
269.746; 2827.675;  136.350;    0.000
269.813; 2768.675;  153.350;    0.000
269.879; 2814.675;  162.350;    0.000
269.946; 2899.675;  156.350;    0.000
270.012; 2734.675;  178.350;    0.000
270.079; 2709.675;  132.350;    0.000
270.145; 2724.675;  146.350;    0.000
270.212; 2757.675;  145.350;    0.000
270.279; 2809.675;  184.350;    0.000
270.345; 2847.675;  143.350;    0.000
270.412; 2756.675;  158.350;    0.000
270.478; 2742.675;  143.350;    0.000
270.545; 2872.675;  150.350;    0.000
270.611; 2766.675;  156.350;    0.000
270.678; 2799.675;  121.350;    0.000
270.744; 2678.675;  161.350;    0.000
270.811; 2793.675;  173.350;    0.000
270.877; 2830.675;  115.350;    0.000
270.944; 2779.675;  114.350;    0.000
271.010; 2831.675;  122.350;    0.000
271.077; 2851.675;  142.350;    0.000
271.143; 2802.675;  152.350;    0.000
271.210; 2765.675;  135.350;    0.000
271.276; 2753.675;  107.350;    0.000
271.342; 2817.675;  173.350;    0.000
271.409; 2807.675;  171.350;    0.000
271.475; 2689.675;  136.350;    0.000
271.542; 2708.675;  121.350;    0.000
271.608; 2872.675;  133.350;    0.000
271.675; 2740.675;  136.350;    0.000
271.741; 2783.675;  151.350;    0.000
271.807; 2772.675;  130.350;    0.000
271.874; 2710.675;  168.350;    0.000
271.940; 2836.675;  156.350;    0.000
272.007; 2848.675;  122.350;    0.000
272.073; 2833.675;  121.350;    0.000
272.139; 2698.675;  137.350;    0.000
272.206; 2725.675;  152.350;    0.000
272.272; 2800.675;  162.350;    0.000
272.338; 2854.675;  197.350;    0.000
272.405; 2762.675;  144.350;    0.000
272.471; 2737.675;  160.350;    0.000
272.537; 2766.675;  142.350;    0.000
272.604; 2762.675;  141.350;    0.000
272.670; 2801.675;  182.350;    0.000
272.736; 2797.675;  126.350;    0.000
272.802; 2784.675;  146.350;    0.000
272.869; 2809.675;  163.350;    0.000
272.935; 2699.675;  132.350;    0.000
273.001; 2814.675;  119.350;    0.000
273.068; 2800.675;  137.350;    0.000
273.134; 2870.675;  155.350;    0.000
273.200; 2916.675;  165.350;    0.000
273.266; 2819.675;  156.350;    0.000
273.333; 2825.675;  143.350;    0.000
273.399; 2816.675;  128.350;    0.000
273.465; 2899.675;  167.350;    0.000
273.531; 2892.675;  122.350;    0.000
273.597; 2909.675;  182.350;    0.000
273.664; 2886.675;  177.350;    0.000
273.730; 2878.675;  124.350;    0.000
273.796; 2891.675;  143.350;    0.000
273.862; 2856.675;  155.350;    0.000
273.928; 2914.675;  137.350;    0.000
273.995; 2895.675;  188.350;    0.000
274.061; 2887.675;  154.350;    0.000
274.127; 2883.675;  161.350;    0.000
274.193; 2864.675;   95.350;    0.000
274.259; 3037.675;  128.350;    0.000
274.325; 2927.675;  146.350;    0.000
274.391; 2929.675;  113.350;    0.000
274.457; 3025.675;  150.350;    0.000
274.524; 3094.675;  165.350;    0.000
274.590; 3022.675;  140.350;    0.000
274.656; 3021.675;  165.350;    0.000
274.722; 3056.675;  118.350;    0.000
274.788; 3056.675;  143.350;    0.000
274.854; 3111.675;  150.350;    0.000
274.920; 3067.675;   88.350;    0.000
274.986; 3058.675;  178.350;    0.000
275.052; 3114.675;  145.350;    0.000
275.118; 3086.675;  105.350;    0.000
275.184; 3177.675;  129.350;    0.000
275.250; 3161.675;  138.350;    0.000
275.316; 3081.675;  173.350;    0.000
275.382; 3211.675;  106.350;    0.000
275.448; 3263.675;  160.350;    0.000
275.514; 3380.675;  162.350;    0.000
275.580; 3242.675;  135.350;    0.000
275.646; 3320.675;  120.350;    0.000
275.712; 3417.675;  157.350;    0.000
275.778; 3319.675;  128.350;    0.000
275.844; 3422.675;  117.350;    0.000
275.910; 3403.675;  121.350;    0.000
275.976; 3382.675;  172.350;    0.000
276.042; 3580.675;  114.350;    0.000
276.108; 3519.675;  200.350;    0.000
276.174; 3445.675;  132.350;    0.000
276.240; 3605.675;  128.350;    0.000
276.306; 3629.675;  124.350;    0.000
276.372; 3656.675;  133.350;    0.000
276.437; 3701.675;  146.350;    0.000
276.503; 3766.675;  136.350;    0.000
276.569; 3958.675;  162.350;    0.000
276.635; 3920.675;  128.350;    0.000
276.701; 3988.675;  148.350;    0.000
276.767; 4052.675;  155.350;    0.000
276.833; 4197.675;  128.350;    0.000
276.899; 4229.675;  145.350;    0.000
276.964; 4378.675;  124.350;    0.000
277.030; 4418.675;  130.350;    0.000
277.096; 4576.675;  139.350;    0.000
277.162; 4658.675;  164.350;    0.000
277.228; 4818.675;  108.350;    0.000
277.293; 4969.675;  138.350;    0.000
277.359; 5109.675;  123.350;    0.000
277.425; 5218.675;  183.350;    0.000
277.491; 5685.675;  144.350;    0.000
277.557; 6739.675;  130.350;    0.000
277.622; 8812.675;  151.350;    0.000
277.688; 8722.675;  169.350;    0.000
277.754; 8917.675;  199.350;    0.000
277.820; 9894.675;  170.350;    0.000
277.885;11243.675;  173.350;    0.000
277.951;13392.675;  187.350;    0.000
278.017;11945.675;  152.350;    0.000
278.083;10578.675;  137.350;    0.000
278.148;10145.675;  147.350;    0.000
278.214;10417.675;  162.350;    0.000
278.280;11130.675;  171.350;    0.000
278.345; 9938.675;  174.350;    0.000
278.411; 9357.675;  152.350;    0.000
278.477; 9624.675;  173.350;    0.000
278.542;10254.675;  161.350;    0.000
278.608;10959.675;  155.350;    0.000
278.674;12075.675;  169.350;    0.000
278.739;13258.675;  142.350;    0.000
278.805;15252.675;  164.350;    0.000
278.871;17907.676;  160.350;    0.000
278.936;22539.676;  121.350;    0.000
279.002;33317.676;  166.350;    0.000
279.067;43141.676;  199.350;    0.000
279.133;41340.676;  150.350;    0.000
279.199;37029.676;  154.350;    0.000
279.264;38037.676;  154.350;    0.000
279.330;43794.676;  159.350;    0.000
279.395;55402.676;  143.350;    0.000
279.461;65299.676;  173.350;    0.000
279.527;65299.676;  163.350;    0.000
279.592;65299.676;  167.350;    0.000
279.658;62123.676;  189.350;    0.000
279.723;61139.676;  153.350;    0.000
279.789;63992.676;  174.350;    0.000
279.854;57259.676;  129.350;    0.000
279.920;47589.676;  165.350;    0.000
279.985;43423.676;  152.350;    0.000
280.051;43749.676;  164.350;    0.000
280.116;50536.676;  187.350;    0.000
280.182;64279.676;  160.350;    0.000
280.247;65299.676;  124.350;    0.000
280.313;62259.676;  154.350;    0.000
280.378;46178.676;  152.350;    0.000
280.444;34650.676;  165.350;    0.000
280.509;27765.676;  164.350;    0.000
280.574;23280.676;  160.350;    0.000
280.640;20315.676;  167.350;    0.000
280.705;18059.676;  190.350;    0.000
280.771;16241.675;  154.350;    0.000
280.836;15056.675;  158.350;    0.000
280.902;14258.675;  124.350;    0.000
280.967;13099.675;  179.350;    0.000
281.032;12547.675;  187.350;    0.000
281.098;11768.675;  155.350;    0.000
281.163;11294.675;  133.350;    0.000
281.229;10701.675;  170.350;    0.000
281.294;10127.675;  175.350;    0.000
281.359; 9757.675;  163.350;    0.000
281.425; 9368.675;  161.350;    0.000
281.490; 9025.675;  162.350;    0.000
281.555; 8734.675;  137.350;    0.000
281.621; 8379.675;  163.350;    0.000
281.686; 8110.675;  155.350;    0.000
281.751; 8020.675;  158.350;    0.000
281.816; 7738.675;  139.350;    0.000
281.882; 7469.675;  150.350;    0.000
281.947; 7425.675;  165.350;    0.000
282.012; 7297.675;  171.350;    0.000
282.078; 7102.675;  177.350;    0.000
282.143; 6833.675;  149.350;    0.000
282.208; 6718.675;  181.350;    0.000
282.273; 6680.675;  166.350;    0.000
282.339; 6598.675;  165.350;    0.000
282.404; 6521.675;  166.350;    0.000
282.469; 6316.675;  150.350;    0.000
282.534; 6237.675;  176.350;    0.000
282.600; 6134.675;  117.350;    0.000
282.665; 6073.675;  134.350;    0.000
282.730; 6044.675;  155.350;    0.000
282.795; 5972.675;  193.350;    0.000
282.860; 5866.675;  160.350;    0.000
282.926; 5765.675;  174.350;    0.000
282.991; 5628.675;  161.350;    0.000
283.056; 5616.675;  157.350;    0.000
283.121; 5632.675;  178.350;    0.000
283.186; 5533.675;  152.350;    0.000
283.251; 5566.675;  167.350;    0.000
283.316; 5532.675;  186.350;    0.000
283.382; 5390.675;  148.350;    0.000
283.447; 5520.675;  191.350;    0.000
283.512; 5284.675;  132.350;    0.000
283.577; 5331.675;  179.350;    0.000
283.642; 5316.675;  185.350;    0.000
283.707; 5317.675;  136.350;    0.000
283.772; 5340.675;  119.350;    0.000
283.837; 5252.675;  136.350;    0.000
283.902; 5291.675;  135.350;    0.000
283.967; 5288.675;  146.350;    0.000
284.032; 5184.675;  140.350;    0.000
284.097; 5354.675;  199.350;    0.000
284.163; 5210.675;  144.350;    0.000
284.228; 5313.675;  183.350;    0.000
284.293; 5244.675;  141.350;    0.000
284.358; 5346.675;  146.350;    0.000
284.423; 5367.675;  127.350;    0.000
284.488; 5505.675;  186.350;    0.000
284.553; 5718.675;  155.350;    0.000
284.618; 5794.675;  118.350;    0.000
284.683; 5989.675;  145.350;    0.000
284.748; 6283.675;  139.350;    0.000
284.812; 6672.675;  147.350;    0.000
284.877; 7281.675;  123.350;    0.000
284.942; 8311.675;  153.350;    0.000
285.007; 9714.675;  168.350;    0.000
285.072;12891.675;  181.350;    0.000
285.137;18582.676;  147.350;    0.000
285.202;22992.676;  175.350;    0.000
285.267;21503.676;  182.350;    0.000
285.332;15669.675;  136.350;    0.000
285.397;11911.675;  138.350;    0.000
285.462; 9787.675;  151.350;    0.000
285.527; 8810.675;  159.350;    0.000
285.591; 7657.675;  177.350;    0.000
285.656; 7114.675;  144.350;    0.000
285.721; 6873.675;  125.350;    0.000
285.786; 6447.675;  169.350;    0.000
285.851; 6261.675;  175.350;    0.000
285.916; 5902.675;  164.350;    0.000
285.981; 5791.675;  134.350;    0.000
286.045; 5662.675;  154.350;    0.000
286.110; 5663.675;  136.350;    0.000
286.175; 5398.675;  155.350;    0.000
286.240; 5369.675;  138.350;    0.000
286.305; 5359.675;  213.350;    0.000
286.369; 5311.675;  221.350;    0.000
286.434; 5173.675;  172.350;    0.000
286.499; 5057.675;  161.350;    0.000
286.564; 5122.675;  189.350;    0.000
286.628; 5037.675;  144.350;    0.000
286.693; 5071.675;  176.350;    0.000
286.758; 4928.675;  168.350;    0.000
286.823; 4972.675;  142.350;    0.000
286.887; 4819.675;  134.350;    0.000
286.952; 4940.675;  180.350;    0.000
287.017; 4793.675;  204.350;    0.000
287.082; 4834.675;  120.350;    0.000
287.146; 4780.675;  173.350;    0.000
287.211; 4949.675;  167.350;    0.000
287.276; 4692.675;  164.350;    0.000
287.340; 4788.675;  138.350;    0.000
287.405; 4763.675;  172.350;    0.000
287.470; 4684.675;  142.350;    0.000
287.534; 4702.675;  155.350;    0.000
287.599; 4718.675;  166.350;    0.000
287.663; 4664.675;  171.350;    0.000
287.728; 4599.675;  190.350;    0.000
287.793; 4754.675;  197.350;    0.000
287.857; 4667.675;  165.350;    0.000
287.922; 4657.675;  147.350;    0.000
287.987; 4518.675;  167.350;    0.000
288.051; 4707.675;  151.350;    0.000
288.116; 4701.675;  154.350;    0.000
288.180; 4705.675;  186.350;    0.000
288.245; 4606.675;  161.350;    0.000
288.309; 4683.675;  177.350;    0.000
288.374; 4635.675;  151.350;    0.000
288.439; 4558.675;  169.350;    0.000
288.503; 4522.675;  133.350;    0.000
288.568; 4631.675;  206.350;    0.000
288.632; 4599.675;  192.350;    0.000
288.697; 4505.675;  183.350;    0.000
288.761; 4567.675;  148.350;    0.000
288.826; 4401.675;  136.350;    0.000
288.890; 4499.675;  185.350;    0.000
288.955; 4349.675;  150.350;    0.000
289.019; 4454.675;  165.350;    0.000
289.084; 4523.675;  150.350;    0.000
289.148; 4454.675;  146.350;    0.000
289.212; 4447.675;  172.350;    0.000
289.277; 4516.675;  177.350;    0.000
289.341; 4453.675;  190.350;    0.000
289.406; 4419.675;  117.350;    0.000
289.470; 4443.675;  173.350;    0.000
289.535; 4415.675;  170.350;    0.000
289.599; 4496.675;  154.350;    0.000
289.663; 4426.675;  173.350;    0.000
289.728; 4393.675;  176.350;    0.000
289.792; 4481.675;  138.350;    0.000
289.857; 4419.675;  203.350;    0.000
289.921; 4330.675;  143.350;    0.000
289.985; 4359.675;  150.350;    0.000
290.050; 4362.675;  170.350;    0.000
290.114; 4456.675;  125.350;    0.000
290.178; 4419.675;  161.350;    0.000
290.243; 4285.675;  119.350;    0.000
290.307; 4549.675;  169.350;    0.000
290.371; 4357.675;  169.350;    0.000
290.436; 4440.675;  170.350;    0.000
290.500; 4491.675;  144.350;    0.000
290.564; 4504.675;  179.350;    0.000
290.629; 4442.675;  166.350;    0.000
290.693; 4548.675;  156.350;    0.000
290.757; 4380.675;  147.350;    0.000
290.821; 4455.675;  170.350;    0.000
290.886; 4412.675;  167.350;    0.000
290.950; 4585.675;  187.350;    0.000
291.014; 4440.675;  164.350;    0.000
291.078; 4446.675;  115.350;    0.000
291.143; 4533.675;  149.350;    0.000
291.207; 4610.675;  163.350;    0.000
291.271; 4646.675;  177.350;    0.000
291.335; 4692.675;  148.350;    0.000
291.399; 4733.675;  155.350;    0.000
291.464; 4986.675;  114.350;    0.000
291.528; 5141.675;  153.350;    0.000
291.592; 5267.675;  156.350;    0.000
291.656; 4912.675;  170.350;    0.000
291.720; 4782.675;  159.350;    0.000
291.784; 4917.675;  159.350;    0.000
291.849; 4894.675;  154.350;    0.000
291.913; 4693.675;  118.350;    0.000
291.977; 4802.675;  157.350;    0.000
292.041; 4861.675;  163.350;    0.000
292.105; 4864.675;  135.350;    0.000
292.169; 4831.675;  155.350;    0.000
292.233; 4970.675;  163.350;    0.000
292.297; 5035.675;  144.350;    0.000
292.361; 4998.675;  143.350;    0.000
292.425; 5132.675;  177.350;    0.000
292.490; 5313.675;  159.350;    0.000
292.554; 5483.675;  137.350;    0.000
292.618; 5933.675;  144.350;    0.000
292.682; 6287.675;  169.350;    0.000
292.746; 7202.675;  166.350;    0.000
292.810; 9536.675;  147.350;    0.000
292.874;11947.675;  160.350;    0.000
292.938;11942.675;  174.350;    0.000
293.002;10717.675;  148.350;    0.000
293.066; 9753.675;  115.350;    0.000
293.130; 8876.675;  133.350;    0.000
293.194; 8241.675;  148.350;    0.000
293.258; 8185.675;  167.350;    0.000
293.322; 8028.675;  166.350;    0.000
293.386; 8088.675;  193.350;    0.000
293.450; 8656.675;  142.350;    0.000
293.514; 9890.675;  170.350;    0.000
293.577;12586.675;  153.350;    0.000
293.641;17552.676;  171.350;    0.000
293.705;18952.676;  168.350;    0.000
293.769;16278.675;  155.350;    0.000
293.833;14189.675;  161.350;    0.000
293.897;12365.675;  124.350;    0.000
293.961;11046.675;  165.350;    0.000
294.025;10074.675;  118.350;    0.000
294.089; 9193.675;  125.350;    0.000
294.152; 8530.675;  160.350;    0.000
294.216; 7962.675;  160.350;    0.000
294.280; 7435.675;  158.350;    0.000
294.344; 7215.675;  119.350;    0.000
294.408; 6926.675;  168.350;    0.000
294.472; 6673.675;  156.350;    0.000
294.536; 6253.675;  192.350;    0.000
294.599; 6219.675;  171.350;    0.000
294.663; 5939.675;  139.350;    0.000
294.727; 5819.675;  136.350;    0.000
294.791; 5706.675;  118.350;    0.000
294.855; 5558.675;  118.350;    0.000
294.918; 5577.675;  127.350;    0.000
294.982; 5401.675;  167.350;    0.000
295.046; 5211.675;  178.350;    0.000
295.110; 5149.675;  157.350;    0.000
295.173; 5167.675;  101.350;    0.000
295.237; 5222.675;  145.350;    0.000
295.301; 4938.675;  135.350;    0.000
295.364; 5055.675;  185.350;    0.000
295.428; 4936.675;  112.350;    0.000
295.492; 4963.675;  142.350;    0.000
295.556; 4895.675;  170.350;    0.000
295.619; 4863.675;  193.350;    0.000
295.683; 4737.675;  144.350;    0.000
295.747; 4698.675;  152.350;    0.000
295.810; 4747.675;  139.350;    0.000
295.874; 4581.675;  157.350;    0.000
295.938; 4649.675;  128.350;    0.000
296.001; 4578.675;  164.350;    0.000
296.065; 4613.675;  184.350;    0.000
296.128; 4585.675;  127.350;    0.000
296.192; 4442.675;  166.350;    0.000
296.256; 4434.675;  154.350;    0.000
296.319; 4337.675;  128.350;    0.000
296.383; 4340.675;  146.350;    0.000
296.447; 4438.675;  155.350;    0.000
296.510; 4371.675;  177.350;    0.000
296.574; 4349.675;  169.350;    0.000
296.637; 4254.675;  140.350;    0.000
296.701; 4292.675;  181.350;    0.000
296.764; 4267.675;  131.350;    0.000
296.828; 4357.675;  194.350;    0.000
296.891; 4254.675;  146.350;    0.000
296.955; 4059.675;  160.350;    0.000
297.018; 4204.675;  174.350;    0.000
297.082; 4205.675;  153.350;    0.000
297.145; 4154.675;  133.350;    0.000
297.209; 4183.675;  149.350;    0.000
297.272; 4191.675;  150.350;    0.000
297.336; 4140.675;  119.350;    0.000
297.399; 4250.675;  160.350;    0.000
297.463; 4159.675;  158.350;    0.000
297.526; 4103.675;  160.350;    0.000
297.590; 4155.675;  173.350;    0.000
297.653; 4032.675;  121.350;    0.000
297.717; 4135.675;  168.350;    0.000
297.780; 3969.675;  131.350;    0.000
297.843; 3979.675;  154.350;    0.000
297.907; 3957.675;  126.350;    0.000
297.970; 4030.675;  180.350;    0.000
298.034; 4139.675;  140.350;    0.000
298.097; 3972.675;  207.350;    0.000
298.160; 3993.675;  177.350;    0.000
298.224; 4068.675;  165.350;    0.000
298.287; 4057.675;  160.350;    0.000
298.350; 3967.675;  176.350;    0.000
298.414; 3994.675;  155.350;    0.000
298.477; 3960.675;  132.350;    0.000
298.540; 3942.675;  162.350;    0.000
298.604; 3992.675;  180.350;    0.000
298.667; 3925.675;  208.350;    0.000
298.730; 3861.675;  177.350;    0.000
298.794; 3818.675;  126.350;    0.000
298.857; 3835.675;  171.350;    0.000
298.920; 3848.675;  124.350;    0.000
298.984; 3966.675;  146.350;    0.000
299.047; 3768.675;  140.350;    0.000
299.110; 3875.675;  159.350;    0.000
299.173; 3765.675;  177.350;    0.000
299.237; 3744.675;  196.350;    0.000
299.300; 3793.675;  121.350;    0.000
299.363; 3796.675;  172.350;    0.000
299.426; 3799.675;  117.350;    0.000
299.489; 3702.675;  138.350;    0.000
299.553; 3652.675;  198.350;    0.000
299.616; 3744.675;  158.350;    0.000
299.679; 3578.675;  148.350;    0.000
299.742; 3577.675;  138.350;    0.000
299.805; 3693.675;  157.350;    0.000
299.868; 3738.675;  183.350;    0.000
299.932; 3534.675;  137.350;    0.000
299.995; 3685.675;  152.350;    0.000
300.058; 3738.675;  171.350;    0.000
300.121; 3624.675;  172.350;    0.000
300.184; 3625.675;  161.350;    0.000
300.247; 3705.675;  156.350;    0.000
300.310; 3606.675;  154.350;    0.000
300.374; 3627.675;  147.350;    0.000
300.437; 3648.675;  144.350;    0.000
300.500; 3588.675;  152.350;    0.000
300.563; 3656.675;  160.350;    0.000
300.626; 3735.675;  167.350;    0.000
300.689; 3609.675;  193.350;    0.000
300.752; 3570.675;  134.350;    0.000
300.815; 3540.675;  194.350;    0.000
300.878; 3600.675;  156.350;    0.000
300.941; 3579.675;  177.350;    0.000
301.004; 3568.675;  160.350;    0.000
301.067; 3511.675;  153.350;    0.000
301.130; 3554.675;  167.350;    0.000
301.193; 3518.675;  156.350;    0.000
301.256; 3607.675;  176.350;    0.000
301.319; 3596.675;  172.350;    0.000
301.382; 3503.675;  150.350;    0.000
301.445; 3515.675;  183.350;    0.000
301.508; 3533.675;  118.350;    0.000
301.571; 3535.675;  142.350;    0.000
301.634; 3520.675;  164.350;    0.000
301.697; 3473.675;  169.350;    0.000
301.760; 3445.675;  197.350;    0.000
301.823; 3478.675;  155.350;    0.000
301.885; 3397.675;  165.350;    0.000
301.948; 3572.675;  168.350;    0.000
302.011; 3584.675;  172.350;    0.000
302.074; 3510.675;  182.350;    0.000
302.137; 3485.675;  161.350;    0.000
302.200; 3548.675;  174.350;    0.000
302.263; 3442.675;  158.350;    0.000
302.326; 3442.675;  168.350;    0.000
302.388; 3467.675;  165.350;    0.000
302.451; 3400.675;  158.350;    0.000
302.514; 3446.675;  181.350;    0.000
302.577; 3481.675;  147.350;    0.000
302.640; 3431.675;  178.350;    0.000
302.703; 3405.675;  164.350;    0.000
302.765; 3438.675;  149.350;    0.000
302.828; 3419.675;  192.350;    0.000
302.891; 3510.675;  201.350;    0.000
302.954; 3395.675;  135.350;    0.000
303.016; 3464.675;  180.350;    0.000
303.079; 3319.675;  192.350;    0.000
303.142; 3497.675;  176.350;    0.000
303.205; 3425.675;  176.350;    0.000
303.267; 3351.675;  163.350;    0.000
303.330; 3446.675;  162.350;    0.000
303.393; 3389.675;  164.350;    0.000
303.456; 3392.675;  180.350;    0.000
303.518; 3382.675;  162.350;    0.000
303.581; 3427.675;  137.350;    0.000
303.644; 3371.675;  135.350;    0.000
303.706; 3400.675;  170.350;    0.000
303.769; 3380.675;  216.350;    0.000
303.832; 3421.675;  143.350;    0.000
303.894; 3435.675;  162.350;    0.000
303.957; 3385.675;  149.350;    0.000
304.020; 3360.675;  111.350;    0.000
304.082; 3468.675;  158.350;    0.000
304.145; 3468.675;  149.350;    0.000
304.207; 3443.675;  169.350;    0.000
304.270; 3376.675;  170.350;    0.000
304.333; 3346.675;  185.350;    0.000
304.395; 3396.675;  179.350;    0.000
304.458; 3510.675;  174.350;    0.000
304.520; 3393.675;  160.350;    0.000
304.583; 3478.675;  175.350;    0.000
304.646; 3407.675;  160.350;    0.000
304.708; 3500.675;  173.350;    0.000
304.771; 3299.675;  115.350;    0.000
304.833; 3464.675;  172.350;    0.000
304.896; 3447.675;  187.350;    0.000
304.958; 3389.675;  142.350;    0.000
305.021; 3368.675;  164.350;    0.000
305.083; 3365.675;  139.350;    0.000
305.146; 3432.675;  162.350;    0.000
305.208; 3433.675;  135.350;    0.000
305.271; 3344.675;  159.350;    0.000
305.333; 3510.675;  210.350;    0.000
305.396; 3326.675;  151.350;    0.000
305.458; 3452.675;  195.350;    0.000
305.520; 3422.675;  179.350;    0.000
305.583; 3428.675;  157.350;    0.000
305.645; 3451.675;  187.350;    0.000
305.708; 3525.675;  159.350;    0.000
305.770; 3448.675;  189.350;    0.000
305.833; 3389.675;  147.350;    0.000
305.895; 3404.675;  154.350;    0.000
305.957; 3457.675;  143.350;    0.000
306.020; 3378.675;  133.350;    0.000
306.082; 3346.675;  146.350;    0.000
306.144; 3502.675;  171.350;    0.000
306.207; 3432.675;  151.350;    0.000
306.269; 3284.675;  169.350;    0.000
306.331; 3377.675;  162.350;    0.000
306.394; 3395.675;  171.350;    0.000
306.456; 3445.675;  155.350;    0.000
306.518; 3438.675;  183.350;    0.000
306.581; 3390.675;  180.350;    0.000
306.643; 3526.675;  199.350;    0.000
306.705; 3401.675;  163.350;    0.000
306.768; 3316.675;  183.350;    0.000
306.830; 3503.675;  183.350;    0.000
306.892; 3403.675;  190.350;    0.000
306.954; 3485.675;  161.350;    0.000
307.017; 3544.675;  151.350;    0.000
307.079; 3432.675;  147.350;    0.000
307.141; 3411.675;  179.350;    0.000
307.203; 3505.675;  143.350;    0.000
307.266; 3558.675;  142.350;    0.000
307.328; 3570.675;  161.350;    0.000
307.390; 3616.675;  189.350;    0.000
307.452; 3533.675;  155.350;    0.000
307.514; 3532.675;  211.350;    0.000
307.577; 3621.675;  201.350;    0.000
307.639; 3613.675;  192.350;    0.000
307.701; 3536.675;  162.350;    0.000
307.763; 3592.675;  155.350;    0.000
307.825; 3606.675;  193.350;    0.000
307.887; 3768.675;  214.350;    0.000
307.949; 3510.675;  208.350;    0.000
308.012; 3616.675;  175.350;    0.000
308.074; 3636.675;  155.350;    0.000
308.136; 3625.675;  172.350;    0.000
308.198; 3618.675;  171.350;    0.000
308.260; 3741.675;  182.350;    0.000
308.322; 3726.675;  177.350;    0.000
308.384; 3584.675;  207.350;    0.000
308.446; 3728.675;  170.350;    0.000
308.508; 3733.675;  177.350;    0.000
308.570; 3710.675;  195.350;    0.000
308.632; 3841.675;  190.350;    0.000
308.694; 3722.675;  161.350;    0.000
308.756; 3822.675;  173.350;    0.000
308.818; 3848.675;  190.350;    0.000
308.880; 3801.675;  197.350;    0.000
308.942; 4022.675;  223.350;    0.000
309.004; 3911.675;  176.350;    0.000
309.066; 3975.675;  182.350;    0.000
309.128; 3982.675;  185.350;    0.000
309.190; 4100.675;  166.350;    0.000
309.252; 4271.675;  191.350;    0.000
309.314; 4309.675;  208.350;    0.000
309.376; 4293.675;  205.350;    0.000
309.438; 4163.675;  166.350;    0.000
309.500; 4268.675;  195.350;    0.000
309.562; 4269.675;  163.350;    0.000
309.624; 4394.675;  162.350;    0.000
309.686; 4412.675;  194.350;    0.000
309.747; 4349.675;  179.350;    0.000
309.809; 4310.675;  211.350;    0.000
309.871; 4288.675;  191.350;    0.000
309.933; 4105.675;  151.350;    0.000
309.995; 4002.675;  179.350;    0.000
310.057; 3888.675;  175.350;    0.000
310.119; 3951.675;  161.350;    0.000
310.180; 3934.675;  167.350;    0.000
310.242; 3876.675;  171.350;    0.000
310.304; 3851.675;  209.350;    0.000
310.366; 3932.675;  229.350;    0.000
310.428; 3889.675;  132.350;    0.000
310.489; 3899.675;  165.350;    0.000
310.551; 3888.675;  193.350;    0.000
310.613; 3847.675;  182.350;    0.000
310.675; 3908.675;  186.350;    0.000
310.737; 3850.675;  192.350;    0.000
310.798; 3899.675;  194.350;    0.000
310.860; 3858.675;  220.350;    0.000
310.922; 3879.675;  161.350;    0.000
310.983; 3810.675;  203.350;    0.000
311.045; 3803.675;  198.350;    0.000
311.107; 3795.675;  179.350;    0.000
311.169; 3695.675;  154.350;    0.000
311.230; 3651.675;  134.350;    0.000
311.292; 3679.675;  215.350;    0.000
311.354; 3707.675;  171.350;    0.000
311.415; 3699.675;  195.350;    0.000
311.477; 3765.675;  185.350;    0.000
311.539; 3659.675;  183.350;    0.000
311.600; 3695.675;  183.350;    0.000
311.662; 3711.675;  207.350;    0.000
311.724; 3721.675;  193.350;    0.000
311.785; 3770.675;  180.350;    0.000
311.847; 3703.675;  155.350;    0.000
311.908; 3679.675;  179.350;    0.000
311.970; 3717.675;  193.350;    0.000
312.032; 3760.675;  188.350;    0.000
312.093; 3829.675;  166.350;    0.000
312.155; 3643.675;  147.350;    0.000
312.216; 3749.675;  177.350;    0.000
312.278; 3674.675;  162.350;    0.000
312.339; 3726.675;  158.350;    0.000
312.401; 3750.675;  181.350;    0.000
312.462; 3671.675;  153.350;    0.000
312.524; 3742.675;  186.350;    0.000
312.585; 3835.675;  191.350;    0.000
312.647; 3731.675;  131.350;    0.000
312.708; 3799.675;  170.350;    0.000
312.770; 3915.675;  194.350;    0.000
312.831; 3753.675;  161.350;    0.000
312.893; 3847.675;  179.350;    0.000
312.954; 3899.675;  183.350;    0.000
313.016; 3813.675;  189.350;    0.000
313.077; 3745.675;  169.350;    0.000
313.139; 3750.675;  148.350;    0.000
313.200; 3799.675;  155.350;    0.000
313.261; 3837.675;  213.350;    0.000
313.323; 3836.675;  162.350;    0.000
313.384; 3740.675;  160.350;    0.000
313.446; 3897.675;  202.350;    0.000
313.507; 3769.675;  149.350;    0.000
313.568; 3838.675;  194.350;    0.000
313.630; 3776.675;  163.350;    0.000
313.691; 3942.675;  158.350;    0.000
313.752; 3780.675;  179.350;    0.000
313.814; 3746.675;  180.350;    0.000
313.875; 3851.675;  191.350;    0.000
313.936; 3798.675;  169.350;    0.000
313.998; 3703.675;  165.350;    0.000
314.059; 3718.675;  211.350;    0.000
314.120; 3663.675;  190.350;    0.000
314.182; 3709.675;  185.350;    0.000
314.243; 3755.675;  186.350;    0.000
314.304; 3759.675;  178.350;    0.000
314.365; 3783.675;  187.350;    0.000
314.427; 3721.675;  145.350;    0.000
314.488; 3782.675;  184.350;    0.000
314.549; 3665.675;  181.350;    0.000
314.610; 3715.675;  151.350;    0.000
314.672; 3661.675;  153.350;    0.000
314.733; 3764.675;  148.350;    0.000
314.794; 3671.675;  156.350;    0.000
314.855; 3658.675;  196.350;    0.000
314.917; 3681.675;  157.350;    0.000
314.978; 3742.675;  174.350;    0.000
315.039; 3668.675;  168.350;    0.000
315.100; 3721.675;  154.350;    0.000
315.161; 3745.675;  176.350;    0.000
315.222; 3678.675;  198.350;    0.000
315.283; 3733.675;  169.350;    0.000
315.345; 3686.675;  162.350;    0.000
315.406; 3746.675;  199.350;    0.000
315.467; 3698.675;  180.350;    0.000
315.528; 3657.675;  179.350;    0.000
315.589; 3670.675;  166.350;    0.000
315.650; 3687.675;  179.350;    0.000
315.711; 3657.675;  177.350;    0.000
315.772; 3637.675;  180.350;    0.000
315.833; 3674.675;  157.350;    0.000
315.894; 3729.675;  133.350;    0.000
315.955; 3629.675;  205.350;    0.000
316.016; 3704.675;  190.350;    0.000
316.078; 3682.675;  174.350;    0.000
316.139; 3699.675;  208.350;    0.000
316.200; 3620.675;  166.350;    0.000
316.261; 3630.675;  186.350;    0.000
316.322; 3674.675;  185.350;    0.000
316.383; 3701.675;  179.350;    0.000
316.444; 3663.675;  172.350;    0.000
316.504; 3636.675;  181.350;    0.000
316.565; 3601.675;  197.350;    0.000
316.626; 3587.675;  196.350;    0.000
316.687; 3576.675;  173.350;    0.000
316.748; 3631.675;  178.350;    0.000
316.809; 3704.675;  178.350;    0.000
316.870; 3700.675;  134.350;    0.000
316.931; 3687.675;  166.350;    0.000
316.992; 3682.675;  200.350;    0.000
317.053; 3647.675;  169.350;    0.000
317.114; 3548.675;  185.350;    0.000
317.175; 3594.675;  213.350;    0.000
317.235; 3635.675;  199.350;    0.000
317.296; 3587.675;  190.350;    0.000
317.357; 3593.675;  152.350;    0.000
317.418; 3560.675;  192.350;    0.000
317.479; 3705.675;  170.350;    0.000
317.540; 3499.675;  179.350;    0.000
317.601; 3563.675;  155.350;    0.000
317.661; 3550.675;  154.350;    0.000
317.722; 3602.675;  190.350;    0.000
317.783; 3526.675;  149.350;    0.000
317.844; 3589.675;  207.350;    0.000
317.904; 3507.675;  153.350;    0.000
317.965; 3599.675;  179.350;    0.000
318.026; 3639.675;  235.350;    0.000
318.087; 3649.675;  184.350;    0.000
318.148; 3680.675;  201.350;    0.000
318.208; 3579.675;  220.350;    0.000
318.269; 3547.675;  175.350;    0.000
318.330; 3681.675;  185.350;    0.000
318.390; 3664.675;  180.350;    0.000
318.451; 3536.675;  164.350;    0.000
318.512; 3527.675;  150.350;    0.000
318.572; 3515.675;  205.350;    0.000
318.633; 3540.675;  224.350;    0.000
318.694; 3636.675;  202.350;    0.000
318.754; 3568.675;  196.350;    0.000
318.815; 3509.675;  187.350;    0.000
318.876; 3693.675;  200.350;    0.000
318.936; 3724.675;  232.350;    0.000
318.997; 3588.675;  211.350;    0.000
319.058; 3634.675;  194.350;    0.000
319.118; 3554.675;  197.350;    0.000
319.179; 3480.675;  162.350;    0.000
319.239; 3518.675;  188.350;    0.000
319.300; 3590.675;  205.350;    0.000
319.361; 3529.675;  179.350;    0.000
319.421; 3537.675;  182.350;    0.000
319.482; 3508.675;  189.350;    0.000
319.542; 3531.675;  180.350;    0.000
319.603; 3493.675;  204.350;    0.000
319.663; 3454.675;  195.350;    0.000
319.724; 3472.675;  135.350;    0.000
319.784; 3584.675;  184.350;    0.000
319.845; 3461.675;  160.350;    0.000
319.905; 3456.675;  206.350;    0.000
319.966; 3531.675;  203.350;    0.000
320.026; 3580.675;  203.350;    0.000
320.087; 3544.675;  206.350;    0.000
320.147; 3562.675;  180.350;    0.000
320.208; 3510.675;  189.350;    0.000
320.268; 3467.675;  179.350;    0.000
320.329; 3526.675;  215.350;    0.000
320.389; 3496.675;  193.350;    0.000
320.449; 3509.675;  210.350;    0.000
320.510; 3523.675;  206.350;    0.000
320.570; 3439.675;  221.350;    0.000
320.631; 3543.675;  203.350;    0.000
320.691; 3526.675;  190.350;    0.000
320.751; 3552.675;  205.350;    0.000
320.812; 3357.675;  191.350;    0.000
320.872; 3589.675;  216.350;    0.000
320.932; 3559.675;  209.350;    0.000
320.993; 3377.675;  189.350;    0.000
321.053; 3580.675;  228.350;    0.000
321.113; 3498.675;  163.350;    0.000
321.174; 3560.675;  204.350;    0.000
321.234; 3535.675;  214.350;    0.000
321.294; 3516.675;  184.350;    0.000
321.355; 3550.675;  216.350;    0.000
321.415; 3547.675;  187.350;    0.000
321.475; 3518.675;  216.350;    0.000
321.535; 3529.675;  189.350;    0.000
321.596; 3424.675;  186.350;    0.000
321.656; 3551.675;  204.350;    0.000
321.716; 3453.675;  183.350;    0.000
321.776; 3501.675;  194.350;    0.000
321.837; 3426.675;  190.350;    0.000
321.897; 3388.675;  219.350;    0.000
321.957; 3597.675;  222.350;    0.000
322.017; 3486.675;  183.350;    0.000
322.077; 3488.675;  239.350;    0.000
322.138; 3461.675;  219.350;    0.000
322.198; 3392.675;  185.350;    0.000
322.258; 3420.675;  231.350;    0.000
322.318; 3403.675;  197.350;    0.000
322.378; 3366.675;  179.350;    0.000
322.438; 3414.675;  217.350;    0.000
322.499; 3410.675;  238.350;    0.000
322.559; 3412.675;  197.350;    0.000
322.619; 3401.675;  204.350;    0.000
322.679; 3301.675;  199.350;    0.000
322.739; 3327.675;  194.350;    0.000
322.799; 3497.675;  203.350;    0.000
322.859; 3316.675;  234.350;    0.000
322.919; 3444.675;  194.350;    0.000
322.979; 3466.675;  219.350;    0.000
323.039; 3479.675;  193.350;    0.000
323.099; 3386.675;  207.350;    0.000
323.159; 3398.675;  213.350;    0.000
323.219; 3378.675;  171.350;    0.000
323.279; 3447.675;  215.350;    0.000
323.339; 3527.675;  170.350;    0.000
323.399; 3499.675;  195.350;    0.000
323.459; 3391.675;  234.350;    0.000
323.519; 3409.675;  201.350;    0.000
323.579; 3483.675;  167.350;    0.000
323.639; 3437.675;  209.350;    0.000
323.699; 3437.675;  217.350;    0.000
323.759; 3433.675;  213.350;    0.000
323.819; 3394.675;  216.350;    0.000
323.879; 3429.675;  193.350;    0.000
323.939; 3356.675;  182.350;    0.000
323.999; 3392.675;  206.350;    0.000
324.059; 3340.675;  196.350;    0.000
324.119; 3319.675;  240.350;    0.000
324.178; 3342.675;  186.350;    0.000
324.238; 3252.675;  179.350;    0.000
324.298; 3432.675;  195.350;    0.000
324.358; 3356.675;  208.350;    0.000
324.418; 3309.675;  190.350;    0.000
324.478; 3371.675;  197.350;    0.000
324.538; 3262.675;  157.350;    0.000
324.597; 3390.675;  219.350;    0.000
324.657; 3330.675;  176.350;    0.000
324.717; 3414.675;  179.350;    0.000
324.777; 3323.675;  190.350;    0.000
324.837; 3297.675;  172.350;    0.000
324.896; 3347.675;  199.350;    0.000
324.956; 3461.675;  216.350;    0.000
325.016; 3363.675;  191.350;    0.000
325.076; 3425.675;  185.350;    0.000
325.135; 3408.675;  174.350;    0.000
325.195; 3367.675;  175.350;    0.000
325.255; 3294.675;  144.350;    0.000
325.315; 3341.675;  201.350;    0.000
325.374; 3342.675;  198.350;    0.000
325.434; 3348.675;  181.350;    0.000
325.494; 3413.675;  183.350;    0.000
325.553; 3403.675;  172.350;    0.000
325.613; 3476.675;  200.350;    0.000
325.673; 3309.675;  177.350;    0.000
325.732; 3354.675;  174.350;    0.000
325.792; 3392.675;  181.350;    0.000
325.852; 3477.675;  214.350;    0.000
325.911; 3424.675;  230.350;    0.000
325.971; 3478.675;  198.350;    0.000
326.031; 3323.675;  201.350;    0.000
326.090; 3434.675;  214.350;    0.000
326.150; 3312.675;  163.350;    0.000
326.209; 3442.675;  207.350;    0.000
326.269; 3357.675;  201.350;    0.000
326.328; 3289.675;  208.350;    0.000
326.388; 3369.675;  169.350;    0.000
326.448; 3358.675;  229.350;    0.000
326.507; 3287.675;  243.350;    0.000
326.567; 3364.675;  162.350;    0.000
326.626; 3378.675;  200.350;    0.000
326.686; 3242.675;  166.350;    0.000
326.745; 3257.675;  178.350;    0.000
326.805; 3307.675;  185.350;    0.000
326.864; 3418.675;  209.350;    0.000
326.924; 3383.675;  234.350;    0.000
326.983; 3359.675;  197.350;    0.000
327.043; 3286.675;  217.350;    0.000
327.102; 3279.675;  174.350;    0.000
327.161; 3347.675;  172.350;    0.000
327.221; 3253.675;  183.350;    0.000
327.280; 3301.675;  200.350;    0.000
327.340; 3277.675;  200.350;    0.000
327.399; 3361.675;  219.350;    0.000
327.459; 3225.675;  246.350;    0.000
327.518; 3262.675;  217.350;    0.000
327.577; 3268.675;  212.350;    0.000
327.637; 3182.675;  188.350;    0.000
327.696; 3188.675;  201.350;    0.000
327.755; 3232.675;  199.350;    0.000
327.815; 3265.675;  224.350;    0.000
327.874; 3322.675;  236.350;    0.000
327.933; 3259.675;  182.350;    0.000
327.993; 3270.675;  206.350;    0.000
328.052; 3206.675;  191.350;    0.000
328.111; 3282.675;  222.350;    0.000
328.171; 3219.675;  200.350;    0.000
328.230; 3289.675;  203.350;    0.000
328.289; 3287.675;  219.350;    0.000
328.349; 3231.675;  231.350;    0.000
328.408; 3231.675;  223.350;    0.000
328.467; 3191.675;  226.350;    0.000
328.526; 3304.675;  197.350;    0.000
328.586; 3289.675;  221.350;    0.000
328.645; 3201.675;  199.350;    0.000
328.704; 3215.675;  227.350;    0.000
328.763; 3223.675;  201.350;    0.000
328.822; 3208.675;  230.350;    0.000
328.882; 3234.675;  244.350;    0.000
328.941; 3236.675;  221.350;    0.000
329.000; 3261.675;  207.350;    0.000
329.059; 3187.675;  208.350;    0.000
329.118; 3296.675;  203.350;    0.000
329.177; 3201.675;  198.350;    0.000
329.237; 3200.675;  218.350;    0.000
329.296; 3188.675;  213.350;    0.000
329.355; 3287.675;  208.350;    0.000
329.414; 3218.675;  231.350;    0.000
329.473; 3190.675;  221.350;    0.000
329.532; 3184.675;  243.350;    0.000
329.591; 3266.675;  210.350;    0.000
329.650; 3203.675;  232.350;    0.000
329.709; 3221.675;  211.350;    0.000
329.768; 3303.675;  194.350;    0.000
329.827; 3372.675;  237.350;    0.000
329.886; 3361.675;  213.350;    0.000
329.945; 3425.675;  190.350;    0.000
330.004; 3444.675;  233.350;    0.000
330.063; 3537.675;  191.350;    0.000
330.122; 3826.675;  234.350;    0.000
330.181; 4354.675;  220.350;    0.000
330.240; 4356.675;  191.350;    0.000
330.299; 3914.675;  210.350;    0.000
330.358; 3458.675;  191.350;    0.000
330.417; 3379.675;  225.350;    0.000
330.476; 3295.675;  226.350;    0.000
330.535; 3284.675;  217.350;    0.000
330.594; 3251.675;  205.350;    0.000
330.653; 3177.675;  193.350;    0.000
330.712; 3173.675;  206.350;    0.000
330.771; 3105.675;  175.350;    0.000
330.830; 3152.675;  204.350;    0.000
330.889; 3083.675;  198.350;    0.000
330.948; 3226.675;  198.350;    0.000
331.006; 3050.675;  207.350;    0.000
331.065; 3086.675;  203.350;    0.000
331.124; 3120.675;  210.350;    0.000
331.183; 3111.675;  165.350;    0.000
331.242; 3217.675;  195.350;    0.000
331.301; 3087.675;  191.350;    0.000
331.359; 3119.675;  205.350;    0.000
331.418; 3076.675;  183.350;    0.000
331.477; 3169.675;  198.350;    0.000
331.536; 3166.675;  211.350;    0.000
331.595; 3083.675;  191.350;    0.000
331.653; 3071.675;  232.350;    0.000
331.712; 3020.675;  225.350;    0.000
331.771; 3058.675;  199.350;    0.000
331.830; 3169.675;  189.350;    0.000
331.888; 3059.675;  219.350;    0.000
331.947; 3073.675;  188.350;    0.000
332.006; 3018.675;  180.350;    0.000
332.065; 3025.675;  177.350;    0.000
332.123; 3054.675;  214.350;    0.000
332.182; 3101.675;  223.350;    0.000
332.241; 3148.675;  202.350;    0.000
332.299; 3125.675;  180.350;    0.000
332.358; 3166.675;  206.350;    0.000
332.417; 3125.675;  195.350;    0.000
332.475; 3242.675;  221.350;    0.000
332.534; 3096.675;  207.350;    0.000
332.592; 3144.675;  190.350;    0.000
332.651; 3135.675;  203.350;    0.000
332.710; 3134.675;  219.350;    0.000
332.768; 3121.675;  210.350;    0.000
332.827; 3186.675;  173.350;    0.000
332.885; 3288.675;  239.350;    0.000
332.944; 3253.675;  145.350;    0.000
333.003; 3273.675;  197.350;    0.000
333.061; 3250.675;  179.350;    0.000
333.120; 3257.675;  198.350;    0.000
333.178; 3396.675;  185.350;    0.000
333.237; 3396.675;  204.350;    0.000
333.295; 3308.675;  266.350;    0.000
333.354; 3337.675;  181.350;    0.000
333.412; 3264.675;  189.350;    0.000
333.471; 3308.675;  216.350;    0.000
333.529; 3342.675;  220.350;    0.000
333.588; 3428.675;  193.350;    0.000
333.646; 3664.675;  186.350;    0.000
333.705; 3518.675;  210.350;    0.000
333.763; 3432.675;  222.350;    0.000
333.822; 3445.675;  222.350;    0.000
333.880; 3394.675;  202.350;    0.000
333.938; 3270.675;  205.350;    0.000
333.997; 3381.675;  199.350;    0.000
334.055; 3382.675;  199.350;    0.000
334.114; 3338.675;  237.350;    0.000
334.172; 3341.675;  155.350;    0.000
334.230; 3263.675;  208.350;    0.000
334.289; 3256.675;  191.350;    0.000
334.347; 3285.675;  211.350;    0.000
334.405; 3311.675;  212.350;    0.000
334.464; 3250.675;  179.350;    0.000
334.522; 3281.675;  160.350;    0.000
334.580; 3290.675;  195.350;    0.000
334.639; 3238.675;  191.350;    0.000
334.697; 3183.675;  194.350;    0.000
334.755; 3243.675;  185.350;    0.000
334.814; 3212.675;  214.350;    0.000
334.872; 3343.675;  179.350;    0.000
334.930; 3291.675;  169.350;    0.000
334.988; 3163.675;  201.350;    0.000
335.047; 3143.675;  188.350;    0.000
335.105; 3194.675;  175.350;    0.000
335.163; 3271.675;  191.350;    0.000
335.221; 3229.675;  196.350;    0.000
335.280; 3095.675;  182.350;    0.000
335.338; 3183.675;  202.350;    0.000
335.396; 3175.675;  219.350;    0.000
335.454; 3259.675;  187.350;    0.000
335.512; 3230.675;  236.350;    0.000
335.570; 3157.675;  209.350;    0.000
335.629; 3247.675;  247.350;    0.000
335.687; 3295.675;  219.350;    0.000
335.745; 3237.675;  203.350;    0.000
335.803; 3175.675;  220.350;    0.000
335.861; 3202.675;  208.350;    0.000
335.919; 3171.675;  223.350;    0.000
335.977; 3261.675;  201.350;    0.000
336.035; 3146.675;  193.350;    0.000
336.094; 3261.675;  178.350;    0.000
336.152; 3159.675;  182.350;    0.000
336.210; 3135.675;  199.350;    0.000
336.268; 3172.675;  216.350;    0.000
336.326; 3203.675;  216.350;    0.000
336.384; 3170.675;  201.350;    0.000
336.442; 3231.675;  197.350;    0.000
336.500; 3205.675;  203.350;    0.000
336.558; 3154.675;  198.350;    0.000
336.616; 3199.675;  210.350;    0.000
336.674; 3105.675;  192.350;    0.000
336.732; 3119.675;  182.350;    0.000
336.790; 3218.675;  189.350;    0.000
336.848; 3205.675;  233.350;    0.000
336.906; 3171.675;  235.350;    0.000
336.964; 3166.675;  208.350;    0.000
337.022; 3191.675;  249.350;    0.000
337.080; 3211.675;  204.350;    0.000
337.138; 3202.675;  176.350;    0.000
337.195; 3173.675;  207.350;    0.000
337.253; 3053.675;  214.350;    0.000
337.311; 3103.675;  210.350;    0.000
337.369; 3109.675;  222.350;    0.000
337.427; 3061.675;  236.350;    0.000
337.485; 3086.675;  241.350;    0.000
337.543; 3074.675;  217.350;    0.000
337.601; 3031.675;  221.350;    0.000
337.658; 3082.675;  205.350;    0.000
337.716; 3196.675;  210.350;    0.000
337.774; 3049.675;  196.350;    0.000
337.832; 3019.675;  200.350;    0.000
337.890; 3087.675;  192.350;    0.000
337.947; 3039.675;  192.350;    0.000
338.005; 2990.675;  211.350;    0.000
338.063; 3070.675;  176.350;    0.000
338.121; 3067.675;  222.350;    0.000
338.178; 3051.675;  198.350;    0.000
338.236; 3035.675;  210.350;    0.000
338.294; 3069.675;  211.350;    0.000
338.352; 3051.675;  212.350;    0.000
338.409; 3047.675;  199.350;    0.000
338.467; 3045.675;  205.350;    0.000
338.525; 3037.675;  217.350;    0.000
338.583; 3042.675;  197.350;    0.000
338.640; 2983.675;  226.350;    0.000
338.698; 2963.675;  201.350;    0.000
338.756; 2954.675;  192.350;    0.000
338.813; 2988.675;  220.350;    0.000
338.871; 2989.675;  258.350;    0.000
338.928; 3023.675;  223.350;    0.000
338.986; 2997.675;  200.350;    0.000
339.044; 3117.675;  206.350;    0.000
339.101; 3018.675;  250.350;    0.000
339.159; 3024.675;  245.350;    0.000
339.216; 2993.675;  227.350;    0.000
339.274; 2974.675;  260.350;    0.000
339.332; 2966.675;  223.350;    0.000
339.389; 3079.675;  233.350;    0.000
339.447; 2990.675;  206.350;    0.000
339.504; 2994.675;  229.350;    0.000
339.562; 3013.675;  194.350;    0.000
339.619; 3027.675;  245.350;    0.000
339.677; 2971.675;  238.350;    0.000
339.734; 2967.675;  197.350;    0.000
339.792; 2957.675;  210.350;    0.000
339.849; 3046.675;  201.350;    0.000
339.907; 3005.675;  252.350;    0.000
339.964; 2909.675;  191.350;    0.000
340.022; 2951.675;  246.350;    0.000
340.079; 2928.675;  213.350;    0.000
340.137; 2969.675;  240.350;    0.000
340.194; 2910.675;  208.350;    0.000
340.252; 2982.675;  215.350;    0.000
340.309; 2947.675;  203.350;    0.000
340.366; 2910.675;  194.350;    0.000
340.424; 2906.675;  226.350;    0.000
340.481; 3003.675;  234.350;    0.000
340.538; 2907.675;  205.350;    0.000
340.596; 2881.675;  197.350;    0.000
340.653; 2881.675;  233.350;    0.000
340.711; 3019.675;  273.350;    0.000
340.768; 3003.675;  237.350;    0.000
340.825; 3053.675;  224.350;    0.000
340.883; 2914.675;  240.350;    0.000
340.940; 2950.675;  216.350;    0.000
340.997; 2957.675;  228.350;    0.000
341.054; 2977.675;  200.350;    0.000
341.112; 2902.675;  220.350;    0.000
341.169; 2857.675;  226.350;    0.000
341.226; 2879.675;  206.350;    0.000
341.284; 2942.675;  204.350;    0.000
341.341; 2918.675;  214.350;    0.000
341.398; 2963.675;  160.350;    0.000
341.455; 3018.675;  209.350;    0.000
341.512; 2973.675;  233.350;    0.000
341.570; 3001.675;  240.350;    0.000
341.627; 2907.675;  209.350;    0.000
341.684; 2851.675;  178.350;    0.000
341.741; 3015.675;  254.350;    0.000
341.798; 3034.675;  232.350;    0.000
341.856; 2856.675;  196.350;    0.000
341.913; 2965.675;  244.350;    0.000
341.970; 3011.675;  203.350;    0.000
342.027; 2933.675;  235.350;    0.000
342.084; 2943.675;  214.350;    0.000
342.141; 2906.675;  194.350;    0.000
342.198; 2958.675;  194.350;    0.000
342.255; 2959.675;  219.350;    0.000
342.313; 2920.675;  195.350;    0.000
342.370; 2991.675;  207.350;    0.000
342.427; 2967.675;  217.350;    0.000
342.484; 2997.675;  213.350;    0.000
342.541; 2955.675;  215.350;    0.000
342.598; 3016.675;  247.350;    0.000
342.655; 2983.675;  205.350;    0.000
342.712; 3027.675;  226.350;    0.000
342.769; 3044.675;  212.350;    0.000
342.826; 2965.675;  203.350;    0.000
342.883; 2982.675;  207.350;    0.000
342.940; 2957.675;  204.350;    0.000
342.997; 2977.675;  237.350;    0.000
343.054; 3018.675;  210.350;    0.000
343.111; 3024.675;  209.350;    0.000
343.168; 3069.675;  201.350;    0.000
343.225; 3150.675;  208.350;    0.000
343.282; 3130.675;  216.350;    0.000
343.339; 3109.675;  237.350;    0.000
343.395; 3070.675;  218.350;    0.000
343.452; 3096.675;  234.350;    0.000
343.509; 3167.675;  214.350;    0.000
343.566; 3101.675;  222.350;    0.000
343.623; 3234.675;  226.350;    0.000
343.680; 3239.675;  245.350;    0.000
343.737; 3234.675;  209.350;    0.000
343.794; 3311.675;  227.350;    0.000
343.850; 3288.675;  197.350;    0.000
343.907; 3249.675;  211.350;    0.000
343.964; 3287.675;  190.350;    0.000
344.021; 3379.675;  252.350;    0.000
344.078; 3341.675;  261.350;    0.000
344.134; 3346.675;  206.350;    0.000
344.191; 3234.675;  231.350;    0.000
344.248; 3251.675;  225.350;    0.000
344.305; 3255.675;  210.350;    0.000
344.361; 3238.675;  194.350;    0.000
344.418; 3267.675;  219.350;    0.000
344.475; 3219.675;  245.350;    0.000
344.532; 3201.675;  238.350;    0.000
344.588; 3207.675;  235.350;    0.000
344.645; 3239.675;  229.350;    0.000
344.702; 3197.675;  145.350;    0.000
344.758; 3157.675;  240.350;    0.000
344.815; 3236.675;  215.350;    0.000
344.872; 3129.675;  203.350;    0.000
344.928; 3187.675;  208.350;    0.000
344.985; 3132.675;  216.350;    0.000
345.042; 3142.675;  234.350;    0.000
345.098; 3228.675;  183.350;    0.000
345.155; 3108.675;  241.350;    0.000
345.212; 3167.675;  222.350;    0.000
345.268; 3168.675;  234.350;    0.000
345.325; 3263.675;  181.350;    0.000
345.381; 3150.675;  251.350;    0.000
345.438; 3234.675;  256.350;    0.000
345.495; 3193.675;  247.350;    0.000
345.551; 3114.675;  231.350;    0.000
345.608; 3151.675;  206.350;    0.000
345.664; 3171.675;  201.350;    0.000
345.721; 3239.675;  216.350;    0.000
345.777; 3168.675;  195.350;    0.000
345.834; 3135.675;  195.350;    0.000
345.890; 3123.675;  227.350;    0.000
345.947; 3127.675;  240.350;    0.000
346.003; 3141.675;  248.350;    0.000
346.060; 3112.675;  213.350;    0.000
346.116; 3183.675;  225.350;    0.000
346.173; 3253.675;  199.350;    0.000
346.229; 3219.675;  264.350;    0.000
346.285; 3192.675;  246.350;    0.000
346.342; 3128.675;  240.350;    0.000
346.398; 3151.675;  222.350;    0.000
346.455; 3234.675;  231.350;    0.000
346.511; 3271.675;  214.350;    0.000
346.567; 3192.675;  231.350;    0.000
346.624; 3262.675;  222.350;    0.000
346.680; 3129.675;  197.350;    0.000
346.737; 3253.675;  225.350;    0.000
346.793; 3131.675;  255.350;    0.000
346.849; 3166.675;  245.350;    0.000
346.906; 3197.675;  221.350;    0.000
346.962; 3258.675;  260.350;    0.000
347.018; 3284.675;  238.350;    0.000
347.074; 3259.675;  257.350;    0.000
347.131; 3159.675;  200.350;    0.000
347.187; 3232.675;  232.350;    0.000
347.243; 3277.675;  240.350;    0.000
347.300; 3292.675;  249.350;    0.000
347.356; 3239.675;  250.350;    0.000
347.412; 3351.675;  252.350;    0.000
347.468; 3296.675;  254.350;    0.000
347.524; 3148.675;  280.350;    0.000
347.581; 3230.675;  228.350;    0.000
347.637; 3215.675;  261.350;    0.000
347.693; 3249.675;  238.350;    0.000
347.749; 3244.675;  261.350;    0.000
347.805; 3200.675;  238.350;    0.000
347.862; 3151.675;  246.350;    0.000
347.918; 3273.675;  256.350;    0.000
347.974; 3294.675;  277.350;    0.000
348.030; 3330.675;  242.350;    0.000
348.086; 3256.675;  223.350;    0.000
348.142; 3231.675;  215.350;    0.000
348.198; 3238.675;  272.350;    0.000
348.254; 3305.675;  292.350;    0.000
348.311; 3233.675;  235.350;    0.000
348.367; 3274.675;  263.350;    0.000
348.423; 3239.675;  193.350;    0.000
348.479; 3245.675;  266.350;    0.000
348.535; 3280.675;  238.350;    0.000
348.591; 3292.675;  237.350;    0.000
348.647; 3281.675;  239.350;    0.000
348.703; 3235.675;  240.350;    0.000
348.759; 3312.675;  253.350;    0.000
348.815; 3314.675;  255.350;    0.000
348.871; 3280.675;  256.350;    0.000
348.927; 3202.675;  261.350;    0.000
348.983; 3337.675;  258.350;    0.000
349.039; 3284.675;  204.350;    0.000
349.095; 3233.675;  215.350;    0.000
349.151; 3338.675;  230.350;    0.000
349.207; 3217.675;  216.350;    0.000
349.263; 3254.675;  235.350;    0.000
349.319; 3262.675;  244.350;    0.000
349.374; 3330.675;  213.350;    0.000
349.430; 3467.675;  241.350;    0.000
349.486; 3338.675;  248.350;    0.000
349.542; 3313.675;  259.350;    0.000
349.598; 3295.675;  208.350;    0.000
349.654; 3381.675;  242.350;    0.000
349.710; 3383.675;  246.350;    0.000
349.766; 3337.675;  226.350;    0.000
349.821; 3348.675;  227.350;    0.000
349.877; 3315.675;  226.350;    0.000
349.933; 3368.675;  249.350;    0.000
349.989; 3411.675;  263.350;    0.000
350.045; 3296.675;  267.350;    0.000
350.100; 3232.675;  219.350;    0.000
350.156; 3293.675;  207.350;    0.000
350.212; 3360.675;  230.350;    0.000
350.268; 3339.675;  223.350;    0.000
350.323; 3284.675;  217.350;    0.000
350.379; 3328.675;  227.350;    0.000
350.435; 3318.675;  219.350;    0.000
350.491; 3348.675;  195.350;    0.000
350.546; 3299.675;  229.350;    0.000
350.602; 3368.675;  222.350;    0.000
350.658; 3290.675;  225.350;    0.000
350.713; 3343.675;  231.350;    0.000
350.769; 3332.675;  193.350;    0.000
350.825; 3195.675;  182.350;    0.000
350.880; 3264.675;  193.350;    0.000
350.936; 3201.675;  222.350;    0.000
350.992; 3249.675;  217.350;    0.000
351.047; 3358.675;  226.350;    0.000
351.103; 3271.675;  187.350;    0.000
351.158; 3190.675;  212.350;    0.000
351.214; 3320.675;  207.350;    0.000
351.270; 3360.675;  194.350;    0.000
351.325; 3303.675;  213.350;    0.000
351.381; 3389.675;  223.350;    0.000
351.436; 3319.675;  222.350;    0.000
351.492; 3380.675;  219.350;    0.000
351.547; 3374.675;  205.350;    0.000
351.603; 3331.675;  218.350;    0.000
351.658; 3330.675;  199.350;    0.000
351.714; 3299.675;  201.350;    0.000
351.769; 3360.675;  209.350;    0.000
351.825; 3545.675;  226.350;    0.000
351.880; 3313.675;  189.350;    0.000
351.936; 3435.675;  201.350;    0.000
351.991; 3371.675;  220.350;    0.000
352.047; 3282.675;  232.350;    0.000
352.102; 3264.675;  185.350;    0.000
352.158; 3406.675;  228.350;    0.000
352.213; 3189.675;  204.350;    0.000
352.268; 3289.675;  220.350;    0.000
352.324; 3369.675;  206.350;    0.000
352.379; 3380.675;  182.350;    0.000
352.434; 3381.675;  214.350;    0.000
352.490; 3380.675;  250.350;    0.000
352.545; 3418.675;  290.350;    0.000
352.601; 3418.675;  247.350;    0.000
352.656; 3376.675;  203.350;    0.000
352.711; 3336.675;  197.350;    0.000
352.767; 3296.675;  169.350;    0.000
352.822; 3383.675;  191.350;    0.000
352.877; 3341.675;  235.350;    0.000
352.932; 3282.675;  231.350;    0.000
352.988; 3376.675;  224.350;    0.000
353.043; 3344.675;  226.350;    0.000
353.098; 3365.675;  227.350;    0.000
353.153; 3372.675;  239.350;    0.000
353.209; 3421.675;  217.350;    0.000
353.264; 3324.675;  198.350;    0.000
353.319; 3412.675;  247.350;    0.000
353.374; 3374.675;  199.350;    0.000
353.430; 3372.675;  247.350;    0.000
353.485; 3394.675;  242.350;    0.000
353.540; 3500.675;  237.350;    0.000
353.595; 3350.675;  233.350;    0.000
353.650; 3375.675;  221.350;    0.000
353.705; 3434.675;  259.350;    0.000
353.761; 3385.675;  223.350;    0.000
353.816; 3408.675;  234.350;    0.000
353.871; 3347.675;  226.350;    0.000
353.926; 3385.675;  232.350;    0.000
353.981; 3509.675;  245.350;    0.000
354.036; 3372.675;  247.350;    0.000
354.091; 3398.675;  233.350;    0.000
354.146; 3513.675;  253.350;    0.000
354.201; 3496.675;  236.350;    0.000
354.256; 3402.675;  210.350;    0.000
354.311; 3404.675;  279.350;    0.000
354.367; 3415.675;  208.350;    0.000
354.422; 3426.675;  228.350;    0.000
354.477; 3378.675;  202.350;    0.000
354.532; 3459.675;  215.350;    0.000
354.587; 3336.675;  249.350;    0.000
354.642; 3391.675;  206.350;    0.000
354.697; 3469.675;  226.350;    0.000
354.751; 3485.675;  241.350;    0.000
354.806; 3349.675;  249.350;    0.000
354.861; 3426.675;  216.350;    0.000
354.916; 3353.675;  249.350;    0.000
354.971; 3480.675;  217.350;    0.000
355.026; 3412.675;  236.350;    0.000
355.081; 3382.675;  242.350;    0.000
355.136; 3539.675;  216.350;    0.000
355.191; 3366.675;  216.350;    0.000
355.246; 3432.675;  258.350;    0.000
355.301; 3428.675;  250.350;    0.000
355.355; 3447.675;  251.350;    0.000
355.410; 3423.675;  216.350;    0.000
355.465; 3491.675;  224.350;    0.000
355.520; 3470.675;  221.350;    0.000
355.575; 3440.675;  255.350;    0.000
355.630; 3403.675;  225.350;    0.000
355.684; 3473.675;  210.350;    0.000
355.739; 3347.675;  232.350;    0.000
355.794; 3349.675;  202.350;    0.000
355.849; 3498.675;  211.350;    0.000
355.904; 3381.675;  226.350;    0.000
355.958; 3386.675;  191.350;    0.000
356.013; 3397.675;  208.350;    0.000
356.068; 3448.675;  229.350;    0.000
356.123; 3451.675;  243.350;    0.000
356.177; 3446.675;  227.350;    0.000
356.232; 3405.675;  243.350;    0.000
356.287; 3508.675;  216.350;    0.000
356.341; 3468.675;  242.350;    0.000
356.396; 3457.675;  175.350;    0.000
356.451; 3369.675;  271.350;    0.000
356.505; 3388.675;  225.350;    0.000
356.560; 3358.675;  260.350;    0.000
356.615; 3448.675;  213.350;    0.000
356.669; 3488.675;  213.350;    0.000
356.724; 3466.675;  221.350;    0.000
356.778; 3456.675;  232.350;    0.000
356.833; 3443.675;  178.350;    0.000
356.888; 3496.675;  236.350;    0.000
356.942; 3440.675;  224.350;    0.000
356.997; 3577.675;  228.350;    0.000
357.051; 3408.675;  226.350;    0.000
357.106; 3449.675;  185.350;    0.000
357.160; 3308.675;  202.350;    0.000
357.215; 3532.675;  232.350;    0.000
357.269; 3430.675;  224.350;    0.000
357.324; 3506.675;  219.350;    0.000
357.378; 3320.675;  196.350;    0.000
357.433; 3470.675;  241.350;    0.000
357.487; 3404.675;  244.350;    0.000
357.542; 3469.675;  210.350;    0.000
357.596; 3519.675;  231.350;    0.000
357.651; 3458.675;  248.350;    0.000
357.705; 3479.675;  232.350;    0.000
357.760; 3500.675;  224.350;    0.000
357.814; 3502.675;  221.350;    0.000
357.868; 3395.675;  207.350;    0.000
357.923; 3435.675;  234.350;    0.000
357.977; 3383.675;  218.350;    0.000
358.032; 3408.675;  244.350;    0.000
358.086; 3453.675;  246.350;    0.000
358.140; 3383.675;  235.350;    0.000
358.195; 3421.675;  237.350;    0.000
358.249; 3451.675;  233.350;    0.000
358.303; 3346.675;  254.350;    0.000
358.358; 3518.675;  217.350;    0.000
358.412; 3455.675;  245.350;    0.000
358.466; 3468.675;  230.350;    0.000
358.521; 3425.675;  214.350;    0.000
358.575; 3495.675;  243.350;    0.000
358.629; 3451.675;  230.350;    0.000
358.683; 3417.675;  232.350;    0.000
358.738; 3374.675;  249.350;    0.000
358.792; 3374.675;  249.350;    0.000
358.846; 3429.675;  271.350;    0.000
358.900; 3409.675;  265.350;    0.000
358.954; 3404.675;  236.350;    0.000
359.009; 3423.675;  254.350;    0.000
359.063; 3371.675;  216.350;    0.000
359.117; 3400.675;  245.350;    0.000
359.171; 3466.675;  252.350;    0.000
359.225; 3536.675;  240.350;    0.000
359.280; 3445.675;  239.350;    0.000
359.334; 3483.675;  234.350;    0.000
359.388; 3494.675;  258.350;    0.000
359.442; 3393.675;  220.350;    0.000
359.496; 3366.675;  206.350;    0.000
359.550; 3480.675;  279.350;    0.000
359.604; 3511.675;  263.350;    0.000
359.658; 3517.675;  251.350;    0.000
359.712; 3408.675;  244.350;    0.000
359.766; 3403.675;  217.350;    0.000
359.820; 3440.675;  235.350;    0.000
359.875; 3407.675;  249.350;    0.000
359.929; 3474.675;  269.350;    0.000
359.983; 3386.675;  240.350;    0.000
360.037; 3419.675;  252.350;    0.000
360.091; 3468.675;  271.350;    0.000
360.145; 3393.675;  222.350;    0.000
360.199; 3457.675;  302.350;    0.000
360.253; 3485.675;  234.350;    0.000
360.306; 3487.675;  258.350;    0.000
360.360; 3378.675;  249.350;    0.000
360.414; 3388.675;  231.350;    0.000
360.468; 3482.675;  261.350;    0.000
360.522; 3466.675;  277.350;    0.000
360.576; 3393.675;  273.350;    0.000
360.630; 3455.675;  264.350;    0.000
360.684; 3390.675;  223.350;    0.000
360.738; 3509.675;  266.350;    0.000
360.792; 3389.675;  252.350;    0.000
360.846; 3452.675;  234.350;    0.000
360.899; 3495.675;  296.350;    0.000
360.953; 3391.675;  273.350;    0.000
361.007; 3302.675;  251.350;    0.000
361.061; 3416.675;  250.350;    0.000
361.115; 3374.675;  267.350;    0.000
361.168; 3481.675;  308.350;    0.000
361.222; 3403.675;  246.350;    0.000
361.276; 3413.675;  261.350;    0.000
361.330; 3388.675;  233.350;    0.000
361.384; 3385.675;  269.350;    0.000
361.437; 3358.675;  270.350;    0.000
361.491; 3461.675;  263.350;    0.000
361.545; 3428.675;  288.350;    0.000
361.599; 3414.675;  270.350;    0.000
361.652; 3462.675;  256.350;    0.000
361.706; 3459.675;  263.350;    0.000
361.760; 3410.675;  237.350;    0.000
361.813; 3482.675;  278.350;    0.000
361.867; 3427.675;  317.350;    0.000
361.921; 3339.675;  260.350;    0.000
361.974; 3421.675;  239.350;    0.000
362.028; 3393.675;  266.350;    0.000
362.082; 3433.675;  269.350;    0.000
362.135; 3469.675;  262.350;    0.000
362.189; 3413.675;  258.350;    0.000
362.242; 3404.675;  273.350;    0.000
362.296; 3442.675;  261.350;    0.000
362.350; 3424.675;  272.350;    0.000
362.403; 3440.675;  291.350;    0.000
362.457; 3352.675;  253.350;    0.000
362.510; 3382.675;  266.350;    0.000
362.564; 3437.675;  260.350;    0.000
362.617; 3272.675;  280.350;    0.000
362.671; 3418.675;  281.350;    0.000
362.724; 3394.675;  234.350;    0.000
362.778; 3407.675;  311.350;    0.000
362.831; 3444.675;  276.350;    0.000
362.885; 3396.675;  288.350;    0.000
362.938; 3307.675;  284.350;    0.000
362.992;  343.675;  245.350;    0.000
363.045;  287.675;  277.350;    0.000
363.099;  282.675;  246.350;    0.000
363.152;  284.675;  290.350;    0.000
363.205;  277.675;  256.350;    0.000
363.259;  245.675;  238.350;    0.000
363.312;  291.675;  290.350;    0.000
363.366;  295.675;  287.350;    0.000
363.419;  294.675;  279.350;    0.000
363.472;  312.675;  304.350;    0.000
363.526;  294.675;  305.350;    0.000
363.579;  275.675;  281.350;    0.000
363.632;  281.675;  279.350;    0.000
363.686;  269.675;  277.350;    0.000
363.739;  246.675;  268.350;    0.000
363.792;  295.675;  274.350;    0.000

