
Integration time [ms]:   0.300
Averaging Nr. [scans]: 1
Smoothing Nr. [pixels]: 0
Data measured with spectrometer [name]: NIR
Wave   ;Sample   ;Dark     ;Reference
[nm]   ;[counts] ;[counts] ;[counts] 

691.496;   24.775;  155.525;    0.000
691.696;   71.775;  186.525;    0.000
691.896;   17.775;  113.525;    0.000
692.096;   15.775;  169.525;    0.000
692.296;   -4.225;  119.525;    0.000
692.496;   62.775;  182.525;    0.000
692.695;  -12.225;  119.525;    0.000
692.895;   34.775;  183.525;    0.000
693.095;  -22.225;  119.525;    0.000
693.295;   67.775;  156.525;    0.000
693.495;   55.775;  145.525;    0.000
693.695;   33.775;  144.525;    0.000
693.894;   15.775;  174.525;    0.000
694.094;   38.775;  148.525;    0.000
694.294;    9.775;  114.525;    0.000
694.494;  365.775;  137.525;    0.000
694.693; 3416.775;  112.525;    0.000
694.893; 3909.775;   85.525;    0.000
695.093; 3899.775;  152.525;    0.000
695.293; 3936.775;  159.525;    0.000
695.492; 3984.775;  131.525;    0.000
695.692; 4010.775;  134.525;    0.000
695.891; 3976.775;  161.525;    0.000
696.091; 4003.775;  180.525;    0.000
696.291; 3884.775;  120.525;    0.000
696.490; 4064.775;  146.525;    0.000
696.690; 4015.775;  145.525;    0.000
696.889; 4104.775;  171.525;    0.000
697.089; 4003.775;   98.525;    0.000
697.288; 4210.775;  172.525;    0.000
697.488; 4040.775;  137.525;    0.000
697.687; 4091.775;  171.525;    0.000
697.887; 4046.775;  142.525;    0.000
698.086; 4099.775;  159.525;    0.000
698.286; 4039.775;  122.525;    0.000
698.485; 4046.775;  121.525;    0.000
698.684; 4027.775;   94.525;    0.000
698.884; 4165.775;  131.525;    0.000
699.083; 4005.775;  112.525;    0.000
699.282; 4019.775;  119.525;    0.000
699.482; 4157.775;  117.525;    0.000
699.681; 4119.775;  115.525;    0.000
699.880; 4194.775;  166.525;    0.000
700.080; 4126.775;  194.525;    0.000
700.279; 4147.775;   98.525;    0.000
700.478; 4216.775;  159.525;    0.000
700.677; 4153.775;  134.525;    0.000
700.877; 4227.775;  171.525;    0.000
701.076; 4211.775;  141.525;    0.000
701.275; 4263.775;  119.525;    0.000
701.474; 4204.775;  132.525;    0.000
701.673; 4230.775;  141.525;    0.000
701.872; 4263.775;  158.525;    0.000
702.071; 4247.775;  129.525;    0.000
702.271; 4223.775;  122.525;    0.000
702.470; 4364.775;  158.525;    0.000
702.669; 4243.775;  145.525;    0.000
702.868; 4223.775;  135.525;    0.000
703.067; 4219.775;  169.525;    0.000
703.266; 4325.775;  125.525;    0.000
703.465; 4260.775;  153.525;    0.000
703.664; 4179.775;  113.525;    0.000
703.863; 4239.775;  170.525;    0.000
704.062; 4241.775;  115.525;    0.000
704.260; 4310.775;  133.525;    0.000
704.459; 4332.775;  123.525;    0.000
704.658; 4211.775;  105.525;    0.000
704.857; 4205.775;  125.525;    0.000
705.056; 4200.775;  108.525;    0.000
705.255; 4247.775;  117.525;    0.000
705.454; 4360.775;  126.525;    0.000
705.652; 4345.775;  137.525;    0.000
705.851; 4296.775;   95.525;    0.000
706.050; 4434.775;  120.525;    0.000
706.249; 4279.775;   81.525;    0.000
706.447; 4308.775;  105.525;    0.000
706.646; 4350.775;  107.525;    0.000
706.845; 4324.775;  104.525;    0.000
707.043; 4371.775;  136.525;    0.000
707.242; 4375.775;   89.525;    0.000
707.441; 4336.775;  147.525;    0.000
707.639; 4385.775;  156.525;    0.000
707.838; 4312.775;  114.525;    0.000
708.037; 4339.775;  100.525;    0.000
708.235; 4453.775;  103.525;    0.000
708.434; 4334.775;  102.525;    0.000
708.632; 4422.775;  100.525;    0.000
708.831; 4432.775;  121.525;    0.000
709.029; 4441.775;  102.525;    0.000
709.228; 4516.775;   88.525;    0.000
709.426; 4519.775;  135.525;    0.000
709.625; 4431.775;  128.525;    0.000
709.823; 4462.775;  123.525;    0.000
710.022; 4506.775;  137.525;    0.000
710.220; 4480.775;  134.525;    0.000
710.418; 4541.775;  122.525;    0.000
710.617; 4589.775;   64.525;    0.000
710.815; 4487.775;   94.525;    0.000
711.013; 4623.775;  127.525;    0.000
711.212; 4528.775;  105.525;    0.000
711.410; 4584.775;  117.525;    0.000
711.608; 4574.775;  114.525;    0.000
711.807; 4567.775;  119.525;    0.000
712.005; 4661.775;   92.525;    0.000
712.203; 4624.775;   95.525;    0.000
712.401; 4592.775;  107.525;    0.000
712.599; 4699.775;  127.525;    0.000
712.798; 4757.775;  120.525;    0.000
712.996; 4758.775;   76.525;    0.000
713.194; 4726.775;  118.525;    0.000
713.392; 4700.775;   60.525;    0.000
713.590; 4833.775;   92.525;    0.000
713.788; 4800.775;  110.525;    0.000
713.986; 4785.775;  130.525;    0.000
714.184; 4833.775;   71.525;    0.000
714.382; 4866.775;   86.525;    0.000
714.580; 4932.775;   74.525;    0.000
714.778; 4896.775;  133.525;    0.000
714.976; 5060.775;   81.525;    0.000
715.174; 4968.775;  100.525;    0.000
715.372; 5185.775;  141.525;    0.000
715.570; 5502.775;   73.525;    0.000
715.768; 5776.775;  119.525;    0.000
715.966; 5970.775;   81.525;    0.000
716.164; 5780.775;  130.525;    0.000
716.362; 5798.775;  125.525;    0.000
716.560; 5553.775;  109.525;    0.000
716.758; 5440.775;   96.525;    0.000
716.955; 5345.775;   83.525;    0.000
717.153; 5362.775;   87.525;    0.000
717.351; 5289.775;  123.525;    0.000
717.549; 5322.775;  121.525;    0.000
717.746; 5118.775;  128.525;    0.000
717.944; 5256.775;  132.525;    0.000
718.142; 5241.775;  120.525;    0.000
718.340; 5110.775;   94.525;    0.000
718.537; 5199.775;   95.525;    0.000
718.735; 5165.775;  152.525;    0.000
718.933; 5166.775;  124.525;    0.000
719.130; 5078.775;  114.525;    0.000
719.328; 5237.775;   63.525;    0.000
719.525; 5231.775;  146.525;    0.000
719.723; 5170.775;   96.525;    0.000
719.920; 5089.775;  120.525;    0.000
720.118; 5099.775;   59.525;    0.000
720.316; 5060.775;  116.525;    0.000
720.513; 5061.775;  127.525;    0.000
720.711; 5069.775;  110.525;    0.000
720.908; 5188.775;   92.525;    0.000
721.105; 5223.775;  138.525;    0.000
721.303; 5096.775;   90.525;    0.000
721.500; 5288.775;  126.525;    0.000
721.698; 5146.775;  103.525;    0.000
721.895; 5200.775;  206.525;    0.000
722.092; 5011.775;   63.525;    0.000
722.290; 5214.775;  123.525;    0.000
722.487; 5108.775;  137.525;    0.000
722.684; 5191.775;  126.525;    0.000
722.882; 5080.775;  119.525;    0.000
723.079; 5147.775;  132.525;    0.000
723.276; 5071.775;   98.525;    0.000
723.473; 5102.775;   97.525;    0.000
723.671; 5135.775;   43.525;    0.000
723.868; 5170.775;  142.525;    0.000
724.065; 5211.775;  102.525;    0.000
724.262; 5143.775;  119.525;    0.000
724.459; 5087.775;   73.525;    0.000
724.656; 5269.775;  128.525;    0.000
724.854; 5259.775;  135.525;    0.000
725.051; 5305.775;   81.525;    0.000
725.248; 5247.775;   88.525;    0.000
725.445; 5265.775;  129.525;    0.000
725.642; 5162.775;   76.525;    0.000
725.839; 5271.775;  134.525;    0.000
726.036; 5326.775;  101.525;    0.000
726.233; 5271.775;   68.525;    0.000
726.430; 5304.775;  121.525;    0.000
726.627; 5327.775;  136.525;    0.000
726.824; 5319.775;   87.525;    0.000
727.021; 5331.775;  141.525;    0.000
727.218; 5413.775;   92.525;    0.000
727.414; 5368.775;  121.525;    0.000
727.611; 5335.775;  100.525;    0.000
727.808; 5213.775;  130.525;    0.000
728.005; 5271.775;   83.525;    0.000
728.202; 5246.775;  120.525;    0.000
728.399; 5314.775;   75.525;    0.000
728.595; 5311.775;  148.525;    0.000
728.792; 5494.775;   79.525;    0.000
728.989; 5401.775;   86.525;    0.000
729.186; 5383.775;   80.525;    0.000
729.382; 5405.775;   72.525;    0.000
729.579; 5517.775;  112.525;    0.000
729.776; 5345.775;  106.525;    0.000
729.972; 5388.775;   77.525;    0.000
730.169; 5523.775;  118.525;    0.000
730.366; 5356.775;   92.525;    0.000
730.562; 5442.775;  104.525;    0.000
730.759; 5464.775;   95.525;    0.000
730.955; 5506.775;   85.525;    0.000
731.152; 5439.775;   79.525;    0.000
731.348; 5432.775;   72.525;    0.000
731.545; 5389.775;   56.525;    0.000
731.741; 5516.775;  106.525;    0.000
731.938; 5375.775;  113.525;    0.000
732.134; 5559.775;  106.525;    0.000
732.331; 5452.775;   82.525;    0.000
732.527; 5470.775;   80.525;    0.000
732.724; 5456.775;   97.525;    0.000
732.920; 5443.775;  127.525;    0.000
733.116; 5419.775;  115.525;    0.000
733.313; 5420.775;  153.525;    0.000
733.509; 5559.775;   76.525;    0.000
733.705; 5500.775;  159.525;    0.000
733.902; 5475.775;   82.525;    0.000
734.098; 5517.775;   70.525;    0.000
734.294; 5534.775;  105.525;    0.000
734.490; 5625.775;  110.525;    0.000
734.687; 5366.775;  102.525;    0.000
734.883; 5529.775;   77.525;    0.000
735.079; 5464.775;   93.525;    0.000
735.275; 5577.775;  109.525;    0.000
735.471; 5446.775;   99.525;    0.000
735.667; 5551.775;  107.525;    0.000
735.863; 5580.775;   89.525;    0.000
736.060; 5676.775;  105.525;    0.000
736.256; 5540.775;  113.525;    0.000
736.452; 5661.775;   90.525;    0.000
736.648; 5647.775;   88.525;    0.000
736.844; 5622.775;  129.525;    0.000
737.040; 5800.775;  139.525;    0.000
737.236; 5728.775;  129.525;    0.000
737.432; 5706.775;   67.525;    0.000
737.628; 5867.775;  104.525;    0.000
737.824; 5843.775;  111.525;    0.000
738.019; 5656.775;  116.525;    0.000
738.215; 5736.775;  135.525;    0.000
738.411; 5861.775;  118.525;    0.000
738.607; 5765.775;   58.525;    0.000
738.803; 5805.775;   32.525;    0.000
738.999; 5788.775;  120.525;    0.000
739.195; 5860.775;   76.525;    0.000
739.390; 5906.775;  119.525;    0.000
739.586; 5788.775;   83.525;    0.000
739.782; 5960.775;  134.525;    0.000
739.978; 6088.775;  122.525;    0.000
740.173; 5978.775;   96.525;    0.000
740.369; 5965.775;   86.525;    0.000
740.565; 6068.775;  122.525;    0.000
740.760; 6174.775;   99.525;    0.000
740.956; 6020.775;  137.525;    0.000
741.152; 6229.775;  108.525;    0.000
741.347; 6142.775;   65.525;    0.000
741.543; 6260.775;   73.525;    0.000
741.738; 6307.775;  142.525;    0.000
741.934; 6624.775;  131.525;    0.000
742.129; 7032.775;   66.525;    0.000
742.325; 7969.775;  143.525;    0.000
742.520; 8584.775;  119.525;    0.000
742.716; 8249.775;  109.525;    0.000
742.911; 7914.775;   62.525;    0.000
743.107; 7494.775;  119.525;    0.000
743.302; 7626.775;   78.525;    0.000
743.498; 7494.775;  130.525;    0.000
743.693; 7508.775;   75.525;    0.000
743.888; 8047.775;  135.525;    0.000
744.084; 9155.775;  106.525;    0.000
744.279;11309.775;  101.525;    0.000
744.474;11441.775;   91.525;    0.000
744.670;10342.775;  144.525;    0.000
744.865; 9535.775;  128.525;    0.000
745.060; 8767.775;   63.525;    0.000
745.255; 8718.775;  155.525;    0.000
745.451; 8126.775;  110.525;    0.000
745.646; 8211.775;  150.525;    0.000
745.841; 8159.775;  128.525;    0.000
746.036; 8157.775;  110.525;    0.000
746.231; 8401.775;  126.525;    0.000
746.426; 8743.775;   83.525;    0.000
746.622;10385.775;  157.525;    0.000
746.817;13615.775;  112.525;    0.000
747.012;15322.775;  115.525;    0.000
747.207;13360.775;  161.525;    0.000
747.402;12017.775;   88.525;    0.000
747.597;10828.775;  103.525;    0.000
747.792;10383.775;  152.525;    0.000
747.987; 9869.775;   80.525;    0.000
748.182; 9466.775;   89.525;    0.000
748.377; 9070.775;  104.525;    0.000
748.572; 8658.775;  138.525;    0.000
748.767; 8261.775;  100.525;    0.000
748.961; 8102.775;  106.525;    0.000
749.156; 7901.775;  113.525;    0.000
749.351; 7761.775;  116.525;    0.000
749.546; 7527.775;  107.525;    0.000
749.741; 7486.775;  102.525;    0.000
749.936; 7451.775;  105.525;    0.000
750.130; 7122.775;  111.525;    0.000
750.325; 7200.775;   72.525;    0.000
750.520; 7169.775;   96.525;    0.000
750.715; 6975.775;  135.525;    0.000
750.909; 7003.775;  107.525;    0.000
751.104; 6905.775;  106.525;    0.000
751.299; 6898.775;  144.525;    0.000
751.493; 6718.775;  116.525;    0.000
751.688; 6781.775;   96.525;    0.000
751.882; 6657.775;   92.525;    0.000
752.077; 6688.775;  109.525;    0.000
752.272; 6655.775;   96.525;    0.000
752.466; 6653.775;  110.525;    0.000
752.661; 6522.775;  120.525;    0.000
752.855; 6296.775;   70.525;    0.000
753.050; 6448.775;  129.525;    0.000
753.244; 6515.775;  126.525;    0.000
753.439; 6384.775;  115.525;    0.000
753.633; 6295.775;  120.525;    0.000
753.828; 6338.775;  129.525;    0.000
754.022; 6396.775;  139.525;    0.000
754.216; 6425.775;  121.525;    0.000
754.411; 6342.775;  108.525;    0.000
754.605; 6357.775;   94.525;    0.000
754.799; 6377.775;  125.525;    0.000
754.994; 6394.775;  160.525;    0.000
755.188; 6224.775;  151.525;    0.000
755.382; 6239.775;  102.525;    0.000
755.576; 6166.775;  103.525;    0.000
755.771; 6138.775;   99.525;    0.000
755.965; 6171.775;  158.525;    0.000
756.159; 6192.775;   96.525;    0.000
756.353; 6141.775;  157.525;    0.000
756.547; 6081.775;  132.525;    0.000
756.742; 6307.775;  106.525;    0.000
756.936; 6249.775;  113.525;    0.000
757.130; 6224.775;  114.525;    0.000
757.324; 6198.775;  111.525;    0.000
757.518; 6246.775;  142.525;    0.000
757.712; 6251.775;  137.525;    0.000
757.906; 6188.775;   93.525;    0.000
758.100; 6166.775;  119.525;    0.000
758.294; 6327.775;  132.525;    0.000
758.488; 6277.775;  153.525;    0.000
758.682; 6323.775;  101.525;    0.000
758.876; 6158.775;  129.525;    0.000
759.070; 6183.775;  168.525;    0.000
759.264; 6095.775;   96.525;    0.000
759.458; 6042.775;  117.525;    0.000
759.651; 6153.775;  135.525;    0.000
759.845; 6195.775;  127.525;    0.000
760.039; 6061.775;  120.525;    0.000
760.233; 6163.775;  124.525;    0.000
760.427; 6133.775;  115.525;    0.000
760.620; 6148.775;  130.525;    0.000
760.814; 6073.775;  102.525;    0.000
761.008; 6236.775;  174.525;    0.000
761.202; 6103.775;  132.525;    0.000
761.395; 6182.775;  126.525;    0.000
761.589; 6150.775;  133.525;    0.000
761.783; 6048.775;  147.525;    0.000
761.976; 6100.775;  147.525;    0.000
762.170; 6113.775;  174.525;    0.000
762.363; 6231.775;   97.525;    0.000
762.557; 6215.775;  141.525;    0.000
762.750; 6314.775;  112.525;    0.000
762.944; 6270.775;  110.525;    0.000
763.138; 6242.775;  125.525;    0.000
763.331; 6245.775;  101.525;    0.000
763.524; 6343.775;  101.525;    0.000
763.718; 6403.775;  156.525;    0.000
763.911; 6353.775;  143.525;    0.000
764.105; 6215.775;  139.525;    0.000
764.298; 6268.775;   89.525;    0.000
764.492; 6173.775;  111.525;    0.000
764.685; 6237.775;  136.525;    0.000
764.878; 6270.775;  146.525;    0.000
765.072; 6337.775;  110.525;    0.000
765.265; 6202.775;  141.525;    0.000
765.458; 6356.775;   82.525;    0.000
765.651; 6340.775;  144.525;    0.000
765.845; 6345.775;   79.525;    0.000
766.038; 6448.775;  123.525;    0.000
766.231; 6989.775;  125.525;    0.000
766.424; 9528.775;  131.525;    0.000
766.617; 9768.775;   62.525;    0.000
766.811; 6844.775;  142.525;    0.000
767.004; 6508.775;  134.525;    0.000
767.197; 6486.775;  147.525;    0.000
767.390; 6410.775;  100.525;    0.000
767.583; 6400.775;  121.525;    0.000
767.776; 6426.775;   91.525;    0.000
767.969; 6430.775;  113.525;    0.000
768.162; 6491.775;  170.525;    0.000
768.355; 6423.775;  134.525;    0.000
768.548; 6476.775;  177.525;    0.000
768.741; 6523.775;   96.525;    0.000
768.934; 6525.775;  143.525;    0.000
769.127; 6577.775;  147.525;    0.000
769.320; 6639.775;   93.525;    0.000
769.513; 6692.775;  137.525;    0.000
769.706; 7269.775;   96.525;    0.000
769.898; 9406.775;  118.525;    0.000
770.091; 7716.775;  138.525;    0.000
770.284; 6795.775;  133.525;    0.000
770.477; 6878.775;  137.525;    0.000
770.670; 6826.775;  124.525;    0.000
770.862; 6811.775;  125.525;    0.000
771.055; 6866.775;  135.525;    0.000
771.248; 6903.775;  109.525;    0.000
771.441; 7009.775;  141.525;    0.000
771.633; 7009.775;  142.525;    0.000
771.826; 7067.775;  123.525;    0.000
772.018; 7299.775;  136.525;    0.000
772.211; 7115.775;  145.525;    0.000
772.404; 7268.775;  127.525;    0.000
772.596; 7474.775;  193.525;    0.000
772.789; 7561.775;   64.525;    0.000
772.981; 7415.775;  142.525;    0.000
773.174; 7617.775;  105.525;    0.000
773.366; 7706.775;  166.525;    0.000
773.559; 7611.775;  125.525;    0.000
773.751; 7722.775;  126.525;    0.000
773.944; 7947.775;  147.525;    0.000
774.136; 8330.775;  155.525;    0.000
774.329; 8359.775;  127.525;    0.000
774.521; 8609.775;  133.525;    0.000
774.713; 8835.775;  139.525;    0.000
774.906; 9093.775;  170.525;    0.000
775.098; 9535.775;  144.525;    0.000
775.290; 9787.775;  162.525;    0.000
775.483;10246.775;  137.525;    0.000
775.675;10929.775;  148.525;    0.000
775.867;11616.775;   81.525;    0.000
776.059;12759.775;  134.525;    0.000
776.251;14117.775;  137.525;    0.000
776.444;15841.775;  155.525;    0.000
776.636;18436.775;  148.525;    0.000
776.828;22942.775;  129.525;    0.000
777.020;32773.773;  133.525;    0.000
777.212;49000.773;  137.525;    0.000
777.404;54272.773;  124.525;    0.000
777.596;50476.773;  142.525;    0.000
777.788;37247.773;  155.525;    0.000
777.980;28556.775;  119.525;    0.000
778.172;23338.775;  129.525;    0.000
778.364;19826.775;  122.525;    0.000
778.556;17506.775;  129.525;    0.000
778.748;15761.775;  178.525;    0.000
778.940;14258.775;  128.525;    0.000
779.132;13037.775;  145.525;    0.000
779.324;12013.775;   89.525;    0.000
779.516;11267.775;  161.525;    0.000
779.708;10688.775;  183.525;    0.000
779.900;10125.775;  124.525;    0.000
780.091; 9556.775;  143.525;    0.000
780.283; 9398.775;  135.525;    0.000
780.475; 9035.775;  129.525;    0.000
780.667; 8798.775;  178.525;    0.000
780.859; 8728.775;  146.525;    0.000
781.050; 8224.775;  156.525;    0.000
781.242; 8119.775;  138.525;    0.000
781.434; 8015.775;  117.525;    0.000
781.625; 7817.775;  161.525;    0.000
781.817; 7658.775;  127.525;    0.000
782.008; 7676.775;  138.525;    0.000
782.200; 7499.775;  139.525;    0.000
782.392; 7261.775;  179.525;    0.000
782.583; 7262.775;  137.525;    0.000
782.775; 7169.775;  162.525;    0.000
782.966; 7072.775;  159.525;    0.000
783.158; 7011.775;  118.525;    0.000
783.349; 7024.775;  160.525;    0.000
783.541; 6835.775;  139.525;    0.000
783.732; 6882.775;  145.525;    0.000
783.924; 6722.775;  146.525;    0.000
784.115; 6679.775;  125.525;    0.000
784.306; 6572.775;  118.525;    0.000
784.498; 6721.775;  144.525;    0.000
784.689; 6593.775;  145.525;    0.000
784.880; 6541.775;  137.525;    0.000
785.072; 6597.775;  157.525;    0.000
785.263; 6360.775;  149.525;    0.000
785.454; 6414.775;  128.525;    0.000
785.645; 6432.775;  131.525;    0.000
785.837; 6374.775;  137.525;    0.000
786.028; 6342.775;  161.525;    0.000
786.219; 6356.775;  155.525;    0.000
786.410; 6253.775;  146.525;    0.000
786.601; 6288.775;  120.525;    0.000
786.792; 6345.775;  179.525;    0.000
786.984; 6249.775;  113.525;    0.000
787.175; 6234.775;  156.525;    0.000
787.366; 6186.775;  131.525;    0.000
787.557; 6338.775;  138.525;    0.000
787.748; 6292.775;  112.525;    0.000
787.939; 6278.775;  115.525;    0.000
788.130; 6213.775;  150.525;    0.000
788.321; 6351.775;  122.525;    0.000
788.512; 6569.775;  147.525;    0.000
788.703; 6480.775;  126.525;    0.000
788.894; 6393.775;   80.525;    0.000
789.084; 6354.775;  127.525;    0.000
789.275; 6475.775;  141.525;    0.000
789.466; 6458.775;  108.525;    0.000
789.657; 6384.775;  137.525;    0.000
789.848; 6474.775;  126.525;    0.000
790.039; 6373.775;  144.525;    0.000
790.229; 6515.775;  105.525;    0.000
790.420; 6547.775;   96.525;    0.000
790.611; 6388.775;  171.525;    0.000
790.801; 6485.775;   89.525;    0.000
790.992; 6578.775;  140.525;    0.000
791.183; 6471.775;  143.525;    0.000
791.373; 6333.775;  128.525;    0.000
791.564; 6316.775;   96.525;    0.000
791.755; 6424.775;  111.525;    0.000
791.945; 6421.775;  112.525;    0.000
792.136; 6387.775;  124.525;    0.000
792.326; 6364.775;   88.525;    0.000
792.517; 6396.775;  130.525;    0.000
792.707; 6536.775;  144.525;    0.000
792.898; 6638.775;  120.525;    0.000
793.088; 6637.775;  106.525;    0.000
793.279; 6540.775;  104.525;    0.000
793.469; 6856.775;  103.525;    0.000
793.660; 6836.775;  120.525;    0.000
793.850; 7021.775;  106.525;    0.000
794.040; 7418.775;  135.525;    0.000
794.231; 7532.775;   80.525;    0.000
794.421; 8168.775;  120.525;    0.000
794.611; 8982.775;  154.525;    0.000
794.802;10450.775;  103.525;    0.000
794.992;11229.775;  120.525;    0.000
795.182;11418.775;  156.525;    0.000
795.372;10640.775;  104.525;    0.000
795.563; 9791.775;  153.525;    0.000
795.753; 8609.775;  112.525;    0.000
795.943; 8132.775;  128.525;    0.000
796.133; 7887.775;  128.525;    0.000
796.323; 7548.775;  152.525;    0.000
796.513; 7231.775;  123.525;    0.000
796.703; 7002.775;  134.525;    0.000
796.893; 6856.775;  120.525;    0.000
797.083; 6609.775;  136.525;    0.000
797.273; 6622.775;  128.525;    0.000
797.463; 6499.775;  140.525;    0.000
797.653; 6229.775;   75.525;    0.000
797.843; 6314.775;  114.525;    0.000
798.033; 6094.775;   90.525;    0.000
798.223; 6077.775;  136.525;    0.000
798.413; 6007.775;  164.525;    0.000
798.603; 6026.775;  150.525;    0.000
798.793; 5915.775;  137.525;    0.000
798.983; 5737.775;  119.525;    0.000
799.172; 5730.775;  136.525;    0.000
799.362; 5755.775;  138.525;    0.000
799.552; 5805.775;  123.525;    0.000
799.742; 5681.775;  117.525;    0.000
799.932; 5620.775;  108.525;    0.000
800.121; 5711.775;  152.525;    0.000
800.311; 5695.775;  117.525;    0.000
800.501; 5590.775;  100.525;    0.000
800.690; 5580.775;  139.525;    0.000
800.880; 5510.775;  138.525;    0.000
801.070; 5595.775;  120.525;    0.000
801.259; 5557.775;  143.525;    0.000
801.449; 5423.775;  110.525;    0.000
801.638; 5540.775;  140.525;    0.000
801.828; 5419.775;  103.525;    0.000
802.017; 5419.775;   78.525;    0.000
802.207; 5514.775;  126.525;    0.000
802.396; 5407.775;  151.525;    0.000
802.586; 5298.775;  106.525;    0.000
802.775; 5359.775;  152.525;    0.000
802.965; 5193.775;  117.525;    0.000
803.154; 5305.775;  171.525;    0.000
803.343; 5203.775;  126.525;    0.000
803.533; 5299.775;  135.525;    0.000
803.722; 5231.775;  144.525;    0.000
803.911; 5296.775;  109.525;    0.000
804.101; 5156.775;  146.525;    0.000
804.290; 5305.775;  115.525;    0.000
804.479; 5237.775;  128.525;    0.000
804.668; 5157.775;  156.525;    0.000
804.857; 5128.775;  151.525;    0.000
805.047; 5142.775;  131.525;    0.000
805.236; 5218.775;  144.525;    0.000
805.425; 5254.775;  160.525;    0.000
805.614; 5098.775;  112.525;    0.000
805.803; 5124.775;  120.525;    0.000
805.992; 5165.775;  148.525;    0.000
806.181; 5231.775;  108.525;    0.000
806.370; 5185.775;  142.525;    0.000
806.559; 5255.775;  116.525;    0.000
806.748; 5162.775;  108.525;    0.000
806.937; 5282.775;  110.525;    0.000
807.126; 5161.775;  126.525;    0.000
807.315; 5236.775;  121.525;    0.000
807.504; 5199.775;  102.525;    0.000
807.693; 5197.775;  134.525;    0.000
807.882; 5177.775;  135.525;    0.000
808.071; 5056.775;  135.525;    0.000
808.260; 5168.775;   93.525;    0.000
808.448; 5229.775;  151.525;    0.000
808.637; 5162.775;  105.525;    0.000
808.826; 5210.775;  178.525;    0.000
809.015; 5210.775;  152.525;    0.000
809.203; 5336.775;  147.525;    0.000
809.392; 5308.775;  144.525;    0.000
809.581; 5345.775;  167.525;    0.000
809.770; 5151.775;  151.525;    0.000
809.958; 5169.775;  128.525;    0.000
810.147; 5184.775;  152.525;    0.000
810.335; 5450.775;  160.525;    0.000
810.524; 5318.775;  130.525;    0.000
810.713; 5377.775;  128.525;    0.000
810.901; 5358.775;  140.525;    0.000
811.090; 5484.775;  152.525;    0.000
811.278; 5497.775;  126.525;    0.000
811.467; 5753.775;  161.525;    0.000
811.655; 5886.775;  184.525;    0.000
811.844; 5747.775;  148.525;    0.000
812.032; 5722.775;  138.525;    0.000
812.220; 5620.775;  157.525;    0.000
812.409; 5506.775;  143.525;    0.000
812.597; 5655.775;  124.525;    0.000
812.785; 5737.775;  170.525;    0.000
812.974; 5649.775;  135.525;    0.000
813.162; 5664.775;  135.525;    0.000
813.350; 5725.775;  182.525;    0.000
813.539; 5769.775;  126.525;    0.000
813.727; 5796.775;  127.525;    0.000
813.915; 5724.775;  140.525;    0.000
814.103; 5810.775;  176.525;    0.000
814.291; 5770.775;  115.525;    0.000
814.479; 5818.775;  119.525;    0.000
814.668; 5908.775;  134.525;    0.000
814.856; 6166.775;  120.525;    0.000
815.044; 6171.775;  164.525;    0.000
815.232; 6201.775;  146.525;    0.000
815.420; 6311.775;  154.525;    0.000
815.608; 6280.775;  137.525;    0.000
815.796; 6349.775;  108.525;    0.000
815.984; 6429.775;  134.525;    0.000
816.172; 6684.775;  123.525;    0.000
816.360; 6901.775;  181.525;    0.000
816.548; 7134.775;  139.525;    0.000
816.736; 7238.775;  138.525;    0.000
816.924; 7638.775;  151.525;    0.000
817.111; 7912.775;  156.525;    0.000
817.299; 8316.775;  147.525;    0.000
817.487; 8971.775;  188.525;    0.000
817.675; 9687.775;  129.525;    0.000
817.863;11171.775;  128.525;    0.000
818.050;14722.775;  110.525;    0.000
818.238;26180.775;  166.525;    0.000
818.426;37389.773;  136.525;    0.000
818.613;26517.775;  143.525;    0.000
818.801;22681.775;  150.525;    0.000
818.989;21519.775;  179.525;    0.000
819.176;22246.775;  123.525;    0.000
819.364;32146.775;  148.525;    0.000
819.552;46322.773;   86.525;    0.000
819.739;31956.775;  169.525;    0.000
819.927;22843.775;  130.525;    0.000
820.114;19365.775;  144.525;    0.000
820.302;17291.775;  166.525;    0.000
820.489;15703.775;  145.525;    0.000
820.677;14860.775;  101.525;    0.000
820.864;14473.775;  149.525;    0.000
821.052;15028.775;  130.525;    0.000
821.239;15781.775;  147.525;    0.000
821.426;16537.775;  121.525;    0.000
821.614;20654.775;  187.525;    0.000
821.801;22296.775;  105.525;    0.000
821.988;19024.775;  167.525;    0.000
822.176;18014.775;  130.525;    0.000
822.363;18760.775;  143.525;    0.000
822.550;17173.775;  108.525;    0.000
822.737;15092.775;  109.525;    0.000
822.924;14010.775;  156.525;    0.000
823.112;13077.775;  123.525;    0.000
823.299;12224.775;  128.525;    0.000
823.486;11652.775;  138.525;    0.000
823.673;11006.775;  125.525;    0.000
823.860;10689.775;  138.525;    0.000
824.047;10954.775;  122.525;    0.000
824.234;12464.775;  134.525;    0.000
824.421;12508.775;   95.525;    0.000
824.608;11115.775;  151.525;    0.000
824.795; 9926.775;  117.525;    0.000
824.982; 9293.775;  143.525;    0.000
825.169; 8648.775;   83.525;    0.000
825.356; 8286.775;  126.525;    0.000
825.543; 7739.775;   92.525;    0.000
825.730; 7321.775;  113.525;    0.000
825.917; 7210.775;  142.525;    0.000
826.104; 6954.775;  182.525;    0.000
826.290; 6887.775;  137.525;    0.000
826.477; 6511.775;  126.525;    0.000
826.664; 6482.775;  135.525;    0.000
826.851; 6241.775;  139.525;    0.000
827.038; 6137.775;  135.525;    0.000
827.224; 6107.775;  143.525;    0.000
827.411; 5983.775;  153.525;    0.000
827.598; 5777.775;  122.525;    0.000
827.784; 5780.775;  138.525;    0.000
827.971; 5650.775;  134.525;    0.000
828.157; 5473.775;  152.525;    0.000
828.344; 5373.775;  135.525;    0.000
828.531; 5398.775;  137.525;    0.000
828.717; 5298.775;  117.525;    0.000
828.904; 5249.775;  127.525;    0.000
829.090; 5258.775;  172.525;    0.000
829.277; 5140.775;  144.525;    0.000
829.463; 5115.775;  159.525;    0.000
829.650; 5077.775;  187.525;    0.000
829.836; 4930.775;  138.525;    0.000
830.022; 4975.775;  196.525;    0.000
830.209; 4946.775;  118.525;    0.000
830.395; 4881.775;  148.525;    0.000
830.581; 4686.775;  108.525;    0.000
830.768; 4799.775;  137.525;    0.000
830.954; 4673.775;  162.525;    0.000
831.140; 4569.775;  117.525;    0.000
831.327; 4674.775;  176.525;    0.000
831.513; 4597.775;  162.525;    0.000
831.699; 4631.775;  157.525;    0.000
831.885; 4536.775;  153.525;    0.000
832.071; 4422.775;  123.525;    0.000
832.257; 4427.775;  142.525;    0.000
832.444; 4494.775;  165.525;    0.000
832.630; 4479.775;  159.525;    0.000
832.816; 4492.775;  145.525;    0.000
833.002; 4347.775;  120.525;    0.000
833.188; 4399.775;  145.525;    0.000
833.374; 4265.775;  137.525;    0.000
833.560; 4305.775;  152.525;    0.000
833.746; 4308.775;  139.525;    0.000
833.932; 4241.775;  170.525;    0.000
834.118; 4235.775;  111.525;    0.000
834.303; 4176.775;  141.525;    0.000
834.489; 4148.775;  146.525;    0.000
834.675; 4214.775;  156.525;    0.000
834.861; 4170.775;   87.525;    0.000
835.047; 4099.775;  134.525;    0.000
835.233; 4092.775;   89.525;    0.000
835.418; 4274.775;  145.525;    0.000
835.604; 4083.775;  136.525;    0.000
835.790; 3977.775;  132.525;    0.000
835.976; 3997.775;  161.525;    0.000
836.161; 4168.775;  157.525;    0.000
836.347; 4051.775;  147.525;    0.000
836.533; 4017.775;  116.525;    0.000
836.718; 4042.775;  168.525;    0.000
836.904; 4064.775;  199.525;    0.000
837.089; 4042.775;  165.525;    0.000
837.275; 4079.775;  166.525;    0.000
837.460; 4006.775;  144.525;    0.000
837.646; 4049.775;  164.525;    0.000
837.831; 4008.775;  122.525;    0.000
838.017; 4027.775;  163.525;    0.000
838.202; 3885.775;  139.525;    0.000
838.388; 3991.775;  174.525;    0.000
838.573; 3990.775;  140.525;    0.000
838.759; 4074.775;  167.525;    0.000
838.944; 4053.775;  142.525;    0.000
839.129; 4044.775;  164.525;    0.000
839.315; 3989.775;  129.525;    0.000
839.500; 3959.775;  150.525;    0.000
839.685; 3895.775;  118.525;    0.000
839.870; 3834.775;  177.525;    0.000
840.056; 3984.775;  144.525;    0.000
840.241; 4064.775;  121.525;    0.000
840.426; 4109.775;  131.525;    0.000
840.611; 4239.775;  177.525;    0.000
840.796; 4093.775;  173.525;    0.000
840.981; 4208.775;  156.525;    0.000
841.166; 4136.775;  145.525;    0.000
841.352; 4310.775;  150.525;    0.000
841.537; 4201.775;  143.525;    0.000
841.722; 4148.775;  165.525;    0.000
841.907; 4296.775;  184.525;    0.000
842.092; 4362.775;  171.525;    0.000
842.277; 4475.775;  155.525;    0.000
842.461; 4468.775;  152.525;    0.000
842.646; 4666.775;  107.525;    0.000
842.831; 4744.775;  160.525;    0.000
843.016; 4861.775;  160.525;    0.000
843.201; 4957.775;  164.525;    0.000
843.386; 5260.775;  134.525;    0.000
843.571; 5449.775;  132.525;    0.000
843.755; 5752.775;  158.525;    0.000
843.940; 6192.775;  152.525;    0.000
844.125; 7032.775;  154.525;    0.000
844.310; 8152.775;  147.525;    0.000
844.494;11024.775;  158.525;    0.000
844.679;15584.775;  173.525;    0.000
844.864;15078.775;  152.525;    0.000
845.048;12094.775;  139.525;    0.000
845.233;10140.775;  200.525;    0.000
845.418; 8788.775;  139.525;    0.000
845.602; 7614.775;  147.525;    0.000
845.787; 6983.775;  148.525;    0.000
845.971; 6373.775;  170.525;    0.000
846.156; 6012.775;  136.525;    0.000
846.340; 5804.775;  146.525;    0.000
846.525; 5335.775;  188.525;    0.000
846.709; 5127.775;  128.525;    0.000
846.893; 5044.775;  151.525;    0.000
847.078; 4646.775;  164.525;    0.000
847.262; 4544.775;  155.525;    0.000
847.447; 4395.775;  114.525;    0.000
847.631; 4411.775;  148.525;    0.000
847.815; 4346.775;  114.525;    0.000
848.000; 4143.775;  134.525;    0.000
848.184; 4218.775;  154.525;    0.000
848.368; 4063.775;  145.525;    0.000
848.552; 4023.775;  122.525;    0.000
848.736; 3963.775;  139.525;    0.000
848.921; 4061.775;  143.525;    0.000
849.105; 3961.775;  145.525;    0.000
849.289; 3919.775;  173.525;    0.000
849.473; 3829.775;  147.525;    0.000
849.657; 3743.775;  144.525;    0.000
849.841; 3812.775;  168.525;    0.000
850.025; 3814.775;  205.525;    0.000
850.209; 3661.775;  171.525;    0.000
850.393; 3648.775;  130.525;    0.000
850.577; 3581.775;  146.525;    0.000
850.761; 3580.775;  188.525;    0.000
850.945; 3579.775;  137.525;    0.000
851.129; 3650.775;  192.525;    0.000
851.313; 3496.775;  199.525;    0.000
851.497; 3504.775;  165.525;    0.000
851.680; 3554.775;  196.525;    0.000
851.864; 3473.775;  169.525;    0.000
852.048; 3547.775;  156.525;    0.000
852.232; 3530.775;  150.525;    0.000
852.416; 3602.775;  219.525;    0.000
852.599; 3563.775;  168.525;    0.000
852.783; 3534.775;  165.525;    0.000
852.967; 3481.775;  166.525;    0.000
853.150; 3521.775;  191.525;    0.000
853.334; 3375.775;  158.525;    0.000
853.518; 3411.775;  168.525;    0.000
853.701; 3361.775;  125.525;    0.000
853.885; 3404.775;  165.525;    0.000
854.068; 3468.775;  142.525;    0.000
854.252; 3417.775;  167.525;    0.000
854.435; 3395.775;  146.525;    0.000
854.619; 3364.775;  163.525;    0.000
854.802; 3338.775;  167.525;    0.000
854.986; 3340.775;  163.525;    0.000
855.169; 3388.775;  146.525;    0.000
855.353; 3479.775;  183.525;    0.000
855.536; 3524.775;  140.525;    0.000
855.719; 3479.775;  168.525;    0.000
855.903; 3586.775;  170.525;    0.000
856.086; 3460.775;  145.525;    0.000
856.269; 3455.775;  126.525;    0.000
856.452; 3500.775;  142.525;    0.000
856.636; 3759.775;  140.525;    0.000
856.819; 4059.775;  127.525;    0.000
857.002; 4184.775;  165.525;    0.000
857.185; 4037.775;  111.525;    0.000
857.368; 3850.775;  143.525;    0.000
857.552; 3785.775;  174.525;    0.000
857.735; 3739.775;  194.525;    0.000
857.918; 3824.775;  171.525;    0.000
858.101; 3692.775;  142.525;    0.000
858.284; 3771.775;  118.525;    0.000
858.467; 3840.775;  163.525;    0.000
858.650; 3871.775;  149.525;    0.000
858.833; 3904.775;  120.525;    0.000
859.016; 4052.775;  169.525;    0.000
859.199; 4159.775;  121.525;    0.000
859.382; 4690.775;  184.525;    0.000
859.564; 5083.775;  139.525;    0.000
859.747; 4956.775;  126.525;    0.000
859.930; 4602.775;  109.525;    0.000
860.113; 4451.775;  137.525;    0.000
860.296; 4455.775;  182.525;    0.000
860.478; 4261.775;  136.525;    0.000
860.661; 4156.775;  157.525;    0.000
860.844; 4191.775;  129.525;    0.000
861.027; 4039.775;  163.525;    0.000
861.209; 4105.775;  151.525;    0.000
861.392; 4122.775;  124.525;    0.000
861.575; 4194.775;  163.525;    0.000
861.757; 4193.775;  205.525;    0.000
861.940; 4341.775;  180.525;    0.000
862.122; 4334.775;  148.525;    0.000
862.305; 4327.775;  128.525;    0.000
862.487; 4547.775;  172.525;    0.000
862.670; 5108.775;  123.525;    0.000
862.852; 6052.775;  126.525;    0.000
863.035; 7403.775;  174.525;    0.000
863.217; 7291.775;  160.525;    0.000
863.400; 6529.775;  164.525;    0.000
863.582; 6104.775;  118.525;    0.000
863.764; 5616.775;  143.525;    0.000
863.947; 5543.775;  137.525;    0.000
864.129; 5143.775;  166.525;    0.000
864.311; 5012.775;  128.525;    0.000
864.493; 4784.775;  153.525;    0.000
864.676; 4800.775;  156.525;    0.000
864.858; 4843.775;  159.525;    0.000
865.040; 4865.775;  163.525;    0.000
865.222; 4838.775;  138.525;    0.000
865.404; 4874.775;  157.525;    0.000
865.587; 5298.775;  184.525;    0.000
865.769; 5471.775;  178.525;    0.000
865.951; 5336.775;  104.525;    0.000
866.133; 5371.775;  147.525;    0.000
866.315; 5341.775;  141.525;    0.000
866.497; 5377.775;  132.525;    0.000
866.679; 5565.775;  139.525;    0.000
866.861; 5640.775;  118.525;    0.000
867.043; 6051.775;  154.525;    0.000
867.225; 6500.775;  147.525;    0.000
867.407; 7062.775;  158.525;    0.000
867.589; 8020.775;  172.525;    0.000
867.770; 9908.775;  159.525;    0.000
867.952;14013.775;  149.525;    0.000
868.134;18556.775;  156.525;    0.000
868.316;18379.775;  171.525;    0.000
868.498;17572.775;  200.525;    0.000
868.679;15132.775;  174.525;    0.000
868.861;12480.775;  175.525;    0.000
869.043;10522.775;  174.525;    0.000
869.224; 9225.775;  122.525;    0.000
869.406; 8186.775;  166.525;    0.000
869.588; 7764.775;  143.525;    0.000
869.769; 7190.775;  152.525;    0.000
869.951; 6953.775;  165.525;    0.000
870.132; 7122.775;  115.525;    0.000
870.314; 7925.775;  139.525;    0.000
870.495; 8242.775;  168.525;    0.000
870.677; 7489.775;  188.525;    0.000
870.858; 7110.775;  123.525;    0.000
871.040; 7513.775;  170.525;    0.000
871.221; 8430.775;  148.525;    0.000
871.403; 8113.775;  140.525;    0.000
871.584; 7224.775;  174.525;    0.000
871.765; 7351.775;  168.525;    0.000
871.947; 7900.775;  191.525;    0.000
872.128; 7095.775;  132.525;    0.000
872.309; 6200.775;  140.525;    0.000
872.491; 5722.775;  157.525;    0.000
872.672; 5387.775;  130.525;    0.000
872.853; 5164.775;  148.525;    0.000
873.034; 5101.775;  138.525;    0.000
873.215; 4806.775;  152.525;    0.000
873.396; 4365.775;  149.525;    0.000
873.578; 4249.775;  173.525;    0.000
873.759; 4176.775;  158.525;    0.000
873.940; 3996.775;  147.525;    0.000
874.121; 3893.775;  136.525;    0.000
874.302; 3848.775;  151.525;    0.000
874.483; 3800.775;  137.525;    0.000
874.664; 3872.775;  163.525;    0.000
874.845; 3752.775;  124.525;    0.000
875.026; 3700.775;  134.525;    0.000
875.207; 3632.775;  164.525;    0.000
875.388; 3436.775;  163.525;    0.000
875.568; 3446.775;  176.525;    0.000
875.749; 3418.775;  108.525;    0.000
875.930; 3382.775;  191.525;    0.000
876.111; 3288.775;  170.525;    0.000
876.292; 3288.775;  180.525;    0.000
876.472; 3257.775;  150.525;    0.000
876.653; 3239.775;  162.525;    0.000
876.834; 3195.775;  176.525;    0.000
877.015; 3152.775;  203.525;    0.000
877.195; 3070.775;  178.525;    0.000
877.376; 3110.775;  141.525;    0.000
877.556; 3055.775;  135.525;    0.000
877.737; 3165.775;  174.525;    0.000
877.918; 3046.775;  150.525;    0.000
878.098; 2991.775;  133.525;    0.000
878.279; 3043.775;  129.525;    0.000
878.459; 3031.775;  162.525;    0.000
878.640; 2974.775;  187.525;    0.000
878.820; 2911.775;  151.525;    0.000
879.000; 2947.775;  159.525;    0.000
879.181; 2887.775;  171.525;    0.000
879.361; 3011.775;  167.525;    0.000
879.542; 2861.775;  126.525;    0.000
879.722; 2857.775;  152.525;    0.000
879.902; 2849.775;  144.525;    0.000
880.083; 2925.775;  154.525;    0.000
880.263; 2921.775;  148.525;    0.000
880.443; 3180.775;  185.525;    0.000
880.623; 3624.775;  172.525;    0.000
880.803; 3976.775;  152.525;    0.000
880.984; 3526.775;  165.525;    0.000
881.164; 3250.775;  164.525;    0.000
881.344; 3034.775;  141.525;    0.000
881.524; 3148.775;  160.525;    0.000
881.704; 3148.775;  164.525;    0.000
881.884; 3299.775;  159.525;    0.000
882.064; 3467.775;  158.525;    0.000
882.244; 3489.775;  147.525;    0.000
882.424; 3290.775;  160.525;    0.000
882.604; 3218.775;  150.525;    0.000
882.784; 3115.775;  138.525;    0.000
882.964; 2943.775;  157.525;    0.000
883.144; 2914.775;  128.525;    0.000
883.324; 2971.775;  220.525;    0.000
883.504; 2865.775;  177.525;    0.000
883.683; 2817.775;  159.525;    0.000
883.863; 2837.775;  143.525;    0.000
884.043; 2687.775;  156.525;    0.000
884.223; 2739.775;  152.525;    0.000
884.402; 2726.775;  169.525;    0.000
884.582; 2678.775;  162.525;    0.000
884.762; 2658.775;  172.525;    0.000
884.941; 2649.775;  220.525;    0.000
885.121; 2645.775;  128.525;    0.000
885.301; 2605.775;  141.525;    0.000
885.480; 2593.775;  141.525;    0.000
885.660; 2633.775;  132.525;    0.000
885.839; 2602.775;  146.525;    0.000
886.019; 2664.775;  170.525;    0.000
886.198; 2610.775;  143.525;    0.000
886.378; 2566.775;  159.525;    0.000
886.557; 2546.775;  148.525;    0.000
886.737; 2589.775;  125.525;    0.000
886.916; 2598.775;  177.525;    0.000
887.095; 2567.775;  186.525;    0.000
887.275; 2515.775;  134.525;    0.000
887.454; 2569.775;  148.525;    0.000
887.633; 2508.775;  171.525;    0.000
887.813; 2529.775;  187.525;    0.000
887.992; 2541.775;  157.525;    0.000
888.171; 2521.775;  143.525;    0.000
888.350; 2608.775;  182.525;    0.000
888.530; 2538.775;  142.525;    0.000
888.709; 2494.775;  160.525;    0.000
888.888; 2416.775;  197.525;    0.000
889.067; 2472.775;  126.525;    0.000
889.246; 2500.775;  197.525;    0.000
889.425; 2559.775;  161.525;    0.000
889.604; 2519.775;  180.525;    0.000
889.783; 2460.775;  135.525;    0.000
889.962; 2434.775;  107.525;    0.000
890.141; 2488.775;  167.525;    0.000
890.320; 2475.775;  149.525;    0.000
890.499; 2553.775;  194.525;    0.000
890.678; 2412.775;  138.525;    0.000
890.857; 2455.775;  146.525;    0.000
891.036; 2494.775;  178.525;    0.000
891.214; 2449.775;  151.525;    0.000
891.393; 2452.775;  137.525;    0.000
891.572; 2456.775;  177.525;    0.000
891.751; 2453.775;  149.525;    0.000
891.930; 2391.775;  189.525;    0.000
892.108; 2446.775;  136.525;    0.000
892.287; 2434.775;  129.525;    0.000
892.466; 2448.775;  163.525;    0.000
892.644; 2412.775;  147.525;    0.000
892.823; 2467.775;  127.525;    0.000
893.001; 2369.775;  192.525;    0.000
893.180; 2433.775;  157.525;    0.000
893.359; 2412.775;  176.525;    0.000
893.537; 2528.775;  146.525;    0.000
893.716; 2499.775;  154.525;    0.000
893.894; 2494.775;  166.525;    0.000
894.073; 2488.775;  163.525;    0.000
894.251; 2380.775;  166.525;    0.000
894.429; 2508.775;  149.525;    0.000
894.608; 2531.775;  141.525;    0.000
894.786; 2471.775;  139.525;    0.000
894.964; 2504.775;  180.525;    0.000
895.143; 2450.775;  193.525;    0.000
895.321; 2532.775;  163.525;    0.000
895.499; 2405.775;  163.525;    0.000
895.677; 2439.775;  194.525;    0.000
895.856; 2544.775;  176.525;    0.000
896.034; 2469.775;  173.525;    0.000
896.212; 2492.775;  180.525;    0.000
896.390; 2440.775;  146.525;    0.000
896.568; 2465.775;  167.525;    0.000
896.746; 2490.775;  158.525;    0.000
896.924; 2482.775;  163.525;    0.000
897.102; 2446.775;  170.525;    0.000
897.280; 2452.775;  159.525;    0.000
897.458; 2514.775;  182.525;    0.000
897.636; 2521.775;  151.525;    0.000
897.814; 2425.775;  130.525;    0.000
897.992; 2639.775;  213.525;    0.000
898.170; 2568.775;  164.525;    0.000
898.348; 2497.775;  159.525;    0.000
898.526; 2588.775;  182.525;    0.000
898.704; 2572.775;  209.525;    0.000
898.882; 2503.775;  145.525;    0.000
899.059; 2530.775;  172.525;    0.000
899.237; 2532.775;  172.525;    0.000
899.415; 2594.775;  211.525;    0.000
899.593; 2502.775;  151.525;    0.000
899.770; 2555.775;  147.525;    0.000
899.948; 2595.775;  218.525;    0.000
900.125; 2580.775;  166.525;    0.000
900.303; 2619.775;  146.525;    0.000
900.481; 2659.775;  174.525;    0.000
900.658; 2645.775;  198.525;    0.000
900.836; 2685.775;  125.525;    0.000
901.013; 2656.775;  197.525;    0.000
901.191; 2757.775;  181.525;    0.000
901.368; 2791.775;  185.525;    0.000
901.546; 2792.775;  197.525;    0.000
901.723; 2854.775;  205.525;    0.000
901.901; 2874.775;  187.525;    0.000
902.078; 2950.775;  163.525;    0.000
902.255; 2979.775;  141.525;    0.000
902.433; 2968.775;  183.525;    0.000
902.610; 3095.775;  181.525;    0.000
902.787; 3085.775;  174.525;    0.000
902.964; 3133.775;  174.525;    0.000
903.142; 3251.775;  141.525;    0.000
903.319; 3278.775;  214.525;    0.000
903.496; 3303.775;  187.525;    0.000
903.673; 3468.775;  183.525;    0.000
903.850; 3418.775;  125.525;    0.000
904.027; 3505.775;  197.525;    0.000
904.204; 3691.775;  197.525;    0.000
904.381; 4143.775;  196.525;    0.000
904.558; 4886.775;  176.525;    0.000
904.735; 5377.775;  179.525;    0.000
904.912; 5368.775;  203.525;    0.000
905.089; 5383.775;  159.525;    0.000
905.266; 5001.775;  176.525;    0.000
905.443; 4587.775;  184.525;    0.000
905.620; 4232.775;  168.525;    0.000
905.797; 4034.775;  214.525;    0.000
905.974; 3873.775;  154.525;    0.000
906.151; 3938.775;  132.525;    0.000
906.327; 3845.775;  192.525;    0.000
906.504; 3754.775;  186.525;    0.000
906.681; 3597.775;  171.525;    0.000
906.858; 3534.775;  181.525;    0.000
907.034; 3375.775;  164.525;    0.000
907.211; 3416.775;  184.525;    0.000
907.388; 3273.775;  177.525;    0.000
907.564; 3160.775;  150.525;    0.000
907.741; 3235.775;  195.525;    0.000
907.917; 3125.775;  190.525;    0.000
908.094; 3108.775;  214.525;    0.000
908.271; 3010.775;  173.525;    0.000
908.447; 3028.775;  229.525;    0.000
908.623; 2977.775;  162.525;    0.000
908.800; 2996.775;  195.525;    0.000
908.976; 2926.775;  171.525;    0.000
909.153; 2835.775;  167.525;    0.000
909.329; 2836.775;  227.525;    0.000
909.505; 2752.775;  167.525;    0.000
909.682; 2816.775;  174.525;    0.000
909.858; 2701.775;  158.525;    0.000
910.034; 2765.775;  188.525;    0.000
910.211; 2748.775;  158.525;    0.000
910.387; 2712.775;  208.525;    0.000
910.563; 2740.775;  203.525;    0.000
910.739; 2632.775;  201.525;    0.000
910.915; 2670.775;  170.525;    0.000
911.091; 2646.775;  171.525;    0.000
911.268; 2660.775;  220.525;    0.000
911.444; 2648.775;  202.525;    0.000
911.620; 2520.775;  175.525;    0.000
911.796; 2615.775;  175.525;    0.000
911.972; 2619.775;  164.525;    0.000
912.148; 2674.775;  174.525;    0.000
912.324; 2690.775;  155.525;    0.000
912.500; 2658.775;  156.525;    0.000
912.676; 2581.775;  138.525;    0.000
912.851; 2629.775;  158.525;    0.000
913.027; 2549.775;  161.525;    0.000
913.203; 2655.775;  168.525;    0.000
913.379; 2621.775;  172.525;    0.000
913.555; 2524.775;  193.525;    0.000
913.730; 2670.775;  149.525;    0.000
913.906; 2570.775;  159.525;    0.000
914.082; 2663.775;  184.525;    0.000
914.258; 2550.775;  194.525;    0.000
914.433; 2498.775;  175.525;    0.000
914.609; 2663.775;  175.525;    0.000
914.784; 2629.775;  170.525;    0.000
914.960; 2565.775;  212.525;    0.000
915.136; 2567.775;  157.525;    0.000
915.311; 2613.775;  204.525;    0.000
915.487; 2537.775;  180.525;    0.000
915.662; 2736.775;  203.525;    0.000
915.838; 2672.775;  194.525;    0.000
916.013; 2673.775;  217.525;    0.000
916.189; 2646.775;  196.525;    0.000
916.364; 2654.775;  236.525;    0.000
916.539; 2568.775;  192.525;    0.000
916.715; 2604.775;  181.525;    0.000
916.890; 2608.775;  185.525;    0.000
917.065; 2577.775;  166.525;    0.000
917.240; 2619.775;  182.525;    0.000
917.416; 2678.775;  188.525;    0.000
917.591; 2662.775;  185.525;    0.000
917.766; 2516.775;  187.525;    0.000
917.941; 2576.775;  181.525;    0.000
918.116; 2571.775;  207.525;    0.000
918.292; 2631.775;  140.525;    0.000
918.467; 2615.775;  187.525;    0.000
918.642; 2632.775;  208.525;    0.000
918.817; 2644.775;  203.525;    0.000
918.992; 2607.775;  162.525;    0.000
919.167; 2623.775;  206.525;    0.000
919.342; 2643.775;  188.525;    0.000
919.517; 2752.775;  190.525;    0.000
919.692; 2710.775;  174.525;    0.000
919.867; 2771.775;  181.525;    0.000
920.041; 2653.775;  179.525;    0.000
920.216; 2853.775;  186.525;    0.000
920.391; 2782.775;  209.525;    0.000
920.566; 2865.775;  205.525;    0.000
920.741; 2881.775;  205.525;    0.000
920.915; 2954.775;  206.525;    0.000
921.090; 3200.775;  219.525;    0.000
921.265; 3641.775;  185.525;    0.000
921.439; 4084.775;  171.525;    0.000
921.614; 3604.775;  197.525;    0.000
921.789; 3465.775;  189.525;    0.000
921.963; 3354.775;  210.525;    0.000
922.138; 3168.775;  171.525;    0.000
922.312; 3096.775;  194.525;    0.000
922.487; 3148.775;  231.525;    0.000
922.661; 3132.775;  179.525;    0.000
922.836; 3587.775;  213.525;    0.000
923.010; 3588.775;  182.525;    0.000
923.185; 3324.775;  239.525;    0.000
923.359; 3244.775;  200.525;    0.000
923.534; 3282.775;  232.525;    0.000
923.708; 3243.775;  221.525;    0.000
923.882; 3486.775;  193.525;    0.000
924.057; 3316.775;  204.525;    0.000
924.231; 3266.775;  172.525;    0.000
924.405; 3215.775;  202.525;    0.000
924.579; 3187.775;  207.525;    0.000
924.753; 3083.775;  167.525;    0.000
924.928; 3014.775;  202.525;    0.000
925.102; 3147.775;  200.525;    0.000
925.276; 3189.775;  185.525;    0.000
925.450; 3135.775;  170.525;    0.000
925.624; 3303.775;  176.525;    0.000
925.798; 3285.775;  221.525;    0.000
925.972; 3527.775;  162.525;    0.000
926.146; 3782.775;  207.525;    0.000
926.320; 4045.775;  185.525;    0.000
926.494; 4403.775;  192.525;    0.000
926.668; 4660.775;  179.525;    0.000
926.842; 4827.775;  181.525;    0.000
927.016; 4803.775;  224.525;    0.000
927.190; 4640.775;  193.525;    0.000
927.363; 4429.775;  194.525;    0.000
927.537; 4336.775;  210.525;    0.000
927.711; 4229.775;  153.525;    0.000
927.885; 4233.775;  184.525;    0.000
928.058; 4042.775;  197.525;    0.000
928.232; 4082.775;  219.525;    0.000
928.406; 3824.775;  175.525;    0.000
928.579; 3754.775;  179.525;    0.000
928.753; 3666.775;  208.525;    0.000
928.927; 3651.775;  163.525;    0.000
929.100; 3553.775;  138.525;    0.000
929.274; 3546.775;  160.525;    0.000
929.447; 3335.775;  152.525;    0.000
929.621; 3355.775;  168.525;    0.000
929.794; 3303.775;  152.525;    0.000
929.968; 3298.775;  163.525;    0.000
930.141; 3099.775;  164.525;    0.000
930.315; 3199.775;  170.525;    0.000
930.488; 3137.775;  216.525;    0.000
930.661; 3001.775;  184.525;    0.000
930.835; 3047.775;  156.525;    0.000
931.008; 3007.775;  206.525;    0.000
931.181; 2889.775;  163.525;    0.000
931.354; 2960.775;  198.525;    0.000
931.528; 2894.775;  156.525;    0.000
931.701; 2767.775;  170.525;    0.000
931.874; 2749.775;  167.525;    0.000
932.047; 2800.775;  146.525;    0.000
932.220; 2886.775;  159.525;    0.000
932.393; 2739.775;  186.525;    0.000
932.566; 2767.775;  147.525;    0.000
932.739; 2684.775;  192.525;    0.000
932.912; 2660.775;  197.525;    0.000
933.085; 2775.775;  176.525;    0.000
933.258; 2671.775;  171.525;    0.000
933.431; 2673.775;  150.525;    0.000
933.604; 2662.775;  176.525;    0.000
933.777; 2598.775;  215.525;    0.000
933.950; 2563.775;  164.525;    0.000
934.123; 2539.775;  174.525;    0.000
934.296; 2572.775;  203.525;    0.000
934.468; 2597.775;  208.525;    0.000
934.641; 2603.775;  182.525;    0.000
934.814; 2525.775;  170.525;    0.000
934.987; 2591.775;  183.525;    0.000
935.159; 2496.775;  154.525;    0.000
935.332; 2626.775;  178.525;    0.000
935.505; 2529.775;  213.525;    0.000
935.677; 2506.775;  173.525;    0.000
935.850; 2425.775;  190.525;    0.000
936.022; 2530.775;  205.525;    0.000
936.195; 2553.775;  201.525;    0.000
936.367; 2632.775;  189.525;    0.000
936.540; 2605.775;  179.525;    0.000
936.712; 2612.775;  195.525;    0.000
936.885; 2667.775;  207.525;    0.000
937.057; 2592.775;  163.525;    0.000
937.229; 2714.775;  175.525;    0.000
937.402; 2698.775;  168.525;    0.000
937.574; 2762.775;  136.525;    0.000
937.746; 2925.775;  166.525;    0.000
937.919; 2938.775;  178.525;    0.000
938.091; 3105.775;  192.525;    0.000
938.263; 3213.775;  164.525;    0.000
938.435; 3535.775;  204.525;    0.000
938.608; 4226.775;  153.525;    0.000
938.780; 4981.775;  159.525;    0.000
938.952; 5116.775;  160.525;    0.000
939.124; 5160.775;  156.525;    0.000
939.296; 6057.775;  110.525;    0.000
939.468; 6197.775;  135.525;    0.000
939.640; 5500.775;  144.525;    0.000
939.812; 4828.775;  232.525;    0.000
939.984; 4284.775;  128.525;    0.000
940.156; 3974.775;  195.525;    0.000
940.328; 3708.775;  226.525;    0.000
940.500; 3514.775;  146.525;    0.000
940.672; 3408.775;  190.525;    0.000
940.843; 3086.775;  156.525;    0.000
941.015; 3165.775;  200.525;    0.000
941.187; 3034.775;  159.525;    0.000
941.359; 2961.775;  183.525;    0.000
941.531; 2920.775;  137.525;    0.000
941.702; 2879.775;  186.525;    0.000
941.874; 2840.775;  164.525;    0.000
942.046; 2751.775;  202.525;    0.000
942.217; 2698.775;  146.525;    0.000
942.389; 2752.775;  165.525;    0.000
942.560; 2631.775;  191.525;    0.000
942.732; 2516.775;  240.525;    0.000
942.904; 2453.775;  173.525;    0.000
943.075; 2343.775;  157.525;    0.000
943.247; 2402.775;  155.525;    0.000
943.418; 2431.775;  164.525;    0.000
943.589; 2446.775;  150.525;    0.000
943.761; 2426.775;  143.525;    0.000
943.932; 2461.775;  151.525;    0.000
944.104; 2411.775;  194.525;    0.000
944.275; 2349.775;  154.525;    0.000
944.446; 2329.775;  169.525;    0.000
944.617; 2313.775;  138.525;    0.000
944.789; 2324.775;  158.525;    0.000
944.960; 2257.775;  197.525;    0.000
945.131; 2236.775;  139.525;    0.000
945.302; 2334.775;  169.525;    0.000
945.473; 2266.775;  149.525;    0.000
945.645; 2314.775;  171.525;    0.000
945.816; 2348.775;  167.525;    0.000
945.987; 2422.775;  156.525;    0.000
946.158; 2451.775;  185.525;    0.000
946.329; 2451.775;  201.525;    0.000
946.500; 2413.775;  182.525;    0.000
946.671; 2370.775;  156.525;    0.000
946.842; 2259.775;  190.525;    0.000
947.013; 2137.775;  159.525;    0.000
947.183; 2229.775;  209.525;    0.000
947.354; 2150.775;  171.525;    0.000
947.525; 2155.775;  180.525;    0.000
947.696; 2093.775;  163.525;    0.000
947.867; 2262.775;  168.525;    0.000
948.037; 2120.775;  153.525;    0.000
948.208; 2231.775;  178.525;    0.000
948.379; 2169.775;  192.525;    0.000
948.550; 2226.775;  180.525;    0.000
948.720; 2155.775;  196.525;    0.000
948.891; 2166.775;  173.525;    0.000
949.061; 2081.775;  207.525;    0.000
949.232; 2008.775;  176.525;    0.000
949.403; 2057.775;  152.525;    0.000
949.573; 1997.775;  186.525;    0.000
949.744; 2091.775;  181.525;    0.000
949.914; 2026.775;  174.525;    0.000
950.085; 2052.775;  146.525;    0.000
950.255; 2064.775;  162.525;    0.000
950.425; 2114.775;  189.525;    0.000
950.596; 2171.775;  175.525;    0.000
950.766; 2075.775;  209.525;    0.000
950.936; 2120.775;  201.525;    0.000
951.107; 2026.775;  141.525;    0.000
951.277; 2073.775;  211.525;    0.000
951.447; 2095.775;  218.525;    0.000
951.617; 2131.775;  191.525;    0.000
951.788; 2016.775;  193.525;    0.000
951.958; 2081.775;  217.525;    0.000
952.128; 2020.775;  192.525;    0.000
952.298; 2049.775;  237.525;    0.000
952.468; 2047.775;  194.525;    0.000
952.638; 2080.775;  201.525;    0.000
952.808; 2004.775;  203.525;    0.000
952.978; 2024.775;  216.525;    0.000
953.148; 1936.775;  209.525;    0.000
953.318; 1991.775;  213.525;    0.000
953.488; 1884.775;  161.525;    0.000
953.658; 1872.775;  222.525;    0.000
953.828; 1902.775;  196.525;    0.000
953.998; 1932.775;  227.525;    0.000
954.167; 1955.775;  163.525;    0.000
954.337; 2000.775;  201.525;    0.000
954.507; 1940.775;  227.525;    0.000
954.677; 1913.775;  204.525;    0.000
954.846; 1970.775;  210.525;    0.000
955.016; 1889.775;  198.525;    0.000
955.186; 1852.775;  203.525;    0.000
955.355; 1974.775;  198.525;    0.000
955.525; 1898.775;  198.525;    0.000
955.695; 1901.775;  187.525;    0.000
955.864; 1884.775;  243.525;    0.000
956.034; 1826.775;  192.525;    0.000
956.203; 1897.775;  259.525;    0.000
956.373; 1807.775;  185.525;    0.000
956.542; 1882.775;  230.525;    0.000
956.711; 1912.775;  218.525;    0.000
956.881; 1811.775;  232.525;    0.000
957.050; 1864.775;  246.525;    0.000
957.220; 1847.775;  229.525;    0.000
957.389; 1847.775;  211.525;    0.000
957.558; 1778.775;  173.525;    0.000
957.727; 1819.775;  226.525;    0.000
957.897; 1760.775;  209.525;    0.000
958.066; 1769.775;  217.525;    0.000
958.235; 1751.775;  160.525;    0.000
958.404; 1841.775;  199.525;    0.000
958.573; 1897.775;  223.525;    0.000
958.743; 1738.775;  189.525;    0.000
958.912; 1738.775;  199.525;    0.000
959.081; 1807.775;  216.525;    0.000
959.250; 1752.775;  192.525;    0.000
959.419; 1754.775;  216.525;    0.000
959.588; 1753.775;  209.525;    0.000
959.757; 1751.775;  194.525;    0.000
959.926; 1699.775;  200.525;    0.000
960.094; 1724.775;  174.525;    0.000
960.263; 1683.775;  218.525;    0.000
960.432; 1742.775;  173.525;    0.000
960.601; 1751.775;  177.525;    0.000
960.770; 1737.775;  188.525;    0.000
960.939; 1668.775;  167.525;    0.000
961.107; 1703.775;  195.525;    0.000
961.276; 1701.775;  183.525;    0.000
961.445; 1751.775;  195.525;    0.000
961.613; 1740.775;  198.525;    0.000
961.782; 1724.775;  224.525;    0.000
961.951; 1663.775;  178.525;    0.000
962.119; 1706.775;  214.525;    0.000
962.288; 1659.775;  174.525;    0.000
962.456; 1670.775;  197.525;    0.000
962.625; 1712.775;  212.525;    0.000
962.793; 1681.775;  183.525;    0.000
962.962; 1589.775;  189.525;    0.000
963.130; 1643.775;  151.525;    0.000
963.298; 1677.775;  197.525;    0.000
963.467; 1668.775;  202.525;    0.000
963.635; 1658.775;  172.525;    0.000
963.803; 1682.775;  203.525;    0.000
963.972; 1711.775;  204.525;    0.000
964.140; 1662.775;  193.525;    0.000
964.308; 1668.775;  159.525;    0.000
964.477; 1657.775;  142.525;    0.000
964.645; 1641.775;  202.525;    0.000
964.813; 1715.775;  158.525;    0.000
964.981; 1683.775;  179.525;    0.000
965.149; 1736.775;  176.525;    0.000
965.317; 1676.775;  229.525;    0.000
965.485; 1698.775;  179.525;    0.000
965.653; 1687.775;  205.525;    0.000
965.821; 1613.775;  196.525;    0.000
965.989; 1680.775;  202.525;    0.000
966.157; 1658.775;  199.525;    0.000
966.325; 1685.775;  178.525;    0.000
966.493; 1637.775;  177.525;    0.000
966.661; 1632.775;  172.525;    0.000
966.829; 1652.775;  167.525;    0.000
966.996; 1623.775;  202.525;    0.000
967.164; 1658.775;  175.525;    0.000
967.332; 1694.775;  207.525;    0.000
967.500; 1636.775;  170.525;    0.000
967.667; 1576.775;  222.525;    0.000
967.835; 1647.775;  245.525;    0.000
968.003; 1685.775;  180.525;    0.000
968.170; 1705.775;  222.525;    0.000
968.338; 1736.775;  183.525;    0.000
968.505; 1680.775;  197.525;    0.000
968.673; 1737.775;  209.525;    0.000
968.841; 1578.775;  162.525;    0.000
969.008; 1644.775;  187.525;    0.000
969.175; 1578.775;  204.525;    0.000
969.343; 1676.775;  157.525;    0.000
969.510; 1698.775;  189.525;    0.000
969.678; 1665.775;  153.525;    0.000
969.845; 1702.775;  190.525;    0.000
970.012; 1707.775;  162.525;    0.000
970.180; 1638.775;  223.525;    0.000
970.347; 1689.775;  195.525;    0.000
970.514; 1634.775;  185.525;    0.000
970.681; 1585.775;  187.525;    0.000
970.849; 1613.775;  183.525;    0.000
971.016; 1677.775;  168.525;    0.000
971.183; 1564.775;  160.525;    0.000
971.350; 1669.775;  193.525;    0.000
971.517; 1630.775;  202.525;    0.000
971.684; 1598.775;  242.525;    0.000
971.851; 1714.775;  192.525;    0.000
972.018; 1640.775;  194.525;    0.000
972.185; 1658.775;  193.525;    0.000
972.352; 1671.775;  187.525;    0.000
972.519; 1689.775;  233.525;    0.000
972.686; 1615.775;  186.525;    0.000
972.853; 1612.775;  165.525;    0.000
973.020; 1609.775;  183.525;    0.000
973.186; 1649.775;  186.525;    0.000
973.353; 1608.775;  177.525;    0.000
973.520; 1629.775;  203.525;    0.000
973.687; 1610.775;  211.525;    0.000
973.853; 1616.775;  194.525;    0.000
974.020; 1676.775;  201.525;    0.000
974.187; 1622.775;  187.525;    0.000
974.353; 1660.775;  188.525;    0.000
974.520; 1611.775;  136.525;    0.000
974.687; 1636.775;  169.525;    0.000
974.853; 1646.775;  207.525;    0.000
975.020; 1555.775;  190.525;    0.000
975.186; 1644.775;  182.525;    0.000
975.353; 1565.775;  202.525;    0.000
975.519; 1588.775;  189.525;    0.000
975.685; 1589.775;  176.525;    0.000
975.852; 1631.775;  175.525;    0.000
976.018; 1642.775;  155.525;    0.000
976.184; 1598.775;  179.525;    0.000
976.351; 1550.775;  191.525;    0.000
976.517; 1580.775;  246.525;    0.000
976.683; 1591.775;  222.525;    0.000
976.849; 1529.775;  216.525;    0.000
977.016; 1587.775;  212.525;    0.000
977.182; 1575.775;  192.525;    0.000
977.348; 1496.775;  145.525;    0.000
977.514; 1595.775;  195.525;    0.000
977.680; 1578.775;  210.525;    0.000
977.846; 1583.775;  172.525;    0.000
978.012; 1595.775;  190.525;    0.000
978.178; 1544.775;  201.525;    0.000
978.344; 1529.775;  190.525;    0.000
978.510; 1545.775;  199.525;    0.000
978.676; 1535.775;  174.525;    0.000
978.842; 1599.775;  195.525;    0.000
979.008; 1584.775;  205.525;    0.000
979.174; 1628.775;  187.525;    0.000
979.340; 1626.775;  194.525;    0.000
979.505; 1545.775;  221.525;    0.000
979.671; 1557.775;  178.525;    0.000
979.837; 1656.775;  215.525;    0.000
980.003; 1522.775;  176.525;    0.000
980.168; 1581.775;  185.525;    0.000
980.334; 1586.775;  165.525;    0.000
980.499; 1576.775;  231.525;    0.000
980.665; 1596.775;  238.525;    0.000
980.831; 1551.775;  194.525;    0.000
980.996; 1574.775;  169.525;    0.000
981.162; 1635.775;  199.525;    0.000
981.327; 1602.775;  158.525;    0.000
981.493; 1580.775;  193.525;    0.000
981.658; 1539.775;  181.525;    0.000
981.823; 1637.775;  199.525;    0.000
981.989; 1633.775;  186.525;    0.000
982.154; 1661.775;  225.525;    0.000
982.319; 1644.775;  191.525;    0.000
982.485; 1597.775;  205.525;    0.000
982.650; 1698.775;  234.525;    0.000
982.815; 1600.775;  193.525;    0.000
982.980; 1670.775;  177.525;    0.000
983.146; 1602.775;  212.525;    0.000
983.311; 1630.775;  177.525;    0.000
983.476; 1633.775;  185.525;    0.000
983.641; 1584.775;  149.525;    0.000
983.806; 1563.775;  175.525;    0.000
983.971; 1645.775;  234.525;    0.000
984.136; 1653.775;  191.525;    0.000
984.301; 1546.775;  215.525;    0.000
984.466; 1570.775;  207.525;    0.000
984.631; 1605.775;  206.525;    0.000
984.796; 1632.775;  229.525;    0.000
984.961; 1590.775;  220.525;    0.000
985.126; 1573.775;  204.525;    0.000
985.291; 1599.775;  210.525;    0.000
985.455; 1572.775;  193.525;    0.000
985.620; 1582.775;  207.525;    0.000
985.785; 1541.775;  188.525;    0.000
985.950; 1554.775;  168.525;    0.000
986.114; 1639.775;  239.525;    0.000
986.279; 1648.775;  223.525;    0.000
986.444; 1679.775;  154.525;    0.000
986.608; 1688.775;  232.525;    0.000
986.773; 1631.775;  214.525;    0.000
986.937; 1693.775;  220.525;    0.000
987.102; 1620.775;  224.525;    0.000
987.266; 1577.775;  157.525;    0.000
987.431; 1666.775;  246.525;    0.000
987.595; 1567.775;  203.525;    0.000
987.760; 1610.775;  202.525;    0.000
987.924; 1626.775;  208.525;    0.000
988.088; 1576.775;  169.525;    0.000
988.253; 1591.775;  237.525;    0.000
988.417; 1593.775;  202.525;    0.000
988.581; 1583.775;  215.525;    0.000
988.746; 1563.775;  210.525;    0.000
988.910; 1572.775;  191.525;    0.000
989.074; 1549.775;  197.525;    0.000
989.238; 1524.775;  191.525;    0.000
989.402; 1533.775;  222.525;    0.000
989.566; 1553.775;  221.525;    0.000
989.731; 1522.775;  216.525;    0.000
989.895; 1570.775;  183.525;    0.000
990.059; 1558.775;  150.525;    0.000
990.223; 1520.775;  183.525;    0.000
990.387; 1536.775;  241.525;    0.000
990.551; 1493.775;  198.525;    0.000
990.714; 1551.775;  176.525;    0.000
990.878; 1505.775;  203.525;    0.000
991.042; 1488.775;  146.525;    0.000
991.206; 1492.775;  199.525;    0.000
991.370; 1488.775;  223.525;    0.000
991.534; 1491.775;  158.525;    0.000
991.697; 1508.775;  182.525;    0.000
991.861; 1510.775;  195.525;    0.000
992.025; 1580.775;  206.525;    0.000
992.188; 1536.775;  174.525;    0.000
992.352; 1519.775;  183.525;    0.000
992.516; 1542.775;  181.525;    0.000
992.679; 1497.775;  162.525;    0.000
992.843; 1484.775;  173.525;    0.000
993.006; 1522.775;  189.525;    0.000
993.170; 1579.775;  200.525;    0.000
993.333; 1473.775;  167.525;    0.000
993.497; 1436.775;  217.525;    0.000
993.660; 1524.775;  179.525;    0.000
993.824; 1469.775;  195.525;    0.000
993.987; 1505.775;  186.525;    0.000
994.150; 1488.775;  164.525;    0.000
994.314; 1476.775;  215.525;    0.000
994.477; 1482.775;  186.525;    0.000
994.640; 1546.775;  192.525;    0.000
994.803; 1596.775;  215.525;    0.000
994.967; 1518.775;  208.525;    0.000
995.130; 1496.775;  196.525;    0.000
995.293; 1503.775;  221.525;    0.000
995.456; 1513.775;  164.525;    0.000
995.619; 1472.775;  224.525;    0.000
995.782; 1467.775;  184.525;    0.000
995.945; 1474.775;  220.525;    0.000
996.108; 1509.775;  187.525;    0.000
996.271; 1502.775;  192.525;    0.000
996.434; 1444.775;  162.525;    0.000
996.597; 1463.775;  148.525;    0.000
996.760; 1481.775;  186.525;    0.000
996.923; 1434.775;  154.525;    0.000
997.086; 1477.775;  156.525;    0.000
997.248; 1460.775;  215.525;    0.000
997.411; 1467.775;  160.525;    0.000
997.574; 1478.775;  159.525;    0.000
997.737; 1415.775;  179.525;    0.000
997.899; 1422.775;  184.525;    0.000
998.062; 1480.775;  180.525;    0.000
998.225; 1421.775;  168.525;    0.000
998.387; 1395.775;  192.525;    0.000
998.550; 1443.775;  178.525;    0.000
998.712; 1421.775;  192.525;    0.000
998.875; 1460.775;  230.525;    0.000
999.037; 1468.775;  200.525;    0.000
999.200; 1491.775;  196.525;    0.000
999.362; 1447.775;  173.525;    0.000
999.525; 1444.775;  196.525;    0.000
999.687; 1378.775;  159.525;    0.000
999.849; 1482.775;  180.525;    0.000
1000.012; 1417.775;  210.525;    0.000
1000.174; 1449.775;  175.525;    0.000
1000.336; 1472.775;  174.525;    0.000
1000.499; 1481.775;  180.525;    0.000
1000.661; 1441.775;  204.525;    0.000
1000.823; 1418.775;  181.525;    0.000
1000.985; 1478.775;  178.525;    0.000
1001.147; 1544.775;  215.525;    0.000
1001.309; 1488.775;  212.525;    0.000
1001.471; 1538.775;  192.525;    0.000
1001.633; 1545.775;  207.525;    0.000
1001.796; 1497.775;  211.525;    0.000
1001.958; 1578.775;  200.525;    0.000
1002.119; 1532.775;  210.525;    0.000
1002.281; 1599.775;  204.525;    0.000
1002.443; 1660.775;  230.525;    0.000
1002.605; 1688.775;  178.525;    0.000
1002.767; 1733.775;  228.525;    0.000
1002.929; 1756.775;  199.525;    0.000
1003.091; 1895.775;  220.525;    0.000
1003.252; 1926.775;  219.525;    0.000
1003.414; 1994.775;  213.525;    0.000
1003.576; 2082.775;  202.525;    0.000
1003.738; 2124.775;  184.525;    0.000
1003.899; 2225.775;  218.525;    0.000
1004.061; 2307.775;  210.525;    0.000
1004.222; 2335.775;  179.525;    0.000
1004.384; 2401.775;  183.525;    0.000
1004.546; 2456.775;  206.525;    0.000
1004.707; 2478.775;  191.525;    0.000
1004.869; 2449.775;  197.525;    0.000
1005.030; 2403.775;  186.525;    0.000
1005.191; 2358.775;  188.525;    0.000
1005.353; 2334.775;  215.525;    0.000
1005.514; 2131.775;  184.525;    0.000
1005.675; 2154.775;  209.525;    0.000
1005.837; 2045.775;  239.525;    0.000
1005.998; 2021.775;  218.525;    0.000
1006.159; 2023.775;  212.525;    0.000
1006.321; 2077.775;  220.525;    0.000
1006.482; 2307.775;  201.525;    0.000
1006.643; 2188.775;  222.525;    0.000
1006.804; 2300.775;  191.525;    0.000
1006.965; 2329.775;  214.525;    0.000
1007.126; 2362.775;  214.525;    0.000
1007.287; 2413.775;  243.525;    0.000
1007.448; 2296.775;  251.525;    0.000
1007.609; 2242.775;  244.525;    0.000
1007.770; 2196.775;  211.525;    0.000
1007.931; 2223.775;  225.525;    0.000
1008.092; 2316.775;  188.525;    0.000
1008.253; 2394.775;  224.525;    0.000
1008.414; 2403.775;  198.525;    0.000
1008.575; 2376.775;  244.525;    0.000
1008.736; 2379.775;  219.525;    0.000
1008.896; 2340.775;  206.525;    0.000
1009.057; 2291.775;  258.525;    0.000
1009.218; 2331.775;  209.525;    0.000
1009.379; 2348.775;  204.525;    0.000
1009.539; 2525.775;  242.525;    0.000
1009.700; 2486.775;  205.525;    0.000
1009.860; 2531.775;  211.525;    0.000
1010.021; 2493.775;  219.525;    0.000
1010.182; 2500.775;  206.525;    0.000
1010.342; 2502.775;  219.525;    0.000
1010.503; 2641.775;  231.525;    0.000
1010.663; 2761.775;  260.525;    0.000
1010.823; 2698.775;  200.525;    0.000
1010.984; 2926.775;  189.525;    0.000
1011.144; 2943.775;  234.525;    0.000
1011.305; 3014.775;  212.525;    0.000
1011.465; 3136.775;  202.525;    0.000
1011.625; 3257.775;  236.525;    0.000
1011.785; 3369.775;  203.525;    0.000
1011.946; 3311.775;  195.525;    0.000
1012.106; 3147.775;  176.525;    0.000
1012.266; 3102.775;  211.525;    0.000
1012.426; 3136.775;  244.525;    0.000
1012.586; 3088.775;  202.525;    0.000
1012.746; 3047.775;  234.525;    0.000
1012.906; 3027.775;  246.525;    0.000
1013.066; 3125.775;  232.525;    0.000
1013.226; 3014.775;  248.525;    0.000
1013.386; 2992.775;  231.525;    0.000
1013.546; 2875.775;  233.525;    0.000
1013.706; 2761.775;  211.525;    0.000
1013.866; 2834.775;  240.525;    0.000
1014.026; 2975.775;  188.525;    0.000
1014.186; 2778.775;  186.525;    0.000
1014.346; 2839.775;  203.525;    0.000
1014.505; 2972.775;  238.525;    0.000
1014.665; 3013.775;  206.525;    0.000
1014.825; 2915.775;  200.525;    0.000
1014.985; 2917.775;  215.525;    0.000
1015.144; 3033.775;  250.525;    0.000
1015.304; 3036.775;  195.525;    0.000
1015.464; 2988.775;  237.525;    0.000
1015.623; 2921.775;  232.525;    0.000
1015.783; 3264.775;  220.525;    0.000
1015.942; 3368.775;  219.525;    0.000
1016.102; 3244.775;  202.525;    0.000
1016.261; 3206.775;  225.525;    0.000
1016.420; 3500.775;  246.525;    0.000
1016.580; 3722.775;  226.525;    0.000
1016.739; 3658.775;  214.525;    0.000
1016.899; 3512.775;  205.525;    0.000
1017.058; 3749.775;  217.525;    0.000
1017.217; 3860.775;  199.525;    0.000
1017.376; 3593.775;  219.525;    0.000
1017.536; 3263.775;  209.525;    0.000
1017.695; 3476.775;  213.525;    0.000
1017.854; 3350.775;  187.525;    0.000
1018.013; 3352.775;  222.525;    0.000
1018.172; 3216.775;  204.525;    0.000
1018.331; 3223.775;  195.525;    0.000
1018.490; 3574.775;  213.525;    0.000
1018.649; 3551.775;  216.525;    0.000
1018.808; 3624.775;  227.525;    0.000
1018.967; 3638.775;  206.525;    0.000
1019.126; 3559.775;  206.525;    0.000
1019.285; 3711.775;  219.525;    0.000
1019.444; 3667.775;  218.525;    0.000
1019.603; 3402.775;  206.525;    0.000
1019.762; 3301.775;  189.525;    0.000
1019.921; 3455.775;  217.525;    0.000
1020.079; 3773.775;  200.525;    0.000
1020.238; 3839.775;  219.525;    0.000
1020.397; 3635.775;  227.525;    0.000
1020.555; 3440.775;  207.525;    0.000
1020.714; 3585.775;  253.525;    0.000
1020.873; 3870.775;  230.525;    0.000
1021.031; 3813.775;  232.525;    0.000
1021.190; 3555.775;  226.525;    0.000
1021.348; 3388.775;  224.525;    0.000
1021.507; 3836.775;  215.525;    0.000
1021.665; 4059.775;  233.525;    0.000
1021.824; 3710.775;  196.525;    0.000
1021.982; 3429.775;  215.525;    0.000
1022.141; 3572.775;  200.525;    0.000
1022.299; 3980.775;  200.525;    0.000
1022.457; 4151.775;  179.525;    0.000
1022.616; 3755.775;  226.525;    0.000
1022.774; 3428.775;  216.525;    0.000
1022.932; 3606.775;  212.525;    0.000
1023.090; 4114.775;  220.525;    0.000
1023.249; 4217.775;  194.525;    0.000
1023.407; 3851.775;  227.525;    0.000
1023.565; 3536.775;  190.525;    0.000
1023.723; 3697.775;  190.525;    0.000
1023.881; 4103.775;  214.525;    0.000
1024.039; 4186.775;  179.525;    0.000
1024.197; 3945.775;  274.525;    0.000
1024.355; 3630.775;  269.525;    0.000
1024.513; 3802.775;  259.525;    0.000
1024.671; 4225.775;  211.525;    0.000
1024.829; 4257.775;  230.525;    0.000
1024.987; 4126.775;  239.525;    0.000
1025.145; 3663.775;  231.525;    0.000
1025.302; 3917.775;  212.525;    0.000
1025.460; 4150.775;  224.525;    0.000
1025.618; 4352.775;  217.525;    0.000
1025.776; 4073.775;  232.525;    0.000
1025.933; 3729.775;  212.525;    0.000
1026.091; 3812.775;  214.525;    0.000
1026.249; 4203.775;  224.525;    0.000
1026.406; 4366.775;  219.525;    0.000
1026.564; 4250.775;  262.525;    0.000
1026.721; 3950.775;  206.525;    0.000
1026.879; 3818.775;  227.525;    0.000
1027.036; 4165.775;  234.525;    0.000
1027.194; 4303.775;  256.525;    0.000
1027.351; 4427.775;  229.525;    0.000
1027.509; 4105.775;  253.525;    0.000
1027.666; 3991.775;  248.525;    0.000
1027.823; 4378.775;  215.525;    0.000
1027.981; 4395.775;  248.525;    0.000
1028.138; 4467.775;  257.525;    0.000
1028.295; 4160.775;  215.525;    0.000
1028.452; 4015.775;  236.525;    0.000
1028.609; 4085.775;  240.525;    0.000
1028.767; 4451.775;  258.525;    0.000
1028.924; 4479.775;  211.525;    0.000
1029.081; 4396.775;  226.525;    0.000
1029.238; 4259.775;  228.525;    0.000
1029.395; 4120.775;  264.525;    0.000
1029.552; 4359.775;  227.525;    0.000
1029.709; 4601.775;  232.525;    0.000
1029.866; 4744.775;  223.525;    0.000
1030.023; 4381.775;  220.525;    0.000
1030.180; 3990.775;  222.525;    0.000
1030.337; 4231.775;  224.525;    0.000
1030.494; 4376.775;  228.525;    0.000
1030.650; 4642.775;  242.525;    0.000
1030.807; 4746.775;  214.525;    0.000
1030.964; 4495.775;  207.525;    0.000
1031.121; 4259.775;  236.525;    0.000
1031.277; 4198.775;  206.525;    0.000
1031.434; 4561.775;  249.525;    0.000
1031.591; 4991.775;  253.525;    0.000
1031.747; 4893.775;  240.525;    0.000
1031.904; 4679.775;  212.525;    0.000
1032.060; 4477.775;  185.525;    0.000
1032.217; 4408.775;  201.525;    0.000
1032.373; 4907.775;  207.525;    0.000
1032.530; 5066.775;  226.525;    0.000
1032.686; 5755.775;  226.525;    0.000
1032.843; 5544.775;  203.525;    0.000
1032.999; 5176.775;  233.525;    0.000
1033.155; 5317.775;  232.525;    0.000
1033.312; 5367.775;  239.525;    0.000
1033.468; 6413.775;  207.525;    0.000
1033.624; 6660.775;  238.525;    0.000
1033.780; 6928.775;  255.525;    0.000
1033.937; 6666.775;  188.525;    0.000
1034.093; 6183.775;  244.525;    0.000
1034.249; 6222.775;  182.525;    0.000
1034.405; 6424.775;  251.525;    0.000
1034.561; 6990.775;  250.525;    0.000
1034.717; 7231.775;  208.525;    0.000
1034.873; 7025.775;  210.525;    0.000
1035.029; 7147.775;  245.525;    0.000
1035.185; 6592.775;  230.525;    0.000
1035.341; 6537.775;  209.525;    0.000
1035.497; 7093.775;  244.525;    0.000
1035.653; 7366.775;  229.525;    0.000
1035.809; 8047.775;  275.525;    0.000
1035.964; 8376.775;  203.525;    0.000
1036.120; 7988.775;  215.525;    0.000
1036.276; 8204.775;  228.525;    0.000
1036.432; 7781.775;  183.525;    0.000
1036.587; 7553.775;  214.525;    0.000
1036.743; 8260.775;  240.525;    0.000
1036.899; 8546.775;  202.525;    0.000
1037.054; 8766.775;  182.525;    0.000
1037.210; 9640.775;  228.525;    0.000
1037.365; 9552.775;  239.525;    0.000
1037.521; 8884.775;  230.525;    0.000
1037.676; 8729.775;  217.525;    0.000
1037.832; 8433.775;  235.525;    0.000
1037.987; 8618.775;  210.525;    0.000
1038.143; 8694.775;  206.525;    0.000
1038.298; 9606.775;  177.525;    0.000
1038.453; 9782.775;  215.525;    0.000
1038.609;10496.775;  210.525;    0.000
1038.764;10635.775;  227.525;    0.000
1038.919; 9637.775;  197.525;    0.000
1039.074; 9873.775;  183.525;    0.000
1039.229; 9305.775;  218.525;    0.000
1039.385; 9450.775;  251.525;    0.000
1039.540; 9669.775;  222.525;    0.000
1039.695;10396.775;  215.525;    0.000
1039.850;11170.775;  204.525;    0.000
1040.005;11834.775;  241.525;    0.000
1040.160;12371.775;  180.525;    0.000
1040.315;12208.775;  197.525;    0.000
1040.470;11428.775;  180.525;    0.000
1040.625;11123.775;  196.525;    0.000
1040.780;10869.775;  245.525;    0.000
1040.935;10805.775;  204.525;    0.000
1041.089;11362.775;  213.525;    0.000
1041.244;13210.775;  200.525;    0.000
1041.399;13741.775;  212.525;    0.000
1041.554;14352.775;  239.525;    0.000
1041.708;15548.775;  238.525;    0.000
1041.863;15827.775;  213.525;    0.000
1042.018;14733.775;  236.525;    0.000
1042.172;14098.775;  238.525;    0.000
1042.327;13312.775;  254.525;    0.000
1042.481;13506.775;  197.525;    0.000
1042.636;13605.775;  205.525;    0.000
1042.791;13860.775;  218.525;    0.000
1042.945;16959.775;  261.525;    0.000
1043.099;18074.775;  201.525;    0.000
1043.254;17563.775;  191.525;    0.000
1043.408;18592.775;  279.525;    0.000
1043.563;19456.775;  203.525;    0.000
1043.717;18437.775;  229.525;    0.000
1043.871;17621.775;  213.525;    0.000
1044.025;17279.775;  240.525;    0.000
1044.180;16566.775;  220.525;    0.000
1044.334;17402.775;  268.525;    0.000
1044.488;17714.775;  261.525;    0.000
1044.642;18700.775;  205.525;    0.000
1044.796;20283.775;  240.525;    0.000
1044.950;22793.775;  258.525;    0.000
1045.104;24681.775;  218.525;    0.000
1045.258;24621.775;  213.525;    0.000
1045.412;23742.775;  223.525;    0.000
1045.566;23853.775;  240.525;    0.000
1045.720;23096.775;  235.525;    0.000
1045.874;21132.775;  221.525;    0.000
1046.028;19312.775;  247.525;    0.000
1046.182;20319.775;  200.525;    0.000
1046.336;20426.775;  220.525;    0.000
1046.489;21380.775;  228.525;    0.000
1046.643;21368.775;  249.525;    0.000
1046.797;24304.775;  230.525;    0.000
1046.951;24257.775;  234.525;    0.000
1047.104;25461.775;  262.525;    0.000
1047.258;27002.775;  210.525;    0.000
1047.411;27796.775;  235.525;    0.000
1047.565;26912.775;  237.525;    0.000
1047.719;26216.775;  237.525;    0.000
1047.872;25178.775;  225.525;    0.000
1048.026;24289.775;  237.525;    0.000
1048.179;22586.775;  220.525;    0.000
1048.332;23000.775;  219.525;    0.000
1048.486;22794.775;  195.525;    0.000
1048.639;23881.775;  213.525;    0.000
1048.792;23532.775;  245.525;    0.000
1048.946;25987.775;  234.525;    0.000
1049.099;28206.775;  226.525;    0.000
1049.252;28489.775;  282.525;    0.000
1049.406;27450.775;  255.525;    0.000
1049.559;28324.775;  223.525;    0.000
1049.712;32333.775;  253.525;    0.000
1049.865;34415.773;  271.525;    0.000
1050.018;33304.773;  241.525;    0.000
1050.171;28649.775;  202.525;    0.000
1050.324;27762.775;  250.525;    0.000
1050.477;30534.775;  251.525;    0.000
1050.630;32921.773;  216.525;    0.000
1050.783;33538.773;  205.525;    0.000
1050.936;30326.775;  219.525;    0.000
1051.089;28681.775;  247.525;    0.000
1051.242;31169.775;  238.525;    0.000
1051.394;34526.773;  252.525;    0.000
1051.547;34333.773;  245.525;    0.000
1051.700;32625.775;  206.525;    0.000
1051.853;32796.773;  270.525;    0.000
1052.005;33920.773;  245.525;    0.000
1052.158;37759.773;  290.525;    0.000
1052.311;41314.773;  237.525;    0.000
1052.463;39040.773;  271.525;    0.000
1052.616;34286.773;  255.525;    0.000
1052.768;31270.775;  257.525;    0.000
1052.921;30705.775;  289.525;    0.000
1053.073;33695.773;  287.525;    0.000
1053.226;38514.773;  268.525;    0.000
1053.378;43315.773;  294.525;    0.000
1053.531;45439.773;  255.525;    0.000
1053.683;41454.773;  293.525;    0.000
1053.835;37389.773;  274.525;    0.000
1053.988;28503.775;  282.525;    0.000
1054.140; 5183.775;  291.525;    0.000
1054.292; 1287.775;  292.525;    0.000
1054.444; 1079.775;  299.525;    0.000
1054.596;  972.775;  319.525;    0.000
1054.749;  871.775;  295.525;    0.000
1054.901;  851.775;  266.525;    0.000
1055.053;  755.775;  300.525;    0.000
1055.205;  785.775;  290.525;    0.000
1055.357;  750.775;  304.525;    0.000
1055.509;  697.775;  292.525;    0.000
1055.661;  677.775;  339.525;    0.000
1055.813;  643.775;  306.525;    0.000
1055.965;  626.775;  293.525;    0.000
1056.116;  639.775;  300.525;    0.000
1056.268;  654.775;  306.525;    0.000
1056.420;  614.775;  288.525;    0.000

