
Integration time [ms]:   0.300
Averaging Nr. [scans]: 1
Smoothing Nr. [pixels]: 0
Data measured with spectrometer [name]: NIR
Wave   ;Sample   ;Dark     ;Reference
[nm]   ;[counts] ;[counts] ;[counts] 

691.496;  -44.600;  155.525;    0.000
691.696;   18.400;  186.525;    0.000
691.896;  -47.600;  113.525;    0.000
692.096;    8.400;  169.525;    0.000
692.296;  -32.600;  119.525;    0.000
692.496;   63.400;  182.525;    0.000
692.695;   -3.600;  119.525;    0.000
692.895;   29.400;  183.525;    0.000
693.095;   -4.600;  119.525;    0.000
693.295;   27.400;  156.525;    0.000
693.495;   33.400;  145.525;    0.000
693.695;  -20.600;  144.525;    0.000
693.894;    8.400;  174.525;    0.000
694.094;   -6.600;  148.525;    0.000
694.294;   -2.600;  114.525;    0.000
694.494;  344.400;  137.525;    0.000
694.693; 3325.400;  112.525;    0.000
694.893; 3825.400;   85.525;    0.000
695.093; 3826.400;  152.525;    0.000
695.293; 3850.400;  159.525;    0.000
695.492; 3679.400;  131.525;    0.000
695.692; 3776.400;  134.525;    0.000
695.891; 3908.400;  161.525;    0.000
696.091; 3862.400;  180.525;    0.000
696.291; 3910.400;  120.525;    0.000
696.490; 3905.400;  146.525;    0.000
696.690; 3979.400;  145.525;    0.000
696.889; 3945.400;  171.525;    0.000
697.089; 3950.400;   98.525;    0.000
697.288; 3968.400;  172.525;    0.000
697.488; 4018.400;  137.525;    0.000
697.687; 3825.400;  171.525;    0.000
697.887; 4046.400;  142.525;    0.000
698.086; 3906.400;  159.525;    0.000
698.286; 3945.400;  122.525;    0.000
698.485; 3946.400;  121.525;    0.000
698.684; 3976.400;   94.525;    0.000
698.884; 3910.400;  131.525;    0.000
699.083; 3958.400;  112.525;    0.000
699.282; 4074.400;  119.525;    0.000
699.482; 4124.400;  117.525;    0.000
699.681; 3973.400;  115.525;    0.000
699.880; 4080.400;  166.525;    0.000
700.080; 4092.400;  194.525;    0.000
700.279; 4108.400;   98.525;    0.000
700.478; 4099.400;  159.525;    0.000
700.677; 4036.400;  134.525;    0.000
700.877; 4187.400;  171.525;    0.000
701.076; 4107.400;  141.525;    0.000
701.275; 4161.400;  119.525;    0.000
701.474; 4085.400;  132.525;    0.000
701.673; 4141.400;  141.525;    0.000
701.872; 4125.400;  158.525;    0.000
702.071; 4173.400;  129.525;    0.000
702.271; 4120.400;  122.525;    0.000
702.470; 4234.400;  158.525;    0.000
702.669; 4058.400;  145.525;    0.000
702.868; 4190.400;  135.525;    0.000
703.067; 4204.400;  169.525;    0.000
703.266; 4285.400;  125.525;    0.000
703.465; 4182.400;  153.525;    0.000
703.664; 4192.400;  113.525;    0.000
703.863; 4184.400;  170.525;    0.000
704.062; 4149.400;  115.525;    0.000
704.260; 4132.400;  133.525;    0.000
704.459; 4134.400;  123.525;    0.000
704.658; 4127.400;  105.525;    0.000
704.857; 4233.400;  125.525;    0.000
705.056; 4214.400;  108.525;    0.000
705.255; 4253.400;  117.525;    0.000
705.454; 4078.400;  126.525;    0.000
705.652; 4203.400;  137.525;    0.000
705.851; 4204.400;   95.525;    0.000
706.050; 4208.400;  120.525;    0.000
706.249; 4230.400;   81.525;    0.000
706.447; 4346.400;  105.525;    0.000
706.646; 4271.400;  107.525;    0.000
706.845; 4405.400;  104.525;    0.000
707.043; 4377.400;  136.525;    0.000
707.242; 4252.400;   89.525;    0.000
707.441; 4348.400;  147.525;    0.000
707.639; 4333.400;  156.525;    0.000
707.838; 4318.400;  114.525;    0.000
708.037; 4338.400;  100.525;    0.000
708.235; 4351.400;  103.525;    0.000
708.434; 4281.400;  102.525;    0.000
708.632; 4374.400;  100.525;    0.000
708.831; 4404.400;  121.525;    0.000
709.029; 4344.400;  102.525;    0.000
709.228; 4419.400;   88.525;    0.000
709.426; 4334.400;  135.525;    0.000
709.625; 4432.400;  128.525;    0.000
709.823; 4309.400;  123.525;    0.000
710.022; 4419.400;  137.525;    0.000
710.220; 4507.400;  134.525;    0.000
710.418; 4428.400;  122.525;    0.000
710.617; 4587.400;   64.525;    0.000
710.815; 4508.400;   94.525;    0.000
711.013; 4449.400;  127.525;    0.000
711.212; 4537.400;  105.525;    0.000
711.410; 4493.400;  117.525;    0.000
711.608; 4409.400;  114.525;    0.000
711.807; 4519.400;  119.525;    0.000
712.005; 4542.400;   92.525;    0.000
712.203; 4464.400;   95.525;    0.000
712.401; 4628.400;  107.525;    0.000
712.599; 4488.400;  127.525;    0.000
712.798; 4701.400;  120.525;    0.000
712.996; 4454.400;   76.525;    0.000
713.194; 4617.400;  118.525;    0.000
713.392; 4591.400;   60.525;    0.000
713.590; 4635.400;   92.525;    0.000
713.788; 4740.400;  110.525;    0.000
713.986; 4866.400;  130.525;    0.000
714.184; 4748.400;   71.525;    0.000
714.382; 4707.400;   86.525;    0.000
714.580; 4713.400;   74.525;    0.000
714.778; 4923.400;  133.525;    0.000
714.976; 4770.400;   81.525;    0.000
715.174; 5005.400;  100.525;    0.000
715.372; 5155.400;  141.525;    0.000
715.570; 5484.400;   73.525;    0.000
715.768; 5859.400;  119.525;    0.000
715.966; 5862.400;   81.525;    0.000
716.164; 5752.400;  130.525;    0.000
716.362; 5669.400;  125.525;    0.000
716.560; 5635.400;  109.525;    0.000
716.758; 5373.400;   96.525;    0.000
716.955; 5272.400;   83.525;    0.000
717.153; 5171.400;   87.525;    0.000
717.351; 5244.400;  123.525;    0.000
717.549; 5139.400;  121.525;    0.000
717.746; 5064.400;  128.525;    0.000
717.944; 5167.400;  132.525;    0.000
718.142; 5135.400;  120.525;    0.000
718.340; 5083.400;   94.525;    0.000
718.537; 5109.400;   95.525;    0.000
718.735; 5193.400;  152.525;    0.000
718.933; 5069.400;  124.525;    0.000
719.130; 5125.400;  114.525;    0.000
719.328; 5127.400;   63.525;    0.000
719.525; 5074.400;  146.525;    0.000
719.723; 4986.400;   96.525;    0.000
719.920; 5016.400;  120.525;    0.000
720.118; 5048.400;   59.525;    0.000
720.316; 4995.400;  116.525;    0.000
720.513; 5138.400;  127.525;    0.000
720.711; 5036.400;  110.525;    0.000
720.908; 5071.400;   92.525;    0.000
721.105; 5179.400;  138.525;    0.000
721.303; 5027.400;   90.525;    0.000
721.500; 5118.400;  126.525;    0.000
721.698; 5067.400;  103.525;    0.000
721.895; 5185.400;  206.525;    0.000
722.092; 5141.400;   63.525;    0.000
722.290; 5061.400;  123.525;    0.000
722.487; 4962.400;  137.525;    0.000
722.684; 5017.400;  126.525;    0.000
722.882; 4992.400;  119.525;    0.000
723.079; 5104.400;  132.525;    0.000
723.276; 4956.400;   98.525;    0.000
723.473; 5054.400;   97.525;    0.000
723.671; 5116.400;   43.525;    0.000
723.868; 5029.400;  142.525;    0.000
724.065; 5153.400;  102.525;    0.000
724.262; 5101.400;  119.525;    0.000
724.459; 5232.400;   73.525;    0.000
724.656; 5135.400;  128.525;    0.000
724.854; 5204.400;  135.525;    0.000
725.051; 5214.400;   81.525;    0.000
725.248; 5230.400;   88.525;    0.000
725.445; 5187.400;  129.525;    0.000
725.642; 5117.400;   76.525;    0.000
725.839; 5147.400;  134.525;    0.000
726.036; 5258.400;  101.525;    0.000
726.233; 5160.400;   68.525;    0.000
726.430; 5309.400;  121.525;    0.000
726.627; 5160.400;  136.525;    0.000
726.824; 5233.400;   87.525;    0.000
727.021; 5298.400;  141.525;    0.000
727.218; 5155.400;   92.525;    0.000
727.414; 5328.400;  121.525;    0.000
727.611; 5303.400;  100.525;    0.000
727.808; 5256.400;  130.525;    0.000
728.005; 5210.400;   83.525;    0.000
728.202; 5279.400;  120.525;    0.000
728.399; 5313.400;   75.525;    0.000
728.595; 5235.400;  148.525;    0.000
728.792; 5319.400;   79.525;    0.000
728.989; 5356.400;   86.525;    0.000
729.186; 5427.400;   80.525;    0.000
729.382; 5308.400;   72.525;    0.000
729.579; 5319.400;  112.525;    0.000
729.776; 5253.400;  106.525;    0.000
729.972; 5337.400;   77.525;    0.000
730.169; 5371.400;  118.525;    0.000
730.366; 5383.400;   92.525;    0.000
730.562; 5387.400;  104.525;    0.000
730.759; 5344.400;   95.525;    0.000
730.955; 5384.400;   85.525;    0.000
731.152; 5311.400;   79.525;    0.000
731.348; 5425.400;   72.525;    0.000
731.545; 5349.400;   56.525;    0.000
731.741; 5427.400;  106.525;    0.000
731.938; 5519.400;  113.525;    0.000
732.134; 5429.400;  106.525;    0.000
732.331; 5388.400;   82.525;    0.000
732.527; 5494.400;   80.525;    0.000
732.724; 5403.400;   97.525;    0.000
732.920; 5363.400;  127.525;    0.000
733.116; 5470.400;  115.525;    0.000
733.313; 5511.400;  153.525;    0.000
733.509; 5406.400;   76.525;    0.000
733.705; 5469.400;  159.525;    0.000
733.902; 5381.400;   82.525;    0.000
734.098; 5504.400;   70.525;    0.000
734.294; 5399.400;  105.525;    0.000
734.490; 5418.400;  110.525;    0.000
734.687; 5536.400;  102.525;    0.000
734.883; 5268.400;   77.525;    0.000
735.079; 5473.400;   93.525;    0.000
735.275; 5405.400;  109.525;    0.000
735.471; 5426.400;   99.525;    0.000
735.667; 5575.400;  107.525;    0.000
735.863; 5523.400;   89.525;    0.000
736.060; 5490.400;  105.525;    0.000
736.256; 5656.400;  113.525;    0.000
736.452; 5598.400;   90.525;    0.000
736.648; 5633.400;   88.525;    0.000
736.844; 5599.400;  129.525;    0.000
737.040; 5608.400;  139.525;    0.000
737.236; 5673.400;  129.525;    0.000
737.432; 5718.400;   67.525;    0.000
737.628; 5710.400;  104.525;    0.000
737.824; 5547.400;  111.525;    0.000
738.019; 5637.400;  116.525;    0.000
738.215; 5756.400;  135.525;    0.000
738.411; 5752.400;  118.525;    0.000
738.607; 5720.400;   58.525;    0.000
738.803; 5769.400;   32.525;    0.000
738.999; 5858.400;  120.525;    0.000
739.195; 5705.400;   76.525;    0.000
739.390; 5829.400;  119.525;    0.000
739.586; 5759.400;   83.525;    0.000
739.782; 5864.400;  134.525;    0.000
739.978; 5952.400;  122.525;    0.000
740.173; 5780.400;   96.525;    0.000
740.369; 5886.400;   86.525;    0.000
740.565; 6013.400;  122.525;    0.000
740.760; 6039.400;   99.525;    0.000
740.956; 5985.400;  137.525;    0.000
741.152; 6001.400;  108.525;    0.000
741.347; 6144.400;   65.525;    0.000
741.543; 6202.400;   73.525;    0.000
741.738; 6335.400;  142.525;    0.000
741.934; 6496.400;  131.525;    0.000
742.129; 6976.400;   66.525;    0.000
742.325; 7845.400;  143.525;    0.000
742.520; 8628.400;  119.525;    0.000
742.716; 7949.400;  109.525;    0.000
742.911; 7731.400;   62.525;    0.000
743.107; 7411.400;  119.525;    0.000
743.302; 7300.400;   78.525;    0.000
743.498; 7355.400;  130.525;    0.000
743.693; 7562.400;   75.525;    0.000
743.888; 7843.400;  135.525;    0.000
744.084; 9071.400;  106.525;    0.000
744.279;11267.400;  101.525;    0.000
744.474;11457.400;   91.525;    0.000
744.670;10064.400;  144.525;    0.000
744.865; 9235.400;  128.525;    0.000
745.060; 8629.400;   63.525;    0.000
745.255; 8369.400;  155.525;    0.000
745.451; 8078.400;  110.525;    0.000
745.646; 7961.400;  150.525;    0.000
745.841; 7781.400;  128.525;    0.000
746.036; 7828.400;  110.525;    0.000
746.231; 8162.400;  126.525;    0.000
746.426; 8524.400;   83.525;    0.000
746.622;10096.400;  157.525;    0.000
746.817;13134.400;  112.525;    0.000
747.012;15223.400;  115.525;    0.000
747.207;13160.400;  161.525;    0.000
747.402;11657.400;   88.525;    0.000
747.597;10691.400;  103.525;    0.000
747.792;10170.400;  152.525;    0.000
747.987; 9799.400;   80.525;    0.000
748.182; 9249.400;   89.525;    0.000
748.377; 8786.400;  104.525;    0.000
748.572; 8619.400;  138.525;    0.000
748.767; 8212.400;  100.525;    0.000
748.961; 7797.400;  106.525;    0.000
749.156; 7714.400;  113.525;    0.000
749.351; 7514.400;  116.525;    0.000
749.546; 7423.400;  107.525;    0.000
749.741; 7271.400;  102.525;    0.000
749.936; 7130.400;  105.525;    0.000
750.130; 7142.400;  111.525;    0.000
750.325; 7044.400;   72.525;    0.000
750.520; 7017.400;   96.525;    0.000
750.715; 6891.400;  135.525;    0.000
750.909; 6918.400;  107.525;    0.000
751.104; 6790.400;  106.525;    0.000
751.299; 6837.400;  144.525;    0.000
751.493; 6766.400;  116.525;    0.000
751.688; 6837.400;   96.525;    0.000
751.882; 6770.400;   92.525;    0.000
752.077; 6636.400;  109.525;    0.000
752.272; 6628.400;   96.525;    0.000
752.466; 6640.400;  110.525;    0.000
752.661; 6486.400;  120.525;    0.000
752.855; 6306.400;   70.525;    0.000
753.050; 6411.400;  129.525;    0.000
753.244; 6365.400;  126.525;    0.000
753.439; 6303.400;  115.525;    0.000
753.633; 6344.400;  120.525;    0.000
753.828; 6264.400;  129.525;    0.000
754.022; 6219.400;  139.525;    0.000
754.216; 6322.400;  121.525;    0.000
754.411; 6311.400;  108.525;    0.000
754.605; 6117.400;   94.525;    0.000
754.799; 6325.400;  125.525;    0.000
754.994; 6115.400;  160.525;    0.000
755.188; 6256.400;  151.525;    0.000
755.382; 6141.400;  102.525;    0.000
755.576; 6280.400;  103.525;    0.000
755.771; 6074.400;   99.525;    0.000
755.965; 6189.400;  158.525;    0.000
756.159; 6225.400;   96.525;    0.000
756.353; 6252.400;  157.525;    0.000
756.547; 6223.400;  132.525;    0.000
756.742; 6144.400;  106.525;    0.000
756.936; 6136.400;  113.525;    0.000
757.130; 6192.400;  114.525;    0.000
757.324; 6109.400;  111.525;    0.000
757.518; 6193.400;  142.525;    0.000
757.712; 6179.400;  137.525;    0.000
757.906; 6197.400;   93.525;    0.000
758.100; 6183.400;  119.525;    0.000
758.294; 6158.400;  132.525;    0.000
758.488; 6228.400;  153.525;    0.000
758.682; 6141.400;  101.525;    0.000
758.876; 6216.400;  129.525;    0.000
759.070; 6197.400;  168.525;    0.000
759.264; 6062.400;   96.525;    0.000
759.458; 5999.400;  117.525;    0.000
759.651; 6094.400;  135.525;    0.000
759.845; 6093.400;  127.525;    0.000
760.039; 6144.400;  120.525;    0.000
760.233; 6218.400;  124.525;    0.000
760.427; 6099.400;  115.525;    0.000
760.620; 6032.400;  130.525;    0.000
760.814; 6108.400;  102.525;    0.000
761.008; 6063.400;  174.525;    0.000
761.202; 6138.400;  132.525;    0.000
761.395; 5965.400;  126.525;    0.000
761.589; 6067.400;  133.525;    0.000
761.783; 6031.400;  147.525;    0.000
761.976; 6233.400;  147.525;    0.000
762.170; 6194.400;  174.525;    0.000
762.363; 6124.400;   97.525;    0.000
762.557; 6211.400;  141.525;    0.000
762.750; 6143.400;  112.525;    0.000
762.944; 6240.400;  110.525;    0.000
763.138; 6176.400;  125.525;    0.000
763.331; 6203.400;  101.525;    0.000
763.524; 6237.400;  101.525;    0.000
763.718; 6369.400;  156.525;    0.000
763.911; 6285.400;  143.525;    0.000
764.105; 6293.400;  139.525;    0.000
764.298; 6249.400;   89.525;    0.000
764.492; 6186.400;  111.525;    0.000
764.685; 6248.400;  136.525;    0.000
764.878; 6062.400;  146.525;    0.000
765.072; 6292.400;  110.525;    0.000
765.265; 6206.400;  141.525;    0.000
765.458; 6296.400;   82.525;    0.000
765.651; 6259.400;  144.525;    0.000
765.845; 6246.400;   79.525;    0.000
766.038; 6355.400;  123.525;    0.000
766.231; 6894.400;  125.525;    0.000
766.424; 9507.400;  131.525;    0.000
766.617; 9633.400;   62.525;    0.000
766.811; 6808.400;  142.525;    0.000
767.004; 6403.400;  134.525;    0.000
767.197; 6466.400;  147.525;    0.000
767.390; 6317.400;  100.525;    0.000
767.583; 6370.400;  121.525;    0.000
767.776; 6447.400;   91.525;    0.000
767.969; 6339.400;  113.525;    0.000
768.162; 6572.400;  170.525;    0.000
768.355; 6390.400;  134.525;    0.000
768.548; 6478.400;  177.525;    0.000
768.741; 6485.400;   96.525;    0.000
768.934; 6491.400;  143.525;    0.000
769.127; 6557.400;  147.525;    0.000
769.320; 6520.400;   93.525;    0.000
769.513; 6716.400;  137.525;    0.000
769.706; 7304.400;   96.525;    0.000
769.898; 9509.400;  118.525;    0.000
770.091; 8066.400;  138.525;    0.000
770.284; 6821.400;  133.525;    0.000
770.477; 6743.400;  137.525;    0.000
770.670; 6811.400;  124.525;    0.000
770.862; 6788.400;  125.525;    0.000
771.055; 6776.400;  135.525;    0.000
771.248; 7042.400;  109.525;    0.000
771.441; 6897.400;  141.525;    0.000
771.633; 6971.400;  142.525;    0.000
771.826; 7103.400;  123.525;    0.000
772.018; 7219.400;  136.525;    0.000
772.211; 7280.400;  145.525;    0.000
772.404; 7312.400;  127.525;    0.000
772.596; 7183.400;  193.525;    0.000
772.789; 7367.400;   64.525;    0.000
772.981; 7503.400;  142.525;    0.000
773.174; 7387.400;  105.525;    0.000
773.366; 7601.400;  166.525;    0.000
773.559; 7679.400;  125.525;    0.000
773.751; 7757.400;  126.525;    0.000
773.944; 7967.400;  147.525;    0.000
774.136; 8127.400;  155.525;    0.000
774.329; 8332.400;  127.525;    0.000
774.521; 8443.400;  133.525;    0.000
774.713; 8660.400;  139.525;    0.000
774.906; 9087.400;  170.525;    0.000
775.098; 9315.400;  144.525;    0.000
775.290; 9821.400;  162.525;    0.000
775.483;10307.400;  137.525;    0.000
775.675;10723.400;  148.525;    0.000
775.867;11605.400;   81.525;    0.000
776.059;12627.400;  134.525;    0.000
776.251;13864.400;  137.525;    0.000
776.444;15649.400;  155.525;    0.000
776.636;18461.400;  148.525;    0.000
776.828;23426.400;  129.525;    0.000
777.020;33701.398;  133.525;    0.000
777.212;50397.398;  137.525;    0.000
777.404;56318.398;  124.525;    0.000
777.596;51936.398;  142.525;    0.000
777.788;38182.398;  155.525;    0.000
777.980;28644.400;  119.525;    0.000
778.172;23364.400;  129.525;    0.000
778.364;19638.400;  122.525;    0.000
778.556;17355.400;  129.525;    0.000
778.748;15450.400;  178.525;    0.000
778.940;14313.400;  128.525;    0.000
779.132;12965.400;  145.525;    0.000
779.324;12122.400;   89.525;    0.000
779.516;11271.400;  161.525;    0.000
779.708;10682.400;  183.525;    0.000
779.900;10146.400;  124.525;    0.000
780.091; 9674.400;  143.525;    0.000
780.283; 9198.400;  135.525;    0.000
780.475; 9005.400;  129.525;    0.000
780.667; 8754.400;  178.525;    0.000
780.859; 8500.400;  146.525;    0.000
781.050; 8048.400;  156.525;    0.000
781.242; 7962.400;  138.525;    0.000
781.434; 7930.400;  117.525;    0.000
781.625; 7598.400;  161.525;    0.000
781.817; 7659.400;  127.525;    0.000
782.008; 7549.400;  138.525;    0.000
782.200; 7360.400;  139.525;    0.000
782.392; 7286.400;  179.525;    0.000
782.583; 7154.400;  137.525;    0.000
782.775; 7001.400;  162.525;    0.000
782.966; 7040.400;  159.525;    0.000
783.158; 7009.400;  118.525;    0.000
783.349; 6752.400;  160.525;    0.000
783.541; 6878.400;  139.525;    0.000
783.732; 6780.400;  145.525;    0.000
783.924; 6809.400;  146.525;    0.000
784.115; 6698.400;  125.525;    0.000
784.306; 6711.400;  118.525;    0.000
784.498; 6570.400;  144.525;    0.000
784.689; 6537.400;  145.525;    0.000
784.880; 6678.400;  137.525;    0.000
785.072; 6400.400;  157.525;    0.000
785.263; 6539.400;  149.525;    0.000
785.454; 6354.400;  128.525;    0.000
785.645; 6416.400;  131.525;    0.000
785.837; 6384.400;  137.525;    0.000
786.028; 6455.400;  161.525;    0.000
786.219; 6393.400;  155.525;    0.000
786.410; 6324.400;  146.525;    0.000
786.601; 6335.400;  120.525;    0.000
786.792; 6225.400;  179.525;    0.000
786.984; 6391.400;  113.525;    0.000
787.175; 6384.400;  156.525;    0.000
787.366; 6341.400;  131.525;    0.000
787.557; 6455.400;  138.525;    0.000
787.748; 6392.400;  112.525;    0.000
787.939; 6399.400;  115.525;    0.000
788.130; 6363.400;  150.525;    0.000
788.321; 6402.400;  122.525;    0.000
788.512; 6581.400;  147.525;    0.000
788.703; 6533.400;  126.525;    0.000
788.894; 6441.400;   80.525;    0.000
789.084; 6439.400;  127.525;    0.000
789.275; 6560.400;  141.525;    0.000
789.466; 6556.400;  108.525;    0.000
789.657; 6594.400;  137.525;    0.000
789.848; 6590.400;  126.525;    0.000
790.039; 6617.400;  144.525;    0.000
790.229; 6627.400;  105.525;    0.000
790.420; 6603.400;   96.525;    0.000
790.611; 6506.400;  171.525;    0.000
790.801; 6606.400;   89.525;    0.000
790.992; 6526.400;  140.525;    0.000
791.183; 6581.400;  143.525;    0.000
791.373; 6537.400;  128.525;    0.000
791.564; 6474.400;   96.525;    0.000
791.755; 6446.400;  111.525;    0.000
791.945; 6690.400;  112.525;    0.000
792.136; 6548.400;  124.525;    0.000
792.326; 6554.400;   88.525;    0.000
792.517; 6588.400;  130.525;    0.000
792.707; 6444.400;  144.525;    0.000
792.898; 6688.400;  120.525;    0.000
793.088; 6701.400;  106.525;    0.000
793.279; 6648.400;  104.525;    0.000
793.469; 6795.400;  103.525;    0.000
793.660; 6827.400;  120.525;    0.000
793.850; 7035.400;  106.525;    0.000
794.040; 7288.400;  135.525;    0.000
794.231; 7775.400;   80.525;    0.000
794.421; 8111.400;  120.525;    0.000
794.611; 9279.400;  154.525;    0.000
794.802;10805.400;  103.525;    0.000
794.992;11471.400;  120.525;    0.000
795.182;11851.400;  156.525;    0.000
795.372;10861.400;  104.525;    0.000
795.563; 9633.400;  153.525;    0.000
795.753; 8906.400;  112.525;    0.000
795.943; 8401.400;  128.525;    0.000
796.133; 7761.400;  128.525;    0.000
796.323; 7572.400;  152.525;    0.000
796.513; 7210.400;  123.525;    0.000
796.703; 7152.400;  134.525;    0.000
796.893; 6842.400;  120.525;    0.000
797.083; 6708.400;  136.525;    0.000
797.273; 6671.400;  128.525;    0.000
797.463; 6438.400;  140.525;    0.000
797.653; 6309.400;   75.525;    0.000
797.843; 6420.400;  114.525;    0.000
798.033; 6317.400;   90.525;    0.000
798.223; 6057.400;  136.525;    0.000
798.413; 6098.400;  164.525;    0.000
798.603; 6038.400;  150.525;    0.000
798.793; 5749.400;  137.525;    0.000
798.983; 5776.400;  119.525;    0.000
799.172; 5910.400;  136.525;    0.000
799.362; 5854.400;  138.525;    0.000
799.552; 5686.400;  123.525;    0.000
799.742; 5664.400;  117.525;    0.000
799.932; 5667.400;  108.525;    0.000
800.121; 5842.400;  152.525;    0.000
800.311; 5590.400;  117.525;    0.000
800.501; 5644.400;  100.525;    0.000
800.690; 5701.400;  139.525;    0.000
800.880; 5599.400;  138.525;    0.000
801.070; 5500.400;  120.525;    0.000
801.259; 5552.400;  143.525;    0.000
801.449; 5597.400;  110.525;    0.000
801.638; 5774.400;  140.525;    0.000
801.828; 5631.400;  103.525;    0.000
802.017; 5661.400;   78.525;    0.000
802.207; 5537.400;  126.525;    0.000
802.396; 5510.400;  151.525;    0.000
802.586; 5420.400;  106.525;    0.000
802.775; 5489.400;  152.525;    0.000
802.965; 5410.400;  117.525;    0.000
803.154; 5344.400;  171.525;    0.000
803.343; 5350.400;  126.525;    0.000
803.533; 5449.400;  135.525;    0.000
803.722; 5328.400;  144.525;    0.000
803.911; 5440.400;  109.525;    0.000
804.101; 5383.400;  146.525;    0.000
804.290; 5422.400;  115.525;    0.000
804.479; 5372.400;  128.525;    0.000
804.668; 5337.400;  156.525;    0.000
804.857; 5233.400;  151.525;    0.000
805.047; 5319.400;  131.525;    0.000
805.236; 5318.400;  144.525;    0.000
805.425; 5267.400;  160.525;    0.000
805.614; 5356.400;  112.525;    0.000
805.803; 5392.400;  120.525;    0.000
805.992; 5385.400;  148.525;    0.000
806.181; 5254.400;  108.525;    0.000
806.370; 5241.400;  142.525;    0.000
806.559; 5411.400;  116.525;    0.000
806.748; 5339.400;  108.525;    0.000
806.937; 5278.400;  110.525;    0.000
807.126; 5366.400;  126.525;    0.000
807.315; 5326.400;  121.525;    0.000
807.504; 5473.400;  102.525;    0.000
807.693; 5373.400;  134.525;    0.000
807.882; 5310.400;  135.525;    0.000
808.071; 5300.400;  135.525;    0.000
808.260; 5408.400;   93.525;    0.000
808.448; 5536.400;  151.525;    0.000
808.637; 5426.400;  105.525;    0.000
808.826; 5516.400;  178.525;    0.000
809.015; 5389.400;  152.525;    0.000
809.203; 5421.400;  147.525;    0.000
809.392; 5389.400;  144.525;    0.000
809.581; 5536.400;  167.525;    0.000
809.770; 5421.400;  151.525;    0.000
809.958; 5592.400;  128.525;    0.000
810.147; 5408.400;  152.525;    0.000
810.335; 5532.400;  160.525;    0.000
810.524; 5667.400;  130.525;    0.000
810.713; 5836.400;  128.525;    0.000
810.901; 5823.400;  140.525;    0.000
811.090; 5741.400;  152.525;    0.000
811.278; 5775.400;  126.525;    0.000
811.467; 6043.400;  161.525;    0.000
811.655; 6161.400;  184.525;    0.000
811.844; 6109.400;  148.525;    0.000
812.032; 6178.400;  138.525;    0.000
812.220; 6063.400;  157.525;    0.000
812.409; 6051.400;  143.525;    0.000
812.597; 6048.400;  124.525;    0.000
812.785; 6156.400;  170.525;    0.000
812.974; 6246.400;  135.525;    0.000
813.162; 6239.400;  135.525;    0.000
813.350; 6341.400;  182.525;    0.000
813.539; 6291.400;  126.525;    0.000
813.727; 6363.400;  127.525;    0.000
813.915; 6346.400;  140.525;    0.000
814.103; 6395.400;  176.525;    0.000
814.291; 6578.400;  115.525;    0.000
814.479; 6599.400;  119.525;    0.000
814.668; 6637.400;  134.525;    0.000
814.856; 6842.400;  120.525;    0.000
815.044; 6837.400;  164.525;    0.000
815.232; 7112.400;  146.525;    0.000
815.420; 7145.400;  154.525;    0.000
815.608; 7290.400;  137.525;    0.000
815.796; 7410.400;  108.525;    0.000
815.984; 7532.400;  134.525;    0.000
816.172; 7703.400;  123.525;    0.000
816.360; 8040.400;  181.525;    0.000
816.548; 8352.400;  139.525;    0.000
816.736; 8636.400;  138.525;    0.000
816.924; 9037.400;  151.525;    0.000
817.111; 9511.400;  156.525;    0.000
817.299;10093.400;  147.525;    0.000
817.487;11003.400;  188.525;    0.000
817.675;12439.400;  129.525;    0.000
817.863;14590.400;  128.525;    0.000
818.050;20565.400;  110.525;    0.000
818.238;36966.398;  166.525;    0.000
818.426;51587.398;  136.525;    0.000
818.613;37919.398;  143.525;    0.000
818.801;30368.400;  150.525;    0.000
818.989;28898.400;  179.525;    0.000
819.176;31040.400;  123.525;    0.000
819.364;44803.398;  148.525;    0.000
819.552;60721.398;   86.525;    0.000
819.739;47157.398;  169.525;    0.000
819.927;33836.398;  130.525;    0.000
820.114;27211.400;  144.525;    0.000
820.302;23655.400;  166.525;    0.000
820.489;21188.400;  145.525;    0.000
820.677;19322.400;  101.525;    0.000
820.864;18273.400;  149.525;    0.000
821.052;18211.400;  130.525;    0.000
821.239;18505.400;  147.525;    0.000
821.426;19043.400;  121.525;    0.000
821.614;22684.400;  187.525;    0.000
821.801;23958.400;  105.525;    0.000
821.988;20825.400;  167.525;    0.000
822.176;19888.400;  130.525;    0.000
822.363;20103.400;  143.525;    0.000
822.550;18559.400;  108.525;    0.000
822.737;16384.400;  109.525;    0.000
822.924;15152.400;  156.525;    0.000
823.112;14259.400;  123.525;    0.000
823.299;13417.400;  128.525;    0.000
823.486;12569.400;  138.525;    0.000
823.673;12045.400;  125.525;    0.000
823.860;11543.400;  138.525;    0.000
824.047;11937.400;  122.525;    0.000
824.234;13212.400;  134.525;    0.000
824.421;13352.400;   95.525;    0.000
824.608;11814.400;  151.525;    0.000
824.795;10619.400;  117.525;    0.000
824.982; 9904.400;  143.525;    0.000
825.169; 9329.400;   83.525;    0.000
825.356; 8949.400;  126.525;    0.000
825.543; 8484.400;   92.525;    0.000
825.730; 7937.400;  113.525;    0.000
825.917; 7745.400;  142.525;    0.000
826.104; 7676.400;  182.525;    0.000
826.290; 7430.400;  137.525;    0.000
826.477; 7103.400;  126.525;    0.000
826.664; 6992.400;  135.525;    0.000
826.851; 6830.400;  139.525;    0.000
827.038; 6721.400;  135.525;    0.000
827.224; 6698.400;  143.525;    0.000
827.411; 6491.400;  153.525;    0.000
827.598; 6311.400;  122.525;    0.000
827.784; 6260.400;  138.525;    0.000
827.971; 6168.400;  134.525;    0.000
828.157; 5986.400;  152.525;    0.000
828.344; 5891.400;  135.525;    0.000
828.531; 5889.400;  137.525;    0.000
828.717; 5633.400;  117.525;    0.000
828.904; 5653.400;  127.525;    0.000
829.090; 5726.400;  172.525;    0.000
829.277; 5461.400;  144.525;    0.000
829.463; 5320.400;  159.525;    0.000
829.650; 5310.400;  187.525;    0.000
829.836; 5334.400;  138.525;    0.000
830.022; 5234.400;  196.525;    0.000
830.209; 5266.400;  118.525;    0.000
830.395; 5137.400;  148.525;    0.000
830.581; 5096.400;  108.525;    0.000
830.768; 5046.400;  137.525;    0.000
830.954; 5006.400;  162.525;    0.000
831.140; 4960.400;  117.525;    0.000
831.327; 4928.400;  176.525;    0.000
831.513; 4991.400;  162.525;    0.000
831.699; 4828.400;  157.525;    0.000
831.885; 4772.400;  153.525;    0.000
832.071; 4717.400;  123.525;    0.000
832.257; 4699.400;  142.525;    0.000
832.444; 4673.400;  165.525;    0.000
832.630; 4579.400;  159.525;    0.000
832.816; 4617.400;  145.525;    0.000
833.002; 4576.400;  120.525;    0.000
833.188; 4505.400;  145.525;    0.000
833.374; 4434.400;  137.525;    0.000
833.560; 4535.400;  152.525;    0.000
833.746; 4478.400;  139.525;    0.000
833.932; 4413.400;  170.525;    0.000
834.118; 4432.400;  111.525;    0.000
834.303; 4382.400;  141.525;    0.000
834.489; 4393.400;  146.525;    0.000
834.675; 4336.400;  156.525;    0.000
834.861; 4290.400;   87.525;    0.000
835.047; 4301.400;  134.525;    0.000
835.233; 4286.400;   89.525;    0.000
835.418; 4312.400;  145.525;    0.000
835.604; 4331.400;  136.525;    0.000
835.790; 4270.400;  132.525;    0.000
835.976; 4226.400;  161.525;    0.000
836.161; 4208.400;  157.525;    0.000
836.347; 4045.400;  147.525;    0.000
836.533; 4151.400;  116.525;    0.000
836.718; 4128.400;  168.525;    0.000
836.904; 4228.400;  199.525;    0.000
837.089; 4175.400;  165.525;    0.000
837.275; 4044.400;  166.525;    0.000
837.460; 4049.400;  144.525;    0.000
837.646; 4017.400;  164.525;    0.000
837.831; 4201.400;  122.525;    0.000
838.017; 4181.400;  163.525;    0.000
838.202; 4001.400;  139.525;    0.000
838.388; 4194.400;  174.525;    0.000
838.573; 4098.400;  140.525;    0.000
838.759; 4026.400;  167.525;    0.000
838.944; 4054.400;  142.525;    0.000
839.129; 4062.400;  164.525;    0.000
839.315; 4076.400;  129.525;    0.000
839.500; 4076.400;  150.525;    0.000
839.685; 4008.400;  118.525;    0.000
839.870; 4094.400;  177.525;    0.000
840.056; 4060.400;  144.525;    0.000
840.241; 4021.400;  121.525;    0.000
840.426; 4197.400;  131.525;    0.000
840.611; 4231.400;  177.525;    0.000
840.796; 4202.400;  173.525;    0.000
840.981; 4267.400;  156.525;    0.000
841.166; 4306.400;  145.525;    0.000
841.352; 4314.400;  150.525;    0.000
841.537; 4275.400;  143.525;    0.000
841.722; 4328.400;  165.525;    0.000
841.907; 4347.400;  184.525;    0.000
842.092; 4498.400;  171.525;    0.000
842.277; 4506.400;  155.525;    0.000
842.461; 4493.400;  152.525;    0.000
842.646; 4733.400;  107.525;    0.000
842.831; 4721.400;  160.525;    0.000
843.016; 4878.400;  160.525;    0.000
843.201; 5070.400;  164.525;    0.000
843.386; 5296.400;  134.525;    0.000
843.571; 5320.400;  132.525;    0.000
843.755; 5752.400;  158.525;    0.000
843.940; 6180.400;  152.525;    0.000
844.125; 7166.400;  154.525;    0.000
844.310; 8507.400;  147.525;    0.000
844.494;11237.400;  158.525;    0.000
844.679;15981.400;  173.525;    0.000
844.864;15797.400;  152.525;    0.000
845.048;12444.400;  139.525;    0.000
845.233;10323.400;  200.525;    0.000
845.418; 8742.400;  139.525;    0.000
845.602; 7882.400;  147.525;    0.000
845.787; 7052.400;  148.525;    0.000
845.971; 6523.400;  170.525;    0.000
846.156; 5943.400;  136.525;    0.000
846.340; 5780.400;  146.525;    0.000
846.525; 5540.400;  188.525;    0.000
846.709; 5265.400;  128.525;    0.000
846.893; 5069.400;  151.525;    0.000
847.078; 4753.400;  164.525;    0.000
847.262; 4541.400;  155.525;    0.000
847.447; 4603.400;  114.525;    0.000
847.631; 4420.400;  148.525;    0.000
847.815; 4300.400;  114.525;    0.000
848.000; 4194.400;  134.525;    0.000
848.184; 4248.400;  154.525;    0.000
848.368; 4193.400;  145.525;    0.000
848.552; 4095.400;  122.525;    0.000
848.736; 3913.400;  139.525;    0.000
848.921; 3968.400;  143.525;    0.000
849.105; 3999.400;  145.525;    0.000
849.289; 3848.400;  173.525;    0.000
849.473; 3877.400;  147.525;    0.000
849.657; 3780.400;  144.525;    0.000
849.841; 3893.400;  168.525;    0.000
850.025; 3751.400;  205.525;    0.000
850.209; 3679.400;  171.525;    0.000
850.393; 3702.400;  130.525;    0.000
850.577; 3677.400;  146.525;    0.000
850.761; 3644.400;  188.525;    0.000
850.945; 3547.400;  137.525;    0.000
851.129; 3603.400;  192.525;    0.000
851.313; 3534.400;  199.525;    0.000
851.497; 3572.400;  165.525;    0.000
851.680; 3471.400;  196.525;    0.000
851.864; 3515.400;  169.525;    0.000
852.048; 3575.400;  156.525;    0.000
852.232; 3486.400;  150.525;    0.000
852.416; 3607.400;  219.525;    0.000
852.599; 3579.400;  168.525;    0.000
852.783; 3451.400;  165.525;    0.000
852.967; 3475.400;  166.525;    0.000
853.150; 3534.400;  191.525;    0.000
853.334; 3543.400;  158.525;    0.000
853.518; 3467.400;  168.525;    0.000
853.701; 3473.400;  125.525;    0.000
853.885; 3471.400;  165.525;    0.000
854.068; 3356.400;  142.525;    0.000
854.252; 3345.400;  167.525;    0.000
854.435; 3453.400;  146.525;    0.000
854.619; 3300.400;  163.525;    0.000
854.802; 3453.400;  167.525;    0.000
854.986; 3355.400;  163.525;    0.000
855.169; 3288.400;  146.525;    0.000
855.353; 3400.400;  183.525;    0.000
855.536; 3381.400;  140.525;    0.000
855.719; 3466.400;  168.525;    0.000
855.903; 3539.400;  170.525;    0.000
856.086; 3509.400;  145.525;    0.000
856.269; 3539.400;  126.525;    0.000
856.452; 3598.400;  142.525;    0.000
856.636; 3746.400;  140.525;    0.000
856.819; 4111.400;  127.525;    0.000
857.002; 4074.400;  165.525;    0.000
857.185; 4043.400;  111.525;    0.000
857.368; 3922.400;  143.525;    0.000
857.552; 3686.400;  174.525;    0.000
857.735; 3757.400;  194.525;    0.000
857.918; 3678.400;  171.525;    0.000
858.101; 3805.400;  142.525;    0.000
858.284; 3766.400;  118.525;    0.000
858.467; 3772.400;  163.525;    0.000
858.650; 3922.400;  149.525;    0.000
858.833; 3862.400;  120.525;    0.000
859.016; 4076.400;  169.525;    0.000
859.199; 4142.400;  121.525;    0.000
859.382; 4659.400;  184.525;    0.000
859.564; 5200.400;  139.525;    0.000
859.747; 5044.400;  126.525;    0.000
859.930; 4669.400;  109.525;    0.000
860.113; 4462.400;  137.525;    0.000
860.296; 4347.400;  182.525;    0.000
860.478; 4183.400;  136.525;    0.000
860.661; 4105.400;  157.525;    0.000
860.844; 4110.400;  129.525;    0.000
861.027; 4074.400;  163.525;    0.000
861.209; 4035.400;  151.525;    0.000
861.392; 3995.400;  124.525;    0.000
861.575; 4058.400;  163.525;    0.000
861.757; 4036.400;  205.525;    0.000
861.940; 4114.400;  180.525;    0.000
862.122; 4233.400;  148.525;    0.000
862.305; 4337.400;  128.525;    0.000
862.487; 4536.400;  172.525;    0.000
862.670; 4909.400;  123.525;    0.000
862.852; 5894.400;  126.525;    0.000
863.035; 7382.400;  174.525;    0.000
863.217; 7042.400;  160.525;    0.000
863.400; 6411.400;  164.525;    0.000
863.582; 5898.400;  118.525;    0.000
863.764; 5424.400;  143.525;    0.000
863.947; 5288.400;  137.525;    0.000
864.129; 5040.400;  166.525;    0.000
864.311; 4841.400;  128.525;    0.000
864.493; 4772.400;  153.525;    0.000
864.676; 4877.400;  156.525;    0.000
864.858; 4675.400;  159.525;    0.000
865.040; 4647.400;  163.525;    0.000
865.222; 4544.400;  138.525;    0.000
865.404; 4747.400;  157.525;    0.000
865.587; 5070.400;  184.525;    0.000
865.769; 5269.400;  178.525;    0.000
865.951; 5275.400;  104.525;    0.000
866.133; 5249.400;  147.525;    0.000
866.315; 5167.400;  141.525;    0.000
866.497; 5248.400;  132.525;    0.000
866.679; 5490.400;  139.525;    0.000
866.861; 5521.400;  118.525;    0.000
867.043; 5796.400;  154.525;    0.000
867.225; 6149.400;  147.525;    0.000
867.407; 6723.400;  158.525;    0.000
867.589; 7874.400;  172.525;    0.000
867.770; 9656.400;  159.525;    0.000
867.952;13609.400;  149.525;    0.000
868.134;18088.400;  156.525;    0.000
868.316;18131.400;  171.525;    0.000
868.498;17190.400;  200.525;    0.000
868.679;14763.400;  174.525;    0.000
868.861;12252.400;  175.525;    0.000
869.043;10113.400;  174.525;    0.000
869.224; 8907.400;  122.525;    0.000
869.406; 7894.400;  166.525;    0.000
869.588; 7347.400;  143.525;    0.000
869.769; 7007.400;  152.525;    0.000
869.951; 6826.400;  165.525;    0.000
870.132; 6957.400;  115.525;    0.000
870.314; 7724.400;  139.525;    0.000
870.495; 8109.400;  168.525;    0.000
870.677; 7253.400;  188.525;    0.000
870.858; 6876.400;  123.525;    0.000
871.040; 7402.400;  170.525;    0.000
871.221; 8317.400;  148.525;    0.000
871.403; 7860.400;  140.525;    0.000
871.584; 7176.400;  174.525;    0.000
871.765; 7107.400;  168.525;    0.000
871.947; 7788.400;  191.525;    0.000
872.128; 6916.400;  132.525;    0.000
872.309; 6041.400;  140.525;    0.000
872.491; 5485.400;  157.525;    0.000
872.672; 5069.400;  130.525;    0.000
872.853; 4949.400;  148.525;    0.000
873.034; 4817.400;  138.525;    0.000
873.215; 4606.400;  152.525;    0.000
873.396; 4264.400;  149.525;    0.000
873.578; 4140.400;  173.525;    0.000
873.759; 4122.400;  158.525;    0.000
873.940; 3874.400;  147.525;    0.000
874.121; 3692.400;  136.525;    0.000
874.302; 3769.400;  151.525;    0.000
874.483; 3565.400;  137.525;    0.000
874.664; 3766.400;  163.525;    0.000
874.845; 3814.400;  124.525;    0.000
875.026; 3513.400;  134.525;    0.000
875.207; 3370.400;  164.525;    0.000
875.388; 3410.400;  163.525;    0.000
875.568; 3232.400;  176.525;    0.000
875.749; 3336.400;  108.525;    0.000
875.930; 3282.400;  191.525;    0.000
876.111; 3254.400;  170.525;    0.000
876.292; 3248.400;  180.525;    0.000
876.472; 3155.400;  150.525;    0.000
876.653; 3171.400;  162.525;    0.000
876.834; 3162.400;  176.525;    0.000
877.015; 3098.400;  203.525;    0.000
877.195; 3045.400;  178.525;    0.000
877.376; 2963.400;  141.525;    0.000
877.556; 2963.400;  135.525;    0.000
877.737; 2994.400;  174.525;    0.000
877.918; 2948.400;  150.525;    0.000
878.098; 2930.400;  133.525;    0.000
878.279; 2925.400;  129.525;    0.000
878.459; 2921.400;  162.525;    0.000
878.640; 2868.400;  187.525;    0.000
878.820; 2897.400;  151.525;    0.000
879.000; 2846.400;  159.525;    0.000
879.181; 2870.400;  171.525;    0.000
879.361; 2882.400;  167.525;    0.000
879.542; 2823.400;  126.525;    0.000
879.722; 2844.400;  152.525;    0.000
879.902; 2922.400;  144.525;    0.000
880.083; 2856.400;  154.525;    0.000
880.263; 3050.400;  148.525;    0.000
880.443; 3143.400;  185.525;    0.000
880.623; 3883.400;  172.525;    0.000
880.803; 4412.400;  152.525;    0.000
880.984; 3763.400;  165.525;    0.000
881.164; 3436.400;  164.525;    0.000
881.344; 3147.400;  141.525;    0.000
881.524; 3187.400;  160.525;    0.000
881.704; 3281.400;  164.525;    0.000
881.884; 3273.400;  159.525;    0.000
882.064; 3463.400;  158.525;    0.000
882.244; 3565.400;  147.525;    0.000
882.424; 3311.400;  160.525;    0.000
882.604; 3264.400;  150.525;    0.000
882.784; 3170.400;  138.525;    0.000
882.964; 3089.400;  157.525;    0.000
883.144; 2960.400;  128.525;    0.000
883.324; 2837.400;  220.525;    0.000
883.504; 2899.400;  177.525;    0.000
883.683; 2820.400;  159.525;    0.000
883.863; 2734.400;  143.525;    0.000
884.043; 2737.400;  156.525;    0.000
884.223; 2720.400;  152.525;    0.000
884.402; 2723.400;  169.525;    0.000
884.582; 2757.400;  162.525;    0.000
884.762; 2608.400;  172.525;    0.000
884.941; 2626.400;  220.525;    0.000
885.121; 2641.400;  128.525;    0.000
885.301; 2633.400;  141.525;    0.000
885.480; 2626.400;  141.525;    0.000
885.660; 2559.400;  132.525;    0.000
885.839; 2596.400;  146.525;    0.000
886.019; 2694.400;  170.525;    0.000
886.198; 2586.400;  143.525;    0.000
886.378; 2636.400;  159.525;    0.000
886.557; 2529.400;  148.525;    0.000
886.737; 2481.400;  125.525;    0.000
886.916; 2532.400;  177.525;    0.000
887.095; 2586.400;  186.525;    0.000
887.275; 2533.400;  134.525;    0.000
887.454; 2584.400;  148.525;    0.000
887.633; 2582.400;  171.525;    0.000
887.813; 2509.400;  187.525;    0.000
887.992; 2552.400;  157.525;    0.000
888.171; 2466.400;  143.525;    0.000
888.350; 2547.400;  182.525;    0.000
888.530; 2498.400;  142.525;    0.000
888.709; 2422.400;  160.525;    0.000
888.888; 2531.400;  197.525;    0.000
889.067; 2482.400;  126.525;    0.000
889.246; 2511.400;  197.525;    0.000
889.425; 2498.400;  161.525;    0.000
889.604; 2492.400;  180.525;    0.000
889.783; 2519.400;  135.525;    0.000
889.962; 2430.400;  107.525;    0.000
890.141; 2483.400;  167.525;    0.000
890.320; 2450.400;  149.525;    0.000
890.499; 2377.400;  194.525;    0.000
890.678; 2485.400;  138.525;    0.000
890.857; 2438.400;  146.525;    0.000
891.036; 2425.400;  178.525;    0.000
891.214; 2458.400;  151.525;    0.000
891.393; 2450.400;  137.525;    0.000
891.572; 2482.400;  177.525;    0.000
891.751; 2462.400;  149.525;    0.000
891.930; 2502.400;  189.525;    0.000
892.108; 2374.400;  136.525;    0.000
892.287; 2480.400;  129.525;    0.000
892.466; 2432.400;  163.525;    0.000
892.644; 2458.400;  147.525;    0.000
892.823; 2478.400;  127.525;    0.000
893.001; 2466.400;  192.525;    0.000
893.180; 2339.400;  157.525;    0.000
893.359; 2459.400;  176.525;    0.000
893.537; 2432.400;  146.525;    0.000
893.716; 2526.400;  154.525;    0.000
893.894; 2466.400;  166.525;    0.000
894.073; 2493.400;  163.525;    0.000
894.251; 2431.400;  166.525;    0.000
894.429; 2429.400;  149.525;    0.000
894.608; 2448.400;  141.525;    0.000
894.786; 2406.400;  139.525;    0.000
894.964; 2518.400;  180.525;    0.000
895.143; 2477.400;  193.525;    0.000
895.321; 2466.400;  163.525;    0.000
895.499; 2481.400;  163.525;    0.000
895.677; 2450.400;  194.525;    0.000
895.856; 2438.400;  176.525;    0.000
896.034; 2550.400;  173.525;    0.000
896.212; 2524.400;  180.525;    0.000
896.390; 2448.400;  146.525;    0.000
896.568; 2538.400;  167.525;    0.000
896.746; 2472.400;  158.525;    0.000
896.924; 2488.400;  163.525;    0.000
897.102; 2503.400;  170.525;    0.000
897.280; 2375.400;  159.525;    0.000
897.458; 2448.400;  182.525;    0.000
897.636; 2507.400;  151.525;    0.000
897.814; 2515.400;  130.525;    0.000
897.992; 2551.400;  213.525;    0.000
898.170; 2527.400;  164.525;    0.000
898.348; 2501.400;  159.525;    0.000
898.526; 2555.400;  182.525;    0.000
898.704; 2619.400;  209.525;    0.000
898.882; 2485.400;  145.525;    0.000
899.059; 2515.400;  172.525;    0.000
899.237; 2478.400;  172.525;    0.000
899.415; 2565.400;  211.525;    0.000
899.593; 2553.400;  151.525;    0.000
899.770; 2554.400;  147.525;    0.000
899.948; 2553.400;  218.525;    0.000
900.125; 2664.400;  166.525;    0.000
900.303; 2632.400;  146.525;    0.000
900.481; 2598.400;  174.525;    0.000
900.658; 2702.400;  198.525;    0.000
900.836; 2514.400;  125.525;    0.000
901.013; 2647.400;  197.525;    0.000
901.191; 2661.400;  181.525;    0.000
901.368; 2690.400;  185.525;    0.000
901.546; 2750.400;  197.525;    0.000
901.723; 2818.400;  205.525;    0.000
901.901; 2785.400;  187.525;    0.000
902.078; 2934.400;  163.525;    0.000
902.255; 2912.400;  141.525;    0.000
902.433; 2966.400;  183.525;    0.000
902.610; 3086.400;  181.525;    0.000
902.787; 2978.400;  174.525;    0.000
902.964; 3034.400;  174.525;    0.000
903.142; 3163.400;  141.525;    0.000
903.319; 3106.400;  214.525;    0.000
903.496; 3244.400;  187.525;    0.000
903.673; 3362.400;  183.525;    0.000
903.850; 3346.400;  125.525;    0.000
904.027; 3539.400;  197.525;    0.000
904.204; 3756.400;  197.525;    0.000
904.381; 4069.400;  196.525;    0.000
904.558; 4796.400;  176.525;    0.000
904.735; 5300.400;  179.525;    0.000
904.912; 5311.400;  203.525;    0.000
905.089; 5349.400;  159.525;    0.000
905.266; 4830.400;  176.525;    0.000
905.443; 4471.400;  184.525;    0.000
905.620; 4105.400;  168.525;    0.000
905.797; 4017.400;  214.525;    0.000
905.974; 3858.400;  154.525;    0.000
906.151; 3688.400;  132.525;    0.000
906.327; 3845.400;  192.525;    0.000
906.504; 3698.400;  186.525;    0.000
906.681; 3588.400;  171.525;    0.000
906.858; 3534.400;  181.525;    0.000
907.034; 3399.400;  164.525;    0.000
907.211; 3258.400;  184.525;    0.000
907.388; 3228.400;  177.525;    0.000
907.564; 3111.400;  150.525;    0.000
907.741; 3110.400;  195.525;    0.000
907.917; 3101.400;  190.525;    0.000
908.094; 2992.400;  214.525;    0.000
908.271; 2909.400;  173.525;    0.000
908.447; 2889.400;  229.525;    0.000
908.623; 2818.400;  162.525;    0.000
908.800; 2968.400;  195.525;    0.000
908.976; 2915.400;  171.525;    0.000
909.153; 2916.400;  167.525;    0.000
909.329; 2874.400;  227.525;    0.000
909.505; 2742.400;  167.525;    0.000
909.682; 2717.400;  174.525;    0.000
909.858; 2651.400;  158.525;    0.000
910.034; 2743.400;  188.525;    0.000
910.211; 2726.400;  158.525;    0.000
910.387; 2778.400;  208.525;    0.000
910.563; 2690.400;  203.525;    0.000
910.739; 2773.400;  201.525;    0.000
910.915; 2671.400;  170.525;    0.000
911.091; 2640.400;  171.525;    0.000
911.268; 2684.400;  220.525;    0.000
911.444; 2602.400;  202.525;    0.000
911.620; 2634.400;  175.525;    0.000
911.796; 2567.400;  175.525;    0.000
911.972; 2629.400;  164.525;    0.000
912.148; 2597.400;  174.525;    0.000
912.324; 2650.400;  155.525;    0.000
912.500; 2604.400;  156.525;    0.000
912.676; 2623.400;  138.525;    0.000
912.851; 2636.400;  158.525;    0.000
913.027; 2644.400;  161.525;    0.000
913.203; 2664.400;  168.525;    0.000
913.379; 2615.400;  172.525;    0.000
913.555; 2683.400;  193.525;    0.000
913.730; 2555.400;  149.525;    0.000
913.906; 2595.400;  159.525;    0.000
914.082; 2605.400;  184.525;    0.000
914.258; 2603.400;  194.525;    0.000
914.433; 2575.400;  175.525;    0.000
914.609; 2633.400;  175.525;    0.000
914.784; 2659.400;  170.525;    0.000
914.960; 2580.400;  212.525;    0.000
915.136; 2615.400;  157.525;    0.000
915.311; 2691.400;  204.525;    0.000
915.487; 2540.400;  180.525;    0.000
915.662; 2729.400;  203.525;    0.000
915.838; 2609.400;  194.525;    0.000
916.013; 2629.400;  217.525;    0.000
916.189; 2539.400;  196.525;    0.000
916.364; 2647.400;  236.525;    0.000
916.539; 2608.400;  192.525;    0.000
916.715; 2580.400;  181.525;    0.000
916.890; 2610.400;  185.525;    0.000
917.065; 2665.400;  166.525;    0.000
917.240; 2593.400;  182.525;    0.000
917.416; 2685.400;  188.525;    0.000
917.591; 2565.400;  185.525;    0.000
917.766; 2646.400;  187.525;    0.000
917.941; 2592.400;  181.525;    0.000
918.116; 2630.400;  207.525;    0.000
918.292; 2658.400;  140.525;    0.000
918.467; 2646.400;  187.525;    0.000
918.642; 2670.400;  208.525;    0.000
918.817; 2637.400;  203.525;    0.000
918.992; 2688.400;  162.525;    0.000
919.167; 2794.400;  206.525;    0.000
919.342; 2682.400;  188.525;    0.000
919.517; 2772.400;  190.525;    0.000
919.692; 2668.400;  174.525;    0.000
919.867; 2759.400;  181.525;    0.000
920.041; 2756.400;  179.525;    0.000
920.216; 2800.400;  186.525;    0.000
920.391; 2915.400;  209.525;    0.000
920.566; 3097.400;  205.525;    0.000
920.741; 3059.400;  205.525;    0.000
920.915; 3175.400;  206.525;    0.000
921.090; 3383.400;  219.525;    0.000
921.265; 4173.400;  185.525;    0.000
921.439; 4694.400;  171.525;    0.000
921.614; 4057.400;  197.525;    0.000
921.789; 3775.400;  189.525;    0.000
921.963; 3533.400;  210.525;    0.000
922.138; 3370.400;  171.525;    0.000
922.312; 3356.400;  194.525;    0.000
922.487; 3366.400;  231.525;    0.000
922.661; 3565.400;  179.525;    0.000
922.836; 4008.400;  213.525;    0.000
923.010; 4086.400;  182.525;    0.000
923.185; 3645.400;  239.525;    0.000
923.359; 3562.400;  200.525;    0.000
923.534; 3472.400;  232.525;    0.000
923.708; 3583.400;  221.525;    0.000
923.882; 3786.400;  193.525;    0.000
924.057; 3614.400;  204.525;    0.000
924.231; 3494.400;  172.525;    0.000
924.405; 3375.400;  202.525;    0.000
924.579; 3253.400;  207.525;    0.000
924.753; 3230.400;  167.525;    0.000
924.928; 3324.400;  202.525;    0.000
925.102; 3296.400;  200.525;    0.000
925.276; 3207.400;  185.525;    0.000
925.450; 3232.400;  170.525;    0.000
925.624; 3416.400;  176.525;    0.000
925.798; 3489.400;  221.525;    0.000
925.972; 3649.400;  162.525;    0.000
926.146; 3893.400;  207.525;    0.000
926.320; 4301.400;  185.525;    0.000
926.494; 4677.400;  192.525;    0.000
926.668; 4826.400;  179.525;    0.000
926.842; 5178.400;  181.525;    0.000
927.016; 5050.400;  224.525;    0.000
927.190; 4888.400;  193.525;    0.000
927.363; 4696.400;  194.525;    0.000
927.537; 4584.400;  210.525;    0.000
927.711; 4398.400;  153.525;    0.000
927.885; 4292.400;  184.525;    0.000
928.058; 4203.400;  197.525;    0.000
928.232; 4067.400;  219.525;    0.000
928.406; 3969.400;  175.525;    0.000
928.579; 3794.400;  179.525;    0.000
928.753; 3789.400;  208.525;    0.000
928.927; 3703.400;  163.525;    0.000
929.100; 3623.400;  138.525;    0.000
929.274; 3566.400;  160.525;    0.000
929.447; 3470.400;  152.525;    0.000
929.621; 3400.400;  168.525;    0.000
929.794; 3359.400;  152.525;    0.000
929.968; 3315.400;  163.525;    0.000
930.141; 3326.400;  164.525;    0.000
930.315; 3170.400;  170.525;    0.000
930.488; 3209.400;  216.525;    0.000
930.661; 3097.400;  184.525;    0.000
930.835; 2965.400;  156.525;    0.000
931.008; 3044.400;  206.525;    0.000
931.181; 2988.400;  163.525;    0.000
931.354; 3040.400;  198.525;    0.000
931.528; 2904.400;  156.525;    0.000
931.701; 2834.400;  170.525;    0.000
931.874; 2793.400;  167.525;    0.000
932.047; 2795.400;  146.525;    0.000
932.220; 2799.400;  159.525;    0.000
932.393; 2703.400;  186.525;    0.000
932.566; 2676.400;  147.525;    0.000
932.739; 2784.400;  192.525;    0.000
932.912; 2715.400;  197.525;    0.000
933.085; 2833.400;  176.525;    0.000
933.258; 2711.400;  171.525;    0.000
933.431; 2689.400;  150.525;    0.000
933.604; 2683.400;  176.525;    0.000
933.777; 2739.400;  215.525;    0.000
933.950; 2724.400;  164.525;    0.000
934.123; 2567.400;  174.525;    0.000
934.296; 2688.400;  203.525;    0.000
934.468; 2537.400;  208.525;    0.000
934.641; 2561.400;  182.525;    0.000
934.814; 2655.400;  170.525;    0.000
934.987; 2611.400;  183.525;    0.000
935.159; 2535.400;  154.525;    0.000
935.332; 2562.400;  178.525;    0.000
935.505; 2500.400;  213.525;    0.000
935.677; 2547.400;  173.525;    0.000
935.850; 2609.400;  190.525;    0.000
936.022; 2639.400;  205.525;    0.000
936.195; 2620.400;  201.525;    0.000
936.367; 2533.400;  189.525;    0.000
936.540; 2677.400;  179.525;    0.000
936.712; 2578.400;  195.525;    0.000
936.885; 2635.400;  207.525;    0.000
937.057; 2625.400;  163.525;    0.000
937.229; 2600.400;  175.525;    0.000
937.402; 2668.400;  168.525;    0.000
937.574; 2782.400;  136.525;    0.000
937.746; 2823.400;  166.525;    0.000
937.919; 2954.400;  178.525;    0.000
938.091; 3093.400;  192.525;    0.000
938.263; 3319.400;  164.525;    0.000
938.435; 3628.400;  204.525;    0.000
938.608; 4105.400;  153.525;    0.000
938.780; 4892.400;  159.525;    0.000
938.952; 5020.400;  160.525;    0.000
939.124; 5191.400;  156.525;    0.000
939.296; 6021.400;  110.525;    0.000
939.468; 6106.400;  135.525;    0.000
939.640; 5377.400;  144.525;    0.000
939.812; 4737.400;  232.525;    0.000
939.984; 4213.400;  128.525;    0.000
940.156; 4074.400;  195.525;    0.000
940.328; 3688.400;  226.525;    0.000
940.500; 3440.400;  146.525;    0.000
940.672; 3408.400;  190.525;    0.000
940.843; 3242.400;  156.525;    0.000
941.015; 3152.400;  200.525;    0.000
941.187; 3109.400;  159.525;    0.000
941.359; 3037.400;  183.525;    0.000
941.531; 3065.400;  137.525;    0.000
941.702; 2932.400;  186.525;    0.000
941.874; 2741.400;  164.525;    0.000
942.046; 2866.400;  202.525;    0.000
942.217; 2768.400;  146.525;    0.000
942.389; 2854.400;  165.525;    0.000
942.560; 2661.400;  191.525;    0.000
942.732; 2626.400;  240.525;    0.000
942.904; 2528.400;  173.525;    0.000
943.075; 2403.400;  157.525;    0.000
943.247; 2536.400;  155.525;    0.000
943.418; 2464.400;  164.525;    0.000
943.589; 2478.400;  150.525;    0.000
943.761; 2533.400;  143.525;    0.000
943.932; 2461.400;  151.525;    0.000
944.104; 2419.400;  194.525;    0.000
944.275; 2307.400;  154.525;    0.000
944.446; 2364.400;  169.525;    0.000
944.617; 2392.400;  138.525;    0.000
944.789; 2374.400;  158.525;    0.000
944.960; 2311.400;  197.525;    0.000
945.131; 2321.400;  139.525;    0.000
945.302; 2303.400;  169.525;    0.000
945.473; 2155.400;  149.525;    0.000
945.645; 2322.400;  171.525;    0.000
945.816; 2241.400;  167.525;    0.000
945.987; 2354.400;  156.525;    0.000
946.158; 2453.400;  185.525;    0.000
946.329; 2449.400;  201.525;    0.000
946.500; 2352.400;  182.525;    0.000
946.671; 2272.400;  156.525;    0.000
946.842; 2328.400;  190.525;    0.000
947.013; 2268.400;  159.525;    0.000
947.183; 2258.400;  209.525;    0.000
947.354; 2179.400;  171.525;    0.000
947.525; 2227.400;  180.525;    0.000
947.696; 2171.400;  163.525;    0.000
947.867; 2295.400;  168.525;    0.000
948.037; 2220.400;  153.525;    0.000
948.208; 2215.400;  178.525;    0.000
948.379; 2269.400;  192.525;    0.000
948.550; 2127.400;  180.525;    0.000
948.720; 2213.400;  196.525;    0.000
948.891; 2167.400;  173.525;    0.000
949.061; 2135.400;  207.525;    0.000
949.232; 2090.400;  176.525;    0.000
949.403; 2093.400;  152.525;    0.000
949.573; 2040.400;  186.525;    0.000
949.744; 2191.400;  181.525;    0.000
949.914; 2165.400;  174.525;    0.000
950.085; 2146.400;  146.525;    0.000
950.255; 2084.400;  162.525;    0.000
950.425; 2111.400;  189.525;    0.000
950.596; 2087.400;  175.525;    0.000
950.766; 2154.400;  209.525;    0.000
950.936; 2148.400;  201.525;    0.000
951.107; 2037.400;  141.525;    0.000
951.277; 2161.400;  211.525;    0.000
951.447; 2067.400;  218.525;    0.000
951.617; 2106.400;  191.525;    0.000
951.788; 2149.400;  193.525;    0.000
951.958; 2074.400;  217.525;    0.000
952.128; 1992.400;  192.525;    0.000
952.298; 2049.400;  237.525;    0.000
952.468; 2148.400;  194.525;    0.000
952.638; 2072.400;  201.525;    0.000
952.808; 2058.400;  203.525;    0.000
952.978; 1985.400;  216.525;    0.000
953.148; 1996.400;  209.525;    0.000
953.318; 2077.400;  213.525;    0.000
953.488; 2019.400;  161.525;    0.000
953.658; 1978.400;  222.525;    0.000
953.828; 1916.400;  196.525;    0.000
953.998; 1989.400;  227.525;    0.000
954.167; 2008.400;  163.525;    0.000
954.337; 1935.400;  201.525;    0.000
954.507; 1904.400;  227.525;    0.000
954.677; 1917.400;  204.525;    0.000
954.846; 1968.400;  210.525;    0.000
955.016; 1949.400;  198.525;    0.000
955.186; 1969.400;  203.525;    0.000
955.355; 1913.400;  198.525;    0.000
955.525; 1934.400;  198.525;    0.000
955.695; 1887.400;  187.525;    0.000
955.864; 1840.400;  243.525;    0.000
956.034; 1906.400;  192.525;    0.000
956.203; 1916.400;  259.525;    0.000
956.373; 1886.400;  185.525;    0.000
956.542; 1873.400;  230.525;    0.000
956.711; 1863.400;  218.525;    0.000
956.881; 1910.400;  232.525;    0.000
957.050; 1897.400;  246.525;    0.000
957.220; 1816.400;  229.525;    0.000
957.389; 1860.400;  211.525;    0.000
957.558; 1799.400;  173.525;    0.000
957.727; 1820.400;  226.525;    0.000
957.897; 1864.400;  209.525;    0.000
958.066; 1761.400;  217.525;    0.000
958.235; 1783.400;  160.525;    0.000
958.404; 1779.400;  199.525;    0.000
958.573; 1797.400;  223.525;    0.000
958.743; 1819.400;  189.525;    0.000
958.912; 1734.400;  199.525;    0.000
959.081; 1799.400;  216.525;    0.000
959.250; 1769.400;  192.525;    0.000
959.419; 1796.400;  216.525;    0.000
959.588; 1851.400;  209.525;    0.000
959.757; 1794.400;  194.525;    0.000
959.926; 1861.400;  200.525;    0.000
960.094; 1728.400;  174.525;    0.000
960.263; 1809.400;  218.525;    0.000
960.432; 1793.400;  173.525;    0.000
960.601; 1774.400;  177.525;    0.000
960.770; 1654.400;  188.525;    0.000
960.939; 1745.400;  167.525;    0.000
961.107; 1776.400;  195.525;    0.000
961.276; 1696.400;  183.525;    0.000
961.445; 1714.400;  195.525;    0.000
961.613; 1798.400;  198.525;    0.000
961.782; 1672.400;  224.525;    0.000
961.951; 1721.400;  178.525;    0.000
962.119; 1809.400;  214.525;    0.000
962.288; 1730.400;  174.525;    0.000
962.456; 1638.400;  197.525;    0.000
962.625; 1771.400;  212.525;    0.000
962.793; 1684.400;  183.525;    0.000
962.962; 1688.400;  189.525;    0.000
963.130; 1692.400;  151.525;    0.000
963.298; 1786.400;  197.525;    0.000
963.467; 1693.400;  202.525;    0.000
963.635; 1751.400;  172.525;    0.000
963.803; 1673.400;  203.525;    0.000
963.972; 1765.400;  204.525;    0.000
964.140; 1698.400;  193.525;    0.000
964.308; 1724.400;  159.525;    0.000
964.477; 1705.400;  142.525;    0.000
964.645; 1758.400;  202.525;    0.000
964.813; 1780.400;  158.525;    0.000
964.981; 1716.400;  179.525;    0.000
965.149; 1825.400;  176.525;    0.000
965.317; 1772.400;  229.525;    0.000
965.485; 1722.400;  179.525;    0.000
965.653; 1833.400;  205.525;    0.000
965.821; 1729.400;  196.525;    0.000
965.989; 1732.400;  202.525;    0.000
966.157; 1765.400;  199.525;    0.000
966.325; 1776.400;  178.525;    0.000
966.493; 1708.400;  177.525;    0.000
966.661; 1724.400;  172.525;    0.000
966.829; 1777.400;  167.525;    0.000
966.996; 1708.400;  202.525;    0.000
967.164; 1707.400;  175.525;    0.000
967.332; 1741.400;  207.525;    0.000
967.500; 1729.400;  170.525;    0.000
967.667; 1738.400;  222.525;    0.000
967.835; 1819.400;  245.525;    0.000
968.003; 1679.400;  180.525;    0.000
968.170; 1730.400;  222.525;    0.000
968.338; 1770.400;  183.525;    0.000
968.505; 1758.400;  197.525;    0.000
968.673; 1727.400;  209.525;    0.000
968.841; 1669.400;  162.525;    0.000
969.008; 1694.400;  187.525;    0.000
969.175; 1648.400;  204.525;    0.000
969.343; 1722.400;  157.525;    0.000
969.510; 1715.400;  189.525;    0.000
969.678; 1684.400;  153.525;    0.000
969.845; 1662.400;  190.525;    0.000
970.012; 1727.400;  162.525;    0.000
970.180; 1726.400;  223.525;    0.000
970.347; 1687.400;  195.525;    0.000
970.514; 1687.400;  185.525;    0.000
970.681; 1658.400;  187.525;    0.000
970.849; 1729.400;  183.525;    0.000
971.016; 1690.400;  168.525;    0.000
971.183; 1619.400;  160.525;    0.000
971.350; 1711.400;  193.525;    0.000
971.517; 1708.400;  202.525;    0.000
971.684; 1672.400;  242.525;    0.000
971.851; 1670.400;  192.525;    0.000
972.018; 1687.400;  194.525;    0.000
972.185; 1675.400;  193.525;    0.000
972.352; 1735.400;  187.525;    0.000
972.519; 1689.400;  233.525;    0.000
972.686; 1710.400;  186.525;    0.000
972.853; 1613.400;  165.525;    0.000
973.020; 1593.400;  183.525;    0.000
973.186; 1691.400;  186.525;    0.000
973.353; 1646.400;  177.525;    0.000
973.520; 1650.400;  203.525;    0.000
973.687; 1666.400;  211.525;    0.000
973.853; 1644.400;  194.525;    0.000
974.020; 1711.400;  201.525;    0.000
974.187; 1634.400;  187.525;    0.000
974.353; 1662.400;  188.525;    0.000
974.520; 1620.400;  136.525;    0.000
974.687; 1667.400;  169.525;    0.000
974.853; 1711.400;  207.525;    0.000
975.020; 1684.400;  190.525;    0.000
975.186; 1740.400;  182.525;    0.000
975.353; 1637.400;  202.525;    0.000
975.519; 1571.400;  189.525;    0.000
975.685; 1601.400;  176.525;    0.000
975.852; 1621.400;  175.525;    0.000
976.018; 1623.400;  155.525;    0.000
976.184; 1620.400;  179.525;    0.000
976.351; 1583.400;  191.525;    0.000
976.517; 1648.400;  246.525;    0.000
976.683; 1618.400;  222.525;    0.000
976.849; 1615.400;  216.525;    0.000
977.016; 1657.400;  212.525;    0.000
977.182; 1621.400;  192.525;    0.000
977.348; 1595.400;  145.525;    0.000
977.514; 1648.400;  195.525;    0.000
977.680; 1687.400;  210.525;    0.000
977.846; 1598.400;  172.525;    0.000
978.012; 1588.400;  190.525;    0.000
978.178; 1645.400;  201.525;    0.000
978.344; 1603.400;  190.525;    0.000
978.510; 1551.400;  199.525;    0.000
978.676; 1538.400;  174.525;    0.000
978.842; 1577.400;  195.525;    0.000
979.008; 1516.400;  205.525;    0.000
979.174; 1585.400;  187.525;    0.000
979.340; 1603.400;  194.525;    0.000
979.505; 1646.400;  221.525;    0.000
979.671; 1582.400;  178.525;    0.000
979.837; 1555.400;  215.525;    0.000
980.003; 1592.400;  176.525;    0.000
980.168; 1581.400;  185.525;    0.000
980.334; 1636.400;  165.525;    0.000
980.499; 1630.400;  231.525;    0.000
980.665; 1607.400;  238.525;    0.000
980.831; 1689.400;  194.525;    0.000
980.996; 1658.400;  169.525;    0.000
981.162; 1723.400;  199.525;    0.000
981.327; 1640.400;  158.525;    0.000
981.493; 1647.400;  193.525;    0.000
981.658; 1658.400;  181.525;    0.000
981.823; 1668.400;  199.525;    0.000
981.989; 1667.400;  186.525;    0.000
982.154; 1725.400;  225.525;    0.000
982.319; 1697.400;  191.525;    0.000
982.485; 1640.400;  205.525;    0.000
982.650; 1749.400;  234.525;    0.000
982.815; 1637.400;  193.525;    0.000
982.980; 1664.400;  177.525;    0.000
983.146; 1708.400;  212.525;    0.000
983.311; 1633.400;  177.525;    0.000
983.476; 1610.400;  185.525;    0.000
983.641; 1672.400;  149.525;    0.000
983.806; 1601.400;  175.525;    0.000
983.971; 1713.400;  234.525;    0.000
984.136; 1628.400;  191.525;    0.000
984.301; 1756.400;  215.525;    0.000
984.466; 1635.400;  207.525;    0.000
984.631; 1674.400;  206.525;    0.000
984.796; 1622.400;  229.525;    0.000
984.961; 1611.400;  220.525;    0.000
985.126; 1639.400;  204.525;    0.000
985.291; 1591.400;  210.525;    0.000
985.455; 1578.400;  193.525;    0.000
985.620; 1582.400;  207.525;    0.000
985.785; 1701.400;  188.525;    0.000
985.950; 1591.400;  168.525;    0.000
986.114; 1649.400;  239.525;    0.000
986.279; 1618.400;  223.525;    0.000
986.444; 1662.400;  154.525;    0.000
986.608; 1650.400;  232.525;    0.000
986.773; 1679.400;  214.525;    0.000
986.937; 1774.400;  220.525;    0.000
987.102; 1708.400;  224.525;    0.000
987.266; 1650.400;  157.525;    0.000
987.431; 1730.400;  246.525;    0.000
987.595; 1661.400;  203.525;    0.000
987.760; 1658.400;  202.525;    0.000
987.924; 1679.400;  208.525;    0.000
988.088; 1668.400;  169.525;    0.000
988.253; 1660.400;  237.525;    0.000
988.417; 1692.400;  202.525;    0.000
988.581; 1650.400;  215.525;    0.000
988.746; 1623.400;  210.525;    0.000
988.910; 1619.400;  191.525;    0.000
989.074; 1619.400;  197.525;    0.000
989.238; 1599.400;  191.525;    0.000
989.402; 1500.400;  222.525;    0.000
989.566; 1603.400;  221.525;    0.000
989.731; 1537.400;  216.525;    0.000
989.895; 1577.400;  183.525;    0.000
990.059; 1499.400;  150.525;    0.000
990.223; 1493.400;  183.525;    0.000
990.387; 1551.400;  241.525;    0.000
990.551; 1694.400;  198.525;    0.000
990.714; 1608.400;  176.525;    0.000
990.878; 1551.400;  203.525;    0.000
991.042; 1538.400;  146.525;    0.000
991.206; 1643.400;  199.525;    0.000
991.370; 1570.400;  223.525;    0.000
991.534; 1539.400;  158.525;    0.000
991.697; 1583.400;  182.525;    0.000
991.861; 1616.400;  195.525;    0.000
992.025; 1537.400;  206.525;    0.000
992.188; 1488.400;  174.525;    0.000
992.352; 1513.400;  183.525;    0.000
992.516; 1533.400;  181.525;    0.000
992.679; 1523.400;  162.525;    0.000
992.843; 1558.400;  173.525;    0.000
993.006; 1541.400;  189.525;    0.000
993.170; 1606.400;  200.525;    0.000
993.333; 1492.400;  167.525;    0.000
993.497; 1491.400;  217.525;    0.000
993.660; 1490.400;  179.525;    0.000
993.824; 1598.400;  195.525;    0.000
993.987; 1552.400;  186.525;    0.000
994.150; 1487.400;  164.525;    0.000
994.314; 1591.400;  215.525;    0.000
994.477; 1530.400;  186.525;    0.000
994.640; 1530.400;  192.525;    0.000
994.803; 1597.400;  215.525;    0.000
994.967; 1503.400;  208.525;    0.000
995.130; 1519.400;  196.525;    0.000
995.293; 1530.400;  221.525;    0.000
995.456; 1496.400;  164.525;    0.000
995.619; 1564.400;  224.525;    0.000
995.782; 1569.400;  184.525;    0.000
995.945; 1543.400;  220.525;    0.000
996.108; 1514.400;  187.525;    0.000
996.271; 1541.400;  192.525;    0.000
996.434; 1545.400;  162.525;    0.000
996.597; 1510.400;  148.525;    0.000
996.760; 1563.400;  186.525;    0.000
996.923; 1508.400;  154.525;    0.000
997.086; 1512.400;  156.525;    0.000
997.248; 1550.400;  215.525;    0.000
997.411; 1492.400;  160.525;    0.000
997.574; 1533.400;  159.525;    0.000
997.737; 1523.400;  179.525;    0.000
997.899; 1467.400;  184.525;    0.000
998.062; 1440.400;  180.525;    0.000
998.225; 1523.400;  168.525;    0.000
998.387; 1516.400;  192.525;    0.000
998.550; 1451.400;  178.525;    0.000
998.712; 1435.400;  192.525;    0.000
998.875; 1569.400;  230.525;    0.000
999.037; 1461.400;  200.525;    0.000
999.200; 1441.400;  196.525;    0.000
999.362; 1489.400;  173.525;    0.000
999.525; 1505.400;  196.525;    0.000
999.687; 1428.400;  159.525;    0.000
999.849; 1526.400;  180.525;    0.000
1000.012; 1504.400;  210.525;    0.000
1000.174; 1486.400;  175.525;    0.000
1000.336; 1544.400;  174.525;    0.000
1000.499; 1467.400;  180.525;    0.000
1000.661; 1544.400;  204.525;    0.000
1000.823; 1611.400;  181.525;    0.000
1000.985; 1502.400;  178.525;    0.000
1001.147; 1623.400;  215.525;    0.000
1001.309; 1551.400;  212.525;    0.000
1001.471; 1621.400;  192.525;    0.000
1001.633; 1599.400;  207.525;    0.000
1001.796; 1542.400;  211.525;    0.000
1001.958; 1601.400;  200.525;    0.000
1002.119; 1673.400;  210.525;    0.000
1002.281; 1682.400;  204.525;    0.000
1002.443; 1687.400;  230.525;    0.000
1002.605; 1800.400;  178.525;    0.000
1002.767; 1968.400;  228.525;    0.000
1002.929; 1758.400;  199.525;    0.000
1003.091; 1950.400;  220.525;    0.000
1003.252; 2023.400;  219.525;    0.000
1003.414; 2001.400;  213.525;    0.000
1003.576; 2083.400;  202.525;    0.000
1003.738; 2160.400;  184.525;    0.000
1003.899; 2360.400;  218.525;    0.000
1004.061; 2369.400;  210.525;    0.000
1004.222; 2444.400;  179.525;    0.000
1004.384; 2533.400;  183.525;    0.000
1004.546; 2599.400;  206.525;    0.000
1004.707; 2529.400;  191.525;    0.000
1004.869; 2574.400;  197.525;    0.000
1005.030; 2629.400;  186.525;    0.000
1005.191; 2462.400;  188.525;    0.000
1005.353; 2451.400;  215.525;    0.000
1005.514; 2398.400;  184.525;    0.000
1005.675; 2316.400;  209.525;    0.000
1005.837; 2314.400;  239.525;    0.000
1005.998; 2128.400;  218.525;    0.000
1006.159; 2115.400;  212.525;    0.000
1006.321; 2204.400;  220.525;    0.000
1006.482; 2243.400;  201.525;    0.000
1006.643; 2352.400;  222.525;    0.000
1006.804; 2345.400;  191.525;    0.000
1006.965; 2521.400;  214.525;    0.000
1007.126; 2491.400;  214.525;    0.000
1007.287; 2509.400;  243.525;    0.000
1007.448; 2495.400;  251.525;    0.000
1007.609; 2440.400;  244.525;    0.000
1007.770; 2342.400;  211.525;    0.000
1007.931; 2299.400;  225.525;    0.000
1008.092; 2424.400;  188.525;    0.000
1008.253; 2479.400;  224.525;    0.000
1008.414; 2521.400;  198.525;    0.000
1008.575; 2536.400;  244.525;    0.000
1008.736; 2541.400;  219.525;    0.000
1008.896; 2571.400;  206.525;    0.000
1009.057; 2561.400;  258.525;    0.000
1009.218; 2520.400;  209.525;    0.000
1009.379; 2515.400;  204.525;    0.000
1009.539; 2644.400;  242.525;    0.000
1009.700; 2581.400;  205.525;    0.000
1009.860; 2572.400;  211.525;    0.000
1010.021; 2729.400;  219.525;    0.000
1010.182; 2685.400;  206.525;    0.000
1010.342; 2583.400;  219.525;    0.000
1010.503; 2776.400;  231.525;    0.000
1010.663; 2985.400;  260.525;    0.000
1010.823; 2906.400;  200.525;    0.000
1010.984; 2960.400;  189.525;    0.000
1011.144; 3061.400;  234.525;    0.000
1011.305; 3241.400;  212.525;    0.000
1011.465; 3426.400;  202.525;    0.000
1011.625; 3502.400;  236.525;    0.000
1011.785; 3363.400;  203.525;    0.000
1011.946; 3464.400;  195.525;    0.000
1012.106; 3298.400;  176.525;    0.000
1012.266; 3396.400;  211.525;    0.000
1012.426; 3392.400;  244.525;    0.000
1012.586; 3295.400;  202.525;    0.000
1012.746; 3239.400;  234.525;    0.000
1012.906; 3202.400;  246.525;    0.000
1013.066; 3211.400;  232.525;    0.000
1013.226; 3199.400;  248.525;    0.000
1013.386; 3149.400;  231.525;    0.000
1013.546; 3015.400;  233.525;    0.000
1013.706; 3134.400;  211.525;    0.000
1013.866; 3029.400;  240.525;    0.000
1014.026; 3227.400;  188.525;    0.000
1014.186; 2970.400;  186.525;    0.000
1014.346; 2999.400;  203.525;    0.000
1014.505; 3030.400;  238.525;    0.000
1014.665; 3042.400;  206.525;    0.000
1014.825; 3049.400;  200.525;    0.000
1014.985; 3068.400;  215.525;    0.000
1015.144; 3173.400;  250.525;    0.000
1015.304; 3228.400;  195.525;    0.000
1015.464; 3224.400;  237.525;    0.000
1015.623; 3230.400;  232.525;    0.000
1015.783; 3357.400;  220.525;    0.000
1015.942; 3614.400;  219.525;    0.000
1016.102; 3579.400;  202.525;    0.000
1016.261; 3517.400;  225.525;    0.000
1016.420; 3772.400;  246.525;    0.000
1016.580; 4078.400;  226.525;    0.000
1016.739; 3970.400;  214.525;    0.000
1016.899; 3893.400;  205.525;    0.000
1017.058; 3970.400;  217.525;    0.000
1017.217; 4143.400;  199.525;    0.000
1017.376; 4034.400;  219.525;    0.000
1017.536; 3662.400;  209.525;    0.000
1017.695; 3718.400;  213.525;    0.000
1017.854; 3824.400;  187.525;    0.000
1018.013; 3599.400;  222.525;    0.000
1018.172; 3498.400;  204.525;    0.000
1018.331; 3556.400;  195.525;    0.000
1018.490; 3616.400;  213.525;    0.000
1018.649; 3849.400;  216.525;    0.000
1018.808; 3951.400;  227.525;    0.000
1018.967; 3970.400;  206.525;    0.000
1019.126; 3957.400;  206.525;    0.000
1019.285; 4011.400;  219.525;    0.000
1019.444; 3988.400;  218.525;    0.000
1019.603; 3731.400;  206.525;    0.000
1019.762; 3638.400;  189.525;    0.000
1019.921; 3844.400;  217.525;    0.000
1020.079; 3943.400;  200.525;    0.000
1020.238; 4185.400;  219.525;    0.000
1020.397; 4011.400;  227.525;    0.000
1020.555; 3622.400;  207.525;    0.000
1020.714; 3767.400;  253.525;    0.000
1020.873; 4193.400;  230.525;    0.000
1021.031; 4102.400;  232.525;    0.000
1021.190; 3815.400;  226.525;    0.000
1021.348; 3812.400;  224.525;    0.000
1021.507; 4007.400;  215.525;    0.000
1021.665; 4374.400;  233.525;    0.000
1021.824; 4074.400;  196.525;    0.000
1021.982; 3877.400;  215.525;    0.000
1022.141; 3977.400;  200.525;    0.000
1022.299; 4313.400;  200.525;    0.000
1022.457; 4604.400;  179.525;    0.000
1022.616; 4162.400;  226.525;    0.000
1022.774; 3814.400;  216.525;    0.000
1022.932; 4100.400;  212.525;    0.000
1023.090; 4444.400;  220.525;    0.000
1023.249; 4639.400;  194.525;    0.000
1023.407; 4286.400;  227.525;    0.000
1023.565; 3914.400;  190.525;    0.000
1023.723; 4209.400;  190.525;    0.000
1023.881; 4553.400;  214.525;    0.000
1024.039; 4591.400;  179.525;    0.000
1024.197; 4392.400;  274.525;    0.000
1024.355; 4076.400;  269.525;    0.000
1024.513; 4310.400;  259.525;    0.000
1024.671; 4678.400;  211.525;    0.000
1024.829; 4883.400;  230.525;    0.000
1024.987; 4479.400;  239.525;    0.000
1025.145; 4167.400;  231.525;    0.000
1025.302; 4292.400;  212.525;    0.000
1025.460; 4612.400;  224.525;    0.000
1025.618; 4837.400;  217.525;    0.000
1025.776; 4573.400;  232.525;    0.000
1025.933; 4147.400;  212.525;    0.000
1026.091; 4349.400;  214.525;    0.000
1026.249; 4761.400;  224.525;    0.000
1026.406; 4942.400;  219.525;    0.000
1026.564; 4792.400;  262.525;    0.000
1026.721; 4475.400;  206.525;    0.000
1026.879; 4388.400;  227.525;    0.000
1027.036; 4700.400;  234.525;    0.000
1027.194; 5072.400;  256.525;    0.000
1027.351; 4857.400;  229.525;    0.000
1027.509; 4683.400;  253.525;    0.000
1027.666; 4463.400;  248.525;    0.000
1027.823; 4663.400;  215.525;    0.000
1027.981; 4911.400;  248.525;    0.000
1028.138; 5084.400;  257.525;    0.000
1028.295; 4713.400;  215.525;    0.000
1028.452; 4571.400;  236.525;    0.000
1028.609; 4607.400;  240.525;    0.000
1028.767; 4981.400;  258.525;    0.000
1028.924; 5185.400;  211.525;    0.000
1029.081; 4952.400;  226.525;    0.000
1029.238; 4791.400;  228.525;    0.000
1029.395; 4637.400;  264.525;    0.000
1029.552; 4822.400;  227.525;    0.000
1029.709; 5290.400;  232.525;    0.000
1029.866; 5203.400;  223.525;    0.000
1030.023; 5127.400;  220.525;    0.000
1030.180; 4580.400;  222.525;    0.000
1030.337; 4736.400;  224.525;    0.000
1030.494; 5106.400;  228.525;    0.000
1030.650; 5345.400;  242.525;    0.000
1030.807; 5523.400;  214.525;    0.000
1030.964; 4945.400;  207.525;    0.000
1031.121; 4721.400;  236.525;    0.000
1031.277; 4728.400;  206.525;    0.000
1031.434; 5058.400;  249.525;    0.000
1031.591; 5345.400;  253.525;    0.000
1031.747; 5492.400;  240.525;    0.000
1031.904; 5230.400;  212.525;    0.000
1032.060; 5145.400;  185.525;    0.000
1032.217; 4926.400;  201.525;    0.000
1032.373; 5688.400;  207.525;    0.000
1032.530; 5781.400;  226.525;    0.000
1032.686; 6352.400;  226.525;    0.000
1032.843; 6370.400;  203.525;    0.000
1032.999; 5852.400;  233.525;    0.000
1033.155; 5915.400;  232.525;    0.000
1033.312; 6016.400;  239.525;    0.000
1033.468; 7095.400;  207.525;    0.000
1033.624; 7668.400;  238.525;    0.000
1033.780; 8029.400;  255.525;    0.000
1033.937; 7703.400;  188.525;    0.000
1034.093; 6891.400;  244.525;    0.000
1034.249; 7109.400;  182.525;    0.000
1034.405; 7277.400;  251.525;    0.000
1034.561; 7922.400;  250.525;    0.000
1034.717; 8337.400;  208.525;    0.000
1034.873; 8157.400;  210.525;    0.000
1035.029; 8214.400;  245.525;    0.000
1035.185; 7726.400;  230.525;    0.000
1035.341; 7326.400;  209.525;    0.000
1035.497; 8226.400;  244.525;    0.000
1035.653; 8468.400;  229.525;    0.000
1035.809; 9236.400;  275.525;    0.000
1035.964; 9978.400;  203.525;    0.000
1036.120; 9196.400;  215.525;    0.000
1036.276; 9328.400;  228.525;    0.000
1036.432; 9031.400;  183.525;    0.000
1036.587; 8253.400;  214.525;    0.000
1036.743; 8904.400;  240.525;    0.000
1036.899; 9741.400;  202.525;    0.000
1037.054; 9841.400;  182.525;    0.000
1037.210;10983.400;  228.525;    0.000
1037.365;11398.400;  239.525;    0.000
1037.521;10113.400;  230.525;    0.000
1037.676;10146.400;  217.525;    0.000
1037.832; 9124.400;  235.525;    0.000
1037.987; 9511.400;  210.525;    0.000
1038.143; 9970.400;  206.525;    0.000
1038.298;11394.400;  177.525;    0.000
1038.453;10990.400;  215.525;    0.000
1038.609;12269.400;  210.525;    0.000
1038.764;12385.400;  227.525;    0.000
1038.919;11242.400;  197.525;    0.000
1039.074;11128.400;  183.525;    0.000
1039.229;10364.400;  218.525;    0.000
1039.385;10510.400;  251.525;    0.000
1039.540;10586.400;  222.525;    0.000
1039.695;11790.400;  215.525;    0.000
1039.850;12707.400;  204.525;    0.000
1040.005;13251.400;  241.525;    0.000
1040.160;14366.400;  180.525;    0.000
1040.315;13556.400;  197.525;    0.000
1040.470;13110.400;  180.525;    0.000
1040.625;12381.400;  196.525;    0.000
1040.780;12173.400;  245.525;    0.000
1040.935;11666.400;  204.525;    0.000
1041.089;12203.400;  213.525;    0.000
1041.244;14324.400;  200.525;    0.000
1041.399;14676.400;  212.525;    0.000
1041.554;16238.400;  239.525;    0.000
1041.708;17272.400;  238.525;    0.000
1041.863;17187.400;  213.525;    0.000
1042.018;16045.400;  236.525;    0.000
1042.172;15825.400;  238.525;    0.000
1042.327;14530.400;  254.525;    0.000
1042.481;14623.400;  197.525;    0.000
1042.636;15663.400;  205.525;    0.000
1042.791;15422.400;  218.525;    0.000
1042.945;17888.400;  261.525;    0.000
1043.099;19420.400;  201.525;    0.000
1043.254;19199.400;  191.525;    0.000
1043.408;20411.400;  279.525;    0.000
1043.563;20654.400;  203.525;    0.000
1043.717;20589.400;  229.525;    0.000
1043.871;18947.400;  213.525;    0.000
1044.025;17993.400;  240.525;    0.000
1044.180;17923.400;  220.525;    0.000
1044.334;18346.400;  268.525;    0.000
1044.488;18780.400;  261.525;    0.000
1044.642;19915.400;  205.525;    0.000
1044.796;22244.400;  240.525;    0.000
1044.950;25559.400;  258.525;    0.000
1045.104;27658.400;  218.525;    0.000
1045.258;27569.400;  213.525;    0.000
1045.412;26793.400;  223.525;    0.000
1045.566;26451.400;  240.525;    0.000
1045.720;24395.400;  235.525;    0.000
1045.874;23584.400;  221.525;    0.000
1046.028;21792.400;  247.525;    0.000
1046.182;21346.400;  200.525;    0.000
1046.336;22817.400;  220.525;    0.000
1046.489;23461.400;  228.525;    0.000
1046.643;24539.400;  249.525;    0.000
1046.797;26061.400;  230.525;    0.000
1046.951;27748.400;  234.525;    0.000
1047.104;27756.400;  262.525;    0.000
1047.258;29762.400;  210.525;    0.000
1047.411;30593.400;  235.525;    0.000
1047.565;30096.400;  237.525;    0.000
1047.719;29183.400;  237.525;    0.000
1047.872;27767.400;  225.525;    0.000
1048.026;26118.400;  237.525;    0.000
1048.179;26548.400;  220.525;    0.000
1048.332;26745.400;  219.525;    0.000
1048.486;26195.400;  195.525;    0.000
1048.639;26607.400;  213.525;    0.000
1048.792;27480.400;  245.525;    0.000
1048.946;30611.400;  234.525;    0.000
1049.099;33068.398;  226.525;    0.000
1049.252;32295.400;  282.525;    0.000
1049.406;30341.400;  255.525;    0.000
1049.559;31919.400;  223.525;    0.000
1049.712;35707.398;  253.525;    0.000
1049.865;38403.398;  271.525;    0.000
1050.018;37139.398;  241.525;    0.000
1050.171;32558.400;  202.525;    0.000
1050.324;31531.400;  250.525;    0.000
1050.477;32901.398;  251.525;    0.000
1050.630;36257.398;  216.525;    0.000
1050.783;36959.398;  205.525;    0.000
1050.936;34922.398;  219.525;    0.000
1051.089;33251.398;  247.525;    0.000
1051.242;34960.398;  238.525;    0.000
1051.394;37864.398;  252.525;    0.000
1051.547;39681.398;  245.525;    0.000
1051.700;38372.398;  206.525;    0.000
1051.853;37595.398;  270.525;    0.000
1052.005;37953.398;  245.525;    0.000
1052.158;43395.398;  290.525;    0.000
1052.311;46186.398;  237.525;    0.000
1052.463;43713.398;  271.525;    0.000
1052.616;38885.398;  255.525;    0.000
1052.768;35976.398;  257.525;    0.000
1052.921;35029.398;  289.525;    0.000
1053.073;38390.398;  287.525;    0.000
1053.226;43500.398;  268.525;    0.000
1053.378;48298.398;  294.525;    0.000
1053.531;49099.398;  255.525;    0.000
1053.683;48366.398;  293.525;    0.000
1053.835;42236.398;  274.525;    0.000
1053.988;31989.400;  282.525;    0.000
1054.140; 5834.400;  291.525;    0.000
1054.292; 1489.400;  292.525;    0.000
1054.444; 1168.400;  299.525;    0.000
1054.596; 1109.400;  319.525;    0.000
1054.749;  956.400;  295.525;    0.000
1054.901;  844.400;  266.525;    0.000
1055.053;  838.400;  300.525;    0.000
1055.205;  785.400;  290.525;    0.000
1055.357;  786.400;  304.525;    0.000
1055.509;  709.400;  292.525;    0.000
1055.661;  759.400;  339.525;    0.000
1055.813;  746.400;  306.525;    0.000
1055.965;  704.400;  293.525;    0.000
1056.116;  680.400;  300.525;    0.000
1056.268;  686.400;  306.525;    0.000
1056.420;  741.400;  288.525;    0.000

