
Integration time [ms]:   1.000
Averaging Nr. [scans]: 1
Smoothing Nr. [pixels]: 0
Data measured with spectrometer [name]: UV2
Wave   ;Sample   ;Dark     ;Reference
[nm]   ;[counts] ;[counts] ;[counts] 

353.533;  231.050;  216.475;    0.000
353.597;  211.050;  244.475;    0.000
353.660;  226.050;  181.475;    0.000
353.723;  199.050;  203.475;    0.000
353.786;  172.050;  180.475;    0.000
353.850;  207.050;  213.475;    0.000
353.913;  165.050;  191.475;    0.000
353.976;  181.050;  195.475;    0.000
354.039;  199.050;  158.475;    0.000
354.102;  202.050;  199.475;    0.000
354.166;  203.050;  185.475;    0.000
354.229;  178.050;  188.475;    0.000
354.292;  148.050;  188.475;    0.000
354.355;  183.050;  226.475;    0.000
354.418;  189.050;  158.475;    0.000
354.481;  197.050;  185.475;    0.000
354.545;  797.050;  191.475;    0.000
354.608;  920.050;  247.475;    0.000
354.671;  847.050;  176.475;    0.000
354.734;  920.050;  198.475;    0.000
354.797;  910.050;  195.475;    0.000
354.860;  892.050;  212.475;    0.000
354.923;  932.050;  184.475;    0.000
354.986;  959.050;  169.475;    0.000
355.050;  968.050;  206.475;    0.000
355.113;  979.050;  210.475;    0.000
355.176;  972.050;  217.475;    0.000
355.239; 1018.050;  201.475;    0.000
355.302; 1073.050;  193.475;    0.000
355.365; 1106.050;  234.475;    0.000
355.428; 1103.050;  182.475;    0.000
355.491; 1132.050;  233.475;    0.000
355.554; 1037.050;  167.475;    0.000
355.617; 1134.050;  195.475;    0.000
355.680; 1073.050;  198.475;    0.000
355.743; 1111.050;  186.475;    0.000
355.806; 1128.050;  171.475;    0.000
355.869; 1150.050;  244.475;    0.000
355.932; 1121.050;  164.475;    0.000
355.995; 1198.050;  220.475;    0.000
356.058; 1185.050;  172.475;    0.000
356.121; 1262.050;  228.475;    0.000
356.184; 1197.050;  225.475;    0.000
356.247; 1216.050;  161.475;    0.000
356.310; 1219.050;  195.475;    0.000
356.373; 1294.050;  191.475;    0.000
356.436; 1259.050;  147.475;    0.000
356.498; 1264.050;  183.475;    0.000
356.561; 1232.050;  137.475;    0.000
356.624; 1245.050;  186.475;    0.000
356.687; 1229.050;  158.475;    0.000
356.750; 1261.050;  194.475;    0.000
356.813; 1254.050;  186.475;    0.000
356.876; 1282.050;  161.475;    0.000
356.939; 1232.050;  188.475;    0.000
357.001; 1318.050;  200.475;    0.000
357.064; 1358.050;  182.475;    0.000
357.127; 1261.050;  168.475;    0.000
357.190; 1209.050;  157.475;    0.000
357.253; 1292.050;  199.475;    0.000
357.316; 1305.050;  187.475;    0.000
357.378; 1301.050;  174.475;    0.000
357.441; 1280.050;  165.475;    0.000
357.504; 1256.050;  189.475;    0.000
357.567; 1296.050;  116.475;    0.000
357.629; 1294.050;  176.475;    0.000
357.692; 1262.050;  134.475;    0.000
357.755; 1392.050;  175.475;    0.000
357.818; 1352.050;  159.475;    0.000
357.880; 1396.050;  185.475;    0.000
357.943; 1281.050;  159.475;    0.000
358.006; 1329.050;  176.475;    0.000
358.069; 1330.050;  156.475;    0.000
358.131; 1318.050;  170.475;    0.000
358.194; 1244.050;  125.475;    0.000
358.257; 1384.050;  186.475;    0.000
358.319; 1358.050;  139.475;    0.000
358.382; 1367.050;  175.475;    0.000
358.445; 1375.050;  170.475;    0.000
358.507; 1382.050;  129.475;    0.000
358.570; 1348.050;  168.475;    0.000
358.633; 1333.050;  152.475;    0.000
358.695; 1331.050;  194.475;    0.000
358.758; 1303.050;  154.475;    0.000
358.821; 1363.050;  147.475;    0.000
358.883; 1358.050;  163.475;    0.000
358.946; 1398.050;  155.475;    0.000
359.008; 1401.050;  208.475;    0.000
359.071; 1433.050;  182.475;    0.000
359.134; 1375.050;  126.475;    0.000
359.196; 1425.050;  142.475;    0.000
359.259; 1393.050;  138.475;    0.000
359.321; 1418.050;  153.475;    0.000
359.384; 1406.050;  186.475;    0.000
359.446; 1469.050;  152.475;    0.000
359.509; 1452.050;  144.475;    0.000
359.571; 1354.050;  164.475;    0.000
359.634; 1473.050;  171.475;    0.000
359.696; 1471.050;  144.475;    0.000
359.759; 1444.050;  171.475;    0.000
359.821; 1496.050;  161.475;    0.000
359.884; 1451.050;  159.475;    0.000
359.946; 1468.050;  186.475;    0.000
360.009; 1549.050;  171.475;    0.000
360.071; 1486.050;  166.475;    0.000
360.134; 1512.050;  215.475;    0.000
360.196; 1437.050;  138.475;    0.000
360.259; 1526.050;  196.475;    0.000
360.321; 1466.050;  148.475;    0.000
360.384; 1409.050;  150.475;    0.000
360.446; 1500.050;  148.475;    0.000
360.508; 1418.050;  172.475;    0.000
360.571; 1471.050;  155.475;    0.000
360.633; 1479.050;  153.475;    0.000
360.696; 1430.050;  142.475;    0.000
360.758; 1464.050;  165.475;    0.000
360.820; 1435.050;  155.475;    0.000
360.883; 1469.050;  156.475;    0.000
360.945; 1527.050;  171.475;    0.000
361.007; 1459.050;  138.475;    0.000
361.070; 1456.050;  129.475;    0.000
361.132; 1573.050;  166.475;    0.000
361.194; 1522.050;  143.475;    0.000
361.257; 1531.050;  154.475;    0.000
361.319; 1507.050;  176.475;    0.000
361.381; 1558.050;  143.475;    0.000
361.443; 1574.050;  136.475;    0.000
361.506; 1487.050;  160.475;    0.000
361.568; 1483.050;  140.475;    0.000
361.630; 1539.050;  159.475;    0.000
361.693; 1593.050;  162.475;    0.000
361.755; 1587.050;  185.475;    0.000
361.817; 1577.050;  209.475;    0.000
361.879; 1599.050;  161.475;    0.000
361.941; 1573.050;  152.475;    0.000
362.004; 1620.050;  132.475;    0.000
362.066; 1543.050;  159.475;    0.000
362.128; 1564.050;  143.475;    0.000
362.190; 1539.050;  131.475;    0.000
362.252; 1596.050;  131.475;    0.000
362.315; 1544.050;  175.475;    0.000
362.377; 1659.050;  140.475;    0.000
362.439; 1526.050;  140.475;    0.000
362.501; 1629.050;  140.475;    0.000
362.563; 1578.050;  152.475;    0.000
362.625; 1564.050;  174.475;    0.000
362.688; 1573.050;  195.475;    0.000
362.750; 1615.050;  221.475;    0.000
362.812; 1542.050;  171.475;    0.000
362.874; 1583.050;  117.475;    0.000
362.936; 1630.050;  162.475;    0.000
362.998; 1638.050;  142.475;    0.000
363.060; 1605.050;  143.475;    0.000
363.122; 1623.050;  148.475;    0.000
363.184; 1553.050;  179.475;    0.000
363.246; 1673.050;  186.475;    0.000
363.308; 1601.050;  180.475;    0.000
363.370; 1666.050;  200.475;    0.000
363.432; 1651.050;  139.475;    0.000
363.494; 1658.050;  138.475;    0.000
363.556; 1612.050;  114.475;    0.000
363.618; 1604.050;  153.475;    0.000
363.680; 1595.050;  153.475;    0.000
363.742; 1643.050;  178.475;    0.000
363.804; 1673.050;  214.475;    0.000
363.866; 1634.050;  170.475;    0.000
363.928; 1658.050;  145.475;    0.000
363.990; 1693.050;  215.475;    0.000
364.052; 1711.050;  166.475;    0.000
364.114; 1686.050;  168.475;    0.000
364.176; 1633.050;  176.475;    0.000
364.238; 1621.050;  203.475;    0.000
364.300; 1638.050;  158.475;    0.000
364.362; 1635.050;  152.475;    0.000
364.424; 1625.050;  119.475;    0.000
364.486; 1698.050;  187.475;    0.000
364.548; 1656.050;  180.475;    0.000
364.609; 1639.050;  212.475;    0.000
364.671; 1641.050;  165.475;    0.000
364.733; 1628.050;  190.475;    0.000
364.795; 1629.050;  148.475;    0.000
364.857; 1640.050;  159.475;    0.000
364.919; 1757.050;  159.475;    0.000
364.981; 1648.050;  191.475;    0.000
365.042; 1754.050;  170.475;    0.000
365.104; 1672.050;  145.475;    0.000
365.166; 1622.050;  134.475;    0.000
365.228; 1654.050;  150.475;    0.000
365.290; 1666.050;  158.475;    0.000
365.351; 1623.050;  168.475;    0.000
365.413; 1682.050;  173.475;    0.000
365.475; 1631.050;  172.475;    0.000
365.537; 1723.050;  126.475;    0.000
365.598; 1713.050;  160.475;    0.000
365.660; 1679.050;  127.475;    0.000
365.722; 1713.050;  189.475;    0.000
365.784; 1759.050;  161.475;    0.000
365.845; 1723.050;  152.475;    0.000
365.907; 1640.050;  117.475;    0.000
365.969; 1681.050;  146.475;    0.000
366.030; 1704.050;  171.475;    0.000
366.092; 1683.050;  155.475;    0.000
366.154; 1661.050;  137.475;    0.000
366.215; 1750.050;  147.475;    0.000
366.277; 1766.050;  148.475;    0.000
366.339; 1738.050;  158.475;    0.000
366.400; 1661.050;  140.475;    0.000
366.462; 1694.050;  159.475;    0.000
366.524; 1725.050;  160.475;    0.000
366.585; 1671.050;  157.475;    0.000
366.647; 1669.050;  170.475;    0.000
366.708; 1734.050;  123.475;    0.000
366.770; 1755.050;  194.475;    0.000
366.832; 1722.050;  191.475;    0.000
366.893; 1743.050;  155.475;    0.000
366.955; 1672.050;  132.475;    0.000
367.016; 1763.050;  126.475;    0.000
367.078; 1729.050;  202.475;    0.000
367.139; 1753.050;  116.475;    0.000
367.201; 1747.050;  134.475;    0.000
367.262; 1730.050;  157.475;    0.000
367.324; 1805.050;  202.475;    0.000
367.385; 1736.050;  118.475;    0.000
367.447; 1832.050;  155.475;    0.000
367.508; 1711.050;  134.475;    0.000
367.570; 1793.050;  165.475;    0.000
367.631; 1754.050;  118.475;    0.000
367.693; 1792.050;  170.475;    0.000
367.754; 1816.050;  154.475;    0.000
367.816; 1707.050;  146.475;    0.000
367.877; 1808.050;  175.475;    0.000
367.939; 1777.050;  200.475;    0.000
368.000; 1764.050;  168.475;    0.000
368.062; 1820.050;  138.475;    0.000
368.123; 1759.050;  170.475;    0.000
368.184; 1768.050;  188.475;    0.000
368.246; 1782.050;  145.475;    0.000
368.307; 1824.050;  163.475;    0.000
368.369; 1742.050;  144.475;    0.000
368.430; 1789.050;  140.475;    0.000
368.491; 1818.050;  133.475;    0.000
368.553; 1775.050;  145.475;    0.000
368.614; 1768.050;  158.475;    0.000
368.675; 1755.050;  147.475;    0.000
368.737; 1784.050;  157.475;    0.000
368.798; 1857.050;  163.475;    0.000
368.859; 1777.050;  173.475;    0.000
368.921; 1822.050;  122.475;    0.000
368.982; 1777.050;  184.475;    0.000
369.043; 1792.050;  169.475;    0.000
369.104; 1850.050;  142.475;    0.000
369.166; 1866.050;  169.475;    0.000
369.227; 1775.050;  156.475;    0.000
369.288; 1826.050;  151.475;    0.000
369.349; 1820.050;  191.475;    0.000
369.411; 1827.050;  168.475;    0.000
369.472; 1753.050;  155.475;    0.000
369.533; 1835.050;  149.475;    0.000
369.594; 1805.050;  174.475;    0.000
369.656; 1880.050;  188.475;    0.000
369.717; 1697.050;  113.475;    0.000
369.778; 1868.050;  184.475;    0.000
369.839; 1877.050;  151.475;    0.000
369.900; 1922.050;  180.475;    0.000
369.961; 1842.050;  171.475;    0.000
370.023; 1882.050;  143.475;    0.000
370.084; 1844.050;  137.475;    0.000
370.145; 1798.050;  152.475;    0.000
370.206; 1825.050;  151.475;    0.000
370.267; 1905.050;  134.475;    0.000
370.328; 1903.050;  178.475;    0.000
370.389; 1798.050;  181.475;    0.000
370.451; 1831.050;  169.475;    0.000
370.512; 1860.050;  172.475;    0.000
370.573; 1980.050;  148.475;    0.000
370.634; 1943.050;  156.475;    0.000
370.695; 1793.050;  151.475;    0.000
370.756; 1927.050;  185.475;    0.000
370.817; 1896.050;  185.475;    0.000
370.878; 1888.050;  191.475;    0.000
370.939; 1921.050;  147.475;    0.000
371.000; 1902.050;  162.475;    0.000
371.061; 1949.050;  145.475;    0.000
371.122; 1958.050;  179.475;    0.000
371.183; 1898.050;  114.475;    0.000
371.244; 1904.050;  180.475;    0.000
371.305; 1953.050;  138.475;    0.000
371.366; 1936.050;  157.475;    0.000
371.427; 1941.050;  148.475;    0.000
371.488; 1947.050;  138.475;    0.000
371.549; 1940.050;  193.475;    0.000
371.610; 1894.050;  158.475;    0.000
371.671; 1958.050;  119.475;    0.000
371.732; 1896.050;  159.475;    0.000
371.793; 1957.050;  178.475;    0.000
371.853; 1920.050;  155.475;    0.000
371.914; 1893.050;  148.475;    0.000
371.975; 1979.050;  124.475;    0.000
372.036; 1866.050;  158.475;    0.000
372.097; 1940.050;  136.475;    0.000
372.158; 1820.050;  116.475;    0.000
372.219; 1910.050;  157.475;    0.000
372.280; 1857.050;  151.475;    0.000
372.340; 2073.050;  190.475;    0.000
372.401; 1970.050;  151.475;    0.000
372.462; 1956.050;  129.475;    0.000
372.523; 1975.050;  121.475;    0.000
372.584; 1938.050;  152.475;    0.000
372.645; 1972.050;  132.475;    0.000
372.705; 1949.050;  190.475;    0.000
372.766; 2022.050;  153.475;    0.000
372.827; 1961.050;  133.475;    0.000
372.888; 1951.050;  161.475;    0.000
372.948; 1952.050;  159.475;    0.000
373.009; 1942.050;  164.475;    0.000
373.070; 1983.050;  139.475;    0.000
373.131; 1928.050;  137.475;    0.000
373.191; 2093.050;  181.475;    0.000
373.252; 2038.050;  154.475;    0.000
373.313; 1949.050;  179.475;    0.000
373.373; 1945.050;  136.475;    0.000
373.434; 1958.050;  169.475;    0.000
373.495; 1880.050;   97.475;    0.000
373.555; 1971.050;  142.475;    0.000
373.616; 1934.050;  178.475;    0.000
373.677; 1946.050;  167.475;    0.000
373.737; 1983.050;  139.475;    0.000
373.798; 2022.050;  155.475;    0.000
373.859; 2005.050;  162.475;    0.000
373.919; 1991.050;  174.475;    0.000
373.980; 2007.050;  172.475;    0.000
374.041; 1913.050;  166.475;    0.000
374.101; 1975.050;  172.475;    0.000
374.162; 2050.050;  188.475;    0.000
374.222; 1921.050;  186.475;    0.000
374.283; 1961.050;  195.475;    0.000
374.343; 2048.050;  204.475;    0.000
374.404; 2059.050;  187.475;    0.000
374.465; 2011.050;  183.475;    0.000
374.525; 2092.050;  136.475;    0.000
374.586; 2078.050;  140.475;    0.000
374.646; 2086.050;  191.475;    0.000
374.707; 2091.050;  208.475;    0.000
374.767; 2087.050;  178.475;    0.000
374.828; 2090.050;  159.475;    0.000
374.888; 2085.050;  143.475;    0.000
374.949; 2187.050;  202.475;    0.000
375.009; 2181.050;  151.475;    0.000
375.070; 2127.050;  160.475;    0.000
375.130; 2095.050;  160.475;    0.000
375.190; 2148.050;  164.475;    0.000
375.251; 2075.050;  196.475;    0.000
375.311; 2082.050;  154.475;    0.000
375.372; 2123.050;  197.475;    0.000
375.432; 2147.050;  159.475;    0.000
375.493; 2078.050;  197.475;    0.000
375.553; 2103.050;  165.475;    0.000
375.613; 2053.050;  174.475;    0.000
375.674; 2117.050;  165.475;    0.000
375.734; 2073.050;  128.475;    0.000
375.794; 2045.050;  169.475;    0.000
375.855; 2115.050;  193.475;    0.000
375.915; 2134.050;  162.475;    0.000
375.975; 2054.050;  181.475;    0.000
376.036; 2088.050;  161.475;    0.000
376.096; 1970.050;  131.475;    0.000
376.156; 2063.050;  165.475;    0.000
376.217; 2105.050;  182.475;    0.000
376.277; 2131.050;  185.475;    0.000
376.337; 2092.050;  177.475;    0.000
376.398; 2081.050;  162.475;    0.000
376.458; 2067.050;  179.475;    0.000
376.518; 1990.050;  150.475;    0.000
376.578; 1955.050;  165.475;    0.000
376.639; 2102.050;  159.475;    0.000
376.699; 2132.050;  180.475;    0.000
376.759; 2095.050;  206.475;    0.000
376.819; 2087.050;  146.475;    0.000
376.880; 2187.050;  177.475;    0.000
376.940; 2125.050;  160.475;    0.000
377.000; 2160.050;  149.475;    0.000
377.060; 2177.050;  180.475;    0.000
377.120; 2059.050;  146.475;    0.000
377.180; 2109.050;  137.475;    0.000
377.241; 2028.050;  163.475;    0.000
377.301; 2152.050;  169.475;    0.000
377.361; 2084.050;  137.475;    0.000
377.421; 2143.050;  184.475;    0.000
377.481; 2022.050;  185.475;    0.000
377.541; 2082.050;  146.475;    0.000
377.601; 2086.050;  179.475;    0.000
377.661; 2076.050;  181.475;    0.000
377.722; 2175.050;  185.475;    0.000
377.782; 2139.050;  147.475;    0.000
377.842; 2153.050;  190.475;    0.000
377.902; 2101.050;  166.475;    0.000
377.962; 2038.050;  153.475;    0.000
378.022; 2109.050;  163.475;    0.000
378.082; 2175.050;  146.475;    0.000
378.142; 2130.050;  152.475;    0.000
378.202; 2204.050;  164.475;    0.000
378.262; 2193.050;  195.475;    0.000
378.322; 2176.050;  190.475;    0.000
378.382; 2129.050;  152.475;    0.000
378.442; 2113.050;  175.475;    0.000
378.502; 2122.050;  153.475;    0.000
378.562; 2198.050;  142.475;    0.000
378.622; 2164.050;  166.475;    0.000
378.682; 2102.050;  173.475;    0.000
378.742; 2088.050;  182.475;    0.000
378.802; 2161.050;  145.475;    0.000
378.862; 2257.050;  210.475;    0.000
378.921; 2222.050;  182.475;    0.000
378.981; 2229.050;  185.475;    0.000
379.041; 2142.050;  130.475;    0.000
379.101; 2242.050;  177.475;    0.000
379.161; 2182.050;  166.475;    0.000
379.221; 2349.050;  162.475;    0.000
379.281; 2262.050;  167.475;    0.000
379.341; 2319.050;  136.475;    0.000
379.401; 2245.050;  145.475;    0.000
379.460; 2251.050;  176.475;    0.000
379.520; 2230.050;  162.475;    0.000
379.580; 2225.050;  144.475;    0.000
379.640; 2257.050;  163.475;    0.000
379.700; 2238.050;  157.475;    0.000
379.759; 2327.050;  165.475;    0.000
379.819; 2277.050;  190.475;    0.000
379.879; 2296.050;  143.475;    0.000
379.939; 2366.050;  188.475;    0.000
379.999; 2263.050;  141.475;    0.000
380.058; 2345.050;  169.475;    0.000
380.118; 2350.050;  158.475;    0.000
380.178; 2364.050;  114.475;    0.000
380.237; 2345.050;  157.475;    0.000
380.297; 2311.050;  177.475;    0.000
380.357; 2324.050;  189.475;    0.000
380.417; 2371.050;  182.475;    0.000
380.476; 2380.050;  178.475;    0.000
380.536; 2416.050;  189.475;    0.000
380.596; 2307.050;  183.475;    0.000
380.655; 2390.050;  195.475;    0.000
380.715; 2383.050;  170.475;    0.000
380.775; 2458.050;  170.475;    0.000
380.834; 2370.050;  179.475;    0.000
380.894; 2351.050;  188.475;    0.000
380.954; 2517.050;  142.475;    0.000
381.013; 2447.050;  178.475;    0.000
381.073; 2373.050;  164.475;    0.000
381.132; 2395.050;  192.475;    0.000
381.192; 2481.050;  187.475;    0.000
381.252; 2466.050;  176.475;    0.000
381.311; 2485.050;  206.475;    0.000
381.371; 2466.050;  167.475;    0.000
381.430; 2439.050;  131.475;    0.000
381.490; 2420.050;  150.475;    0.000
381.549; 2451.050;  129.475;    0.000
381.609; 2522.050;  178.475;    0.000
381.668; 2511.050;  194.475;    0.000
381.728; 2577.050;  210.475;    0.000
381.787; 2632.050;  190.475;    0.000
381.847; 2595.050;  181.475;    0.000
381.906; 2695.050;  156.475;    0.000
381.966; 2665.050;  176.475;    0.000
382.025; 2568.050;  186.475;    0.000
382.085; 2646.050;  192.475;    0.000
382.144; 2671.050;  173.475;    0.000
382.204; 2659.050;  207.475;    0.000
382.263; 2764.050;  193.475;    0.000
382.323; 2794.050;  164.475;    0.000
382.382; 2805.050;  161.475;    0.000
382.441; 2809.050;  199.475;    0.000
382.501; 2845.050;  208.475;    0.000
382.560; 2892.050;  173.475;    0.000
382.619; 2997.050;  179.475;    0.000
382.679; 3024.050;  177.475;    0.000
382.738; 3214.050;  190.475;    0.000
382.798; 3354.050;  213.475;    0.000
382.857; 3606.050;  195.475;    0.000
382.916; 3942.050;  184.475;    0.000
382.976; 4012.050;  169.475;    0.000
383.035; 3889.050;  194.475;    0.000
383.094; 3949.050;  185.475;    0.000
383.154; 4363.050;  198.475;    0.000
383.213; 4893.050;  147.475;    0.000
383.272; 4654.050;  175.475;    0.000
383.331; 3988.050;  122.475;    0.000
383.391; 3670.050;  185.475;    0.000
383.450; 3813.050;  160.475;    0.000
383.509; 3820.050;  168.475;    0.000
383.568; 3781.050;  196.475;    0.000
383.628; 4130.050;  156.475;    0.000
383.687; 4205.050;  171.475;    0.000
383.746; 4710.050;  155.475;    0.000
383.805; 5344.050;  201.475;    0.000
383.864; 5418.050;  125.475;    0.000
383.924; 4391.050;  213.475;    0.000
383.983; 3786.050;  188.475;    0.000
384.042; 3449.050;  162.475;    0.000
384.101; 3408.050;  183.475;    0.000
384.160; 3225.050;  155.475;    0.000
384.219; 3103.050;  155.475;    0.000
384.279; 3021.050;  189.475;    0.000
384.338; 2940.050;  156.475;    0.000
384.397; 2936.050;  148.475;    0.000
384.456; 2924.050;  154.475;    0.000
384.515; 2891.050;  160.475;    0.000
384.574; 2964.050;  223.475;    0.000
384.633; 2880.050;  133.475;    0.000
384.692; 2832.050;  163.475;    0.000
384.751; 2848.050;  186.475;    0.000
384.810; 2819.050;  187.475;    0.000
384.869; 2732.050;  172.475;    0.000
384.929; 2824.050;  153.475;    0.000
384.988; 2710.050;  174.475;    0.000
385.047; 2824.050;  154.475;    0.000
385.106; 2781.050;  164.475;    0.000
385.165; 2864.050;  151.475;    0.000
385.224; 2830.050;  147.475;    0.000
385.283; 2817.050;  176.475;    0.000
385.342; 2828.050;  142.475;    0.000
385.401; 2812.050;  175.475;    0.000
385.459; 2752.050;  150.475;    0.000
385.518; 2737.050;  124.475;    0.000
385.577; 2766.050;  115.475;    0.000
385.636; 2722.050;  174.475;    0.000
385.695; 2740.050;  158.475;    0.000
385.754; 2854.050;  150.475;    0.000
385.813; 2800.050;  129.475;    0.000
385.872; 2735.050;  146.475;    0.000
385.931; 2755.050;  194.475;    0.000
385.990; 2756.050;  174.475;    0.000
386.049; 2755.050;  176.475;    0.000
386.107; 2764.050;  151.475;    0.000
386.166; 2771.050;  178.475;    0.000
386.225; 2699.050;  162.475;    0.000
386.284; 2798.050;  180.475;    0.000
386.343; 2831.050;  171.475;    0.000
386.402; 2786.050;  176.475;    0.000
386.460; 2761.050;  144.475;    0.000
386.519; 2745.050;  140.475;    0.000
386.578; 2811.050;  145.475;    0.000
386.637; 2755.050;  164.475;    0.000
386.696; 2825.050;  189.475;    0.000
386.754; 2678.050;  135.475;    0.000
386.813; 2730.050;  139.475;    0.000
386.872; 2769.050;  121.475;    0.000
386.931; 2777.050;  153.475;    0.000
386.989; 2810.050;  211.475;    0.000
387.048; 2627.050;  156.475;    0.000
387.107; 2705.050;  210.475;    0.000
387.165; 2688.050;  129.475;    0.000
387.224; 2806.050;  205.475;    0.000
387.283; 2727.050;  130.475;    0.000
387.342; 2839.050;  171.475;    0.000
387.400; 2740.050;  156.475;    0.000
387.459; 2836.050;  141.475;    0.000
387.517; 2731.050;  219.475;    0.000
387.576; 2829.050;  166.475;    0.000
387.635; 2795.050;  136.475;    0.000
387.693; 2846.050;  191.475;    0.000
387.752; 2756.050;  165.475;    0.000
387.811; 2845.050;  158.475;    0.000
387.869; 2698.050;  204.475;    0.000
387.928; 2737.050;  149.475;    0.000
387.986; 2771.050;  156.475;    0.000
388.045; 2758.050;  123.475;    0.000
388.103; 2778.050;  150.475;    0.000
388.162; 2835.050;  173.475;    0.000
388.221; 2800.050;  143.475;    0.000
388.279; 2707.050;  129.475;    0.000
388.338; 2737.050;  212.475;    0.000
388.396; 2767.050;  150.475;    0.000
388.455; 2777.050;  167.475;    0.000
388.513; 2758.050;  116.475;    0.000
388.572; 2769.050;  181.475;    0.000
388.630; 2780.050;  187.475;    0.000
388.689; 2757.050;  180.475;    0.000
388.747; 2712.050;  154.475;    0.000
388.806; 2751.050;  161.475;    0.000
388.864; 2670.050;  167.475;    0.000
388.922; 2792.050;  184.475;    0.000
388.981; 2778.050;  169.475;    0.000
389.039; 2690.050;  102.475;    0.000
389.098; 2777.050;  183.475;    0.000
389.156; 2771.050;  182.475;    0.000
389.214; 2714.050;  173.475;    0.000
389.273; 2897.050;  167.475;    0.000
389.331; 2751.050;  170.475;    0.000
389.390; 2796.050;  150.475;    0.000
389.448; 2775.050;  156.475;    0.000
389.506; 2637.050;  149.475;    0.000
389.565; 2718.050;  162.475;    0.000
389.623; 2797.050;  188.475;    0.000
389.681; 2788.050;  204.475;    0.000
389.740; 2761.050;  187.475;    0.000
389.798; 2732.050;  153.475;    0.000
389.856; 2845.050;  214.475;    0.000
389.914; 2750.050;  177.475;    0.000
389.973; 2728.050;  189.475;    0.000
390.031; 2770.050;  178.475;    0.000
390.089; 2716.050;  163.475;    0.000
390.147; 2796.050;  170.475;    0.000
390.206; 2783.050;  183.475;    0.000
390.264; 2798.050;  161.475;    0.000
390.322; 2735.050;  148.475;    0.000
390.380; 2786.050;  138.475;    0.000
390.439; 2762.050;  194.475;    0.000
390.497; 2839.050;  170.475;    0.000
390.555; 2771.050;  165.475;    0.000
390.613; 2771.050;  177.475;    0.000
390.671; 2833.050;  170.475;    0.000
390.729; 2837.050;  158.475;    0.000
390.788; 2853.050;  162.475;    0.000
390.846; 2793.050;  161.475;    0.000
390.904; 2929.050;  197.475;    0.000
390.962; 2870.050;  212.475;    0.000
391.020; 2820.050;  224.475;    0.000
391.078; 2910.050;  184.475;    0.000
391.136; 2870.050;  191.475;    0.000
391.194; 2824.050;  187.475;    0.000
391.253; 2875.050;  197.475;    0.000
391.311; 2912.050;  185.475;    0.000
391.369; 2913.050;  207.475;    0.000
391.427; 2951.050;  222.475;    0.000
391.485; 2886.050;  184.475;    0.000
391.543; 2973.050;  203.475;    0.000
391.601; 2960.050;  151.475;    0.000
391.659; 2950.050;  176.475;    0.000
391.717; 2871.050;  190.475;    0.000
391.775; 2987.050;  159.475;    0.000
391.833; 2970.050;  186.475;    0.000
391.891; 3058.050;  154.475;    0.000
391.949; 2957.050;  181.475;    0.000
392.007; 3085.050;  190.475;    0.000
392.065; 3005.050;  182.475;    0.000
392.123; 3087.050;  158.475;    0.000
392.180; 3051.050;  198.475;    0.000
392.238; 2984.050;  191.475;    0.000
392.296; 3006.050;  164.475;    0.000
392.354; 2992.050;  172.475;    0.000
392.412; 2991.050;  194.475;    0.000
392.470; 3043.050;  154.475;    0.000
392.528; 3078.050;  172.475;    0.000
392.586; 3021.050;  179.475;    0.000
392.644; 3054.050;  173.475;    0.000
392.701; 3115.050;  202.475;    0.000
392.759; 2977.050;  180.475;    0.000
392.817; 3115.050;  181.475;    0.000
392.875; 3104.050;  168.475;    0.000
392.933; 3159.050;  161.475;    0.000
392.991; 3045.050;  216.475;    0.000
393.048; 3032.050;  197.475;    0.000
393.106; 3095.050;  199.475;    0.000
393.164; 3138.050;  173.475;    0.000
393.222; 3169.050;  179.475;    0.000
393.279; 3340.050;  209.475;    0.000
393.337; 3568.050;  185.475;    0.000
393.395; 3585.050;  174.475;    0.000
393.453; 3317.050;  181.475;    0.000
393.510; 3190.050;  188.475;    0.000
393.568; 3162.050;  191.475;    0.000
393.626; 3080.050;  151.475;    0.000
393.684; 3096.050;  208.475;    0.000
393.741; 3054.050;  179.475;    0.000
393.799; 2993.050;  149.475;    0.000
393.857; 3101.050;  136.475;    0.000
393.914; 3158.050;  190.475;    0.000
393.972; 3162.050;  155.475;    0.000
394.030; 3251.050;  170.475;    0.000
394.087; 3158.050;  213.475;    0.000
394.145; 3176.050;  191.475;    0.000
394.202; 3157.050;  188.475;    0.000
394.260; 3169.050;  168.475;    0.000
394.318; 3207.050;  176.475;    0.000
394.375; 3139.050;  159.475;    0.000
394.433; 3100.050;  168.475;    0.000
394.490; 3118.050;  163.475;    0.000
394.548; 3104.050;  163.475;    0.000
394.605; 3193.050;  181.475;    0.000
394.663; 3311.050;  180.475;    0.000
394.720; 3274.050;  193.475;    0.000
394.778; 3173.050;  168.475;    0.000
394.836; 3204.050;  128.475;    0.000
394.893; 3226.050;  151.475;    0.000
394.951; 3173.050;  173.475;    0.000
395.008; 3251.050;  201.475;    0.000
395.065; 3218.050;  139.475;    0.000
395.123; 3366.050;  173.475;    0.000
395.180; 3179.050;  144.475;    0.000
395.238; 3288.050;  135.475;    0.000
395.295; 3349.050;  167.475;    0.000
395.353; 3255.050;  150.475;    0.000
395.410; 3233.050;  165.475;    0.000
395.468; 3265.050;  223.475;    0.000
395.525; 3272.050;  156.475;    0.000
395.582; 3364.050;  178.475;    0.000
395.640; 3433.050;  178.475;    0.000
395.697; 3346.050;  173.475;    0.000
395.754; 3334.050;  154.475;    0.000
395.812; 3420.050;  169.475;    0.000
395.869; 3346.050;  196.475;    0.000
395.927; 3246.050;  190.475;    0.000
395.984; 3401.050;  195.475;    0.000
396.041; 3355.050;  160.475;    0.000
396.098; 3344.050;  161.475;    0.000
396.156; 3263.050;  187.475;    0.000
396.213; 3231.050;  200.475;    0.000
396.270; 3384.050;  160.475;    0.000
396.328; 3355.050;  113.475;    0.000
396.385; 3324.050;  165.475;    0.000
396.442; 3299.050;  168.475;    0.000
396.499; 3413.050;  117.475;    0.000
396.557; 3444.050;  203.475;    0.000
396.614; 3395.050;  155.475;    0.000
396.671; 3402.050;  187.475;    0.000
396.728; 3419.050;  169.475;    0.000
396.785; 3596.050;  167.475;    0.000
396.843; 3618.050;  154.475;    0.000
396.900; 3643.050;  172.475;    0.000
396.957; 3425.050;  176.475;    0.000
397.014; 3381.050;  193.475;    0.000
397.071; 3454.050;  170.475;    0.000
397.128; 3447.050;  172.475;    0.000
397.186; 3559.050;  205.475;    0.000
397.243; 3426.050;  163.475;    0.000
397.300; 3630.050;  193.475;    0.000
397.357; 3581.050;  166.475;    0.000
397.414; 3437.050;  149.475;    0.000
397.471; 3483.050;  157.475;    0.000
397.528; 3567.050;  180.475;    0.000
397.585; 3623.050;  203.475;    0.000
397.642; 3604.050;  156.475;    0.000
397.699; 3572.050;  229.475;    0.000
397.756; 3633.050;  185.475;    0.000
397.814; 3599.050;  191.475;    0.000
397.871; 3511.050;  170.475;    0.000
397.928; 3548.050;  191.475;    0.000
397.985; 3536.050;  183.475;    0.000
398.042; 3536.050;  161.475;    0.000
398.099; 3571.050;  192.475;    0.000
398.156; 3603.050;  176.475;    0.000
398.212; 3570.050;  170.475;    0.000
398.269; 3668.050;  158.475;    0.000
398.326; 3602.050;  175.475;    0.000
398.383; 3657.050;  177.475;    0.000
398.440; 3617.050;  169.475;    0.000
398.497; 3667.050;  184.475;    0.000
398.554; 3786.050;  196.475;    0.000
398.611; 3713.050;  198.475;    0.000
398.668; 3748.050;  135.475;    0.000
398.725; 3690.050;  181.475;    0.000
398.782; 3901.050;  195.475;    0.000
398.839; 3817.050;  179.475;    0.000
398.895; 3860.050;  188.475;    0.000
398.952; 3892.050;  176.475;    0.000
399.009; 4009.050;  183.475;    0.000
399.066; 4000.050;  190.475;    0.000
399.123; 4012.050;  174.475;    0.000
399.180; 4150.050;  191.475;    0.000
399.236; 4064.050;  217.475;    0.000
399.293; 4228.050;  154.475;    0.000
399.350; 4256.050;  210.475;    0.000
399.407; 4436.050;  202.475;    0.000
399.463; 4469.050;  162.475;    0.000
399.520; 4552.050;  207.475;    0.000
399.577; 4602.050;  174.475;    0.000
399.634; 4624.050;  170.475;    0.000
399.690; 4666.050;  186.475;    0.000
399.747; 4654.050;  218.475;    0.000
399.804; 4592.050;  200.475;    0.000
399.861; 4523.050;  190.475;    0.000
399.917; 4472.050;  218.475;    0.000
399.974; 4363.050;  200.475;    0.000
400.031; 4407.050;  200.475;    0.000
400.087; 4250.050;  153.475;    0.000
400.144; 4241.050;  188.475;    0.000
400.201; 4326.050;  198.475;    0.000
400.257; 4207.050;  205.475;    0.000
400.314; 4143.050;  183.475;    0.000
400.370; 4175.050;  227.475;    0.000
400.427; 4148.050;  177.475;    0.000
400.484; 4135.050;  202.475;    0.000
400.540; 4111.050;  173.475;    0.000
400.597; 4065.050;  212.475;    0.000
400.653; 4095.050;  182.475;    0.000
400.710; 3994.050;  201.475;    0.000
400.766; 4007.050;  188.475;    0.000
400.823; 3969.050;  205.475;    0.000
400.879; 3986.050;  165.475;    0.000
400.936; 3961.050;  180.475;    0.000
400.993; 3967.050;  181.475;    0.000
401.049; 3955.050;  147.475;    0.000
401.105; 4058.050;  205.475;    0.000
401.162; 4037.050;  197.475;    0.000
401.218; 4040.050;  177.475;    0.000
401.275; 4035.050;  183.475;    0.000
401.331; 4041.050;  198.475;    0.000
401.388; 3957.050;  209.475;    0.000
401.444; 3986.050;  211.475;    0.000
401.501; 4014.050;  185.475;    0.000
401.557; 3945.050;  190.475;    0.000
401.614; 3986.050;  172.475;    0.000
401.670; 3976.050;  185.475;    0.000
401.726; 4067.050;  196.475;    0.000
401.783; 3971.050;  187.475;    0.000
401.839; 3934.050;  192.475;    0.000
401.895; 4019.050;  173.475;    0.000
401.952; 4050.050;  145.475;    0.000
402.008; 3925.050;  197.475;    0.000
402.064; 3921.050;  146.475;    0.000
402.121; 4123.050;  197.475;    0.000
402.177; 4065.050;  173.475;    0.000
402.233; 4069.050;  185.475;    0.000
402.290; 4026.050;  175.475;    0.000
402.346; 4024.050;  164.475;    0.000
402.402; 4061.050;  173.475;    0.000
402.458; 3992.050;  183.475;    0.000
402.515; 4090.050;  147.475;    0.000
402.571; 4003.050;  210.475;    0.000
402.627; 4014.050;  181.475;    0.000
402.683; 4078.050;  177.475;    0.000
402.740; 4076.050;  162.475;    0.000
402.796; 4011.050;  178.475;    0.000
402.852; 4067.050;  138.475;    0.000
402.908; 4165.050;  181.475;    0.000
402.964; 4221.050;  151.475;    0.000
403.021; 4206.050;  170.475;    0.000
403.077; 4245.050;  204.475;    0.000
403.133; 4091.050;  144.475;    0.000
403.189; 4170.050;  207.475;    0.000
403.245; 4104.050;  184.475;    0.000
403.301; 4289.050;  170.475;    0.000
403.357; 4298.050;  201.475;    0.000
403.414; 4175.050;  205.475;    0.000
403.470; 4279.050;  170.475;    0.000
403.526; 4198.050;  135.475;    0.000
403.582; 4206.050;  180.475;    0.000
403.638; 4275.050;  185.475;    0.000
403.694; 4161.050;  169.475;    0.000
403.750; 4225.050;  210.475;    0.000
403.806; 4249.050;  210.475;    0.000
403.862; 4229.050;  219.475;    0.000
403.918; 4379.050;  191.475;    0.000
403.974; 4256.050;  193.475;    0.000
404.030; 4318.050;  154.475;    0.000
404.086; 4218.050;  170.475;    0.000
404.142; 4314.050;  194.475;    0.000
404.198; 4365.050;  224.475;    0.000
404.254; 4270.050;  177.475;    0.000
404.310; 4359.050;  204.475;    0.000
404.366; 4361.050;  170.475;    0.000
404.422; 4271.050;  172.475;    0.000
404.478; 4350.050;  153.475;    0.000
404.534; 4377.050;  159.475;    0.000
404.590; 4347.050;  203.475;    0.000
404.646; 4268.050;  164.475;    0.000
404.701; 4245.050;  141.475;    0.000
404.757; 4331.050;  195.475;    0.000
404.813; 4238.050;  152.475;    0.000
404.869; 4339.050;  174.475;    0.000
404.925; 4332.050;  167.475;    0.000
404.981; 4248.050;  175.475;    0.000
405.037; 4281.050;  170.475;    0.000
405.092; 4331.050;  155.475;    0.000
405.148; 4189.050;  160.475;    0.000
405.204; 4434.050;  158.475;    0.000
405.260; 4272.050;  128.475;    0.000
405.316; 4270.050;  168.475;    0.000
405.371; 4409.050;  162.475;    0.000
405.427; 4360.050;  187.475;    0.000
405.483; 4503.050;  214.475;    0.000
405.539; 4394.050;  163.475;    0.000
405.594; 4295.050;  191.475;    0.000
405.650; 4354.050;  124.475;    0.000
405.706; 4262.050;  188.475;    0.000
405.761; 4399.050;  204.475;    0.000
405.817; 4367.050;  150.475;    0.000
405.873; 4505.050;  152.475;    0.000
405.928; 4423.050;  135.475;    0.000
405.984; 4495.050;  209.475;    0.000
406.040; 4369.050;  165.475;    0.000
406.095; 4405.050;  146.475;    0.000
406.151; 4468.050;  169.475;    0.000
406.207; 4477.050;  174.475;    0.000
406.262; 4421.050;  189.475;    0.000
406.318; 4504.050;  141.475;    0.000
406.374; 4478.050;  178.475;    0.000
406.429; 4440.050;  197.475;    0.000
406.485; 4584.050;  194.475;    0.000
406.540; 4456.050;  149.475;    0.000
406.596; 4496.050;  173.475;    0.000
406.651; 4555.050;  154.475;    0.000
406.707; 4598.050;  183.475;    0.000
406.763; 4572.050;  156.475;    0.000
406.818; 4536.050;  181.475;    0.000
406.874; 4678.050;  135.475;    0.000
406.929; 4791.050;  194.475;    0.000
406.985; 4875.050;  166.475;    0.000
407.040; 4714.050;  207.475;    0.000
407.095; 4824.050;  213.475;    0.000
407.151; 4915.050;  198.475;    0.000
407.206; 4907.050;  186.475;    0.000
407.262; 5031.050;  148.475;    0.000
407.317; 4989.050;  212.475;    0.000
407.373; 4912.050;  209.475;    0.000
407.428; 5063.050;  218.475;    0.000
407.484; 5003.050;  158.475;    0.000
407.539; 4979.050;  165.475;    0.000
407.594; 4976.050;  197.475;    0.000
407.650; 5134.050;  177.475;    0.000
407.705; 5031.050;  154.475;    0.000
407.760; 4997.050;  198.475;    0.000
407.816; 4923.050;  181.475;    0.000
407.871; 5072.050;  185.475;    0.000
407.926; 5069.050;  167.475;    0.000
407.982; 4879.050;  172.475;    0.000
408.037; 4896.050;  202.475;    0.000
408.092; 4839.050;  201.475;    0.000
408.148; 4812.050;  199.475;    0.000
408.203; 4788.050;  174.475;    0.000
408.258; 4819.050;  157.475;    0.000
408.314; 4804.050;  194.475;    0.000
408.369; 4935.050;  189.475;    0.000
408.424; 4766.050;  204.475;    0.000
408.479; 4740.050;  192.475;    0.000
408.534; 4841.050;  215.475;    0.000
408.590; 4808.050;  190.475;    0.000
408.645; 4815.050;  159.475;    0.000
408.700; 4777.050;  191.475;    0.000
408.755; 4784.050;  217.475;    0.000
408.810; 4584.050;  158.475;    0.000
408.866; 4678.050;  166.475;    0.000
408.921; 4699.050;  214.475;    0.000
408.976; 4666.050;  158.475;    0.000
409.031; 4754.050;  185.475;    0.000
409.086; 4712.050;  158.475;    0.000
409.141; 4743.050;  180.475;    0.000
409.196; 4783.050;  188.475;    0.000
409.252; 4755.050;  186.475;    0.000
409.307; 4649.050;  135.475;    0.000
409.362; 4708.050;  162.475;    0.000
409.417; 4659.050;  149.475;    0.000
409.472; 4659.050;  205.475;    0.000
409.527; 4695.050;  184.475;    0.000
409.582; 4852.050;  174.475;    0.000
409.637; 4774.050;  188.475;    0.000
409.692; 4803.050;  211.475;    0.000
409.747; 4605.050;  159.475;    0.000
409.802; 4793.050;  199.475;    0.000
409.857; 4652.050;  118.475;    0.000
409.912; 4699.050;  177.475;    0.000
409.967; 4715.050;  182.475;    0.000
410.022; 4684.050;  188.475;    0.000
410.077; 4648.050;  204.475;    0.000
410.132; 4812.050;  174.475;    0.000
410.187; 4657.050;  169.475;    0.000
410.242; 4683.050;  178.475;    0.000
410.297; 4652.050;  185.475;    0.000
410.351; 4730.050;  203.475;    0.000
410.406; 4758.050;  180.475;    0.000
410.461; 4792.050;  213.475;    0.000
410.516; 4729.050;  198.475;    0.000
410.571; 4612.050;  171.475;    0.000
410.626; 4711.050;  186.475;    0.000
410.681; 4781.050;  187.475;    0.000
410.736; 4684.050;  147.475;    0.000
410.790; 4704.050;  186.475;    0.000
410.845; 4722.050;  152.475;    0.000
410.900; 4783.050;  202.475;    0.000
410.955; 4694.050;  196.475;    0.000
411.010; 4684.050;  150.475;    0.000
411.064; 4668.050;  200.475;    0.000
411.119; 4761.050;  203.475;    0.000
411.174; 4669.050;  176.475;    0.000
411.229; 4707.050;  203.475;    0.000
411.283; 4696.050;  176.475;    0.000
411.338; 4696.050;  153.475;    0.000
411.393; 4602.050;  168.475;    0.000
411.447; 4628.050;  223.475;    0.000
411.502; 4755.050;  238.475;    0.000
411.557; 4624.050;  179.475;    0.000
411.612; 4638.050;  159.475;    0.000
411.666; 4615.050;  189.475;    0.000
411.721; 4652.050;  212.475;    0.000
411.776; 4665.050;  242.475;    0.000
411.830; 4720.050;  194.475;    0.000
411.885; 4739.050;  188.475;    0.000
411.939; 4743.050;  245.475;    0.000
411.994; 4756.050;  177.475;    0.000
412.049; 4812.050;  170.475;    0.000
412.103; 4796.050;  196.475;    0.000
412.158; 4733.050;  215.475;    0.000
412.212; 4701.050;  199.475;    0.000
412.267; 4720.050;  191.475;    0.000
412.322; 4684.050;  238.475;    0.000
412.376; 4734.050;  243.475;    0.000
412.431; 4628.050;  214.475;    0.000
412.485; 4602.050;  210.475;    0.000
412.540; 4822.050;  200.475;    0.000
412.594; 4686.050;  174.475;    0.000
412.649; 4663.050;  246.475;    0.000
412.703; 4652.050;  182.475;    0.000
412.758; 4681.050;  222.475;    0.000
412.812; 4613.050;  201.475;    0.000
412.866; 4619.050;  162.475;    0.000
412.921; 4671.050;  202.475;    0.000
412.975; 4704.050;  212.475;    0.000
413.030; 4600.050;  238.475;    0.000
413.084; 4580.050;  201.475;    0.000
413.139; 4633.050;  210.475;    0.000
413.193; 4639.050;  218.475;    0.000
413.247; 4640.050;  203.475;    0.000
413.302; 4680.050;  176.475;    0.000
413.356; 4630.050;  215.475;    0.000
413.410; 4542.050;  204.475;    0.000
413.465; 4603.050;  186.475;    0.000
413.519; 4614.050;  196.475;    0.000
413.573; 4580.050;  181.475;    0.000
413.628; 4607.050;  200.475;    0.000
413.682; 4457.050;  157.475;    0.000
413.736; 4563.050;  194.475;    0.000
413.791; 4585.050;  193.475;    0.000
413.845; 4666.050;  225.475;    0.000
413.899; 4649.050;  195.475;    0.000
413.953; 4512.050;  173.475;    0.000
414.008; 4613.050;  186.475;    0.000
414.062; 4640.050;  217.475;    0.000
414.116; 4685.050;  169.475;    0.000
414.170; 4578.050;  228.475;    0.000
414.225; 4564.050;  177.475;    0.000
414.279; 4620.050;  210.475;    0.000
414.333; 4610.050;  207.475;    0.000
414.387; 4680.050;  217.475;    0.000
414.441; 4667.050;  187.475;    0.000
414.496; 4714.050;  215.475;    0.000
414.550; 4806.050;  204.475;    0.000
414.604; 4717.050;  206.475;    0.000
414.658; 4660.050;  139.475;    0.000
414.712; 4647.050;  198.475;    0.000
414.766; 4637.050;  208.475;    0.000
414.820; 4531.050;  199.475;    0.000
414.874; 4660.050;  216.475;    0.000
414.928; 4648.050;  186.475;    0.000
414.982; 4545.050;  176.475;    0.000
415.037; 4548.050;  181.475;    0.000
415.091; 4597.050;  208.475;    0.000
415.145; 4554.050;  209.475;    0.000
415.199; 4660.050;  186.475;    0.000
415.253; 4662.050;  203.475;    0.000
415.307; 4654.050;  197.475;    0.000
415.361; 4692.050;  223.475;    0.000
415.415; 4619.050;  213.475;    0.000
415.469; 4686.050;  226.475;    0.000
415.523; 4691.050;  222.475;    0.000
415.577; 4587.050;  205.475;    0.000
415.631; 4700.050;  224.475;    0.000
415.684; 4655.050;  193.475;    0.000
415.738; 4541.050;  224.475;    0.000
415.792; 4549.050;  204.475;    0.000
415.846; 4589.050;  189.475;    0.000
415.900; 4578.050;  223.475;    0.000
415.954; 4535.050;  187.475;    0.000
416.008; 4632.050;  237.475;    0.000
416.062; 4692.050;  195.475;    0.000
416.116; 4550.050;  223.475;    0.000
416.169; 4653.050;  210.475;    0.000
416.223; 4599.050;  232.475;    0.000
416.277; 4598.050;  227.475;    0.000
416.331; 4552.050;  216.475;    0.000
416.385; 4583.050;  186.475;    0.000
416.439; 4564.050;  226.475;    0.000
416.492; 4551.050;  229.475;    0.000
416.546; 4535.050;  216.475;    0.000
416.600; 4458.050;  211.475;    0.000
416.654; 4591.050;  226.475;    0.000
416.707; 4548.050;  248.475;    0.000
416.761; 4455.050;  217.475;    0.000
416.815; 4553.050;  207.475;    0.000
416.869; 4635.050;  226.475;    0.000
416.922; 4533.050;  192.475;    0.000
416.976; 4574.050;  205.475;    0.000
417.030; 4565.050;  233.475;    0.000
417.083; 4624.050;  226.475;    0.000
417.137; 4585.050;  222.475;    0.000
417.191; 4574.050;  217.475;    0.000
417.244; 4649.050;  221.475;    0.000
417.298; 4494.050;  201.475;    0.000
417.352; 4458.050;  170.475;    0.000
417.405; 4696.050;  234.475;    0.000
417.459; 4471.050;  241.475;    0.000
417.512; 4594.050;  247.475;    0.000
417.566; 4543.050;  219.475;    0.000
417.620; 4573.050;  228.475;    0.000
417.673; 4508.050;  192.475;    0.000
417.727; 4671.050;  203.475;    0.000
417.780; 4553.050;  204.475;    0.000
417.834; 4435.050;  234.475;    0.000
417.887; 4624.050;  245.475;    0.000
417.941; 4634.050;  211.475;    0.000
417.994; 4649.050;  244.475;    0.000
418.048; 4584.050;  203.475;    0.000
418.101; 4501.050;  212.475;    0.000
418.155; 4620.050;  251.475;    0.000
418.208; 4621.050;  286.475;    0.000
418.262; 4562.050;  243.475;    0.000
418.315; 4680.050;  214.475;    0.000
418.369; 4548.050;  269.475;    0.000
418.422; 4610.050;  222.475;    0.000
418.476; 4676.050;  226.475;    0.000
418.529; 4655.050;  238.475;    0.000
418.582; 4666.050;  210.475;    0.000
418.636; 4642.050;  221.475;    0.000
418.689; 4791.050;  224.475;    0.000
418.743; 4680.050;  228.475;    0.000
418.796; 4565.050;  192.475;    0.000
418.849; 4641.050;  230.475;    0.000
418.903; 4727.050;  257.475;    0.000
418.956; 4715.050;  241.475;    0.000
419.009; 4760.050;  247.475;    0.000
419.063; 4724.050;  235.475;    0.000
419.116; 4764.050;  218.475;    0.000
419.169; 4709.050;  219.475;    0.000
419.222; 4623.050;  215.475;    0.000
419.276; 4576.050;  202.475;    0.000
419.329; 4574.050;  210.475;    0.000
419.382; 4718.050;  188.475;    0.000
419.435; 4496.050;  222.475;    0.000
419.489; 4615.050;  232.475;    0.000
419.542; 4510.050;  250.475;    0.000
419.595; 4631.050;  240.475;    0.000
419.648; 4635.050;  261.475;    0.000
419.701; 4516.050;  222.475;    0.000
419.755; 4403.050;  233.475;    0.000
419.808; 4437.050;  178.475;    0.000
419.861; 4459.050;  207.475;    0.000
419.914; 4569.050;  223.475;    0.000
419.967; 4540.050;  216.475;    0.000
420.020; 4529.050;  211.475;    0.000
420.073; 4548.050;  200.475;    0.000
420.127; 4421.050;  248.475;    0.000
420.180; 4502.050;  220.475;    0.000
420.233; 4540.050;  215.475;    0.000
420.286; 4464.050;  222.475;    0.000
420.339; 4490.050;  229.475;    0.000
420.392; 4476.050;  245.475;    0.000
420.445; 4435.050;  221.475;    0.000
420.498; 4352.050;  224.475;    0.000
420.551; 4438.050;  170.475;    0.000
420.604; 4335.050;  237.475;    0.000
420.657; 4430.050;  235.475;    0.000
420.710; 4435.050;  223.475;    0.000
420.763; 4420.050;  219.475;    0.000
420.816; 4299.050;  200.475;    0.000
420.869; 4309.050;  197.475;    0.000
420.922; 4351.050;  212.475;    0.000
420.975; 4393.050;  274.475;    0.000
421.028; 4392.050;  228.475;    0.000
421.081; 4369.050;  243.475;    0.000
421.134; 4430.050;  227.475;    0.000
421.187; 4397.050;  245.475;    0.000
421.239; 4434.050;  210.475;    0.000
421.292; 4262.050;  193.475;    0.000
421.345; 4328.050;  226.475;    0.000
421.398; 4295.050;  226.475;    0.000
421.451; 4354.050;  259.475;    0.000
421.504; 4263.050;  204.475;    0.000
421.557; 4283.050;  215.475;    0.000
421.609; 4380.050;  194.475;    0.000
421.662; 4293.050;  216.475;    0.000
421.715; 4329.050;  226.475;    0.000
421.768; 4287.050;  177.475;    0.000
421.821; 4265.050;  210.475;    0.000
421.873; 4338.050;  208.475;    0.000
421.926; 4120.050;  223.475;    0.000
421.979; 4262.050;  230.475;    0.000
422.032; 4269.050;  227.475;    0.000
422.084; 4240.050;  234.475;    0.000
422.137; 4321.050;  207.475;    0.000
422.190; 4338.050;  228.475;    0.000
422.243; 4273.050;  206.475;    0.000
422.295; 4348.050;  236.475;    0.000
422.348; 4250.050;  232.475;    0.000
422.401; 4228.050;  228.475;    0.000
422.453; 4247.050;  239.475;    0.000
422.506; 4338.050;  226.475;    0.000
422.559; 4278.050;  205.475;    0.000
422.611; 4415.050;  235.475;    0.000
422.664; 4444.050;  231.475;    0.000
422.716; 4603.050;  228.475;    0.000
422.769; 4329.050;  204.475;    0.000
422.822; 4269.050;  205.475;    0.000
422.874; 4329.050;  228.475;    0.000
422.927; 4320.050;  266.475;    0.000
422.979; 4239.050;  223.475;    0.000
423.032; 4320.050;  207.475;    0.000
423.084; 4204.050;  211.475;    0.000
423.137; 4272.050;  205.475;    0.000
423.189; 4260.050;  254.475;    0.000
423.242; 4303.050;  208.475;    0.000
423.294; 4148.050;  240.475;    0.000
423.347; 4228.050;  218.475;    0.000
423.399; 4334.050;  237.475;    0.000
423.452; 4194.050;  242.475;    0.000
423.504; 4267.050;  225.475;    0.000
423.557; 4214.050;  195.475;    0.000
423.609; 4240.050;  206.475;    0.000
423.662; 4175.050;  211.475;    0.000
423.714; 4157.050;  252.475;    0.000
423.766; 4243.050;  181.475;    0.000
423.819; 4261.050;  216.475;    0.000
423.871; 4254.050;  216.475;    0.000
423.923; 4145.050;  222.475;    0.000
423.976; 4170.050;  223.475;    0.000
424.028; 4133.050;  229.475;    0.000
424.081; 4182.050;  267.475;    0.000
424.133; 4189.050;  251.475;    0.000
424.185; 4246.050;  238.475;    0.000
424.238; 4311.050;  220.475;    0.000
424.290; 4256.050;  259.475;    0.000
424.342; 4215.050;  248.475;    0.000
424.394; 4252.050;  234.475;    0.000
424.447; 4315.050;  248.475;    0.000
424.499; 4211.050;  233.475;    0.000
424.551; 4270.050;  236.475;    0.000
424.603; 4161.050;  207.475;    0.000
424.656; 4312.050;  210.475;    0.000
424.708; 4023.050;  251.475;    0.000
424.760; 4109.050;  221.475;    0.000
424.812; 4183.050;  275.475;    0.000
424.864; 4108.050;  206.475;    0.000
424.917; 4136.050;  198.475;    0.000
424.969; 4169.050;  246.475;    0.000
425.021; 4160.050;  209.475;    0.000
425.073; 4073.050;  242.475;    0.000
425.125; 4192.050;  254.475;    0.000
425.177; 4144.050;  224.475;    0.000
425.229; 4104.050;  256.475;    0.000
425.282; 4104.050;  265.475;    0.000
425.334; 4056.050;  266.475;    0.000
425.386; 4026.050;  242.475;    0.000
425.438; 4058.050;  205.475;    0.000
425.490; 3938.050;  227.475;    0.000
425.542; 4072.050;  235.475;    0.000
425.594; 3932.050;  210.475;    0.000
425.646; 4051.050;  232.475;    0.000
425.698; 3941.050;  243.475;    0.000
425.750; 4001.050;  230.475;    0.000
425.802; 4048.050;  218.475;    0.000
425.854; 3978.050;  222.475;    0.000
425.906; 3979.050;  235.475;    0.000
425.958; 3932.050;  220.475;    0.000
426.010; 3964.050;  236.475;    0.000
426.062; 3986.050;  230.475;    0.000
426.114; 4021.050;  216.475;    0.000
426.166; 3887.050;  230.475;    0.000
426.218; 3986.050;  237.475;    0.000
426.270; 3950.050;  217.475;    0.000
426.321; 3871.050;  224.475;    0.000
426.373; 3850.050;  207.475;    0.000
426.425; 3903.050;  278.475;    0.000
426.477; 3871.050;  243.475;    0.000
426.529; 3941.050;  247.475;    0.000
426.581; 3877.050;  229.475;    0.000
426.633; 3817.050;  212.475;    0.000
426.684; 3897.050;  244.475;    0.000
426.736; 3901.050;  250.475;    0.000
426.788; 3866.050;  210.475;    0.000
426.840; 3886.050;  201.475;    0.000
426.892; 3874.050;  225.475;    0.000
426.943; 3848.050;  215.475;    0.000
426.995; 3840.050;  216.475;    0.000
427.047; 3785.050;  216.475;    0.000
427.099; 3971.050;  203.475;    0.000
427.150; 3849.050;  195.475;    0.000
427.202; 3814.050;  212.475;    0.000
427.254; 3866.050;  233.475;    0.000
427.306; 3780.050;  211.475;    0.000
427.357; 3855.050;  210.475;    0.000
427.409; 3840.050;  244.475;    0.000
427.461; 3759.050;  187.475;    0.000
427.512; 3811.050;  227.475;    0.000
427.564; 3794.050;  210.475;    0.000
427.616; 3763.050;  202.475;    0.000
427.667; 3852.050;  185.475;    0.000
427.719; 3733.050;  222.475;    0.000
427.770; 3837.050;  230.475;    0.000
427.822; 3807.050;  254.475;    0.000
427.874; 3807.050;  222.475;    0.000
427.925; 3748.050;  199.475;    0.000
427.977; 3680.050;  228.475;    0.000
428.028; 3748.050;  226.475;    0.000
428.080; 3761.050;  236.475;    0.000
428.131; 3825.050;  220.475;    0.000
428.183; 3760.050;  256.475;    0.000
428.234; 3740.050;  217.475;    0.000
428.286; 3786.050;  234.475;    0.000
428.337; 3744.050;  209.475;    0.000
428.389; 3630.050;  219.475;    0.000
428.440; 3750.050;  249.475;    0.000
428.492; 3702.050;  255.475;    0.000
428.543; 3657.050;  224.475;    0.000
428.595; 3724.050;  225.475;    0.000
428.646; 3763.050;  240.475;    0.000
428.697; 3681.050;  211.475;    0.000
428.749; 3683.050;  200.475;    0.000
428.800; 3672.050;  235.475;    0.000
428.852; 3676.050;  265.475;    0.000
428.903; 3665.050;  201.475;    0.000
428.954; 3608.050;  242.475;    0.000
429.006; 3713.050;  245.475;    0.000
429.057; 3642.050;  252.475;    0.000
429.108; 3640.050;  211.475;    0.000
429.160; 3720.050;  217.475;    0.000
429.211; 3634.050;  234.475;    0.000
429.262; 3566.050;  205.475;    0.000
429.314; 3631.050;  211.475;    0.000
429.365; 3630.050;  240.475;    0.000
429.416; 3648.050;  263.475;    0.000
429.467; 3591.050;  244.475;    0.000
429.519; 3541.050;  223.475;    0.000
429.570; 3639.050;  214.475;    0.000
429.621; 3541.050;  235.475;    0.000
429.672; 3600.050;  202.475;    0.000
429.724; 3581.050;  189.475;    0.000
429.775; 3658.050;  214.475;    0.000
429.826; 3491.050;  178.475;    0.000
429.877; 3592.050;  224.475;    0.000
429.928; 3636.050;  230.475;    0.000
429.980; 3530.050;  199.475;    0.000
430.031; 3425.050;  208.475;    0.000
430.082; 3579.050;  224.475;    0.000
430.133; 3634.050;  193.475;    0.000
430.184; 3536.050;  220.475;    0.000
430.235; 3563.050;  184.475;    0.000
430.286; 3538.050;  197.475;    0.000
430.337; 3515.050;  199.475;    0.000
430.388; 3493.050;  207.475;    0.000
430.439; 3484.050;  227.475;    0.000
430.490; 3519.050;  215.475;    0.000
430.542; 3465.050;  211.475;    0.000
430.593; 3587.050;  230.475;    0.000
430.644; 3464.050;  186.475;    0.000
430.695; 3476.050;  232.475;    0.000
430.746; 3513.050;  214.475;    0.000
430.797; 3514.050;  260.475;    0.000
430.848; 3561.050;  214.475;    0.000
430.898; 3496.050;  204.475;    0.000
430.949; 3540.050;  189.475;    0.000
431.000; 3506.050;  240.475;    0.000
431.051; 3617.050;  201.475;    0.000
431.102; 3454.050;  188.475;    0.000
431.153; 3486.050;  209.475;    0.000
431.204; 3440.050;  187.475;    0.000
431.255; 3451.050;  171.475;    0.000
431.306; 3486.050;  181.475;    0.000
431.357; 3439.050;  221.475;    0.000
431.408; 3523.050;  217.475;    0.000
431.458; 3456.050;  206.475;    0.000
431.509; 3517.050;  194.475;    0.000
431.560; 3509.050;  235.475;    0.000
431.611; 3483.050;  213.475;    0.000
431.662; 3559.050;  237.475;    0.000
431.713; 3536.050;  220.475;    0.000
431.763; 3492.050;  212.475;    0.000
431.814; 3538.050;  238.475;    0.000
431.865; 3461.050;  213.475;    0.000
431.916; 3521.050;  191.475;    0.000
431.966; 3606.050;  171.475;    0.000
432.017; 3574.050;  263.475;    0.000
432.068; 3625.050;  240.475;    0.000
432.118; 3600.050;  235.475;    0.000
432.169; 3474.050;  212.475;    0.000
432.220; 3493.050;  188.475;    0.000
432.271; 3507.050;  216.475;    0.000
432.321; 3526.050;  223.475;    0.000
432.372; 3510.050;  254.475;    0.000
432.423; 3487.050;  193.475;    0.000
432.473; 3500.050;  219.475;    0.000
432.524; 3495.050;  215.475;    0.000
432.574; 3529.050;  234.475;    0.000
432.625; 3449.050;  226.475;    0.000
432.676; 3465.050;  219.475;    0.000
432.726; 3436.050;  254.475;    0.000
432.777; 3425.050;  210.475;    0.000
432.827; 3530.050;  234.475;    0.000
432.878; 3388.050;  212.475;    0.000
432.928; 3406.050;  238.475;    0.000
432.979; 3494.050;  252.475;    0.000
433.029; 3374.050;  222.475;    0.000
433.080; 3475.050;  188.475;    0.000
433.130; 3436.050;  223.475;    0.000
433.181; 3423.050;  254.475;    0.000
433.231; 3389.050;  237.475;    0.000
433.282; 3471.050;  242.475;    0.000
433.332; 3379.050;  261.475;    0.000
433.383; 3420.050;  266.475;    0.000
433.433; 3579.050;  286.475;    0.000
433.484; 3448.050;  231.475;    0.000
433.534; 3471.050;  256.475;    0.000
433.585; 3421.050;  253.475;    0.000
433.635; 3374.050;  228.475;    0.000
433.685; 3521.050;  226.475;    0.000
433.736; 3442.050;  276.475;    0.000
433.786; 3473.050;  253.475;    0.000
433.836; 3534.050;  289.475;    0.000
433.887; 3407.050;  241.475;    0.000
433.937; 3568.050;  252.475;    0.000
433.987; 3363.050;  223.475;    0.000
434.038; 3540.050;  241.475;    0.000
434.088; 3367.050;  231.475;    0.000
434.138; 3477.050;  259.475;    0.000
434.189; 3510.050;  263.475;    0.000
434.239; 3469.050;  194.475;    0.000
434.289; 3534.050;  273.475;    0.000
434.339; 3593.050;  212.475;    0.000
434.389; 3520.050;  248.475;    0.000
434.440; 3459.050;  250.475;    0.000
434.490; 3562.050;  278.475;    0.000
434.540; 3563.050;  241.475;    0.000
434.590; 3592.050;  251.475;    0.000
434.640; 3560.050;  207.475;    0.000
434.691; 3569.050;  242.475;    0.000
434.741; 3597.050;  218.475;    0.000
434.791; 3649.050;  267.475;    0.000
434.841; 3704.050;  272.475;    0.000
434.891; 3688.050;  260.475;    0.000
434.941; 3716.050;  258.475;    0.000
434.991; 3730.050;  264.475;    0.000
435.042; 3658.050;  264.475;    0.000
435.092; 3678.050;  271.475;    0.000
435.142; 3608.050;  229.475;    0.000
435.192; 3632.050;  226.475;    0.000
435.242; 3569.050;  253.475;    0.000
435.292; 3513.050;  215.475;    0.000
435.342; 3473.050;  240.475;    0.000
435.392; 3488.050;  235.475;    0.000
435.442; 3496.050;  230.475;    0.000
435.492; 3374.050;  235.475;    0.000
435.542; 3454.050;  230.475;    0.000
435.592; 3404.050;  239.475;    0.000
435.642; 3420.050;  244.475;    0.000
435.692; 3404.050;  236.475;    0.000
435.742; 3401.050;  236.475;    0.000
435.792; 3429.050;  230.475;    0.000
435.842; 3386.050;  248.475;    0.000
435.891; 3290.050;  233.475;    0.000
435.941; 3398.050;  243.475;    0.000
435.991; 3422.050;  279.475;    0.000
436.041; 3270.050;  204.475;    0.000
436.091; 3401.050;  217.475;    0.000
436.141; 3245.050;  205.475;    0.000
436.191; 3297.050;  220.475;    0.000
436.241; 3241.050;  248.475;    0.000
436.290; 3277.050;  255.475;    0.000
436.340; 3332.050;  235.475;    0.000
436.390; 3310.050;  207.475;    0.000
436.440; 3222.050;  207.475;    0.000
436.490; 3226.050;  251.475;    0.000
436.539; 3302.050;  240.475;    0.000
436.589; 3320.050;  198.475;    0.000
436.639; 3293.050;  240.475;    0.000
436.689; 3295.050;  216.475;    0.000
436.738; 3293.050;  246.475;    0.000
436.788; 3301.050;  203.475;    0.000
436.838; 3210.050;  230.475;    0.000
436.887; 3302.050;  235.475;    0.000
436.937; 3217.050;  249.475;    0.000
436.987; 3288.050;  208.475;    0.000
437.036; 3204.050;  232.475;    0.000
437.086; 3143.050;  238.475;    0.000
437.136; 3227.050;  228.475;    0.000
437.185; 3212.050;  219.475;    0.000
437.235; 3252.050;  227.475;    0.000
437.285; 3164.050;  241.475;    0.000
437.334; 3187.050;  216.475;    0.000
437.384; 3255.050;  243.475;    0.000
437.433; 3222.050;  214.475;    0.000
437.483; 3312.050;  246.475;    0.000
437.532; 3244.050;  261.475;    0.000
437.582; 3161.050;  205.475;    0.000
437.631; 3163.050;  218.475;    0.000
437.681; 3145.050;  240.475;    0.000
437.730; 3040.050;  258.475;    0.000
437.780; 3150.050;  237.475;    0.000
437.829; 3114.050;  209.475;    0.000
437.879; 3103.050;  214.475;    0.000
437.928; 3122.050;  223.475;    0.000
437.978; 3144.050;  220.475;    0.000
438.027; 3187.050;  239.475;    0.000
438.077; 3169.050;  231.475;    0.000
438.126; 3117.050;  266.475;    0.000
438.176; 3097.050;  234.475;    0.000
438.225; 3052.050;  237.475;    0.000
438.274; 3067.050;  234.475;    0.000
438.324; 3108.050;  244.475;    0.000
438.373; 3136.050;  232.475;    0.000
438.422; 3140.050;  218.475;    0.000
438.472; 2996.050;  221.475;    0.000
438.521; 3053.050;  190.475;    0.000
438.570; 3128.050;  243.475;    0.000
438.620; 3076.050;  255.475;    0.000
438.669; 3056.050;  210.475;    0.000
438.718; 3164.050;  237.475;    0.000
438.768; 3114.050;  220.475;    0.000
438.817; 3142.050;  218.475;    0.000
438.866; 3058.050;  198.475;    0.000
438.915; 3140.050;  256.475;    0.000
438.965; 3156.050;  221.475;    0.000
439.014; 3131.050;  255.475;    0.000
439.063; 3129.050;  276.475;    0.000
439.112; 3107.050;  220.475;    0.000
439.162; 3180.050;  253.475;    0.000
439.211; 3174.050;  247.475;    0.000
439.260; 3065.050;  220.475;    0.000
439.309; 3122.050;  235.475;    0.000
439.358; 3121.050;  205.475;    0.000
439.407; 3106.050;  207.475;    0.000
439.456; 3099.050;  216.475;    0.000
439.506; 3056.050;  245.475;    0.000
439.555; 3131.050;  264.475;    0.000
439.604; 3198.050;  227.475;    0.000
439.653; 3123.050;  220.475;    0.000
439.702; 3087.050;  223.475;    0.000
439.751; 3130.050;  197.475;    0.000
439.800; 3183.050;  207.475;    0.000
439.849; 3093.050;  238.475;    0.000
439.898; 3009.050;  209.475;    0.000
439.947; 3097.050;  170.475;    0.000
439.996; 3125.050;  233.475;    0.000
440.045; 3213.050;  222.475;    0.000
440.094; 3130.050;  240.475;    0.000
440.143; 3182.050;  249.475;    0.000
440.192; 3164.050;  252.475;    0.000
440.241; 3172.050;  239.475;    0.000
440.290; 3204.050;  234.475;    0.000
440.339; 3109.050;  241.475;    0.000
440.388; 3169.050;  239.475;    0.000
440.437; 3216.050;  231.475;    0.000
440.486; 3248.050;  254.475;    0.000
440.535; 3174.050;  266.475;    0.000
440.583; 3186.050;  205.475;    0.000
440.632; 3158.050;  234.475;    0.000
440.681; 3042.050;  218.475;    0.000
440.730; 3184.050;  248.475;    0.000
440.779; 3175.050;  246.475;    0.000
440.828; 3151.050;  235.475;    0.000
440.876; 3279.050;  218.475;    0.000
440.925; 3153.050;  228.475;    0.000
440.974; 3184.050;  249.475;    0.000
441.023; 3305.050;  192.475;    0.000
441.072; 3227.050;  226.475;    0.000
441.120; 3331.050;  238.475;    0.000
441.169; 3268.050;  255.475;    0.000
441.218; 3260.050;  233.475;    0.000
441.267; 3346.050;  231.475;    0.000
441.315; 3309.050;  214.475;    0.000
441.364; 3361.050;  250.475;    0.000
441.413; 3318.050;  228.475;    0.000
441.461; 3390.050;  209.475;    0.000
441.510; 3379.050;  260.475;    0.000
441.559; 3478.050;  230.475;    0.000
441.607; 3332.050;  220.475;    0.000
441.656; 3449.050;  251.475;    0.000
441.705; 3413.050;  237.475;    0.000
441.753; 3395.050;  257.475;    0.000
441.802; 3493.050;  256.475;    0.000
441.850; 3262.050;  253.475;    0.000
441.899; 3354.050;  212.475;    0.000
441.948; 3332.050;  251.475;    0.000
441.996; 3265.050;  239.475;    0.000
442.045; 3268.050;  223.475;    0.000
442.093; 3397.050;  211.475;    0.000
442.142; 3305.050;  235.475;    0.000
442.190; 3412.050;  254.475;    0.000
442.239; 3426.050;  226.475;    0.000
442.287; 3324.050;  242.475;    0.000
442.336; 3322.050;  256.475;    0.000
442.384; 3286.050;  252.475;    0.000
442.433; 3318.050;  262.475;    0.000
442.481; 3399.050;  246.475;    0.000
442.529; 3228.050;  290.475;    0.000
442.578; 3273.050;  247.475;    0.000
442.626; 3271.050;  247.475;    0.000
442.675; 3401.050;  272.475;    0.000
442.723; 3237.050;  230.475;    0.000
442.771; 3212.050;  234.475;    0.000
442.820; 3292.050;  224.475;    0.000
442.868; 3327.050;  246.475;    0.000
442.917; 3188.050;  249.475;    0.000
442.965; 3382.050;  260.475;    0.000
443.013; 3270.050;  258.475;    0.000
443.062; 3376.050;  259.475;    0.000
443.110; 3293.050;  226.475;    0.000
443.158; 3234.050;  213.475;    0.000
443.206; 3355.050;  201.475;    0.000
443.255; 3255.050;  280.475;    0.000
443.303; 3364.050;  292.475;    0.000
443.351; 3290.050;  256.475;    0.000
443.399; 3325.050;  215.475;    0.000
443.448; 3339.050;  243.475;    0.000
443.496; 3225.050;  249.475;    0.000
443.544; 3342.050;  231.475;    0.000
443.592; 3365.050;  243.475;    0.000
443.640; 3352.050;  252.475;    0.000
443.689; 3343.050;  220.475;    0.000
443.737; 3330.050;  231.475;    0.000
443.785; 3327.050;  256.475;    0.000
443.833; 3424.050;  268.475;    0.000
443.881; 3258.050;  181.475;    0.000
443.929; 3405.050;  245.475;    0.000
443.977; 3391.050;  278.475;    0.000
444.025; 3353.050;  245.475;    0.000
444.074; 3458.050;  233.475;    0.000
444.122; 3475.050;  267.475;    0.000
444.170; 3364.050;  247.475;    0.000
444.218; 3411.050;  246.475;    0.000
444.266; 3488.050;  275.475;    0.000
444.314; 3565.050;  263.475;    0.000
444.362; 3453.050;  240.475;    0.000
444.410; 3466.050;  220.475;    0.000
444.458; 3593.050;  258.475;    0.000
444.506; 3676.050;  258.475;    0.000
444.554; 3492.050;  224.475;    0.000
444.602; 3756.050;  245.475;    0.000
444.650; 3649.050;  261.475;    0.000
444.698; 3674.050;  232.475;    0.000
444.746; 3618.050;  206.475;    0.000
444.793; 3616.050;  249.475;    0.000
444.841; 3708.050;  261.475;    0.000
444.889; 3624.050;  221.475;    0.000
444.937; 3651.050;  215.475;    0.000
444.985; 3589.050;  244.475;    0.000
445.033; 3580.050;  211.475;    0.000
445.081; 3532.050;  225.475;    0.000
445.129; 3400.050;  217.475;    0.000
445.176; 3543.050;  196.475;    0.000
445.224; 3474.050;  211.475;    0.000
445.272; 3470.050;  242.475;    0.000
445.320; 3548.050;  225.475;    0.000
445.368; 3494.050;  249.475;    0.000
445.415; 3461.050;  243.475;    0.000
445.463; 3601.050;  242.475;    0.000
445.511; 3447.050;  248.475;    0.000
445.559; 3486.050;  219.475;    0.000
445.606; 3413.050;  221.475;    0.000
445.654; 3374.050;  202.475;    0.000
445.702; 3330.050;  210.475;    0.000
445.749; 3457.050;  249.475;    0.000
445.797; 3397.050;  206.475;    0.000
445.845; 3370.050;  213.475;    0.000
445.892; 3469.050;  224.475;    0.000
445.940; 3465.050;  214.475;    0.000
445.988; 3320.050;  247.475;    0.000
446.035; 3346.050;  204.475;    0.000
446.083; 3411.050;  235.475;    0.000
446.130; 3356.050;  195.475;    0.000
446.178; 3530.050;  236.475;    0.000
446.226; 3288.050;  218.475;    0.000
446.273; 3409.050;  215.475;    0.000
446.321; 3369.050;  222.475;    0.000
446.368; 3340.050;  228.475;    0.000
446.416; 3411.050;  223.475;    0.000
446.463; 3444.050;  220.475;    0.000
446.511; 3438.050;  198.475;    0.000
446.558; 3430.050;  208.475;    0.000
446.606; 3540.050;  253.475;    0.000
446.653; 3507.050;  198.475;    0.000
446.701; 3566.050;  231.475;    0.000
446.748; 3451.050;  224.475;    0.000
446.796; 3499.050;  201.475;    0.000
446.843; 3536.050;  257.475;    0.000
446.891; 3495.050;  218.475;    0.000
446.938; 3551.050;  232.475;    0.000
446.985; 3479.050;  229.475;    0.000
447.033; 3553.050;  251.475;    0.000
447.080; 3628.050;  257.475;    0.000
447.128; 3549.050;  232.475;    0.000
447.175; 3487.050;  269.475;    0.000
447.222; 3503.050;  185.475;    0.000
447.270; 3656.050;  264.475;    0.000
447.317; 3486.050;  225.475;    0.000
447.364; 3488.050;  243.475;    0.000
447.411; 3703.050;  263.475;    0.000
447.459; 3741.050;  257.475;    0.000
447.506; 3722.050;  175.475;    0.000
447.553; 3725.050;  203.475;    0.000
447.601; 3690.050;  238.475;    0.000
447.648; 3807.050;  244.475;    0.000
447.695; 3766.050;  249.475;    0.000
447.742; 3903.050;  234.475;    0.000
447.789; 3756.050;  228.475;    0.000
447.837; 3911.050;  258.475;    0.000
447.884; 3869.050;  243.475;    0.000
447.931; 3987.050;  235.475;    0.000
447.978; 3951.050;  224.475;    0.000
448.025; 3972.050;  245.475;    0.000
448.072; 4073.050;  212.475;    0.000
448.120; 3964.050;  256.475;    0.000
448.167; 3953.050;  240.475;    0.000
448.214; 3953.050;  247.475;    0.000
448.261; 3800.050;  245.475;    0.000
448.308; 3938.050;  273.475;    0.000
448.355; 3862.050;  257.475;    0.000
448.402; 3812.050;  259.475;    0.000
448.449; 3692.050;  238.475;    0.000
448.496; 3712.050;  245.475;    0.000
448.543; 3657.050;  217.475;    0.000
448.590; 3637.050;  269.475;    0.000
448.637; 3684.050;  250.475;    0.000
448.684; 3538.050;  250.475;    0.000
448.731; 3564.050;  235.475;    0.000
448.778; 3522.050;  265.475;    0.000
448.825; 3524.050;  257.475;    0.000
448.872; 3586.050;  234.475;    0.000
448.919; 3445.050;  216.475;    0.000
448.966; 3500.050;  274.475;    0.000
449.013; 3391.050;  263.475;    0.000
449.060; 3466.050;  247.475;    0.000
449.107; 3297.050;  218.475;    0.000
449.154; 3336.050;  225.475;    0.000
449.200; 3374.050;  212.475;    0.000
449.247; 3351.050;  242.475;    0.000
449.294; 3343.050;  228.475;    0.000
449.341; 3360.050;  232.475;    0.000
449.388; 3336.050;  247.475;    0.000
449.435; 3279.050;  227.475;    0.000
449.481; 3221.050;  270.475;    0.000
449.528; 3289.050;  265.475;    0.000
449.575; 3202.050;  255.475;    0.000
449.622; 3282.050;  210.475;    0.000
449.668; 3167.050;  234.475;    0.000
449.715; 3272.050;  262.475;    0.000
449.762; 3254.050;  247.475;    0.000
449.809; 3265.050;  286.475;    0.000
449.855; 3125.050;  246.475;    0.000
449.902; 3121.050;  224.475;    0.000
449.949; 3228.050;  244.475;    0.000
449.995; 3087.050;  274.475;    0.000
450.042; 3222.050;  272.475;    0.000
450.089; 3244.050;  274.475;    0.000
450.135; 3210.050;  285.475;    0.000
450.182; 3140.050;  251.475;    0.000
450.229; 3119.050;  242.475;    0.000
450.275; 3161.050;  277.475;    0.000
450.322; 3084.050;  260.475;    0.000
450.368; 3093.050;  257.475;    0.000
450.415; 3140.050;  276.475;    0.000
450.462; 3111.050;  298.475;    0.000
450.508; 3054.050;  255.475;    0.000
450.555; 3138.050;  271.475;    0.000
450.601; 3190.050;  281.475;    0.000
450.648; 3176.050;  249.475;    0.000
450.694; 3093.050;  270.475;    0.000
450.741; 3137.050;  256.475;    0.000
450.787; 3091.050;  292.475;    0.000
450.834; 3113.050;  221.475;    0.000
450.880; 3058.050;  265.475;    0.000
450.927; 3044.050;  242.475;    0.000
450.973; 3086.050;  259.475;    0.000
451.019; 3045.050;  221.475;    0.000
451.066; 3068.050;  257.475;    0.000
451.112; 3071.050;  251.475;    0.000
451.159; 3090.050;  278.475;    0.000
451.205; 3013.050;  274.475;    0.000
451.251; 3060.050;  281.475;    0.000
451.298; 3056.050;  273.475;    0.000
451.344; 3047.050;  246.475;    0.000
451.390; 3037.050;  286.475;    0.000
451.437; 3034.050;  268.475;    0.000
451.483; 3020.050;  315.475;    0.000
451.529; 3032.050;  251.475;    0.000
451.576; 3029.050;  306.475;    0.000
451.622; 2970.050;  234.475;    0.000
451.668; 3081.050;  243.475;    0.000
451.714; 3064.050;  256.475;    0.000
451.761; 2876.050;  264.475;    0.000
451.807; 2980.050;  284.475;    0.000
451.853; 2983.050;  282.475;    0.000
451.899; 2924.050;  240.475;    0.000
451.945; 3008.050;  263.475;    0.000
451.992; 2956.050;  255.475;    0.000
452.038; 3032.050;  273.475;    0.000
452.084; 2983.050;  274.475;    0.000
452.130; 2978.050;  261.475;    0.000
452.176; 2916.050;  246.475;    0.000
452.222; 2882.050;  238.475;    0.000
452.268; 2952.050;  267.475;    0.000
452.315; 2949.050;  274.475;    0.000
452.361; 2921.050;  241.475;    0.000
452.407; 2974.050;  274.475;    0.000
452.453; 2965.050;  260.475;    0.000
452.499; 2940.050;  232.475;    0.000
452.545; 2870.050;  252.475;    0.000
452.591; 2976.050;  263.475;    0.000
452.637; 2941.050;  208.475;    0.000
452.683; 2938.050;  237.475;    0.000
452.729; 2994.050;  263.475;    0.000
452.775; 2937.050;  291.475;    0.000
452.821; 2878.050;  238.475;    0.000
452.867; 2876.050;  223.475;    0.000
452.913; 2935.050;  257.475;    0.000
452.959; 2883.050;  238.475;    0.000
453.005; 2964.050;  252.475;    0.000
453.051; 2951.050;  260.475;    0.000
453.097; 2936.050;  268.475;    0.000
453.142; 2869.050;  231.475;    0.000
453.188; 2939.050;  266.475;    0.000
453.234; 2778.050;  233.475;    0.000
453.280; 2817.050;  219.475;    0.000
453.326; 2774.050;  265.475;    0.000
453.372; 2792.050;  238.475;    0.000
453.418; 2857.050;  240.475;    0.000
453.463; 2891.050;  219.475;    0.000
453.509; 2862.050;  264.475;    0.000
453.555; 2875.050;  247.475;    0.000
453.601; 2878.050;  230.475;    0.000
453.647; 2866.050;  285.475;    0.000
453.692; 2867.050;  240.475;    0.000
453.738; 2793.050;  233.475;    0.000
453.784; 2871.050;  230.475;    0.000
453.829; 2879.050;  246.475;    0.000
453.875; 2905.050;  261.475;    0.000
453.921; 2845.050;  203.475;    0.000
453.967; 2838.050;  241.475;    0.000
454.012; 2931.050;  250.475;    0.000
454.058; 2895.050;  252.475;    0.000
454.104; 2816.050;  239.475;    0.000
454.149; 2946.050;  250.475;    0.000
454.195; 2799.050;  243.475;    0.000
454.240; 2869.050;  252.475;    0.000
454.286; 2863.050;  245.475;    0.000
454.332; 2890.050;  286.475;    0.000
454.377; 2933.050;  254.475;    0.000
454.423; 2847.050;  246.475;    0.000
454.468; 2910.050;  235.475;    0.000
454.514; 2765.050;  231.475;    0.000
454.559; 2873.050;  246.475;    0.000
454.605; 2742.050;  204.475;    0.000
454.650; 2759.050;  272.475;    0.000
454.696; 2811.050;  222.475;    0.000
454.741; 2904.050;  290.475;    0.000
454.787; 2798.050;  262.475;    0.000
454.832; 2891.050;  227.475;    0.000
454.878; 2743.050;  241.475;    0.000
454.923; 2881.050;  272.475;    0.000
454.969; 2894.050;  290.475;    0.000
455.014; 2869.050;  278.475;    0.000
455.060; 2837.050;  246.475;    0.000
455.105; 2805.050;  231.475;    0.000
455.150; 2834.050;  265.475;    0.000
455.196; 2855.050;  266.475;    0.000
455.241; 2902.050;  258.475;    0.000
455.286; 2790.050;  266.475;    0.000
455.332; 2842.050;  252.475;    0.000
455.377; 2891.050;  219.475;    0.000
455.422; 2819.050;  262.475;    0.000
455.468; 2799.050;  260.475;    0.000
455.513; 2835.050;  212.475;    0.000
455.558; 2773.050;  197.475;    0.000
455.604; 2827.050;  262.475;    0.000
455.649; 2777.050;  238.475;    0.000
455.694; 2861.050;  221.475;    0.000
455.739; 2805.050;  251.475;    0.000
455.785; 2914.050;  287.475;    0.000
455.830; 2831.050;  284.475;    0.000
455.875; 2868.050;  234.475;    0.000
455.920; 2776.050;  215.475;    0.000
455.965; 2862.050;  256.475;    0.000
456.010; 2893.050;  266.475;    0.000
456.056; 2807.050;  263.475;    0.000
456.101; 2852.050;  240.475;    0.000
456.146; 2888.050;  258.475;    0.000
456.191; 2785.050;  241.475;    0.000
456.236; 2756.050;  252.475;    0.000
456.281; 2859.050;  218.475;    0.000
456.326; 2834.050;  251.475;    0.000
456.371; 2870.050;  256.475;    0.000
456.416; 2758.050;  301.475;    0.000
456.461; 2890.050;  233.475;    0.000
456.507; 2811.050;  218.475;    0.000
456.552; 2853.050;  278.475;    0.000
456.597; 2751.050;  223.475;    0.000
456.642; 2845.050;  203.475;    0.000
456.687; 2859.050;  245.475;    0.000
456.732; 2905.050;  256.475;    0.000
456.776; 2900.050;  244.475;    0.000
456.821; 2909.050;  276.475;    0.000
456.866; 2830.050;  232.475;    0.000
456.911; 2801.050;  225.475;    0.000
456.956; 2938.050;  237.475;    0.000
457.001; 2850.050;  261.475;    0.000
457.046; 2884.050;  205.475;    0.000
457.091; 2837.050;  241.475;    0.000
457.136; 2814.050;  217.475;    0.000
457.181; 2913.050;  251.475;    0.000
457.225; 2867.050;  241.475;    0.000
457.270; 2876.050;  237.475;    0.000
457.315; 2988.050;  279.475;    0.000
457.360; 2897.050;  245.475;    0.000
457.405; 2926.050;  202.475;    0.000
457.450; 2895.050;  247.475;    0.000
457.494; 2946.050;  243.475;    0.000
457.539; 2868.050;  222.475;    0.000
457.584; 2886.050;  239.475;    0.000
457.629; 2913.050;  236.475;    0.000
457.673; 2913.050;  234.475;    0.000
457.718; 2897.050;  202.475;    0.000
457.763; 2894.050;  274.475;    0.000
457.807; 2953.050;  236.475;    0.000
457.852; 2932.050;  265.475;    0.000
457.897; 2874.050;  252.475;    0.000
457.941; 2844.050;  264.475;    0.000
457.986; 2987.050;  280.475;    0.000
458.031; 2958.050;  217.475;    0.000
458.075; 2960.050;  249.475;    0.000
458.120; 2931.050;  257.475;    0.000
458.165; 2934.050;  183.475;    0.000
458.209; 3097.050;  245.475;    0.000
458.254; 2897.050;  245.475;    0.000
458.298; 3018.050;  265.475;    0.000
458.343; 2929.050;  241.475;    0.000
458.387; 3053.050;  262.475;    0.000
458.432; 3000.050;  245.475;    0.000
458.476; 3092.050;  255.475;    0.000
458.521; 3093.050;  269.475;    0.000
458.565; 2990.050;  265.475;    0.000
458.610; 2988.050;  222.475;    0.000
458.654; 3022.050;  257.475;    0.000
458.699; 3132.050;  296.475;    0.000
458.743; 3040.050;  203.475;    0.000
458.788; 3151.050;  267.475;    0.000
458.832; 3154.050;  274.475;    0.000
458.877; 3187.050;  251.475;    0.000
458.921; 3078.050;  237.475;    0.000
458.965; 3196.050;  264.475;    0.000
459.010; 3155.050;  256.475;    0.000
459.054; 3171.050;  280.475;    0.000
459.099; 3071.050;  240.475;    0.000
459.143; 3267.050;  287.475;    0.000
459.187; 3210.050;  257.475;    0.000
459.231; 3157.050;  273.475;    0.000
459.276; 3235.050;  231.475;    0.000
459.320; 3247.050;  261.475;    0.000
459.364; 3323.050;  278.475;    0.000
459.409; 3333.050;  249.475;    0.000
459.453; 3266.050;  235.475;    0.000
459.497; 3343.050;  262.475;    0.000
459.541; 3353.050;  269.475;    0.000
459.586; 3143.050;  240.475;    0.000
459.630; 3408.050;  261.475;    0.000
459.674; 3301.050;  276.475;    0.000
459.718; 3315.050;  236.475;    0.000
459.762; 3314.050;  263.475;    0.000
459.807; 3329.050;  263.475;    0.000
459.851; 3296.050;  225.475;    0.000
459.895; 3446.050;  247.475;    0.000
459.939; 3401.050;  231.475;    0.000
459.983; 3283.050;  242.475;    0.000
460.027; 3422.050;  248.475;    0.000
460.071; 3400.050;  273.475;    0.000
460.115; 3319.050;  282.475;    0.000
460.159; 3494.050;  264.475;    0.000
460.204; 3497.050;  288.475;    0.000
460.248; 3487.050;  293.475;    0.000
460.292; 3398.050;  277.475;    0.000
460.336; 3493.050;  250.475;    0.000
460.380; 3401.050;  275.475;    0.000
460.424; 3434.050;  243.475;    0.000
460.468; 3515.050;  277.475;    0.000
460.512; 3479.050;  261.475;    0.000
460.556; 3438.050;  266.475;    0.000
460.599; 3484.050;  246.475;    0.000
460.643; 3483.050;  256.475;    0.000
460.687; 3595.050;  257.475;    0.000
460.731; 3537.050;  235.475;    0.000
460.775; 3559.050;  278.475;    0.000
460.819; 3412.050;  268.475;    0.000
460.863; 3499.050;  257.475;    0.000
460.907; 3511.050;  213.475;    0.000
460.951; 3540.050;  274.475;    0.000
460.995; 3567.050;  258.475;    0.000
461.038; 3450.050;  219.475;    0.000
461.082; 3555.050;  253.475;    0.000
461.126; 3567.050;  281.475;    0.000
461.170; 3458.050;  244.475;    0.000
461.214; 3479.050;  262.475;    0.000
461.257; 3547.050;  284.475;    0.000
461.301; 3443.050;  275.475;    0.000
461.345; 3545.050;  267.475;    0.000
461.389; 3471.050;  255.475;    0.000
461.432; 3601.050;  282.475;    0.000
461.476; 3517.050;  263.475;    0.000
461.520; 3599.050;  260.475;    0.000
461.563; 3552.050;  278.475;    0.000
461.607; 3551.050;  236.475;    0.000
461.651; 3546.050;  262.475;    0.000
461.694; 3462.050;  236.475;    0.000
461.738; 3571.050;  295.475;    0.000
461.782; 3636.050;  252.475;    0.000
461.825; 3557.050;  271.475;    0.000
461.869; 3643.050;  278.475;    0.000
461.913; 3547.050;  255.475;    0.000
461.956; 3583.050;  254.475;    0.000
462.000; 3538.050;  299.475;    0.000
462.043; 3692.050;  282.475;    0.000
462.087; 3647.050;  274.475;    0.000
462.130; 3603.050;  270.475;    0.000
462.174; 3683.050;  274.475;    0.000
462.217; 3703.050;  272.475;    0.000
462.261; 3662.050;  286.475;    0.000
462.304; 3681.050;  236.475;    0.000
462.348; 3695.050;  262.475;    0.000
462.391; 3657.050;  244.475;    0.000
462.435; 3871.050;  321.475;    0.000
462.478; 3751.050;  230.475;    0.000
462.522; 3738.050;  245.475;    0.000
462.565; 3809.050;  278.475;    0.000
462.608; 3838.050;  303.475;    0.000
462.652; 3797.050;  275.475;    0.000
462.695; 3879.050;  314.475;    0.000
462.739; 3809.050;  307.475;    0.000
462.782; 4032.050;  286.475;    0.000
462.825; 3903.050;  312.475;    0.000
462.869; 3956.050;  338.475;    0.000
462.912; 4141.050;  304.475;    0.000
462.955; 4046.050;  288.475;    0.000
462.998; 4204.050;  292.475;    0.000
463.042; 4111.050;  309.475;    0.000
463.085; 4194.050;  292.475;    0.000
463.128; 4044.050;  317.475;    0.000
463.172; 4039.050;  287.475;    0.000
463.215;  422.050;  313.475;    0.000
463.258;  309.050;  295.475;    0.000
463.301;  291.050;  275.475;    0.000
463.344;  316.050;  311.475;    0.000
463.388;  329.050;  296.475;    0.000
463.431;  319.050;  277.475;    0.000
463.474;  344.050;  364.475;    0.000
463.517;  313.050;  306.475;    0.000
463.560;  310.050;  308.475;    0.000
463.603;  332.050;  343.475;    0.000
463.646;  349.050;  309.475;    0.000
463.690;  316.050;  309.475;    0.000
463.733;  318.050;  320.475;    0.000
463.776;  279.050;  299.475;    0.000
463.819;  318.050;  320.475;    0.000
463.862;  326.050;  283.475;    0.000

