
Integration time [ms]:   1.000
Averaging Nr. [scans]: 1
Smoothing Nr. [pixels]: 0
Data measured with spectrometer [name]: VIS
Wave   ;Sample   ;Dark     ;Reference
[nm]   ;[counts] ;[counts] ;[counts] 

450.961;  205.175;  200.375;    0.000
451.100;  243.175;  241.375;    0.000
451.239;  186.175;  201.375;    0.000
451.377;  249.175;  262.375;    0.000
451.516;  201.175;  229.375;    0.000
451.655;  241.175;  211.375;    0.000
451.794;  212.175;  225.375;    0.000
451.932;  234.175;  247.375;    0.000
452.071;  217.175;  260.375;    0.000
452.210;  209.175;  235.375;    0.000
452.348;  245.175;  276.375;    0.000
452.487;  195.175;  259.375;    0.000
452.626;  242.175;  254.375;    0.000
452.764;  215.175;  233.375;    0.000
452.903;  235.175;  202.375;    0.000
453.042;  297.175;  211.375;    0.000
453.180; 5342.175;  240.375;    0.000
453.319; 5378.175;  238.375;    0.000
453.458; 5446.175;  215.375;    0.000
453.596; 5506.175;  252.375;    0.000
453.735; 5605.175;  240.375;    0.000
453.873; 5604.175;  257.375;    0.000
454.012; 5722.175;  228.375;    0.000
454.150; 5794.175;  270.375;    0.000
454.289; 5630.175;  233.375;    0.000
454.427; 5893.175;  243.375;    0.000
454.566; 5859.175;  257.375;    0.000
454.704; 5734.175;  243.375;    0.000
454.843; 5888.175;  190.375;    0.000
454.981; 5918.175;  271.375;    0.000
455.120; 5989.175;  210.375;    0.000
455.258; 6144.175;  235.375;    0.000
455.397; 6146.175;  214.375;    0.000
455.535; 6139.175;  214.375;    0.000
455.674; 6342.175;  184.375;    0.000
455.812; 6219.175;  228.375;    0.000
455.951; 6425.175;  204.375;    0.000
456.089; 6202.175;  220.375;    0.000
456.227; 6488.175;  196.375;    0.000
456.366; 6596.175;  261.375;    0.000
456.504; 6638.175;  249.375;    0.000
456.642; 6673.175;  245.375;    0.000
456.781; 6766.175;  183.375;    0.000
456.919; 6815.175;  203.375;    0.000
457.057; 6829.175;  177.375;    0.000
457.196; 7050.175;  191.375;    0.000
457.334; 7095.175;  233.375;    0.000
457.472; 7102.175;  214.375;    0.000
457.610; 7208.175;  230.375;    0.000
457.749; 7281.175;  247.375;    0.000
457.887; 7496.175;  220.375;    0.000
458.025; 7484.175;  195.375;    0.000
458.163; 7646.175;  224.375;    0.000
458.301; 7793.175;  228.375;    0.000
458.440; 7913.175;  200.375;    0.000
458.578; 8071.175;  233.375;    0.000
458.716; 8227.175;  182.375;    0.000
458.854; 8244.175;  251.375;    0.000
458.992; 8307.175;  187.375;    0.000
459.130; 8461.175;  229.375;    0.000
459.269; 8566.175;  237.375;    0.000
459.407; 8804.175;  228.375;    0.000
459.545; 8909.175;  216.375;    0.000
459.683; 8964.175;  204.375;    0.000
459.821; 9179.175;  191.375;    0.000
459.959; 9380.175;  227.375;    0.000
460.097; 9153.175;  221.375;    0.000
460.235; 9537.175;  241.375;    0.000
460.373; 9693.175;  231.375;    0.000
460.511; 9582.175;  214.375;    0.000
460.649; 9763.175;  172.375;    0.000
460.787; 9619.175;  275.375;    0.000
460.925; 9687.175;  175.375;    0.000
461.063; 9817.175;  252.375;    0.000
461.201; 9782.175;  210.375;    0.000
461.339; 9964.175;  237.375;    0.000
461.477;10016.175;  210.375;    0.000
461.615;10000.175;  236.375;    0.000
461.753;10139.175;  215.375;    0.000
461.891;10260.175;  222.375;    0.000
462.029;10589.175;  227.375;    0.000
462.166;10691.175;  202.375;    0.000
462.304;10807.175;  191.375;    0.000
462.442;11130.175;  210.375;    0.000
462.580;11181.175;  184.375;    0.000
462.718;11527.175;  220.375;    0.000
462.856;11374.175;  226.375;    0.000
462.993;11424.175;  254.375;    0.000
463.131;11612.175;  200.375;    0.000
463.269;11219.175;  215.375;    0.000
463.407;11080.175;  213.375;    0.000
463.545;10862.175;  242.375;    0.000
463.682;10899.175;  212.375;    0.000
463.820;11363.175;  185.375;    0.000
463.958;11784.175;  212.375;    0.000
464.095;11971.175;  181.375;    0.000
464.233;11992.175;  192.375;    0.000
464.371;11950.175;  247.375;    0.000
464.509;11740.175;  151.375;    0.000
464.646;11687.175;  207.375;    0.000
464.784;11598.175;  199.375;    0.000
464.921;11421.175;  253.375;    0.000
465.059;11112.175;  214.375;    0.000
465.197;10981.175;  200.375;    0.000
465.334;10522.175;  180.375;    0.000
465.472;10558.175;  204.375;    0.000
465.609;10251.175;  203.375;    0.000
465.747;10269.175;  214.375;    0.000
465.885;10133.175;  233.375;    0.000
466.022;10364.175;  215.375;    0.000
466.160;10090.175;  201.375;    0.000
466.297;10036.175;  196.375;    0.000
466.435; 9857.175;  230.375;    0.000
466.572; 9855.175;  227.375;    0.000
466.710; 9853.175;  218.375;    0.000
466.847; 9942.175;  245.375;    0.000
466.985; 9819.175;  223.375;    0.000
467.122; 9641.175;  168.375;    0.000
467.260; 9650.175;  196.375;    0.000
467.397; 9731.175;  198.375;    0.000
467.534; 9706.175;  219.375;    0.000
467.672; 9734.175;  214.375;    0.000
467.809; 9785.175;  185.375;    0.000
467.947; 9876.175;  247.375;    0.000
468.084; 9598.175;  196.375;    0.000
468.221; 9790.175;  238.375;    0.000
468.359; 9714.175;  236.375;    0.000
468.496; 9699.175;  235.375;    0.000
468.633; 9659.175;  218.375;    0.000
468.771; 9774.175;  223.375;    0.000
468.908; 9762.175;  208.375;    0.000
469.045; 9778.175;  249.375;    0.000
469.183;10022.175;  222.375;    0.000
469.320;10116.175;  216.375;    0.000
469.457;10044.175;  224.375;    0.000
469.594;10132.175;  259.375;    0.000
469.732;10320.175;  223.375;    0.000
469.869;10494.175;  234.375;    0.000
470.006;10445.175;  225.375;    0.000
470.143;10709.175;  243.375;    0.000
470.280;10761.175;  208.375;    0.000
470.417;10813.175;  232.375;    0.000
470.555;10766.175;  218.375;    0.000
470.692;10677.175;  223.375;    0.000
470.829;10695.175;  238.375;    0.000
470.966;10535.175;  205.375;    0.000
471.103;10341.175;  259.375;    0.000
471.240;10490.175;  214.375;    0.000
471.377;10343.175;  226.375;    0.000
471.514;10364.175;  250.375;    0.000
471.651;10124.175;  221.375;    0.000
471.789;10157.175;  242.375;    0.000
471.926;10136.175;  190.375;    0.000
472.063;10128.175;  234.375;    0.000
472.200; 9933.175;  252.375;    0.000
472.337;10035.175;  241.375;    0.000
472.474;10035.175;  244.375;    0.000
472.611; 9959.175;  268.375;    0.000
472.748; 9897.175;  222.375;    0.000
472.884; 9939.175;  271.375;    0.000
473.021; 9704.175;  195.375;    0.000
473.158; 9872.175;  205.375;    0.000
473.295; 9858.175;  223.375;    0.000
473.432; 9809.175;  216.375;    0.000
473.569; 9794.175;  196.375;    0.000
473.706; 9653.175;  190.375;    0.000
473.843; 9627.175;  211.375;    0.000
473.980; 9888.175;  254.375;    0.000
474.117; 9881.175;  185.375;    0.000
474.253; 9688.175;  229.375;    0.000
474.390; 9749.175;  238.375;    0.000
474.527; 9720.175;  220.375;    0.000
474.664; 9779.175;  242.375;    0.000
474.801; 9927.175;  229.375;    0.000
474.937; 9753.175;  229.375;    0.000
475.074; 9865.175;  210.375;    0.000
475.211; 9809.175;  219.375;    0.000
475.348; 9962.175;  226.375;    0.000
475.484; 9914.175;  207.375;    0.000
475.621;10011.175;  233.375;    0.000
475.758;10059.175;  230.375;    0.000
475.894;10117.175;  234.375;    0.000
476.031;10050.175;  202.375;    0.000
476.168;10008.175;  222.375;    0.000
476.304;10192.175;  237.375;    0.000
476.441;10172.175;  238.375;    0.000
476.578;10151.175;  216.375;    0.000
476.714;10302.175;  212.375;    0.000
476.851;10199.175;  210.375;    0.000
476.987;10515.175;  239.375;    0.000
477.124;10317.175;  250.375;    0.000
477.261;10534.175;  227.375;    0.000
477.397;10504.175;  189.375;    0.000
477.534;10512.175;  204.375;    0.000
477.670;10762.175;  190.375;    0.000
477.807;10715.175;  198.375;    0.000
477.943;10912.175;  216.375;    0.000
478.080;10851.175;  213.375;    0.000
478.216;11007.175;  239.375;    0.000
478.353;11186.175;  218.375;    0.000
478.489;11354.175;  184.375;    0.000
478.626;11243.175;  223.375;    0.000
478.762;11352.175;  213.375;    0.000
478.898;11462.175;  216.375;    0.000
479.035;11400.175;  250.375;    0.000
479.171;11410.175;  201.375;    0.000
479.308;11392.175;  242.375;    0.000
479.444;11275.175;  205.375;    0.000
479.580;11238.175;  203.375;    0.000
479.717;11459.175;  260.375;    0.000
479.853;11334.175;  225.375;    0.000
479.989;11689.175;  226.375;    0.000
480.126;11574.175;  211.375;    0.000
480.262;11828.175;  220.375;    0.000
480.398;11694.175;  207.375;    0.000
480.535;11792.175;  179.375;    0.000
480.671;11701.175;  200.375;    0.000
480.807;11478.175;  190.375;    0.000
480.943;11433.175;  165.375;    0.000
481.080;11452.175;  210.375;    0.000
481.216;11449.175;  232.375;    0.000
481.352;11247.175;  235.375;    0.000
481.488;11348.175;  208.375;    0.000
481.624;11309.175;  245.375;    0.000
481.760;11211.175;  210.375;    0.000
481.897;11129.175;  189.375;    0.000
482.033;11118.175;  256.375;    0.000
482.169;11127.175;  257.375;    0.000
482.305;11135.175;  199.375;    0.000
482.441;11002.175;  182.375;    0.000
482.577;11129.175;  223.375;    0.000
482.713;10974.175;  243.375;    0.000
482.849;10876.175;  197.375;    0.000
482.985;11106.175;  240.375;    0.000
483.121;10900.175;  210.375;    0.000
483.258;11003.175;  248.375;    0.000
483.394;10874.175;  224.375;    0.000
483.530;11039.175;  209.375;    0.000
483.665;11084.175;  225.375;    0.000
483.801;10921.175;  216.375;    0.000
483.937;11208.175;  211.375;    0.000
484.073;11256.175;  259.375;    0.000
484.209;10982.175;  191.375;    0.000
484.345;11279.175;  239.375;    0.000
484.481;11349.175;  231.375;    0.000
484.617;11165.175;  216.375;    0.000
484.753;11305.175;  180.375;    0.000
484.889;11328.175;  252.375;    0.000
485.025;11298.175;  244.375;    0.000
485.161;11405.175;  242.375;    0.000
485.296;11515.175;  235.375;    0.000
485.432;11477.175;  247.375;    0.000
485.568;11487.175;  203.375;    0.000
485.704;11412.175;  229.375;    0.000
485.840;11543.175;  230.375;    0.000
485.975;11526.175;  266.375;    0.000
486.111;11479.175;  220.375;    0.000
486.247;11518.175;  264.375;    0.000
486.383;11509.175;  213.375;    0.000
486.518;11338.175;  222.375;    0.000
486.654;11402.175;  244.375;    0.000
486.790;11314.175;  273.375;    0.000
486.926;11498.175;  203.375;    0.000
487.061;11405.175;  227.375;    0.000
487.197;11582.175;  210.375;    0.000
487.333;11366.175;  209.375;    0.000
487.468;11276.175;  197.375;    0.000
487.604;11290.175;  230.375;    0.000
487.740;11367.175;  254.375;    0.000
487.875;11328.175;  286.375;    0.000
488.011;11422.175;  225.375;    0.000
488.146;11193.175;  251.375;    0.000
488.282;11290.175;  242.375;    0.000
488.417;11246.175;  230.375;    0.000
488.553;11455.175;  260.375;    0.000
488.688;11290.175;  207.375;    0.000
488.824;11347.175;  204.375;    0.000
488.960;11384.175;  248.375;    0.000
489.095;11446.175;  204.375;    0.000
489.230;11356.175;  227.375;    0.000
489.366;11474.175;  226.375;    0.000
489.501;11488.175;  199.375;    0.000
489.637;11385.175;  233.375;    0.000
489.772;11254.175;  249.375;    0.000
489.908;11421.175;  200.375;    0.000
490.043;11426.175;  246.375;    0.000
490.178;11417.175;  222.375;    0.000
490.314;11457.175;  219.375;    0.000
490.449;11384.175;  227.375;    0.000
490.585;11381.175;  209.375;    0.000
490.720;11372.175;  238.375;    0.000
490.855;11473.175;  222.375;    0.000
490.991;11469.175;  202.375;    0.000
491.126;11403.175;  272.375;    0.000
491.261;11295.175;  261.375;    0.000
491.396;11389.175;  190.375;    0.000
491.532;11535.175;  202.375;    0.000
491.667;11393.175;  208.375;    0.000
491.802;11308.175;  203.375;    0.000
491.937;11514.175;  253.375;    0.000
492.073;11493.175;  242.375;    0.000
492.208;11578.175;  230.375;    0.000
492.343;11787.175;  183.375;    0.000
492.478;11891.175;  246.375;    0.000
492.613;11824.175;  223.375;    0.000
492.749;11617.175;  230.375;    0.000
492.884;11484.175;  190.375;    0.000
493.019;11678.175;  234.375;    0.000
493.154;11594.175;  218.375;    0.000
493.289;11617.175;  222.375;    0.000
493.424;11691.175;  196.375;    0.000
493.559;11773.175;  202.375;    0.000
493.694;11668.175;  180.375;    0.000
493.829;11724.175;  224.375;    0.000
493.964;11693.175;  218.375;    0.000
494.099;11626.175;  275.375;    0.000
494.234;11615.175;  226.375;    0.000
494.369;11749.175;  225.375;    0.000
494.504;11757.175;  219.375;    0.000
494.639;11699.175;  296.375;    0.000
494.774;11660.175;  228.375;    0.000
494.909;11524.175;  222.375;    0.000
495.044;11445.175;  215.375;    0.000
495.179;11479.175;  200.375;    0.000
495.314;11508.175;  235.375;    0.000
495.449;11755.175;  249.375;    0.000
495.584;11799.175;  228.375;    0.000
495.719;11627.175;  212.375;    0.000
495.854;11614.175;  201.375;    0.000
495.988;11755.175;  248.375;    0.000
496.123;11730.175;  209.375;    0.000
496.258;12024.175;  249.375;    0.000
496.393;12104.175;  223.375;    0.000
496.528;12026.175;  209.375;    0.000
496.663;12144.175;  207.375;    0.000
496.797;12306.175;  229.375;    0.000
496.932;12429.175;  225.375;    0.000
497.067;12415.175;  218.375;    0.000
497.202;12614.175;  163.375;    0.000
497.336;12821.175;  246.375;    0.000
497.471;13226.175;  229.375;    0.000
497.606;13377.175;  251.375;    0.000
497.740;13452.175;  220.375;    0.000
497.875;13660.175;  216.375;    0.000
498.010;14195.175;  226.375;    0.000
498.144;14442.175;  237.375;    0.000
498.279;14869.175;  196.375;    0.000
498.414;14955.175;  219.375;    0.000
498.548;15149.175;  205.375;    0.000
498.683;15622.175;  206.375;    0.000
498.817;15812.175;  225.375;    0.000
498.952;16213.175;  221.375;    0.000
499.087;16816.176;  220.375;    0.000
499.221;17503.176;  233.375;    0.000
499.356;17950.176;  230.375;    0.000
499.490;18701.176;  229.375;    0.000
499.625;19301.176;  231.375;    0.000
499.759;20251.176;  243.375;    0.000
499.894;21010.176;  241.375;    0.000
500.028;21934.176;  264.375;    0.000
500.162;22785.176;  287.375;    0.000
500.297;23037.176;  234.375;    0.000
500.431;23124.176;  230.375;    0.000
500.566;23230.176;  213.375;    0.000
500.700;22800.176;  243.375;    0.000
500.835;22143.176;  272.375;    0.000
500.969;21475.176;  188.375;    0.000
501.103;20571.176;  200.375;    0.000
501.238;19620.176;  257.375;    0.000
501.372;18657.176;  224.375;    0.000
501.506;18210.176;  225.375;    0.000
501.641;17098.176;  271.375;    0.000
501.775;16622.176;  199.375;    0.000
501.909;15957.175;  249.375;    0.000
502.043;15655.175;  211.375;    0.000
502.178;15178.175;  269.375;    0.000
502.312;14838.175;  198.375;    0.000
502.446;14456.175;  256.375;    0.000
502.580;14207.175;  195.375;    0.000
502.715;13844.175;  224.375;    0.000
502.849;13774.175;  245.375;    0.000
502.983;13522.175;  250.375;    0.000
503.117;13179.175;  193.375;    0.000
503.251;13130.175;  242.375;    0.000
503.385;12695.175;  227.375;    0.000
503.520;12598.175;  235.375;    0.000
503.654;12396.175;  220.375;    0.000
503.788;12314.175;  267.375;    0.000
503.922;12172.175;  220.375;    0.000
504.056;12262.175;  238.375;    0.000
504.190;12094.175;  212.375;    0.000
504.324;12071.175;  265.375;    0.000
504.458;12008.175;  228.375;    0.000
504.592;11951.175;  231.375;    0.000
504.726;11758.175;  218.375;    0.000
504.860;11410.175;  253.375;    0.000
504.994;11452.175;  217.375;    0.000
505.128;11197.175;  243.375;    0.000
505.262;10862.175;  194.375;    0.000
505.396;10690.175;  210.375;    0.000
505.530;10552.175;  211.375;    0.000
505.664;10351.175;  219.375;    0.000
505.798;10315.175;  240.375;    0.000
505.932;10096.175;  240.375;    0.000
506.066;10178.175;  252.375;    0.000
506.199;10125.175;  242.375;    0.000
506.333; 9852.175;  244.375;    0.000
506.467; 9708.175;  223.375;    0.000
506.601; 9711.175;  183.375;    0.000
506.735; 9508.175;  249.375;    0.000
506.869; 9583.175;  270.375;    0.000
507.002; 9559.175;  207.375;    0.000
507.136; 9693.175;  242.375;    0.000
507.270; 9550.175;  232.375;    0.000
507.404; 9447.175;  195.375;    0.000
507.537; 9284.175;  218.375;    0.000
507.671; 9316.175;  246.375;    0.000
507.805; 9127.175;  244.375;    0.000
507.939; 9238.175;  251.375;    0.000
508.072; 9038.175;  212.375;    0.000
508.206; 9049.175;  198.375;    0.000
508.340; 8999.175;  234.375;    0.000
508.473; 9044.175;  217.375;    0.000
508.607; 9004.175;  224.375;    0.000
508.740; 9008.175;  207.375;    0.000
508.874; 8969.175;  230.375;    0.000
509.008; 9012.175;  246.375;    0.000
509.141; 8963.175;  239.375;    0.000
509.275; 8829.175;  229.375;    0.000
509.408; 8811.175;  234.375;    0.000
509.542; 8863.175;  212.375;    0.000
509.675; 8913.175;  256.375;    0.000
509.809; 8694.175;  232.375;    0.000
509.942; 8733.175;  237.375;    0.000
510.076; 8776.175;  226.375;    0.000
510.209; 8684.175;  251.375;    0.000
510.343; 8537.175;  229.375;    0.000
510.476; 8588.175;  285.375;    0.000
510.610; 8591.175;  211.375;    0.000
510.743; 8573.175;  258.375;    0.000
510.877; 8519.175;  244.375;    0.000
511.010; 8375.175;  235.375;    0.000
511.143; 8387.175;  251.375;    0.000
511.277; 8484.175;  228.375;    0.000
511.410; 8423.175;  216.375;    0.000
511.543; 8292.175;  231.375;    0.000
511.677; 8450.175;  244.375;    0.000
511.810; 8380.175;  186.375;    0.000
511.943; 8401.175;  211.375;    0.000
512.077; 8554.175;  201.375;    0.000
512.210; 8441.175;  194.375;    0.000
512.343; 8526.175;  233.375;    0.000
512.476; 8521.175;  234.375;    0.000
512.610; 8421.175;  224.375;    0.000
512.743; 8420.175;  255.375;    0.000
512.876; 8511.175;  264.375;    0.000
513.009; 8456.175;  283.375;    0.000
513.142; 8355.175;  246.375;    0.000
513.276; 8485.175;  217.375;    0.000
513.409; 8529.175;  222.375;    0.000
513.542; 8510.175;  237.375;    0.000
513.675; 8413.175;  238.375;    0.000
513.808; 8474.175;  220.375;    0.000
513.941; 8277.175;  233.375;    0.000
514.074; 8635.175;  248.375;    0.000
514.207; 8402.175;  233.375;    0.000
514.340; 8521.175;  190.375;    0.000
514.474; 8554.175;  221.375;    0.000
514.607; 8539.175;  213.375;    0.000
514.740; 8546.175;  251.375;    0.000
514.873; 8616.175;  257.375;    0.000
515.006; 8829.175;  268.375;    0.000
515.139; 8744.175;  257.375;    0.000
515.272; 8966.175;  227.375;    0.000
515.404; 8986.175;  238.375;    0.000
515.537; 9121.175;  275.375;    0.000
515.670; 8911.175;  239.375;    0.000
515.803; 9299.175;  223.375;    0.000
515.936; 9148.175;  202.375;    0.000
516.069; 9314.175;  188.375;    0.000
516.202; 9491.175;  240.375;    0.000
516.335; 9800.175;  252.375;    0.000
516.468;10460.175;  254.375;    0.000
516.600;12833.175;  254.375;    0.000
516.733;16766.176;  255.375;    0.000
516.866;16570.176;  265.375;    0.000
516.999;14527.175;  251.375;    0.000
517.132;18701.176;  256.375;    0.000
517.264;27105.176;  202.375;    0.000
517.397;26560.176;  248.375;    0.000
517.530;19228.176;  221.375;    0.000
517.663;15654.175;  244.375;    0.000
517.795;14059.175;  245.375;    0.000
517.928;13543.175;  236.375;    0.000
518.061;13895.175;  219.375;    0.000
518.193;18895.176;  251.375;    0.000
518.326;31290.176;  271.375;    0.000
518.459;34056.176;  207.375;    0.000
518.591;24600.176;  217.375;    0.000
518.724;17480.176;  200.375;    0.000
518.857;14912.175;  204.375;    0.000
518.989;13264.175;  242.375;    0.000
519.122;12105.175;  254.375;    0.000
519.254;11313.175;  239.375;    0.000
519.387;10867.175;  235.375;    0.000
519.519;10539.175;  227.375;    0.000
519.652;10215.175;  178.375;    0.000
519.784; 9763.175;  226.375;    0.000
519.917; 9751.175;  256.375;    0.000
520.049; 9454.175;  234.375;    0.000
520.182; 9314.175;  258.375;    0.000
520.314; 9018.175;  298.375;    0.000
520.447; 8956.175;  204.375;    0.000
520.579; 8862.175;  235.375;    0.000
520.712; 8830.175;  208.375;    0.000
520.844; 8702.175;  272.375;    0.000
520.976; 8504.175;  234.375;    0.000
521.109; 8349.175;  235.375;    0.000
521.241; 8364.175;  250.375;    0.000
521.373; 8230.175;  233.375;    0.000
521.506; 8230.175;  231.375;    0.000
521.638; 8123.175;  258.375;    0.000
521.770; 8097.175;  226.375;    0.000
521.903; 8089.175;  258.375;    0.000
522.035; 7836.175;  263.375;    0.000
522.167; 7968.175;  214.375;    0.000
522.300; 7770.175;  212.375;    0.000
522.432; 7915.175;  220.375;    0.000
522.564; 7803.175;  228.375;    0.000
522.696; 7805.175;  272.375;    0.000
522.828; 7677.175;  222.375;    0.000
522.961; 7568.175;  205.375;    0.000
523.093; 7656.175;  253.375;    0.000
523.225; 7612.175;  239.375;    0.000
523.357; 7551.175;  263.375;    0.000
523.489; 7513.175;  264.375;    0.000
523.621; 7417.175;  259.375;    0.000
523.753; 7447.175;  233.375;    0.000
523.885; 7235.175;  232.375;    0.000
524.018; 7326.175;  214.375;    0.000
524.150; 7283.175;  235.375;    0.000
524.282; 7247.175;  242.375;    0.000
524.414; 7270.175;  261.375;    0.000
524.546; 7198.175;  233.375;    0.000
524.678; 7222.175;  242.375;    0.000
524.810; 7130.175;  216.375;    0.000
524.942; 7082.175;  220.375;    0.000
525.074; 7116.175;  249.375;    0.000
525.206; 7074.175;  227.375;    0.000
525.338; 7006.175;  250.375;    0.000
525.469; 7182.175;  231.375;    0.000
525.601; 7014.175;  245.375;    0.000
525.733; 6995.175;  187.375;    0.000
525.865; 6934.175;  280.375;    0.000
525.997; 6932.175;  216.375;    0.000
526.129; 6872.175;  228.375;    0.000
526.261; 6842.175;  187.375;    0.000
526.393; 6772.175;  228.375;    0.000
526.524; 6812.175;  201.375;    0.000
526.656; 6901.175;  199.375;    0.000
526.788; 6783.175;  233.375;    0.000
526.920; 6882.175;  256.375;    0.000
527.052; 6729.175;  219.375;    0.000
527.183; 6701.175;  227.375;    0.000
527.315; 6793.175;  266.375;    0.000
527.447; 6784.175;  239.375;    0.000
527.578; 6764.175;  213.375;    0.000
527.710; 6745.175;  216.375;    0.000
527.842; 6753.175;  240.375;    0.000
527.973; 6751.175;  286.375;    0.000
528.105; 6681.175;  222.375;    0.000
528.237; 6757.175;  223.375;    0.000
528.368; 6731.175;  211.375;    0.000
528.500; 6693.175;  215.375;    0.000
528.632; 6820.175;  216.375;    0.000
528.763; 6705.175;  234.375;    0.000
528.895; 6547.175;  196.375;    0.000
529.026; 6658.175;  202.375;    0.000
529.158; 6653.175;  226.375;    0.000
529.289; 6729.175;  229.375;    0.000
529.421; 6721.175;  264.375;    0.000
529.552; 6602.175;  265.375;    0.000
529.684; 6838.175;  260.375;    0.000
529.815; 6719.175;  284.375;    0.000
529.947; 6733.175;  237.375;    0.000
530.078; 6715.175;  223.375;    0.000
530.210; 6598.175;  223.375;    0.000
530.341; 6580.175;  209.375;    0.000
530.472; 6696.175;  203.375;    0.000
530.604; 6597.175;  223.375;    0.000
530.735; 6724.175;  218.375;    0.000
530.867; 6694.175;  222.375;    0.000
530.998; 6681.175;  239.375;    0.000
531.129; 6637.175;  250.375;    0.000
531.260; 6853.175;  224.375;    0.000
531.392; 6737.175;  216.375;    0.000
531.523; 6900.175;  234.375;    0.000
531.654; 6851.175;  256.375;    0.000
531.786; 6931.175;  226.375;    0.000
531.917; 6943.175;  239.375;    0.000
532.048; 6953.175;  205.375;    0.000
532.179; 6927.175;  244.375;    0.000
532.311; 6842.175;  235.375;    0.000
532.442; 6882.175;  258.375;    0.000
532.573; 6642.175;  220.375;    0.000
532.704; 6731.175;  213.375;    0.000
532.835; 6730.175;  249.375;    0.000
532.966; 6716.175;  226.375;    0.000
533.097; 6712.175;  246.375;    0.000
533.229; 6824.175;  237.375;    0.000
533.360; 6850.175;  225.375;    0.000
533.491; 6782.175;  241.375;    0.000
533.622; 6693.175;  242.375;    0.000
533.753; 6667.175;  264.375;    0.000
533.884; 6677.175;  245.375;    0.000
534.015; 6776.175;  269.375;    0.000
534.146; 6746.175;  267.375;    0.000
534.277; 6901.175;  282.375;    0.000
534.408; 6764.175;  229.375;    0.000
534.539; 6755.175;  269.375;    0.000
534.670; 6739.175;  231.375;    0.000
534.801; 6694.175;  260.375;    0.000
534.932; 6683.175;  232.375;    0.000
535.063; 6725.175;  227.375;    0.000
535.194; 6596.175;  281.375;    0.000
535.324; 6526.175;  206.375;    0.000
535.455; 6620.175;  257.375;    0.000
535.586; 6648.175;  275.375;    0.000
535.717; 6485.175;  206.375;    0.000
535.848; 6599.175;  271.375;    0.000
535.979; 6494.175;  250.375;    0.000
536.109; 6575.175;  253.375;    0.000
536.240; 6491.175;  234.375;    0.000
536.371; 6539.175;  230.375;    0.000
536.502; 6456.175;  270.375;    0.000
536.632; 6536.175;  228.375;    0.000
536.763; 6566.175;  249.375;    0.000
536.894; 6464.175;  262.375;    0.000
537.025; 6504.175;  258.375;    0.000
537.155; 6397.175;  278.375;    0.000
537.286; 6465.175;  209.375;    0.000
537.417; 6424.175;  255.375;    0.000
537.547; 6423.175;  208.375;    0.000
537.678; 6523.175;  224.375;    0.000
537.808; 6269.175;  224.375;    0.000
537.939; 6431.175;  257.375;    0.000
538.070; 6291.175;  240.375;    0.000
538.200; 6328.175;  259.375;    0.000
538.331; 6344.175;  235.375;    0.000
538.461; 6373.175;  251.375;    0.000
538.592; 6414.175;  245.375;    0.000
538.722; 6422.175;  239.375;    0.000
538.853; 6399.175;  216.375;    0.000
538.983; 6403.175;  226.375;    0.000
539.114; 6365.175;  240.375;    0.000
539.244; 6352.175;  237.375;    0.000
539.375; 6286.175;  198.375;    0.000
539.505; 6390.175;  263.375;    0.000
539.636; 6284.175;  226.375;    0.000
539.766; 6297.175;  229.375;    0.000
539.896; 6317.175;  219.375;    0.000
540.027; 6350.175;  246.375;    0.000
540.157; 6392.175;  218.375;    0.000
540.287; 6341.175;  216.375;    0.000
540.418; 6339.175;  267.375;    0.000
540.548; 6399.175;  260.375;    0.000
540.678; 6392.175;  242.375;    0.000
540.809; 6401.175;  260.375;    0.000
540.939; 6409.175;  257.375;    0.000
541.069; 6380.175;  226.375;    0.000
541.200; 6418.175;  227.375;    0.000
541.330; 6375.175;  218.375;    0.000
541.460; 6431.175;  223.375;    0.000
541.590; 6535.175;  237.375;    0.000
541.720; 6323.175;  222.375;    0.000
541.851; 6364.175;  250.375;    0.000
541.981; 6478.175;  222.375;    0.000
542.111; 6454.175;  212.375;    0.000
542.241; 6564.175;  205.375;    0.000
542.371; 6522.175;  202.375;    0.000
542.501; 6613.175;  218.375;    0.000
542.631; 6634.175;  222.375;    0.000
542.761; 6818.175;  249.375;    0.000
542.891; 6771.175;  173.375;    0.000
543.021; 6908.175;  218.375;    0.000
543.151; 6925.175;  222.375;    0.000
543.281; 6824.175;  188.375;    0.000
543.411; 6722.175;  239.375;    0.000
543.542; 6644.175;  215.375;    0.000
543.671; 6751.175;  250.375;    0.000
543.801; 6807.175;  212.375;    0.000
543.931; 6745.175;  233.375;    0.000
544.061; 6774.175;  194.375;    0.000
544.191; 6735.175;  218.375;    0.000
544.321; 6754.175;  220.375;    0.000
544.451; 6804.175;  183.375;    0.000
544.581; 6825.175;  221.375;    0.000
544.711; 6810.175;  224.375;    0.000
544.841; 7020.175;  214.375;    0.000
544.970; 7032.175;  227.375;    0.000
545.100; 7121.175;  186.375;    0.000
545.230; 7329.175;  205.375;    0.000
545.360; 7282.175;  211.375;    0.000
545.490; 7051.175;  202.375;    0.000
545.619; 6897.175;  182.375;    0.000
545.749; 6911.175;  174.375;    0.000
545.879; 6907.175;  169.375;    0.000
546.009; 6874.175;  182.375;    0.000
546.138; 6798.175;  200.375;    0.000
546.268; 6831.175;  204.375;    0.000
546.398; 6664.175;  200.375;    0.000
546.527; 6858.175;  179.375;    0.000
546.657; 6732.175;  162.375;    0.000
546.786; 6760.175;  179.375;    0.000
546.916; 6768.175;  221.375;    0.000
547.046; 6893.175;  179.375;    0.000
547.175; 6806.175;  168.375;    0.000
547.305; 6947.175;  200.375;    0.000
547.434; 6783.175;  166.375;    0.000
547.564; 6753.175;  177.375;    0.000
547.693; 6709.175;  152.375;    0.000
547.823; 6804.175;  171.375;    0.000
547.953; 6838.175;  195.375;    0.000
548.082; 6884.175;  214.375;    0.000
548.211; 6691.175;  177.375;    0.000
548.341; 6735.175;  189.375;    0.000
548.470; 6713.175;  194.375;    0.000
548.600; 6788.175;  172.375;    0.000
548.729; 6785.175;  158.375;    0.000
548.859; 6742.175;  193.375;    0.000
548.988; 6852.175;  131.375;    0.000
549.117; 6789.175;  204.375;    0.000
549.247; 6931.175;  191.375;    0.000
549.376; 6873.175;  202.375;    0.000
549.505; 6814.175;  187.375;    0.000
549.635; 6945.175;  198.375;    0.000
549.764; 6995.175;  155.375;    0.000
549.893; 6960.175;  176.375;    0.000
550.023; 6915.175;  202.375;    0.000
550.152; 6870.175;  168.375;    0.000
550.281; 6867.175;  180.375;    0.000
550.410; 6946.175;  180.375;    0.000
550.539; 7031.175;  181.375;    0.000
550.669; 6958.175;  168.375;    0.000
550.798; 6966.175;  223.375;    0.000
550.927; 6916.175;  179.375;    0.000
551.056; 6910.175;  159.375;    0.000
551.185; 7036.175;  199.375;    0.000
551.314; 6968.175;  185.375;    0.000
551.443; 6970.175;  172.375;    0.000
551.573; 7083.175;  158.375;    0.000
551.702; 7014.175;  210.375;    0.000
551.831; 7037.175;  238.375;    0.000
551.960; 7081.175;  191.375;    0.000
552.089; 7080.175;  195.375;    0.000
552.218; 7296.175;  196.375;    0.000
552.347; 7282.175;  194.375;    0.000
552.476; 7303.175;  192.375;    0.000
552.605; 7367.175;  172.375;    0.000
552.734; 7695.175;  214.375;    0.000
552.863; 8131.175;  177.375;    0.000
552.992; 8080.175;  190.375;    0.000
553.121; 8050.175;  185.375;    0.000
553.249; 7904.175;  175.375;    0.000
553.378; 7820.175;  192.375;    0.000
553.507; 7736.175;  193.375;    0.000
553.636; 7577.175;  182.375;    0.000
553.765; 7450.175;  187.375;    0.000
553.894; 7493.175;  214.375;    0.000
554.023; 7407.175;  217.375;    0.000
554.151; 7249.175;  223.375;    0.000
554.280; 7185.175;  170.375;    0.000
554.409; 7314.175;  172.375;    0.000
554.538; 7159.175;  182.375;    0.000
554.666; 7130.175;  195.375;    0.000
554.795; 7131.175;  176.375;    0.000
554.924; 6991.175;  164.375;    0.000
555.052; 7128.175;  171.375;    0.000
555.181; 7122.175;  208.375;    0.000
555.310; 7054.175;  214.375;    0.000
555.439; 7038.175;  193.375;    0.000
555.567; 6928.175;  189.375;    0.000
555.696; 6985.175;  196.375;    0.000
555.824; 6790.175;  183.375;    0.000
555.953; 6840.175;  234.375;    0.000
556.082; 6734.175;  183.375;    0.000
556.210; 6761.175;  199.375;    0.000
556.339; 6759.175;  201.375;    0.000
556.467; 6828.175;  208.375;    0.000
556.596; 6703.175;  194.375;    0.000
556.724; 6764.175;  170.375;    0.000
556.853; 6739.175;  166.375;    0.000
556.981; 6662.175;  185.375;    0.000
557.110; 6713.175;  213.375;    0.000
557.238; 6508.175;  188.375;    0.000
557.367; 6591.175;  176.375;    0.000
557.495; 6622.175;  180.375;    0.000
557.623; 6632.175;  193.375;    0.000
557.752; 6549.175;  207.375;    0.000
557.880; 6655.175;  189.375;    0.000
558.008; 6700.175;  169.375;    0.000
558.137; 6664.175;  203.375;    0.000
558.265; 6675.175;  167.375;    0.000
558.393; 6659.175;  204.375;    0.000
558.522; 6662.175;  203.375;    0.000
558.650; 6657.175;  215.375;    0.000
558.778; 6745.175;  190.375;    0.000
558.906; 6638.175;  186.375;    0.000
559.035; 6630.175;  193.375;    0.000
559.163; 6614.175;  198.375;    0.000
559.291; 6551.175;  222.375;    0.000
559.419; 6623.175;  192.375;    0.000
559.548; 6674.175;  186.375;    0.000
559.676; 6814.175;  199.375;    0.000
559.804; 6880.175;  186.375;    0.000
559.932; 6804.175;  202.375;    0.000
560.060; 6810.175;  183.375;    0.000
560.188; 6860.175;  212.375;    0.000
560.316; 6714.175;  192.375;    0.000
560.444; 6785.175;  180.375;    0.000
560.572; 6803.175;  206.375;    0.000
560.700; 6876.175;  184.375;    0.000
560.828; 7057.175;  177.375;    0.000
560.956; 6876.175;  221.375;    0.000
561.085; 6933.175;  227.375;    0.000
561.212; 6978.175;  208.375;    0.000
561.340; 7003.175;  189.375;    0.000
561.468; 6967.175;  189.375;    0.000
561.596; 6947.175;  183.375;    0.000
561.724; 7005.175;  188.375;    0.000
561.852; 7034.175;  183.375;    0.000
561.980; 7014.175;  209.375;    0.000
562.108; 7176.175;  165.375;    0.000
562.236; 7156.175;  188.375;    0.000
562.364; 7057.175;  177.375;    0.000
562.492; 7000.175;  192.375;    0.000
562.619; 7098.175;  187.375;    0.000
562.747; 7091.175;  217.375;    0.000
562.875; 7281.175;  221.375;    0.000
563.003; 7189.175;  199.375;    0.000
563.130; 7447.175;  191.375;    0.000
563.258; 7470.175;  186.375;    0.000
563.386; 7546.175;  191.375;    0.000
563.514; 7639.175;  217.375;    0.000
563.641; 7553.175;  220.375;    0.000
563.769; 7758.175;  186.375;    0.000
563.897; 7840.175;  158.375;    0.000
564.024; 7966.175;  192.375;    0.000
564.152; 8110.175;  217.375;    0.000
564.280; 8167.175;  203.375;    0.000
564.407; 7972.175;  190.375;    0.000
564.535; 8191.175;  188.375;    0.000
564.662; 8224.175;  199.375;    0.000
564.790; 8324.175;  227.375;    0.000
564.917; 8412.175;  160.375;    0.000
565.045; 8275.175;  222.375;    0.000
565.173; 8274.175;  169.375;    0.000
565.300; 8517.175;  208.375;    0.000
565.428; 8455.175;  174.375;    0.000
565.555; 8783.175;  201.375;    0.000
565.682; 8872.175;  180.375;    0.000
565.810; 9126.175;  165.375;    0.000
565.937; 9489.175;  167.375;    0.000
566.065; 9854.175;  190.375;    0.000
566.192; 9898.175;  169.375;    0.000
566.320;10245.175;  167.375;    0.000
566.447;10538.175;  151.375;    0.000
566.574;10573.175;  176.375;    0.000
566.702;11022.175;  198.375;    0.000
566.829;11070.175;  209.375;    0.000
566.956;11081.175;  186.375;    0.000
567.083;11086.175;  188.375;    0.000
567.211;11331.175;  159.375;    0.000
567.338;11240.175;  204.375;    0.000
567.465;11450.175;  141.375;    0.000
567.593;11777.175;  168.375;    0.000
567.720;12038.175;  177.375;    0.000
567.847;11874.175;  160.375;    0.000
567.974;11831.175;  139.375;    0.000
568.101;12128.175;  153.375;    0.000
568.228;13073.175;  173.375;    0.000
568.356;13128.175;  149.375;    0.000
568.483;12616.175;  185.375;    0.000
568.610;12184.175;  170.375;    0.000
568.737;13407.175;  223.375;    0.000
568.864;14931.175;  167.375;    0.000
568.991;13857.175;  177.375;    0.000
569.118;12409.175;  169.375;    0.000
569.245;11061.175;  128.375;    0.000
569.372;10494.175;  160.375;    0.000
569.499; 9866.175;  156.375;    0.000
569.626; 9749.175;  191.375;    0.000
569.753; 9481.175;  163.375;    0.000
569.880; 9265.175;  167.375;    0.000
570.007; 9056.175;  143.375;    0.000
570.134; 9020.175;  191.375;    0.000
570.261; 8849.175;  164.375;    0.000
570.388; 8863.175;  162.375;    0.000
570.515; 8623.175;  220.375;    0.000
570.642; 8573.175;  184.375;    0.000
570.768; 8639.175;  174.375;    0.000
570.895; 8447.175;  177.375;    0.000
571.022; 8390.175;  152.375;    0.000
571.149; 8362.175;  183.375;    0.000
571.276; 8097.175;  153.375;    0.000
571.402; 8020.175;  190.375;    0.000
571.529; 7994.175;  187.375;    0.000
571.656; 7970.175;  167.375;    0.000
571.783; 7752.175;  186.375;    0.000
571.909; 7735.175;  183.375;    0.000
572.036; 7639.175;  162.375;    0.000
572.163; 7558.175;  196.375;    0.000
572.289; 7554.175;  180.375;    0.000
572.416; 7613.175;  190.375;    0.000
572.543; 7558.175;  174.375;    0.000
572.669; 7362.175;  186.375;    0.000
572.796; 7408.175;  205.375;    0.000
572.922; 7348.175;  185.375;    0.000
573.049; 7177.175;  178.375;    0.000
573.176; 7234.175;  196.375;    0.000
573.302; 7318.175;  202.375;    0.000
573.429; 7321.175;  189.375;    0.000
573.555; 7205.175;  145.375;    0.000
573.682; 7037.175;  228.375;    0.000
573.808; 7114.175;  197.375;    0.000
573.935; 7204.175;  216.375;    0.000
574.061; 7195.175;  173.375;    0.000
574.188; 7171.175;  151.375;    0.000
574.314; 7229.175;  181.375;    0.000
574.440; 7050.175;  167.375;    0.000
574.567; 7185.175;  185.375;    0.000
574.693; 7204.175;  173.375;    0.000
574.820; 7000.175;  164.375;    0.000
574.946; 6927.175;  199.375;    0.000
575.072; 7000.175;  162.375;    0.000
575.198; 7039.175;  225.375;    0.000
575.325; 7093.175;  171.375;    0.000
575.451; 6977.175;  183.375;    0.000
575.577; 6984.175;  190.375;    0.000
575.704; 6927.175;  210.375;    0.000
575.830; 6974.175;  185.375;    0.000
575.956; 6943.175;  168.375;    0.000
576.082; 7031.175;  158.375;    0.000
576.208; 6901.175;  158.375;    0.000
576.335; 6946.175;  196.375;    0.000
576.461; 6826.175;  187.375;    0.000
576.587; 6966.175;  157.375;    0.000
576.713; 6952.175;  156.375;    0.000
576.839; 6843.175;  196.375;    0.000
576.965; 6876.175;  187.375;    0.000
577.091; 6936.175;  204.375;    0.000
577.217; 6664.175;  207.375;    0.000
577.343; 6851.175;  175.375;    0.000
577.469; 6920.175;  197.375;    0.000
577.596; 6851.175;  182.375;    0.000
577.722; 6739.175;  159.375;    0.000
577.848; 6717.175;  162.375;    0.000
577.974; 6870.175;  180.375;    0.000
578.099; 6783.175;  161.375;    0.000
578.225; 6780.175;  180.375;    0.000
578.351; 6914.175;  190.375;    0.000
578.477; 6871.175;  212.375;    0.000
578.603; 6802.175;  179.375;    0.000
578.729; 6854.175;  195.375;    0.000
578.855; 6861.175;  153.375;    0.000
578.981; 6854.175;  162.375;    0.000
579.107; 6948.175;  149.375;    0.000
579.232; 6972.175;  164.375;    0.000
579.358; 6834.175;  162.375;    0.000
579.484; 6903.175;  181.375;    0.000
579.610; 6916.175;  190.375;    0.000
579.735; 6855.175;  191.375;    0.000
579.861; 6829.175;  189.375;    0.000
579.987; 6950.175;  202.375;    0.000
580.113; 7046.175;  197.375;    0.000
580.238; 6977.175;  228.375;    0.000
580.364; 7062.175;  212.375;    0.000
580.490; 6981.175;  225.375;    0.000
580.615; 6984.175;  218.375;    0.000
580.741; 6784.175;  167.375;    0.000
580.867; 7013.175;  215.375;    0.000
580.992; 6944.175;  191.375;    0.000
581.118; 7061.175;  171.375;    0.000
581.243; 7089.175;  204.375;    0.000
581.369; 7043.175;  186.375;    0.000
581.494; 7097.175;  184.375;    0.000
581.620; 7051.175;  212.375;    0.000
581.745; 7037.175;  192.375;    0.000
581.871; 7147.175;  195.375;    0.000
581.996; 7148.175;  160.375;    0.000
582.122; 7201.175;  217.375;    0.000
582.247; 7198.175;  213.375;    0.000
582.373; 7253.175;  187.375;    0.000
582.498; 7308.175;  208.375;    0.000
582.624; 7395.175;  189.375;    0.000
582.749; 7423.175;  185.375;    0.000
582.874; 7492.175;  195.375;    0.000
583.000; 7501.175;  208.375;    0.000
583.125; 7397.175;  147.375;    0.000
583.250; 7602.175;  201.375;    0.000
583.376; 7696.175;  191.375;    0.000
583.501; 7599.175;  206.375;    0.000
583.626; 7761.175;  167.375;    0.000
583.751; 7857.175;  180.375;    0.000
583.877; 7912.175;  185.375;    0.000
584.002; 7973.175;  186.375;    0.000
584.127; 7926.175;  176.375;    0.000
584.252; 7961.175;  214.375;    0.000
584.377; 8083.175;  225.375;    0.000
584.503; 8227.175;  195.375;    0.000
584.628; 8231.175;  206.375;    0.000
584.753; 8462.175;  181.375;    0.000
584.878; 8457.175;  136.375;    0.000
585.003; 8600.175;  215.375;    0.000
585.128; 8608.175;  206.375;    0.000
585.253; 8956.175;  200.375;    0.000
585.378; 8916.175;  169.375;    0.000
585.503; 8931.175;  191.375;    0.000
585.628; 9189.175;  182.375;    0.000
585.753; 9335.175;  164.375;    0.000
585.878; 9627.175;  123.375;    0.000
586.003; 9763.175;  187.375;    0.000
586.128; 9912.175;  198.375;    0.000
586.253;10335.175;  172.375;    0.000
586.378;10538.175;  191.375;    0.000
586.503;10860.175;  190.375;    0.000
586.628;11250.175;  178.375;    0.000
586.753;11493.175;  184.375;    0.000
586.878;12066.175;  169.375;    0.000
587.003;12468.175;  186.375;    0.000
587.127;12879.175;  170.375;    0.000
587.252;13628.175;  170.375;    0.000
587.377;14435.175;  181.375;    0.000
587.502;15168.175;  209.375;    0.000
587.627;16303.175;  210.375;    0.000
587.751;17470.176;  212.375;    0.000
587.876;18899.176;  198.375;    0.000
588.001;20924.176;  161.375;    0.000
588.125;23073.176;  191.375;    0.000
588.250;26474.176;  132.375;    0.000
588.375;30664.176;  183.375;    0.000
588.499;36514.176;  176.375;    0.000
588.624;44193.176;  173.375;    0.000
588.749;56171.176;  204.375;    0.000
588.873;65265.176;  179.375;    0.000
588.998;65265.176;  182.375;    0.000
589.122;65265.176;  165.375;    0.000
589.247;65265.176;  185.375;    0.000
589.372;65265.176;  199.375;    0.000
589.496;65265.176;  182.375;    0.000
589.621;65265.176;  158.375;    0.000
589.745;65265.176;  213.375;    0.000
589.870;58911.176;  175.375;    0.000
589.994;45879.176;  194.375;    0.000
590.118;38030.176;  218.375;    0.000
590.243;32018.176;  170.375;    0.000
590.367;27846.176;  189.375;    0.000
590.492;24812.176;  196.375;    0.000
590.616;22426.176;  182.375;    0.000
590.740;20222.176;  210.375;    0.000
590.865;19042.176;  242.375;    0.000
590.989;17880.176;  191.375;    0.000
591.114;16805.176;  167.375;    0.000
591.238;15882.175;  194.375;    0.000
591.362;15298.175;  236.375;    0.000
591.486;14746.175;  194.375;    0.000
591.611;13925.175;  154.375;    0.000
591.735;13481.175;  186.375;    0.000
591.859;13146.175;  148.375;    0.000
591.983;13018.175;  211.375;    0.000
592.107;12576.175;  204.375;    0.000
592.232;12379.175;  194.375;    0.000
592.356;11915.175;  238.375;    0.000
592.480;11758.175;  179.375;    0.000
592.604;11648.175;  192.375;    0.000
592.728;11481.175;  201.375;    0.000
592.852;11236.175;  158.375;    0.000
592.976;10996.175;  152.375;    0.000
593.100;11004.175;  194.375;    0.000
593.224;10811.175;  235.375;    0.000
593.349;10777.175;  233.375;    0.000
593.473;10581.175;  194.375;    0.000
593.597;10471.175;  215.375;    0.000
593.721;10323.175;  212.375;    0.000
593.844;10166.175;  220.375;    0.000
593.968;10113.175;  221.375;    0.000
594.092; 9963.175;  150.375;    0.000
594.216; 9850.175;  212.375;    0.000
594.340; 9678.175;  209.375;    0.000
594.464; 9574.175;  207.375;    0.000
594.588; 9361.175;  195.375;    0.000
594.712; 9222.175;  176.375;    0.000
594.836; 9100.175;  219.375;    0.000
594.959; 8968.175;  215.375;    0.000
595.083; 8900.175;  200.375;    0.000
595.207; 8627.175;  206.375;    0.000
595.331; 8562.175;  207.375;    0.000
595.455; 8347.175;  206.375;    0.000
595.578; 8227.175;  204.375;    0.000
595.702; 8305.175;  225.375;    0.000
595.826; 8148.175;  186.375;    0.000
595.949; 8098.175;  196.375;    0.000
596.073; 8028.175;  188.375;    0.000
596.197; 7808.175;  217.375;    0.000
596.320; 7801.175;  225.375;    0.000
596.444; 7767.175;  220.375;    0.000
596.568; 7522.175;  155.375;    0.000
596.691; 7499.175;  195.375;    0.000
596.815; 7389.175;  163.375;    0.000
596.938; 7437.175;  181.375;    0.000
597.062; 7422.175;  201.375;    0.000
597.186; 7324.175;  200.375;    0.000
597.309; 7198.175;  214.375;    0.000
597.433; 7281.175;  176.375;    0.000
597.556; 7119.175;  193.375;    0.000
597.680; 7108.175;  241.375;    0.000
597.803; 7115.175;  185.375;    0.000
597.926; 7046.175;  200.375;    0.000
598.050; 7007.175;  193.375;    0.000
598.173; 7050.175;  219.375;    0.000
598.297; 6965.175;  223.375;    0.000
598.420; 6826.175;  187.375;    0.000
598.543; 6878.175;  205.375;    0.000
598.667; 6780.175;  177.375;    0.000
598.790; 6720.175;  208.375;    0.000
598.913; 6781.175;  170.375;    0.000
599.037; 6766.175;  212.375;    0.000
599.160; 6602.175;  165.375;    0.000
599.283; 6675.175;  211.375;    0.000
599.406; 6543.175;  207.375;    0.000
599.530; 6615.175;  182.375;    0.000
599.653; 6494.175;  215.375;    0.000
599.776; 6584.175;  167.375;    0.000
599.899; 6512.175;  190.375;    0.000
600.022; 6478.175;  182.375;    0.000
600.145; 6430.175;  180.375;    0.000
600.269; 6542.175;  208.375;    0.000
600.392; 6595.175;  214.375;    0.000
600.515; 6435.175;  196.375;    0.000
600.638; 6356.175;  204.375;    0.000
600.761; 6314.175;  209.375;    0.000
600.884; 6248.175;  207.375;    0.000
601.007; 6314.175;  234.375;    0.000
601.130; 6372.175;  183.375;    0.000
601.253; 6325.175;  211.375;    0.000
601.376; 6376.175;  199.375;    0.000
601.499; 6295.175;  190.375;    0.000
601.622; 6222.175;  210.375;    0.000
601.745; 6211.175;  180.375;    0.000
601.868; 6303.175;  204.375;    0.000
601.991; 6131.175;  188.375;    0.000
602.113; 6264.175;  210.375;    0.000
602.236; 6132.175;  194.375;    0.000
602.359; 6232.175;  213.375;    0.000
602.482; 6154.175;  169.375;    0.000
602.605; 6154.175;  189.375;    0.000
602.728; 6233.175;  236.375;    0.000
602.850; 6239.175;  230.375;    0.000
602.973; 6123.175;  187.375;    0.000
603.096; 6244.175;  201.375;    0.000
603.219; 6080.175;  209.375;    0.000
603.341; 6135.175;  209.375;    0.000
603.464; 6112.175;  194.375;    0.000
603.587; 6054.175;  166.375;    0.000
603.709; 6187.175;  175.375;    0.000
603.832; 6111.175;  239.375;    0.000
603.955; 5988.175;  205.375;    0.000
604.077; 6003.175;  196.375;    0.000
604.200; 6054.175;  188.375;    0.000
604.323; 5898.175;  224.375;    0.000
604.445; 5938.175;  182.375;    0.000
604.568; 5969.175;  199.375;    0.000
604.690; 5908.175;  175.375;    0.000
604.813; 5918.175;  211.375;    0.000
604.935; 5930.175;  171.375;    0.000
605.058; 6002.175;  196.375;    0.000
605.180; 6007.175;  194.375;    0.000
605.303; 6027.175;  198.375;    0.000
605.425; 6112.175;  212.375;    0.000
605.547; 6008.175;  238.375;    0.000
605.670; 5952.175;  207.375;    0.000
605.792; 5884.175;  204.375;    0.000
605.915; 5998.175;  198.375;    0.000
606.037; 5961.175;  215.375;    0.000
606.159; 5977.175;  170.375;    0.000
606.282; 5895.175;  194.375;    0.000
606.404; 5961.175;  207.375;    0.000
606.526; 5902.175;  208.375;    0.000
606.648; 5851.175;  174.375;    0.000
606.771; 5785.175;  170.375;    0.000
606.893; 5828.175;  182.375;    0.000
607.015; 5807.175;  180.375;    0.000
607.137; 5892.175;  187.375;    0.000
607.260; 5938.175;  202.375;    0.000
607.382; 5847.175;  226.375;    0.000
607.504; 5849.175;  208.375;    0.000
607.626; 5878.175;  229.375;    0.000
607.748; 5863.175;  170.375;    0.000
607.870; 5868.175;  208.375;    0.000
607.992; 5744.175;  184.375;    0.000
608.114; 5687.175;  213.375;    0.000
608.237; 5822.175;  237.375;    0.000
608.359; 5830.175;  176.375;    0.000
608.481; 5801.175;  173.375;    0.000
608.603; 5667.175;  189.375;    0.000
608.725; 5812.175;  185.375;    0.000
608.847; 5740.175;  239.375;    0.000
608.969; 5776.175;  237.375;    0.000
609.090; 5681.175;  189.375;    0.000
609.212; 5670.175;  147.375;    0.000
609.334; 5809.175;  177.375;    0.000
609.456; 5753.175;  196.375;    0.000
609.578; 5651.175;  199.375;    0.000
609.700; 5689.175;  167.375;    0.000
609.822; 5736.175;  140.375;    0.000
609.944; 5767.175;  225.375;    0.000
610.065; 5785.175;  183.375;    0.000
610.187; 5764.175;  170.375;    0.000
610.309; 5669.175;  210.375;    0.000
610.431; 5701.175;  185.375;    0.000
610.552; 5712.175;  197.375;    0.000
610.674; 5731.175;  188.375;    0.000
610.796; 5625.175;  162.375;    0.000
610.918; 5603.175;  200.375;    0.000
611.039; 5711.175;  209.375;    0.000
611.161; 5643.175;  201.375;    0.000
611.282; 5712.175;  197.375;    0.000
611.404; 5667.175;  220.375;    0.000
611.526; 5684.175;  159.375;    0.000
611.647; 5614.175;  205.375;    0.000
611.769; 5724.175;  161.375;    0.000
611.890; 5683.175;  173.375;    0.000
612.012; 5576.175;  225.375;    0.000
612.133; 5653.175;  188.375;    0.000
612.255; 5664.175;  217.375;    0.000
612.377; 5633.175;  219.375;    0.000
612.498; 5732.175;  177.375;    0.000
612.619; 5677.175;  211.375;    0.000
612.741; 5613.175;  185.375;    0.000
612.862; 5525.175;  191.375;    0.000
612.984; 5671.175;  190.375;    0.000
613.105; 5589.175;  211.375;    0.000
613.226; 5653.175;  174.375;    0.000
613.348; 5735.175;  235.375;    0.000
613.469; 5601.175;  230.375;    0.000
613.590; 5510.175;  208.375;    0.000
613.712; 5713.175;  244.375;    0.000
613.833; 5515.175;  202.375;    0.000
613.954; 5530.175;  228.375;    0.000
614.076; 5677.175;  220.375;    0.000
614.197; 5646.175;  191.375;    0.000
614.318; 5579.175;  201.375;    0.000
614.439; 5566.175;  212.375;    0.000
614.560; 5526.175;  219.375;    0.000
614.682; 5587.175;  189.375;    0.000
614.803; 5600.175;  188.375;    0.000
614.924; 5626.175;  225.375;    0.000
615.045; 5728.175;  227.375;    0.000
615.166; 5744.175;  200.375;    0.000
615.287; 5880.175;  195.375;    0.000
615.408; 6453.175;  199.375;    0.000
615.529; 6472.175;  227.375;    0.000
615.650; 6247.175;  176.375;    0.000
615.771; 5949.175;  211.375;    0.000
615.892; 6201.175;  212.375;    0.000
616.013; 7061.175;  172.375;    0.000
616.134; 7669.175;  220.375;    0.000
616.255; 6950.175;  251.375;    0.000
616.376; 6439.175;  186.375;    0.000
616.497; 6099.175;  201.375;    0.000
616.618; 5909.175;  149.375;    0.000
616.739; 6049.175;  213.375;    0.000
616.860; 5876.175;  224.375;    0.000
616.981; 5924.175;  224.375;    0.000
617.102; 5830.175;  217.375;    0.000
617.222; 5837.175;  237.375;    0.000
617.343; 5989.175;  205.375;    0.000
617.464; 5683.175;  229.375;    0.000
617.585; 5713.175;  227.375;    0.000
617.705; 5750.175;  191.375;    0.000
617.826; 5837.175;  237.375;    0.000
617.947; 5615.175;  223.375;    0.000
618.068; 5672.175;  189.375;    0.000
618.188; 5649.175;  194.375;    0.000
618.309; 5650.175;  206.375;    0.000
618.430; 5641.175;  229.375;    0.000
618.550; 5644.175;  250.375;    0.000
618.671; 5583.175;  201.375;    0.000
618.791; 5681.175;  226.375;    0.000
618.912; 5634.175;  246.375;    0.000
619.033; 5607.175;  243.375;    0.000
619.153; 5675.175;  208.375;    0.000
619.274; 5534.175;  223.375;    0.000
619.394; 5475.175;  226.375;    0.000
619.515; 5474.175;  188.375;    0.000
619.635; 5536.175;  216.375;    0.000
619.756; 5518.175;  229.375;    0.000
619.876; 5484.175;  216.375;    0.000
619.996; 5420.175;  244.375;    0.000
620.117; 5460.175;  225.375;    0.000
620.237; 5465.175;  207.375;    0.000
620.358; 5502.175;  239.375;    0.000
620.478; 5395.175;  237.375;    0.000
620.598; 5539.175;  237.375;    0.000
620.719; 5455.175;  223.375;    0.000
620.839; 5561.175;  254.375;    0.000
620.959; 5404.175;  244.375;    0.000
621.079; 5416.175;  193.375;    0.000
621.200; 5376.175;  233.375;    0.000
621.320; 5512.175;  270.375;    0.000
621.440; 5445.175;  206.375;    0.000
621.560; 5343.175;  241.375;    0.000
621.681; 5441.175;  231.375;    0.000
621.801; 5455.175;  235.375;    0.000
621.921; 5353.175;  240.375;    0.000
622.041; 5305.175;  244.375;    0.000
622.161; 5364.175;  225.375;    0.000
622.281; 5291.175;  222.375;    0.000
622.401; 5440.175;  238.375;    0.000
622.521; 5379.175;  233.375;    0.000
622.641; 5253.175;  241.375;    0.000
622.761; 5371.175;  233.375;    0.000
622.882; 5244.175;  230.375;    0.000
623.002; 5279.175;  206.375;    0.000
623.121; 5338.175;  217.375;    0.000
623.241; 5371.175;  263.375;    0.000
623.361; 5204.175;  245.375;    0.000
623.481; 5263.175;  194.375;    0.000
623.601; 5214.175;  228.375;    0.000
623.721; 5342.175;  219.375;    0.000
623.841; 5284.175;  234.375;    0.000
623.961; 5197.175;  235.375;    0.000
624.081; 5124.175;  166.375;    0.000
624.201; 5194.175;  229.375;    0.000
624.320; 5220.175;  224.375;    0.000
624.440; 5315.175;  200.375;    0.000
624.560; 5119.175;  220.375;    0.000
624.680; 5197.175;  214.375;    0.000
624.799; 5262.175;  179.375;    0.000
624.919; 5207.175;  199.375;    0.000
625.039; 5064.175;  211.375;    0.000
625.159; 5170.175;  213.375;    0.000
625.278; 5223.175;  178.375;    0.000
625.398; 5166.175;  206.375;    0.000
625.518; 5174.175;  182.375;    0.000
625.637; 5207.175;  206.375;    0.000
625.757; 5120.175;  197.375;    0.000
625.876; 5082.175;  204.375;    0.000
625.996; 5194.175;  222.375;    0.000
626.115; 4984.175;  222.375;    0.000
626.235; 5080.175;  222.375;    0.000
626.354; 5207.175;  211.375;    0.000
626.474; 5182.175;  217.375;    0.000
626.594; 5070.175;  190.375;    0.000
626.713; 5147.175;  200.375;    0.000
626.832; 5171.175;  234.375;    0.000
626.952; 5028.175;  214.375;    0.000
627.071; 5014.175;  243.375;    0.000
627.191; 5040.175;  192.375;    0.000
627.310; 5132.175;  211.375;    0.000
627.429; 5152.175;  218.375;    0.000
627.549; 4993.175;  214.375;    0.000
627.668; 5008.175;  208.375;    0.000
627.787; 5097.175;  199.375;    0.000
627.907; 5117.175;  208.375;    0.000
628.026; 5039.175;  216.375;    0.000
628.145; 5001.175;  170.375;    0.000
628.264; 5093.175;  217.375;    0.000
628.384; 5151.175;  190.375;    0.000
628.503; 5129.175;  203.375;    0.000
628.622; 5028.175;  197.375;    0.000
628.741; 5085.175;  186.375;    0.000
628.860; 5051.175;  191.375;    0.000
628.980; 5056.175;  196.375;    0.000
629.099; 5027.175;  190.375;    0.000
629.218; 5007.175;  165.375;    0.000
629.337; 5153.175;  190.375;    0.000
629.456; 5056.175;  222.375;    0.000
629.575; 4975.175;  197.375;    0.000
629.694; 5032.175;  210.375;    0.000
629.813; 4970.175;  187.375;    0.000
629.932; 4997.175;  224.375;    0.000
630.051; 5043.175;  216.375;    0.000
630.170; 4960.175;  203.375;    0.000
630.289; 5009.175;  178.375;    0.000
630.408; 4988.175;  192.375;    0.000
630.527; 5101.175;  223.375;    0.000
630.646; 5026.175;  177.375;    0.000
630.764; 4973.175;  224.375;    0.000
630.883; 4949.175;  220.375;    0.000
631.002; 4917.175;  187.375;    0.000
631.121; 5021.175;  208.375;    0.000
631.240; 4956.175;  217.375;    0.000
631.359; 4987.175;  241.375;    0.000
631.477; 4967.175;  189.375;    0.000
631.596; 4901.175;  244.375;    0.000
631.715; 4951.175;  241.375;    0.000
631.834; 5009.175;  219.375;    0.000
631.952; 5032.175;  231.375;    0.000
632.071; 5058.175;  197.375;    0.000
632.190; 4893.175;  193.375;    0.000
632.308; 4936.175;  185.375;    0.000
632.427; 4879.175;  188.375;    0.000
632.546; 4855.175;  208.375;    0.000
632.664; 4762.175;  191.375;    0.000
632.783; 4859.175;  201.375;    0.000
632.901; 4917.175;  239.375;    0.000
633.020; 4726.175;  197.375;    0.000
633.138; 4836.175;  189.375;    0.000
633.257; 4830.175;  210.375;    0.000
633.375; 4828.175;  213.375;    0.000
633.494; 4897.175;  206.375;    0.000
633.612; 4846.175;  231.375;    0.000
633.731; 4797.175;  213.375;    0.000
633.849; 4848.175;  244.375;    0.000
633.968; 4767.175;  251.375;    0.000
634.086; 4791.175;  224.375;    0.000
634.204; 4852.175;  212.375;    0.000
634.323; 4861.175;  213.375;    0.000
634.441; 4883.175;  219.375;    0.000
634.559; 4872.175;  198.375;    0.000
634.678; 4868.175;  201.375;    0.000
634.796; 4733.175;  179.375;    0.000
634.914; 4897.175;  255.375;    0.000
635.032; 4908.175;  264.375;    0.000
635.151; 4787.175;  228.375;    0.000
635.269; 4863.175;  223.375;    0.000
635.387; 4741.175;  228.375;    0.000
635.505; 4795.175;  214.375;    0.000
635.623; 4753.175;  279.375;    0.000
635.742; 4774.175;  237.375;    0.000
635.860; 4778.175;  244.375;    0.000
635.978; 4715.175;  213.375;    0.000
636.096; 4684.175;  230.375;    0.000
636.214; 4789.175;  252.375;    0.000
636.332; 4756.175;  221.375;    0.000
636.450; 4764.175;  227.375;    0.000
636.568; 4732.175;  193.375;    0.000
636.686; 4707.175;  208.375;    0.000
636.804; 4869.175;  213.375;    0.000
636.922; 4731.175;  199.375;    0.000
637.040; 4729.175;  202.375;    0.000
637.158; 4753.175;  239.375;    0.000
637.276; 4704.175;  225.375;    0.000
637.394; 4727.175;  217.375;    0.000
637.512; 4808.175;  192.375;    0.000
637.629; 4837.175;  216.375;    0.000
637.747; 4691.175;  198.375;    0.000
637.865; 4695.175;  265.375;    0.000
637.983; 4696.175;  245.375;    0.000
638.101; 4681.175;  199.375;    0.000
638.218; 4731.175;  197.375;    0.000
638.336; 4778.175;  212.375;    0.000
638.454; 4812.175;  227.375;    0.000
638.572; 4807.175;  215.375;    0.000
638.689; 4691.175;  214.375;    0.000
638.807; 4674.175;  233.375;    0.000
638.925; 4870.175;  217.375;    0.000
639.042; 4701.175;  180.375;    0.000
639.160; 4588.175;  220.375;    0.000
639.278; 4694.175;  180.375;    0.000
639.395; 4788.175;  243.375;    0.000
639.513; 4742.175;  207.375;    0.000
639.630; 4663.175;  183.375;    0.000
639.748; 4717.175;  231.375;    0.000
639.865; 4678.175;  215.375;    0.000
639.983; 4771.175;  182.375;    0.000
640.100; 4736.175;  190.375;    0.000
640.218; 4724.175;  224.375;    0.000
640.335; 4697.175;  214.375;    0.000
640.453; 4646.175;  212.375;    0.000
640.570; 4688.175;  224.375;    0.000
640.688; 4683.175;  220.375;    0.000
640.805; 4605.175;  189.375;    0.000
640.922; 4663.175;  256.375;    0.000
641.040; 4608.175;  209.375;    0.000
641.157; 4637.175;  195.375;    0.000
641.274; 4640.175;  195.375;    0.000
641.391; 4815.175;  231.375;    0.000
641.509; 4608.175;  207.375;    0.000
641.626; 4703.175;  227.375;    0.000
641.743; 4639.175;  188.375;    0.000
641.860; 4745.175;  208.375;    0.000
641.978; 4612.175;  222.375;    0.000
642.095; 4631.175;  194.375;    0.000
642.212; 4768.175;  202.375;    0.000
642.329; 4580.175;  241.375;    0.000
642.446; 4657.175;  261.375;    0.000
642.563; 4649.175;  236.375;    0.000
642.681; 4632.175;  228.375;    0.000
642.798; 4639.175;  242.375;    0.000
642.915; 4595.175;  197.375;    0.000
643.032; 4627.175;  239.375;    0.000
643.149; 4709.175;  241.375;    0.000
643.266; 4727.175;  199.375;    0.000
643.383; 4638.175;  200.375;    0.000
643.500; 4610.175;  221.375;    0.000
643.617; 4610.175;  196.375;    0.000
643.734; 4649.175;  207.375;    0.000
643.850; 4746.175;  222.375;    0.000
643.967; 4682.175;  235.375;    0.000
644.084; 4664.175;  233.375;    0.000
644.201; 4778.175;  229.375;    0.000
644.318; 4613.175;  210.375;    0.000
644.435; 4760.175;  234.375;    0.000
644.552; 4710.175;  220.375;    0.000
644.668; 4825.175;  231.375;    0.000
644.785; 4756.175;  231.375;    0.000
644.902; 4717.175;  238.375;    0.000
645.019; 4755.175;  226.375;    0.000
645.135; 4888.175;  179.375;    0.000
645.252; 4745.175;  224.375;    0.000
645.369; 4839.175;  206.375;    0.000
645.485; 4803.175;  200.375;    0.000
645.602; 4866.175;  210.375;    0.000
645.719; 4851.175;  206.375;    0.000
645.835; 5021.175;  247.375;    0.000
645.952; 4952.175;  222.375;    0.000
646.068; 5010.175;  205.375;    0.000
646.185; 4932.175;  230.375;    0.000
646.302; 4966.175;  254.375;    0.000
646.418; 5117.175;  230.375;    0.000
646.535; 4929.175;  214.375;    0.000
646.651; 5012.175;  179.375;    0.000
646.768; 5097.175;  190.375;    0.000
646.884; 5062.175;  208.375;    0.000
647.000; 5209.175;  262.375;    0.000
647.117; 5065.175;  212.375;    0.000
647.233; 5125.175;  228.375;    0.000
647.350; 5133.175;  208.375;    0.000
647.466; 5102.175;  211.375;    0.000
647.582; 5147.175;  196.375;    0.000
647.699; 5161.175;  217.375;    0.000
647.815; 5261.175;  203.375;    0.000
647.931; 5241.175;  201.375;    0.000
648.047; 5214.175;  182.375;    0.000
648.164; 5218.175;  219.375;    0.000
648.280; 5333.175;  213.375;    0.000
648.396; 5327.175;  202.375;    0.000
648.512; 5263.175;  233.375;    0.000
648.629; 5396.175;  206.375;    0.000
648.745; 5316.175;  188.375;    0.000
648.861; 5271.175;  209.375;    0.000
648.977; 5214.175;  218.375;    0.000
649.093; 5336.175;  225.375;    0.000
649.209; 5383.175;  240.375;    0.000
649.325; 5337.175;  253.375;    0.000
649.441; 5210.175;  263.375;    0.000
649.557; 5244.175;  256.375;    0.000
649.673; 5217.175;  211.375;    0.000
649.789; 5322.175;  237.375;    0.000
649.905; 5173.175;  183.375;    0.000
650.021; 5302.175;  238.375;    0.000
650.137; 5203.175;  241.375;    0.000
650.253; 5325.175;  228.375;    0.000
650.369; 5218.175;  221.375;    0.000
650.485; 5247.175;  240.375;    0.000
650.601; 5338.175;  254.375;    0.000
650.717; 5266.175;  201.375;    0.000
650.833; 5413.175;  257.375;    0.000
650.948; 5408.175;  213.375;    0.000
651.064; 5392.175;  223.375;    0.000
651.180; 5312.175;  230.375;    0.000
651.296; 5506.175;  235.375;    0.000
651.411; 5441.175;  221.375;    0.000
651.527; 5503.175;  233.375;    0.000
651.643; 5417.175;  236.375;    0.000
651.759; 5565.175;  268.375;    0.000
651.874; 5406.175;  214.375;    0.000
651.990; 5515.175;  251.375;    0.000
652.105; 5514.175;  217.375;    0.000
652.221; 5657.175;  243.375;    0.000
652.337; 5725.175;  231.375;    0.000
652.452; 5744.175;  238.375;    0.000
652.568; 5734.175;  188.375;    0.000
652.683; 5820.175;  197.375;    0.000
652.799; 5969.175;  194.375;    0.000
652.914; 5921.175;  222.375;    0.000
653.030; 6041.175;  200.375;    0.000
653.145; 6082.175;  235.375;    0.000
653.261; 6149.175;  261.375;    0.000
653.376; 6203.175;  228.375;    0.000
653.492; 6295.175;  222.375;    0.000
653.607; 6239.175;  227.375;    0.000
653.722; 6324.175;  250.375;    0.000
653.838; 6515.175;  255.375;    0.000
653.953; 6456.175;  235.375;    0.000
654.068; 6710.175;  266.375;    0.000
654.184; 6930.175;  210.375;    0.000
654.299; 6801.175;  240.375;    0.000
654.414; 6988.175;  222.375;    0.000
654.530; 7151.175;  222.375;    0.000
654.645; 7366.175;  256.375;    0.000
654.760; 7426.175;  244.375;    0.000
654.875; 7519.175;  229.375;    0.000
654.990; 7843.175;  226.375;    0.000
655.106; 8034.175;  254.375;    0.000
655.221; 8212.175;  251.375;    0.000
655.336; 8256.175;  245.375;    0.000
655.451; 8634.175;  199.375;    0.000
655.566; 8912.175;  228.375;    0.000
655.681; 9390.175;  208.375;    0.000
655.796; 9557.175;  218.375;    0.000
655.911;10135.175;  233.375;    0.000
656.026;10548.175;  232.375;    0.000
656.141;10875.175;  223.375;    0.000
656.256;11482.175;  247.375;    0.000
656.371;11421.175;  220.375;    0.000
656.486;11514.175;  225.375;    0.000
656.601;11215.175;  257.375;    0.000
656.716;10848.175;  248.375;    0.000
656.831;10428.175;  262.375;    0.000
656.946;10479.175;  249.375;    0.000
657.060; 9992.175;  245.375;    0.000
657.175; 9806.175;  245.375;    0.000
657.290; 9599.175;  219.375;    0.000
657.405; 9337.175;  286.375;    0.000
657.520; 8944.175;  259.375;    0.000
657.634; 8845.175;  239.375;    0.000
657.749; 8582.175;  227.375;    0.000
657.864; 8318.175;  210.375;    0.000
657.979; 8229.175;  236.375;    0.000
658.093; 7921.175;  210.375;    0.000
658.208; 7959.175;  248.375;    0.000
658.323; 7626.175;  216.375;    0.000
658.437; 7610.175;  248.375;    0.000
658.552; 7615.175;  249.375;    0.000
658.666; 7255.175;  256.375;    0.000
658.781; 7312.175;  247.375;    0.000
658.895; 7128.175;  209.375;    0.000
659.010; 6988.175;  219.375;    0.000
659.125; 6940.175;  215.375;    0.000
659.239; 7028.175;  205.375;    0.000
659.353; 6783.175;  246.375;    0.000
659.468; 6829.175;  245.375;    0.000
659.582; 6801.175;  244.375;    0.000
659.697; 6619.175;  242.375;    0.000
659.811; 6629.175;  239.375;    0.000
659.926; 6296.175;  226.375;    0.000
660.040; 6359.175;  255.375;    0.000
660.154; 6311.175;  225.375;    0.000
660.269; 6198.175;  200.375;    0.000
660.383; 6139.175;  192.375;    0.000
660.497; 6197.175;  218.375;    0.000
660.612; 6030.175;  236.375;    0.000
660.726; 6056.175;  263.375;    0.000
660.840; 5958.175;  205.375;    0.000
660.954; 5930.175;  219.375;    0.000
661.068; 6021.175;  240.375;    0.000
661.183; 5900.175;  221.375;    0.000
661.297; 5631.175;  194.375;    0.000
661.411; 5690.175;  253.375;    0.000
661.525; 5650.175;  246.375;    0.000
661.639; 5717.175;  217.375;    0.000
661.753; 5473.175;  241.375;    0.000
661.867; 5422.175;  276.375;    0.000
661.981; 5356.175;  203.375;    0.000
662.095; 5396.175;  224.375;    0.000
662.209; 5349.175;  217.375;    0.000
662.323; 5193.175;  251.375;    0.000
662.437; 5104.175;  243.375;    0.000
662.551; 5157.175;  244.375;    0.000
662.665; 5139.175;  247.375;    0.000
662.779; 5019.175;  251.375;    0.000
662.893; 5041.175;  254.375;    0.000
663.007; 4859.175;  222.375;    0.000
663.121; 5025.175;  253.375;    0.000
663.235; 4902.175;  270.375;    0.000
663.349; 4918.175;  242.375;    0.000
663.462; 4921.175;  230.375;    0.000
663.576; 4892.175;  230.375;    0.000
663.690; 4891.175;  249.375;    0.000
663.804; 4724.175;  200.375;    0.000
663.917; 4682.175;  204.375;    0.000
664.031; 4667.175;  206.375;    0.000
664.145; 4647.175;  202.375;    0.000
664.258; 4698.175;  221.375;    0.000
664.372; 4557.175;  215.375;    0.000
664.486; 4480.175;  179.375;    0.000
664.599; 4572.175;  208.375;    0.000
664.713; 4574.175;  268.375;    0.000
664.827; 4436.175;  225.375;    0.000
664.940; 4541.175;  222.375;    0.000
665.054; 4449.175;  208.375;    0.000
665.167; 4387.175;  253.375;    0.000
665.281; 4418.175;  237.375;    0.000
665.394; 4469.175;  227.375;    0.000
665.508; 4349.175;  192.375;    0.000
665.621; 4359.175;  175.375;    0.000
665.735; 4422.175;  249.375;    0.000
665.848; 4336.175;  197.375;    0.000
665.961; 4357.175;  206.375;    0.000
666.075; 4307.175;  245.375;    0.000
666.188; 4316.175;  230.375;    0.000
666.301; 4328.175;  219.375;    0.000
666.415; 4351.175;  231.375;    0.000
666.528; 4245.175;  258.375;    0.000
666.641; 4258.175;  243.375;    0.000
666.755; 4213.175;  208.375;    0.000
666.868; 4223.175;  228.375;    0.000
666.981; 4266.175;  244.375;    0.000
667.094; 4163.175;  244.375;    0.000
667.207; 4134.175;  226.375;    0.000
667.321; 4141.175;  175.375;    0.000
667.434; 4144.175;  211.375;    0.000
667.547; 4102.175;  249.375;    0.000
667.660; 4022.175;  225.375;    0.000
667.773; 4122.175;  242.375;    0.000
667.886; 4041.175;  246.375;    0.000
667.999; 4111.175;  244.375;    0.000
668.112; 4048.175;  227.375;    0.000
668.225; 4046.175;  231.375;    0.000
668.338; 3984.175;  256.375;    0.000
668.451; 4051.175;  216.375;    0.000
668.564; 4128.175;  261.375;    0.000
668.677; 4065.175;  230.375;    0.000
668.790; 3952.175;  192.375;    0.000
668.903; 4013.175;  243.375;    0.000
669.016; 3884.175;  201.375;    0.000
669.129; 3915.175;  249.375;    0.000
669.242; 3839.175;  190.375;    0.000
669.354; 3783.175;  219.375;    0.000
669.467; 3969.175;  242.375;    0.000
669.580; 3959.175;  237.375;    0.000
669.693; 3840.175;  243.375;    0.000
669.806; 3814.175;  234.375;    0.000
669.918; 3814.175;  206.375;    0.000
670.031; 3929.175;  258.375;    0.000
670.144; 3846.175;  231.375;    0.000
670.256; 3899.175;  244.375;    0.000
670.369; 3818.175;  262.375;    0.000
670.482; 3732.175;  264.375;    0.000
670.594; 3887.175;  256.375;    0.000
670.707; 3826.175;  224.375;    0.000
670.820; 3750.175;  261.375;    0.000
670.932; 3854.175;  226.375;    0.000
671.045; 3855.175;  243.375;    0.000
671.157; 3784.175;  235.375;    0.000
671.270; 3798.175;  217.375;    0.000
671.382; 3668.175;  267.375;    0.000
671.495; 3696.175;  258.375;    0.000
671.607; 3714.175;  236.375;    0.000
671.720; 3695.175;  200.375;    0.000
671.832; 3706.175;  219.375;    0.000
671.944; 3783.175;  234.375;    0.000
672.057; 3777.175;  226.375;    0.000
672.169; 3654.175;  225.375;    0.000
672.281; 3734.175;  253.375;    0.000
672.394; 3704.175;  238.375;    0.000
672.506; 3688.175;  244.375;    0.000
672.618; 3701.175;  272.375;    0.000
672.731; 3708.175;  247.375;    0.000
672.843; 3710.175;  261.375;    0.000
672.955; 3667.175;  262.375;    0.000
673.067; 3665.175;  253.375;    0.000
673.180; 3733.175;  239.375;    0.000
673.292; 3655.175;  240.375;    0.000
673.404; 3684.175;  243.375;    0.000
673.516; 3560.175;  258.375;    0.000
673.628; 3671.175;  263.375;    0.000
673.740; 3593.175;  250.375;    0.000
673.852; 3610.175;  285.375;    0.000
673.964; 3637.175;  264.375;    0.000
674.076; 3573.175;  260.375;    0.000
674.188; 3534.175;  226.375;    0.000
674.300; 3575.175;  272.375;    0.000
674.412; 3584.175;  259.375;    0.000
674.524; 3527.175;  283.375;    0.000
674.636; 3601.175;  259.375;    0.000
674.748; 3576.175;  238.375;    0.000
674.860; 3664.175;  277.375;    0.000
674.972; 3499.175;  272.375;    0.000
675.084; 3602.175;  244.375;    0.000
675.196; 3605.175;  272.375;    0.000
675.307; 3523.175;  244.375;    0.000
675.419; 3499.175;  219.375;    0.000
675.531; 3564.175;  275.375;    0.000
675.643; 3478.175;  215.375;    0.000
675.755; 3457.175;  243.375;    0.000
675.866; 3516.175;  223.375;    0.000
675.978; 3480.175;  216.375;    0.000
676.090; 3469.175;  242.375;    0.000
676.201; 3472.175;  276.375;    0.000
676.313; 3507.175;  226.375;    0.000
676.425; 3479.175;  234.375;    0.000
676.536; 3437.175;  231.375;    0.000
676.648; 3473.175;  254.375;    0.000
676.759; 3567.175;  273.375;    0.000
676.871; 3516.175;  250.375;    0.000
676.983; 3476.175;  256.375;    0.000
677.094; 3447.175;  210.375;    0.000
677.206; 3389.175;  248.375;    0.000
677.317; 3462.175;  263.375;    0.000
677.429; 3391.175;  238.375;    0.000
677.540; 3363.175;  247.375;    0.000
677.651; 3392.175;  224.375;    0.000
677.763; 3425.175;  217.375;    0.000
677.874; 3360.175;  234.375;    0.000
677.986; 3372.175;  238.375;    0.000
678.097; 3384.175;  226.375;    0.000
678.208; 3447.175;  253.375;    0.000
678.320; 3369.175;  217.375;    0.000
678.431; 3407.175;  238.375;    0.000
678.542; 3453.175;  236.375;    0.000
678.653; 3301.175;  218.375;    0.000
678.765; 3326.175;  275.375;    0.000
678.876; 3299.175;  213.375;    0.000
678.987; 3272.175;  182.375;    0.000
679.098; 3307.175;  221.375;    0.000
679.209; 3397.175;  238.375;    0.000
679.320; 3340.175;  212.375;    0.000
679.432; 3324.175;  231.375;    0.000
679.543; 3317.175;  198.375;    0.000
679.654; 3252.175;  191.375;    0.000
679.765; 3291.175;  214.375;    0.000
679.876; 3293.175;  221.375;    0.000
679.987; 3239.175;  162.375;    0.000
680.098; 3279.175;  230.375;    0.000
680.209; 3287.175;  206.375;    0.000
680.320; 3278.175;  196.375;    0.000
680.431; 3337.175;  191.375;    0.000
680.542; 3320.175;  214.375;    0.000
680.653; 3298.175;  238.375;    0.000
680.763; 3176.175;  182.375;    0.000
680.874; 3334.175;  213.375;    0.000
680.985; 3279.175;  224.375;    0.000
681.096; 3281.175;  222.375;    0.000
681.207; 3276.175;  220.375;    0.000
681.318; 3279.175;  216.375;    0.000
681.428; 3328.175;  229.375;    0.000
681.539; 3176.175;  183.375;    0.000
681.650; 3275.175;  202.375;    0.000
681.760; 3353.175;  223.375;    0.000
681.871; 3214.175;  211.375;    0.000
681.982; 3213.175;  189.375;    0.000
682.093; 3177.175;  222.375;    0.000
682.203; 3150.175;  220.375;    0.000
682.314; 3173.175;  214.375;    0.000
682.424; 3210.175;  208.375;    0.000
682.535; 3217.175;  213.375;    0.000
682.646; 3203.175;  302.375;    0.000
682.756; 3244.175;  255.375;    0.000
682.867; 3195.175;  244.375;    0.000
682.977; 3202.175;  221.375;    0.000
683.088; 3225.175;  259.375;    0.000
683.198; 3132.175;  212.375;    0.000
683.308; 3147.175;  202.375;    0.000
683.419; 3172.175;  255.375;    0.000
683.529; 3208.175;  217.375;    0.000
683.640; 3215.175;  240.375;    0.000
683.750; 3109.175;  181.375;    0.000
683.860; 3108.175;  246.375;    0.000
683.971; 3209.175;  254.375;    0.000
684.081; 3209.175;  235.375;    0.000
684.191; 3208.175;  251.375;    0.000
684.301; 3227.175;  233.375;    0.000
684.412; 3259.175;  202.375;    0.000
684.522; 3173.175;  232.375;    0.000
684.632; 3121.175;  202.375;    0.000
684.742; 3209.175;  254.375;    0.000
684.852; 3162.175;  219.375;    0.000
684.963; 3194.175;  256.375;    0.000
685.073; 3043.175;  253.375;    0.000
685.183; 3159.175;  254.375;    0.000
685.293; 3187.175;  232.375;    0.000
685.403; 3256.175;  242.375;    0.000
685.513; 3196.175;  261.375;    0.000
685.623; 3194.175;  245.375;    0.000
685.733; 3148.175;  254.375;    0.000
685.843; 3164.175;  249.375;    0.000
685.953; 3153.175;  252.375;    0.000
686.063; 3197.175;  227.375;    0.000
686.173; 3128.175;  223.375;    0.000
686.283; 3117.175;  234.375;    0.000
686.393; 3191.175;  239.375;    0.000
686.503; 3113.175;  231.375;    0.000
686.612; 3177.175;  232.375;    0.000
686.722; 3195.175;  258.375;    0.000
686.832; 3215.175;  256.375;    0.000
686.942; 3184.175;  230.375;    0.000
687.052; 3115.175;  274.375;    0.000
687.161; 3207.175;  269.375;    0.000
687.271; 3214.175;  218.375;    0.000
687.381; 3146.175;  235.375;    0.000
687.491; 3087.175;  262.375;    0.000
687.600; 3120.175;  256.375;    0.000
687.710; 3148.175;  225.375;    0.000
687.820; 3078.175;  230.375;    0.000
687.929; 3050.175;  226.375;    0.000
688.039; 3124.175;  228.375;    0.000
688.148; 3141.175;  249.375;    0.000
688.258; 3121.175;  237.375;    0.000
688.367; 3086.175;  260.375;    0.000
688.477; 3024.175;  200.375;    0.000
688.586; 3185.175;  223.375;    0.000
688.696; 3077.175;  223.375;    0.000
688.805; 3135.175;  257.375;    0.000
688.915; 3072.175;  185.375;    0.000
689.024; 3205.175;  227.375;    0.000
689.134; 3057.175;  224.375;    0.000
689.243; 3027.175;  206.375;    0.000
689.352; 3088.175;  275.375;    0.000
689.462; 3013.175;  233.375;    0.000
689.571; 3065.175;  244.375;    0.000
689.680; 3131.175;  261.375;    0.000
689.790; 3084.175;  192.375;    0.000
689.899; 3037.175;  214.375;    0.000
690.008; 3071.175;  255.375;    0.000
690.117; 3035.175;  219.375;    0.000
690.227; 3044.175;  241.375;    0.000
690.336; 3035.175;  231.375;    0.000
690.445; 3001.175;  212.375;    0.000
690.554; 3110.175;  234.375;    0.000
690.663; 3030.175;  210.375;    0.000
690.772; 3091.175;  221.375;    0.000
690.881; 3084.175;  244.375;    0.000
690.990; 3081.175;  247.375;    0.000
691.099; 3022.175;  222.375;    0.000
691.209; 3074.175;  240.375;    0.000
691.318; 2968.175;  223.375;    0.000
691.427; 2969.175;  217.375;    0.000
691.536; 3103.175;  216.375;    0.000
691.644; 2882.175;  194.375;    0.000
691.753; 3104.175;  221.375;    0.000
691.862; 3001.175;  224.375;    0.000
691.971; 3019.175;  191.375;    0.000
692.080; 3098.175;  247.375;    0.000
692.189; 3036.175;  208.375;    0.000
692.298; 3025.175;  203.375;    0.000
692.406; 3077.175;  239.375;    0.000
692.515; 3010.175;  250.375;    0.000
692.624; 2960.175;  226.375;    0.000
692.733; 3045.175;  229.375;    0.000
692.842; 3055.175;  254.375;    0.000
692.950; 3047.175;  242.375;    0.000
693.059; 3040.175;  204.375;    0.000
693.168; 3075.175;  252.375;    0.000
693.276; 3051.175;  195.375;    0.000
693.385; 3062.175;  228.375;    0.000
693.494; 3004.175;  282.375;    0.000
693.602; 3039.175;  221.375;    0.000
693.711; 3020.175;  225.375;    0.000
693.819; 3030.175;  234.375;    0.000
693.928; 2948.175;  229.375;    0.000
694.036; 3003.175;  192.375;    0.000
694.145; 3072.175;  233.375;    0.000
694.253; 3023.175;  277.375;    0.000
694.362; 3028.175;  188.375;    0.000
694.470; 3071.175;  263.375;    0.000
694.579; 2988.175;  253.375;    0.000
694.687; 3067.175;  281.375;    0.000
694.795; 2986.175;  233.375;    0.000
694.904; 3039.175;  223.375;    0.000
695.012; 3092.175;  296.375;    0.000
695.120; 2985.175;  227.375;    0.000
695.229; 3028.175;  269.375;    0.000
695.337; 2970.175;  229.375;    0.000
695.445; 3048.175;  244.375;    0.000
695.553; 3005.175;  259.375;    0.000
695.662; 3049.175;  208.375;    0.000
695.770; 3007.175;  241.375;    0.000
695.878; 3022.175;  239.375;    0.000
695.986; 3101.175;  247.375;    0.000
696.094; 2991.175;  224.375;    0.000
696.202; 2971.175;  205.375;    0.000
696.310; 3010.175;  217.375;    0.000
696.419; 2942.175;  228.375;    0.000
696.527; 3039.175;  246.375;    0.000
696.635; 2998.175;  245.375;    0.000
696.743; 2942.175;  233.375;    0.000
696.851; 3014.175;  251.375;    0.000
696.959; 3018.175;  257.375;    0.000
697.067; 3090.175;  260.375;    0.000
697.174; 3000.175;  223.375;    0.000
697.282; 2942.175;  239.375;    0.000
697.390; 3030.175;  264.375;    0.000
697.498; 2958.175;  227.375;    0.000
697.606; 2862.175;  243.375;    0.000
697.714; 3031.175;  256.375;    0.000
697.822; 3064.175;  278.375;    0.000
697.929; 2996.175;  227.375;    0.000
698.037; 2974.175;  232.375;    0.000
698.145; 2938.175;  256.375;    0.000
698.253; 2938.175;  245.375;    0.000
698.360; 3033.175;  282.375;    0.000
698.468; 2989.175;  244.375;    0.000
698.576; 3016.175;  279.375;    0.000
698.683; 3002.175;  259.375;    0.000
698.791; 3008.175;  265.375;    0.000
698.899; 3049.175;  250.375;    0.000
699.006; 2997.175;  245.375;    0.000
699.114; 3017.175;  280.375;    0.000
699.221; 3020.175;  240.375;    0.000
699.329; 2969.175;  293.375;    0.000
699.436; 2981.175;  216.375;    0.000
699.544; 2967.175;  269.375;    0.000
699.651; 2989.175;  219.375;    0.000
699.759; 3033.175;  245.375;    0.000
699.866; 2959.175;  261.375;    0.000
699.974; 3025.175;  245.375;    0.000
700.081; 2920.175;  257.375;    0.000
700.188; 2927.175;  268.375;    0.000
700.296; 2935.175;  225.375;    0.000
700.403; 3012.175;  257.375;    0.000
700.510; 3011.175;  267.375;    0.000
700.618; 2935.175;  299.375;    0.000
700.725; 2906.175;  223.375;    0.000
700.832; 2854.175;  233.375;    0.000
700.940; 2995.175;  255.375;    0.000
701.047; 2954.175;  244.375;    0.000
701.154; 2892.175;  248.375;    0.000
701.261; 2956.175;  264.375;    0.000
701.368; 2938.175;  299.375;    0.000
701.475; 2932.175;  264.375;    0.000
701.582; 2880.175;  275.375;    0.000
701.690; 2877.175;  261.375;    0.000
701.797; 2981.175;  273.375;    0.000
701.904; 3010.175;  320.375;    0.000
702.011; 2953.175;  299.375;    0.000
702.118; 2961.175;  292.375;    0.000
702.225; 2977.175;  317.375;    0.000
702.332; 2925.175;  307.375;    0.000
702.439; 2972.175;  313.375;    0.000
702.546; 3029.175;  312.375;    0.000
702.652; 2955.175;  297.375;    0.000
702.759; 2949.175;  345.375;    0.000
702.866; 2993.175;  330.375;    0.000
702.973; 2933.175;  303.375;    0.000
703.080; 2967.175;  303.375;    0.000
703.187; 3036.175;  327.375;    0.000
703.294; 2997.175;  325.375;    0.000
703.400; 2745.175;  302.375;    0.000
703.507;  575.175;  344.375;    0.000
703.614;  330.175;  294.375;    0.000
703.720;  313.175;  322.375;    0.000
703.827;  317.175;  329.375;    0.000
703.934;  329.175;  318.375;    0.000
704.040;  254.175;  299.375;    0.000
704.147;  304.175;  352.375;    0.000
704.254;  351.175;  350.375;    0.000
704.360;  321.175;  347.375;    0.000
704.467;  353.175;  336.375;    0.000
704.573;  318.175;  344.375;    0.000
704.680;  301.175;  365.375;    0.000
704.786;  308.175;  332.375;    0.000
704.893;  301.175;  304.375;    0.000
704.999;  303.175;  299.375;    0.000
705.106;  336.175;  365.375;    0.000

