
Integration time [ms]:   1.000
Averaging Nr. [scans]: 1
Smoothing Nr. [pixels]: 0
Data measured with spectrometer [name]: VIS
Wave   ;Sample   ;Dark     ;Reference
[nm]   ;[counts] ;[counts] ;[counts] 

450.961;  164.975;  200.375;    0.000
451.100;  228.975;  241.375;    0.000
451.239;  203.975;  201.375;    0.000
451.377;  215.975;  262.375;    0.000
451.516;  223.975;  229.375;    0.000
451.655;  225.975;  211.375;    0.000
451.794;  221.975;  225.375;    0.000
451.932;  230.975;  247.375;    0.000
452.071;  208.975;  260.375;    0.000
452.210;  230.975;  235.375;    0.000
452.348;  237.975;  276.375;    0.000
452.487;  235.975;  259.375;    0.000
452.626;  216.975;  254.375;    0.000
452.764;  225.975;  233.375;    0.000
452.903;  226.975;  202.375;    0.000
453.042;  315.975;  211.375;    0.000
453.180; 4458.975;  240.375;    0.000
453.319; 4617.975;  238.375;    0.000
453.458; 4575.975;  215.375;    0.000
453.596; 4720.975;  252.375;    0.000
453.735; 4774.975;  240.375;    0.000
453.873; 4742.975;  257.375;    0.000
454.012; 4745.975;  228.375;    0.000
454.150; 4888.975;  270.375;    0.000
454.289; 4931.975;  233.375;    0.000
454.427; 4978.975;  243.375;    0.000
454.566; 4998.975;  257.375;    0.000
454.704; 4991.975;  243.375;    0.000
454.843; 4987.975;  190.375;    0.000
454.981; 5220.975;  271.375;    0.000
455.120; 4988.975;  210.375;    0.000
455.258; 5094.975;  235.375;    0.000
455.397; 5286.975;  214.375;    0.000
455.535; 5214.975;  214.375;    0.000
455.674; 5367.975;  184.375;    0.000
455.812; 5317.975;  228.375;    0.000
455.951; 5312.975;  204.375;    0.000
456.089; 5418.975;  220.375;    0.000
456.227; 5470.975;  196.375;    0.000
456.366; 5682.975;  261.375;    0.000
456.504; 5725.975;  249.375;    0.000
456.642; 5695.975;  245.375;    0.000
456.781; 5698.975;  183.375;    0.000
456.919; 5752.975;  203.375;    0.000
457.057; 5864.975;  177.375;    0.000
457.196; 6023.975;  191.375;    0.000
457.334; 6020.975;  233.375;    0.000
457.472; 6138.975;  214.375;    0.000
457.610; 6203.975;  230.375;    0.000
457.749; 6321.975;  247.375;    0.000
457.887; 6316.975;  220.375;    0.000
458.025; 6459.975;  195.375;    0.000
458.163; 6526.975;  224.375;    0.000
458.301; 6680.975;  228.375;    0.000
458.440; 6803.975;  200.375;    0.000
458.578; 6935.975;  233.375;    0.000
458.716; 7004.975;  182.375;    0.000
458.854; 7242.975;  251.375;    0.000
458.992; 7351.975;  187.375;    0.000
459.130; 7460.975;  229.375;    0.000
459.269; 7434.975;  237.375;    0.000
459.407; 7723.975;  228.375;    0.000
459.545; 7658.975;  216.375;    0.000
459.683; 7868.975;  204.375;    0.000
459.821; 7981.975;  191.375;    0.000
459.959; 8068.975;  227.375;    0.000
460.097; 8294.975;  221.375;    0.000
460.235; 8388.975;  241.375;    0.000
460.373; 8429.975;  231.375;    0.000
460.511; 8415.975;  214.375;    0.000
460.649; 8593.975;  172.375;    0.000
460.787; 8608.975;  275.375;    0.000
460.925; 8427.975;  175.375;    0.000
461.063; 8645.975;  252.375;    0.000
461.201; 8626.975;  210.375;    0.000
461.339; 8705.975;  237.375;    0.000
461.477; 8649.975;  210.375;    0.000
461.615; 8760.975;  236.375;    0.000
461.753; 8925.975;  215.375;    0.000
461.891; 9024.975;  222.375;    0.000
462.029; 9233.975;  227.375;    0.000
462.166; 9445.975;  202.375;    0.000
462.304; 9409.975;  191.375;    0.000
462.442; 9757.975;  210.375;    0.000
462.580;10075.975;  184.375;    0.000
462.718;10043.975;  220.375;    0.000
462.856;10159.975;  226.375;    0.000
462.993;10459.975;  254.375;    0.000
463.131;10379.975;  200.375;    0.000
463.269;10128.975;  215.375;    0.000
463.407; 9852.975;  213.375;    0.000
463.545; 9456.975;  242.375;    0.000
463.682; 9652.975;  212.375;    0.000
463.820;10080.975;  185.375;    0.000
463.958;10449.975;  212.375;    0.000
464.095;10677.975;  181.375;    0.000
464.233;10691.975;  192.375;    0.000
464.371;10495.975;  247.375;    0.000
464.509;10305.975;  151.375;    0.000
464.646;10331.975;  207.375;    0.000
464.784;10297.975;  199.375;    0.000
464.921;10240.975;  253.375;    0.000
465.059; 9752.975;  214.375;    0.000
465.197; 9609.975;  200.375;    0.000
465.334; 9380.975;  180.375;    0.000
465.472; 9069.975;  204.375;    0.000
465.609; 9007.975;  203.375;    0.000
465.747; 9023.975;  214.375;    0.000
465.885; 8823.975;  233.375;    0.000
466.022; 8801.975;  215.375;    0.000
466.160; 8797.975;  201.375;    0.000
466.297; 8742.975;  196.375;    0.000
466.435; 8646.975;  230.375;    0.000
466.572; 8658.975;  227.375;    0.000
466.710; 8661.975;  218.375;    0.000
466.847; 8445.975;  245.375;    0.000
466.985; 8600.975;  223.375;    0.000
467.122; 8504.975;  168.375;    0.000
467.260; 8622.975;  196.375;    0.000
467.397; 8447.975;  198.375;    0.000
467.534; 8617.975;  219.375;    0.000
467.672; 8465.975;  214.375;    0.000
467.809; 8475.975;  185.375;    0.000
467.947; 8500.975;  247.375;    0.000
468.084; 8310.975;  196.375;    0.000
468.221; 8541.975;  238.375;    0.000
468.359; 8281.975;  236.375;    0.000
468.496; 8464.975;  235.375;    0.000
468.633; 8435.975;  218.375;    0.000
468.771; 8478.975;  223.375;    0.000
468.908; 8523.975;  208.375;    0.000
469.045; 8799.975;  249.375;    0.000
469.183; 8611.975;  222.375;    0.000
469.320; 8760.975;  216.375;    0.000
469.457; 8714.975;  224.375;    0.000
469.594; 8878.975;  259.375;    0.000
469.732; 8926.975;  223.375;    0.000
469.869; 8978.975;  234.375;    0.000
470.006; 9163.975;  225.375;    0.000
470.143; 9388.975;  243.375;    0.000
470.280; 9198.975;  208.375;    0.000
470.417; 9258.975;  232.375;    0.000
470.555; 9108.975;  218.375;    0.000
470.692; 9254.975;  223.375;    0.000
470.829; 9209.975;  238.375;    0.000
470.966; 9104.975;  205.375;    0.000
471.103; 9138.975;  259.375;    0.000
471.240; 8975.975;  214.375;    0.000
471.377; 8952.975;  226.375;    0.000
471.514; 9087.975;  250.375;    0.000
471.651; 8859.975;  221.375;    0.000
471.789; 8862.975;  242.375;    0.000
471.926; 8770.975;  190.375;    0.000
472.063; 8837.975;  234.375;    0.000
472.200; 8816.975;  252.375;    0.000
472.337; 8510.975;  241.375;    0.000
472.474; 8632.975;  244.375;    0.000
472.611; 8620.975;  268.375;    0.000
472.748; 8671.975;  222.375;    0.000
472.884; 8569.975;  271.375;    0.000
473.021; 8524.975;  195.375;    0.000
473.158; 8531.975;  205.375;    0.000
473.295; 8601.975;  223.375;    0.000
473.432; 8344.975;  216.375;    0.000
473.569; 8569.975;  196.375;    0.000
473.706; 8485.975;  190.375;    0.000
473.843; 8490.975;  211.375;    0.000
473.980; 8497.975;  254.375;    0.000
474.117; 8497.975;  185.375;    0.000
474.253; 8543.975;  229.375;    0.000
474.390; 8569.975;  238.375;    0.000
474.527; 8512.975;  220.375;    0.000
474.664; 8593.975;  242.375;    0.000
474.801; 8575.975;  229.375;    0.000
474.937; 8612.975;  229.375;    0.000
475.074; 8679.975;  210.375;    0.000
475.211; 8551.975;  219.375;    0.000
475.348; 8601.975;  226.375;    0.000
475.484; 8672.975;  207.375;    0.000
475.621; 8649.975;  233.375;    0.000
475.758; 8792.975;  230.375;    0.000
475.894; 8880.975;  234.375;    0.000
476.031; 8733.975;  202.375;    0.000
476.168; 8765.975;  222.375;    0.000
476.304; 8813.975;  237.375;    0.000
476.441; 8913.975;  238.375;    0.000
476.578; 8823.975;  216.375;    0.000
476.714; 9053.975;  212.375;    0.000
476.851; 9015.975;  210.375;    0.000
476.987; 9105.975;  239.375;    0.000
477.124; 9221.975;  250.375;    0.000
477.261; 9280.975;  227.375;    0.000
477.397; 9145.975;  189.375;    0.000
477.534; 9244.975;  204.375;    0.000
477.670; 9371.975;  190.375;    0.000
477.807; 9319.975;  198.375;    0.000
477.943; 9645.975;  216.375;    0.000
478.080; 9611.975;  213.375;    0.000
478.216; 9629.975;  239.375;    0.000
478.353; 9744.975;  218.375;    0.000
478.489; 9858.975;  184.375;    0.000
478.626; 9879.975;  223.375;    0.000
478.762;10092.975;  213.375;    0.000
478.898; 9969.975;  216.375;    0.000
479.035;10081.975;  250.375;    0.000
479.171; 9972.975;  201.375;    0.000
479.308; 9852.975;  242.375;    0.000
479.444;10065.975;  205.375;    0.000
479.580;10023.975;  203.375;    0.000
479.717; 9905.975;  260.375;    0.000
479.853;10107.975;  225.375;    0.000
479.989;10163.975;  226.375;    0.000
480.126;10361.975;  211.375;    0.000
480.262;10414.975;  220.375;    0.000
480.398;10417.975;  207.375;    0.000
480.535;10436.975;  179.375;    0.000
480.671;10346.975;  200.375;    0.000
480.807;10231.975;  190.375;    0.000
480.943;10100.975;  165.375;    0.000
481.080;10129.975;  210.375;    0.000
481.216;10019.975;  232.375;    0.000
481.352; 9940.975;  235.375;    0.000
481.488; 9848.975;  208.375;    0.000
481.624; 9955.975;  245.375;    0.000
481.760; 9765.975;  210.375;    0.000
481.897; 9766.975;  189.375;    0.000
482.033; 9751.975;  256.375;    0.000
482.169; 9613.975;  257.375;    0.000
482.305; 9672.975;  199.375;    0.000
482.441; 9525.975;  182.375;    0.000
482.577; 9674.975;  223.375;    0.000
482.713; 9684.975;  243.375;    0.000
482.849; 9863.975;  197.375;    0.000
482.985; 9581.975;  240.375;    0.000
483.121; 9697.975;  210.375;    0.000
483.258; 9724.975;  248.375;    0.000
483.394; 9571.975;  224.375;    0.000
483.530; 9692.975;  209.375;    0.000
483.665; 9701.975;  225.375;    0.000
483.801; 9723.975;  216.375;    0.000
483.937; 9757.975;  211.375;    0.000
484.073; 9850.975;  259.375;    0.000
484.209; 9777.975;  191.375;    0.000
484.345; 9897.975;  239.375;    0.000
484.481;10040.975;  231.375;    0.000
484.617; 9925.975;  216.375;    0.000
484.753; 9916.975;  180.375;    0.000
484.889;10011.975;  252.375;    0.000
485.025;10001.975;  244.375;    0.000
485.161; 9909.975;  242.375;    0.000
485.296; 9959.975;  235.375;    0.000
485.432; 9951.975;  247.375;    0.000
485.568;10002.975;  203.375;    0.000
485.704; 9873.975;  229.375;    0.000
485.840;10039.975;  230.375;    0.000
485.975; 9918.975;  266.375;    0.000
486.111;10092.975;  220.375;    0.000
486.247;10218.975;  264.375;    0.000
486.383;10167.975;  213.375;    0.000
486.518;10048.975;  222.375;    0.000
486.654;10032.975;  244.375;    0.000
486.790;10053.975;  273.375;    0.000
486.926;10048.975;  203.375;    0.000
487.061;10058.975;  227.375;    0.000
487.197; 9983.975;  210.375;    0.000
487.333; 9945.975;  209.375;    0.000
487.468; 9783.975;  197.375;    0.000
487.604; 9973.975;  230.375;    0.000
487.740; 9872.975;  254.375;    0.000
487.875; 9854.975;  286.375;    0.000
488.011; 9997.975;  225.375;    0.000
488.146; 9996.975;  251.375;    0.000
488.282; 9945.975;  242.375;    0.000
488.417; 9975.975;  230.375;    0.000
488.553; 9706.975;  260.375;    0.000
488.688;10043.975;  207.375;    0.000
488.824; 9805.975;  204.375;    0.000
488.960; 9881.975;  248.375;    0.000
489.095; 9784.975;  204.375;    0.000
489.230; 9928.975;  227.375;    0.000
489.366;10004.975;  226.375;    0.000
489.501;10129.975;  199.375;    0.000
489.637;10011.975;  233.375;    0.000
489.772;10043.975;  249.375;    0.000
489.908; 9953.975;  200.375;    0.000
490.043;10127.975;  246.375;    0.000
490.178;10039.975;  222.375;    0.000
490.314;10036.975;  219.375;    0.000
490.449;10060.975;  227.375;    0.000
490.585;10051.975;  209.375;    0.000
490.720;10000.975;  238.375;    0.000
490.855;10076.975;  222.375;    0.000
490.991;10057.975;  202.375;    0.000
491.126;10133.975;  272.375;    0.000
491.261;10034.975;  261.375;    0.000
491.396; 9855.975;  190.375;    0.000
491.532; 9943.975;  202.375;    0.000
491.667;10107.975;  208.375;    0.000
491.802;10051.975;  203.375;    0.000
491.937;10030.975;  253.375;    0.000
492.073;10254.975;  242.375;    0.000
492.208;10224.975;  230.375;    0.000
492.343;10192.975;  183.375;    0.000
492.478;10448.975;  246.375;    0.000
492.613;10342.975;  223.375;    0.000
492.749;10494.975;  230.375;    0.000
492.884;10157.975;  190.375;    0.000
493.019;10209.975;  234.375;    0.000
493.154;10245.975;  218.375;    0.000
493.289;10200.975;  222.375;    0.000
493.424;10354.975;  196.375;    0.000
493.559;10341.975;  202.375;    0.000
493.694;10161.975;  180.375;    0.000
493.829;10209.975;  224.375;    0.000
493.964;10219.975;  218.375;    0.000
494.099;10284.975;  275.375;    0.000
494.234;10291.975;  226.375;    0.000
494.369;10275.975;  225.375;    0.000
494.504;10247.975;  219.375;    0.000
494.639;10344.975;  296.375;    0.000
494.774;10173.975;  228.375;    0.000
494.909;10232.975;  222.375;    0.000
495.044;10244.975;  215.375;    0.000
495.179;10162.975;  200.375;    0.000
495.314;10115.975;  235.375;    0.000
495.449;10303.975;  249.375;    0.000
495.584;10279.975;  228.375;    0.000
495.719;10227.975;  212.375;    0.000
495.854;10292.975;  201.375;    0.000
495.988;10294.975;  248.375;    0.000
496.123;10382.975;  209.375;    0.000
496.258;10492.975;  249.375;    0.000
496.393;10598.975;  223.375;    0.000
496.528;10561.975;  209.375;    0.000
496.663;10672.975;  207.375;    0.000
496.797;10734.975;  229.375;    0.000
496.932;10747.975;  225.375;    0.000
497.067;11004.975;  218.375;    0.000
497.202;11007.975;  163.375;    0.000
497.336;11297.975;  246.375;    0.000
497.471;11326.975;  229.375;    0.000
497.606;11490.975;  251.375;    0.000
497.740;11843.975;  220.375;    0.000
497.875;12086.975;  216.375;    0.000
498.010;12261.975;  226.375;    0.000
498.144;12606.975;  237.375;    0.000
498.279;12946.975;  196.375;    0.000
498.414;13202.975;  219.375;    0.000
498.548;13452.975;  205.375;    0.000
498.683;13741.975;  206.375;    0.000
498.817;14194.975;  225.375;    0.000
498.952;14476.975;  221.375;    0.000
499.087;14956.975;  220.375;    0.000
499.221;15665.975;  233.375;    0.000
499.356;16325.975;  230.375;    0.000
499.490;16762.975;  229.375;    0.000
499.625;17425.975;  231.375;    0.000
499.759;18361.975;  243.375;    0.000
499.894;19247.975;  241.375;    0.000
500.028;20289.975;  264.375;    0.000
500.162;21052.975;  287.375;    0.000
500.297;21331.975;  234.375;    0.000
500.431;21555.975;  230.375;    0.000
500.566;21308.975;  213.375;    0.000
500.700;20959.975;  243.375;    0.000
500.835;20313.975;  272.375;    0.000
500.969;19350.975;  188.375;    0.000
501.103;18468.975;  200.375;    0.000
501.238;17813.975;  257.375;    0.000
501.372;16710.975;  224.375;    0.000
501.506;16095.975;  225.375;    0.000
501.641;15678.975;  271.375;    0.000
501.775;14845.975;  199.375;    0.000
501.909;14053.975;  249.375;    0.000
502.043;13904.975;  211.375;    0.000
502.178;13734.975;  269.375;    0.000
502.312;13116.975;  198.375;    0.000
502.446;12775.975;  256.375;    0.000
502.580;12573.975;  195.375;    0.000
502.715;12541.975;  224.375;    0.000
502.849;12368.975;  245.375;    0.000
502.983;11921.975;  250.375;    0.000
503.117;11780.975;  193.375;    0.000
503.251;11765.975;  242.375;    0.000
503.385;11555.975;  227.375;    0.000
503.520;11189.975;  235.375;    0.000
503.654;10973.975;  220.375;    0.000
503.788;10967.975;  267.375;    0.000
503.922;10863.975;  220.375;    0.000
504.056;10946.975;  238.375;    0.000
504.190;10897.975;  212.375;    0.000
504.324;10817.975;  265.375;    0.000
504.458;10790.975;  228.375;    0.000
504.592;10750.975;  231.375;    0.000
504.726;10550.975;  218.375;    0.000
504.860;10311.975;  253.375;    0.000
504.994;10051.975;  217.375;    0.000
505.128; 9882.975;  243.375;    0.000
505.262; 9664.975;  194.375;    0.000
505.396; 9498.975;  210.375;    0.000
505.530; 9326.975;  211.375;    0.000
505.664; 9180.975;  219.375;    0.000
505.798; 9034.975;  240.375;    0.000
505.932; 8945.975;  240.375;    0.000
506.066; 9012.975;  252.375;    0.000
506.199; 8776.975;  242.375;    0.000
506.333; 8715.975;  244.375;    0.000
506.467; 8588.975;  223.375;    0.000
506.601; 8497.975;  183.375;    0.000
506.735; 8525.975;  249.375;    0.000
506.869; 8527.975;  270.375;    0.000
507.002; 8438.975;  207.375;    0.000
507.136; 8263.975;  242.375;    0.000
507.270; 8267.975;  232.375;    0.000
507.404; 8221.975;  195.375;    0.000
507.537; 8250.975;  218.375;    0.000
507.671; 8166.975;  246.375;    0.000
507.805; 8016.975;  244.375;    0.000
507.939; 8068.975;  251.375;    0.000
508.072; 8129.975;  212.375;    0.000
508.206; 7994.975;  198.375;    0.000
508.340; 8004.975;  234.375;    0.000
508.473; 7909.975;  217.375;    0.000
508.607; 7877.975;  224.375;    0.000
508.740; 7861.975;  207.375;    0.000
508.874; 7898.975;  230.375;    0.000
509.008; 7957.975;  246.375;    0.000
509.141; 7879.975;  239.375;    0.000
509.275; 7807.975;  229.375;    0.000
509.408; 7789.975;  234.375;    0.000
509.542; 7728.975;  212.375;    0.000
509.675; 7799.975;  256.375;    0.000
509.809; 7642.975;  232.375;    0.000
509.942; 7622.975;  237.375;    0.000
510.076; 7639.975;  226.375;    0.000
510.209; 7645.975;  251.375;    0.000
510.343; 7554.975;  229.375;    0.000
510.476; 7600.975;  285.375;    0.000
510.610; 7660.975;  211.375;    0.000
510.743; 7468.975;  258.375;    0.000
510.877; 7535.975;  244.375;    0.000
511.010; 7430.975;  235.375;    0.000
511.143; 7471.975;  251.375;    0.000
511.277; 7501.975;  228.375;    0.000
511.410; 7309.975;  216.375;    0.000
511.543; 7326.975;  231.375;    0.000
511.677; 7288.975;  244.375;    0.000
511.810; 7398.975;  186.375;    0.000
511.943; 7453.975;  211.375;    0.000
512.077; 7331.975;  201.375;    0.000
512.210; 7308.975;  194.375;    0.000
512.343; 7365.975;  233.375;    0.000
512.476; 7486.975;  234.375;    0.000
512.610; 7181.975;  224.375;    0.000
512.743; 7430.975;  255.375;    0.000
512.876; 7387.975;  264.375;    0.000
513.009; 7433.975;  283.375;    0.000
513.142; 7446.975;  246.375;    0.000
513.276; 7281.975;  217.375;    0.000
513.409; 7306.975;  222.375;    0.000
513.542; 7360.975;  237.375;    0.000
513.675; 7395.975;  238.375;    0.000
513.808; 7326.975;  220.375;    0.000
513.941; 7239.975;  233.375;    0.000
514.074; 7254.975;  248.375;    0.000
514.207; 7283.975;  233.375;    0.000
514.340; 7390.975;  190.375;    0.000
514.474; 7456.975;  221.375;    0.000
514.607; 7476.975;  213.375;    0.000
514.740; 7506.975;  251.375;    0.000
514.873; 7586.975;  257.375;    0.000
515.006; 7738.975;  268.375;    0.000
515.139; 7563.975;  257.375;    0.000
515.272; 7585.975;  227.375;    0.000
515.404; 7744.975;  238.375;    0.000
515.537; 7672.975;  275.375;    0.000
515.670; 7766.975;  239.375;    0.000
515.803; 7728.975;  223.375;    0.000
515.936; 7849.975;  202.375;    0.000
516.069; 7989.975;  188.375;    0.000
516.202; 8075.975;  240.375;    0.000
516.335; 8270.975;  252.375;    0.000
516.468; 8699.975;  254.375;    0.000
516.600; 9643.975;  254.375;    0.000
516.733;11077.975;  255.375;    0.000
516.866;11242.975;  265.375;    0.000
516.999;10676.975;  251.375;    0.000
517.132;12364.975;  256.375;    0.000
517.264;15992.975;  202.375;    0.000
517.397;15951.975;  248.375;    0.000
517.530;12830.975;  221.375;    0.000
517.663;11273.975;  244.375;    0.000
517.795;10555.975;  245.375;    0.000
517.928;10275.975;  236.375;    0.000
518.061;10324.975;  219.375;    0.000
518.193;12486.975;  251.375;    0.000
518.326;17867.975;  271.375;    0.000
518.459;18974.975;  207.375;    0.000
518.591;14998.975;  217.375;    0.000
518.724;11569.975;  200.375;    0.000
518.857;10104.975;  204.375;    0.000
518.989; 9602.975;  242.375;    0.000
519.122; 9246.975;  254.375;    0.000
519.254; 8734.975;  239.375;    0.000
519.387; 8311.975;  235.375;    0.000
519.519; 8157.975;  227.375;    0.000
519.652; 8030.975;  178.375;    0.000
519.784; 8020.975;  226.375;    0.000
519.917; 7770.975;  256.375;    0.000
520.049; 7828.975;  234.375;    0.000
520.182; 7435.975;  258.375;    0.000
520.314; 7614.975;  298.375;    0.000
520.447; 7359.975;  204.375;    0.000
520.579; 7580.975;  235.375;    0.000
520.712; 7345.975;  208.375;    0.000
520.844; 7156.975;  272.375;    0.000
520.976; 7292.975;  234.375;    0.000
521.109; 7068.975;  235.375;    0.000
521.241; 7105.975;  250.375;    0.000
521.373; 6955.975;  233.375;    0.000
521.506; 6993.975;  231.375;    0.000
521.638; 6883.975;  258.375;    0.000
521.770; 6855.975;  226.375;    0.000
521.903; 6801.975;  258.375;    0.000
522.035; 6590.975;  263.375;    0.000
522.167; 6563.975;  214.375;    0.000
522.300; 6720.975;  212.375;    0.000
522.432; 6610.975;  220.375;    0.000
522.564; 6461.975;  228.375;    0.000
522.696; 6622.975;  272.375;    0.000
522.828; 6490.975;  222.375;    0.000
522.961; 6403.975;  205.375;    0.000
523.093; 6582.975;  253.375;    0.000
523.225; 6425.975;  239.375;    0.000
523.357; 6374.975;  263.375;    0.000
523.489; 6294.975;  264.375;    0.000
523.621; 6358.975;  259.375;    0.000
523.753; 6338.975;  233.375;    0.000
523.885; 6353.975;  232.375;    0.000
524.018; 6176.975;  214.375;    0.000
524.150; 6252.975;  235.375;    0.000
524.282; 6254.975;  242.375;    0.000
524.414; 6328.975;  261.375;    0.000
524.546; 6191.975;  233.375;    0.000
524.678; 6209.975;  242.375;    0.000
524.810; 6077.975;  216.375;    0.000
524.942; 6080.975;  220.375;    0.000
525.074; 6061.975;  249.375;    0.000
525.206; 6016.975;  227.375;    0.000
525.338; 6093.975;  250.375;    0.000
525.469; 5959.975;  231.375;    0.000
525.601; 6027.975;  245.375;    0.000
525.733; 6021.975;  187.375;    0.000
525.865; 5999.975;  280.375;    0.000
525.997; 6053.975;  216.375;    0.000
526.129; 5986.975;  228.375;    0.000
526.261; 6020.975;  187.375;    0.000
526.393; 6009.975;  228.375;    0.000
526.524; 5982.975;  201.375;    0.000
526.656; 5973.975;  199.375;    0.000
526.788; 5950.975;  233.375;    0.000
526.920; 5887.975;  256.375;    0.000
527.052; 5819.975;  219.375;    0.000
527.183; 5826.975;  227.375;    0.000
527.315; 5861.975;  266.375;    0.000
527.447; 5758.975;  239.375;    0.000
527.578; 5842.975;  213.375;    0.000
527.710; 5800.975;  216.375;    0.000
527.842; 5730.975;  240.375;    0.000
527.973; 5825.975;  286.375;    0.000
528.105; 5900.975;  222.375;    0.000
528.237; 5824.975;  223.375;    0.000
528.368; 5827.975;  211.375;    0.000
528.500; 5942.975;  215.375;    0.000
528.632; 5885.975;  216.375;    0.000
528.763; 5749.975;  234.375;    0.000
528.895; 5803.975;  196.375;    0.000
529.026; 5858.975;  202.375;    0.000
529.158; 5782.975;  226.375;    0.000
529.289; 5977.975;  229.375;    0.000
529.421; 5893.975;  264.375;    0.000
529.552; 5864.975;  265.375;    0.000
529.684; 5882.975;  260.375;    0.000
529.815; 5900.975;  284.375;    0.000
529.947; 5847.975;  237.375;    0.000
530.078; 5709.975;  223.375;    0.000
530.210; 5751.975;  223.375;    0.000
530.341; 5836.975;  209.375;    0.000
530.472; 5769.975;  203.375;    0.000
530.604; 5820.975;  223.375;    0.000
530.735; 5889.975;  218.375;    0.000
530.867; 5938.975;  222.375;    0.000
530.998; 5821.975;  239.375;    0.000
531.129; 5947.975;  250.375;    0.000
531.260; 5891.975;  224.375;    0.000
531.392; 6107.975;  216.375;    0.000
531.523; 6000.975;  234.375;    0.000
531.654; 6107.975;  256.375;    0.000
531.786; 5988.975;  226.375;    0.000
531.917; 6130.975;  239.375;    0.000
532.048; 6006.975;  205.375;    0.000
532.179; 6111.975;  244.375;    0.000
532.311; 5886.975;  235.375;    0.000
532.442; 6055.975;  258.375;    0.000
532.573; 5966.975;  220.375;    0.000
532.704; 5940.975;  213.375;    0.000
532.835; 5918.975;  249.375;    0.000
532.966; 5862.975;  226.375;    0.000
533.097; 5850.975;  246.375;    0.000
533.229; 5874.975;  237.375;    0.000
533.360; 5853.975;  225.375;    0.000
533.491; 5870.975;  241.375;    0.000
533.622; 5824.975;  242.375;    0.000
533.753; 5878.975;  264.375;    0.000
533.884; 5932.975;  245.375;    0.000
534.015; 6115.975;  269.375;    0.000
534.146; 5952.975;  267.375;    0.000
534.277; 6039.975;  282.375;    0.000
534.408; 5954.975;  229.375;    0.000
534.539; 6009.975;  269.375;    0.000
534.670; 6026.975;  231.375;    0.000
534.801; 5847.975;  260.375;    0.000
534.932; 5732.975;  232.375;    0.000
535.063; 5830.975;  227.375;    0.000
535.194; 5993.975;  281.375;    0.000
535.324; 5780.975;  206.375;    0.000
535.455; 5724.975;  257.375;    0.000
535.586; 5799.975;  275.375;    0.000
535.717; 5752.975;  206.375;    0.000
535.848; 5849.975;  271.375;    0.000
535.979; 5671.975;  250.375;    0.000
536.109; 5677.975;  253.375;    0.000
536.240; 5774.975;  234.375;    0.000
536.371; 5705.975;  230.375;    0.000
536.502; 5675.975;  270.375;    0.000
536.632; 5674.975;  228.375;    0.000
536.763; 5683.975;  249.375;    0.000
536.894; 5626.975;  262.375;    0.000
537.025; 5567.975;  258.375;    0.000
537.155; 5602.975;  278.375;    0.000
537.286; 5584.975;  209.375;    0.000
537.417; 5656.975;  255.375;    0.000
537.547; 5576.975;  208.375;    0.000
537.678; 5600.975;  224.375;    0.000
537.808; 5584.975;  224.375;    0.000
537.939; 5661.975;  257.375;    0.000
538.070; 5555.975;  240.375;    0.000
538.200; 5537.975;  259.375;    0.000
538.331; 5587.975;  235.375;    0.000
538.461; 5455.975;  251.375;    0.000
538.592; 5577.975;  245.375;    0.000
538.722; 5628.975;  239.375;    0.000
538.853; 5597.975;  216.375;    0.000
538.983; 5496.975;  226.375;    0.000
539.114; 5566.975;  240.375;    0.000
539.244; 5559.975;  237.375;    0.000
539.375; 5647.975;  198.375;    0.000
539.505; 5429.975;  263.375;    0.000
539.636; 5527.975;  226.375;    0.000
539.766; 5608.975;  229.375;    0.000
539.896; 5496.975;  219.375;    0.000
540.027; 5636.975;  246.375;    0.000
540.157; 5543.975;  218.375;    0.000
540.287; 5562.975;  216.375;    0.000
540.418; 5699.975;  267.375;    0.000
540.548; 5661.975;  260.375;    0.000
540.678; 5597.975;  242.375;    0.000
540.809; 5564.975;  260.375;    0.000
540.939; 5582.975;  257.375;    0.000
541.069; 5596.975;  226.375;    0.000
541.200; 5627.975;  227.375;    0.000
541.330; 5589.975;  218.375;    0.000
541.460; 5661.975;  223.375;    0.000
541.590; 5702.975;  237.375;    0.000
541.720; 5623.975;  222.375;    0.000
541.851; 5660.975;  250.375;    0.000
541.981; 5635.975;  222.375;    0.000
542.111; 5671.975;  212.375;    0.000
542.241; 5774.975;  205.375;    0.000
542.371; 5794.975;  202.375;    0.000
542.501; 5861.975;  218.375;    0.000
542.631; 6010.975;  222.375;    0.000
542.761; 5892.975;  249.375;    0.000
542.891; 6038.975;  173.375;    0.000
543.021; 5974.975;  218.375;    0.000
543.151; 6059.975;  222.375;    0.000
543.281; 5914.975;  188.375;    0.000
543.411; 5855.975;  239.375;    0.000
543.542; 5854.975;  215.375;    0.000
543.671; 5878.975;  250.375;    0.000
543.801; 5938.975;  212.375;    0.000
543.931; 5956.975;  233.375;    0.000
544.061; 5914.975;  194.375;    0.000
544.191; 6014.975;  218.375;    0.000
544.321; 5752.975;  220.375;    0.000
544.451; 5896.975;  183.375;    0.000
544.581; 5891.975;  221.375;    0.000
544.711; 6012.975;  224.375;    0.000
544.841; 6032.975;  214.375;    0.000
544.970; 6157.975;  227.375;    0.000
545.100; 6219.975;  186.375;    0.000
545.230; 6280.975;  205.375;    0.000
545.360; 6367.975;  211.375;    0.000
545.490; 6053.975;  202.375;    0.000
545.619; 6179.975;  182.375;    0.000
545.749; 6074.975;  174.375;    0.000
545.879; 5993.975;  169.375;    0.000
546.009; 6102.975;  182.375;    0.000
546.138; 5913.975;  200.375;    0.000
546.268; 5896.975;  204.375;    0.000
546.398; 5884.975;  200.375;    0.000
546.527; 5977.975;  179.375;    0.000
546.657; 5936.975;  162.375;    0.000
546.786; 5987.975;  179.375;    0.000
546.916; 5977.975;  221.375;    0.000
547.046; 5993.975;  179.375;    0.000
547.175; 6089.975;  168.375;    0.000
547.305; 6019.975;  200.375;    0.000
547.434; 5988.975;  166.375;    0.000
547.564; 5981.975;  177.375;    0.000
547.693; 6013.975;  152.375;    0.000
547.823; 6111.975;  171.375;    0.000
547.953; 6086.975;  195.375;    0.000
548.082; 5989.975;  214.375;    0.000
548.211; 5935.975;  177.375;    0.000
548.341; 5947.975;  189.375;    0.000
548.470; 6010.975;  194.375;    0.000
548.600; 5940.975;  172.375;    0.000
548.729; 6009.975;  158.375;    0.000
548.859; 5952.975;  193.375;    0.000
548.988; 6070.975;  131.375;    0.000
549.117; 6048.975;  204.375;    0.000
549.247; 5999.975;  191.375;    0.000
549.376; 5997.975;  202.375;    0.000
549.505; 6137.975;  187.375;    0.000
549.635; 6074.975;  198.375;    0.000
549.764; 6001.975;  155.375;    0.000
549.893; 6204.975;  176.375;    0.000
550.023; 6091.975;  202.375;    0.000
550.152; 6111.975;  168.375;    0.000
550.281; 6068.975;  180.375;    0.000
550.410; 6145.975;  180.375;    0.000
550.539; 6123.975;  181.375;    0.000
550.669; 6146.975;  168.375;    0.000
550.798; 6274.975;  223.375;    0.000
550.927; 6109.975;  179.375;    0.000
551.056; 6185.975;  159.375;    0.000
551.185; 6180.975;  199.375;    0.000
551.314; 6070.975;  185.375;    0.000
551.443; 6130.975;  172.375;    0.000
551.573; 6235.975;  158.375;    0.000
551.702; 6115.975;  210.375;    0.000
551.831; 6107.975;  238.375;    0.000
551.960; 6276.975;  191.375;    0.000
552.089; 6302.975;  195.375;    0.000
552.218; 6438.975;  196.375;    0.000
552.347; 6520.975;  194.375;    0.000
552.476; 6476.975;  192.375;    0.000
552.605; 6645.975;  172.375;    0.000
552.734; 6668.975;  214.375;    0.000
552.863; 6744.975;  177.375;    0.000
552.992; 6711.975;  190.375;    0.000
553.121; 6717.975;  185.375;    0.000
553.249; 6683.975;  175.375;    0.000
553.378; 6769.975;  192.375;    0.000
553.507; 6775.975;  193.375;    0.000
553.636; 6614.975;  182.375;    0.000
553.765; 6691.975;  187.375;    0.000
553.894; 6530.975;  214.375;    0.000
554.023; 6411.975;  217.375;    0.000
554.151; 6374.975;  223.375;    0.000
554.280; 6422.975;  170.375;    0.000
554.409; 6354.975;  172.375;    0.000
554.538; 6376.975;  182.375;    0.000
554.666; 6248.975;  195.375;    0.000
554.795; 6158.975;  176.375;    0.000
554.924; 6192.975;  164.375;    0.000
555.052; 6276.975;  171.375;    0.000
555.181; 6237.975;  208.375;    0.000
555.310; 6235.975;  214.375;    0.000
555.439; 6066.975;  193.375;    0.000
555.567; 5965.975;  189.375;    0.000
555.696; 6189.975;  196.375;    0.000
555.824; 6039.975;  183.375;    0.000
555.953; 6140.975;  234.375;    0.000
556.082; 5914.975;  183.375;    0.000
556.210; 6027.975;  199.375;    0.000
556.339; 6059.975;  201.375;    0.000
556.467; 5912.975;  208.375;    0.000
556.596; 6011.975;  194.375;    0.000
556.724; 5996.975;  170.375;    0.000
556.853; 5860.975;  166.375;    0.000
556.981; 5816.975;  185.375;    0.000
557.110; 5765.975;  213.375;    0.000
557.238; 5928.975;  188.375;    0.000
557.367; 5855.975;  176.375;    0.000
557.495; 5819.975;  180.375;    0.000
557.623; 5837.975;  193.375;    0.000
557.752; 5881.975;  207.375;    0.000
557.880; 5917.975;  189.375;    0.000
558.008; 5810.975;  169.375;    0.000
558.137; 5910.975;  203.375;    0.000
558.265; 5959.975;  167.375;    0.000
558.393; 5829.975;  204.375;    0.000
558.522; 5839.975;  203.375;    0.000
558.650; 5860.975;  215.375;    0.000
558.778; 5852.975;  190.375;    0.000
558.906; 5806.975;  186.375;    0.000
559.035; 5913.975;  193.375;    0.000
559.163; 5910.975;  198.375;    0.000
559.291; 5835.975;  222.375;    0.000
559.419; 5777.975;  192.375;    0.000
559.548; 5770.975;  186.375;    0.000
559.676; 5889.975;  199.375;    0.000
559.804; 5966.975;  186.375;    0.000
559.932; 5952.975;  202.375;    0.000
560.060; 5905.975;  183.375;    0.000
560.188; 6082.975;  212.375;    0.000
560.316; 5947.975;  192.375;    0.000
560.444; 6016.975;  180.375;    0.000
560.572; 5951.975;  206.375;    0.000
560.700; 6163.975;  184.375;    0.000
560.828; 6218.975;  177.375;    0.000
560.956; 6194.975;  221.375;    0.000
561.085; 6227.975;  227.375;    0.000
561.212; 6010.975;  208.375;    0.000
561.340; 6156.975;  189.375;    0.000
561.468; 6098.975;  189.375;    0.000
561.596; 6208.975;  183.375;    0.000
561.724; 6228.975;  188.375;    0.000
561.852; 6168.975;  183.375;    0.000
561.980; 6023.975;  209.375;    0.000
562.108; 6268.975;  165.375;    0.000
562.236; 6249.975;  188.375;    0.000
562.364; 6261.975;  177.375;    0.000
562.492; 6379.975;  192.375;    0.000
562.619; 6330.975;  187.375;    0.000
562.747; 6531.975;  217.375;    0.000
562.875; 6409.975;  221.375;    0.000
563.003; 6433.975;  199.375;    0.000
563.130; 6554.975;  191.375;    0.000
563.258; 6604.975;  186.375;    0.000
563.386; 6564.975;  191.375;    0.000
563.514; 6797.975;  217.375;    0.000
563.641; 6815.975;  220.375;    0.000
563.769; 6724.975;  186.375;    0.000
563.897; 6801.975;  158.375;    0.000
564.024; 7017.975;  192.375;    0.000
564.152; 7087.975;  217.375;    0.000
564.280; 7216.975;  203.375;    0.000
564.407; 7163.975;  190.375;    0.000
564.535; 7145.975;  188.375;    0.000
564.662; 7287.975;  199.375;    0.000
564.790; 7342.975;  227.375;    0.000
564.917; 7421.975;  160.375;    0.000
565.045; 7504.975;  222.375;    0.000
565.173; 7431.975;  169.375;    0.000
565.300; 7646.975;  208.375;    0.000
565.428; 7542.975;  174.375;    0.000
565.555; 7851.975;  201.375;    0.000
565.682; 7967.975;  180.375;    0.000
565.810; 8090.975;  165.375;    0.000
565.937; 8256.975;  167.375;    0.000
566.065; 8552.975;  190.375;    0.000
566.192; 8848.975;  169.375;    0.000
566.320; 9118.975;  167.375;    0.000
566.447; 9326.975;  151.375;    0.000
566.574; 9485.975;  176.375;    0.000
566.702; 9665.975;  198.375;    0.000
566.829; 9895.975;  209.375;    0.000
566.956; 9970.975;  186.375;    0.000
567.083; 9880.975;  188.375;    0.000
567.211;10135.975;  159.375;    0.000
567.338;10231.975;  204.375;    0.000
567.465;10330.975;  141.375;    0.000
567.593;10608.975;  168.375;    0.000
567.720;10713.975;  177.375;    0.000
567.847;10590.975;  160.375;    0.000
567.974;10644.975;  139.375;    0.000
568.101;10618.975;  153.375;    0.000
568.228;10983.975;  173.375;    0.000
568.356;11029.975;  149.375;    0.000
568.483;10372.975;  185.375;    0.000
568.610;10229.975;  170.375;    0.000
568.737;10842.975;  223.375;    0.000
568.864;11454.975;  167.375;    0.000
568.991;10919.975;  177.375;    0.000
569.118; 9983.975;  169.375;    0.000
569.245; 9107.975;  128.375;    0.000
569.372; 8824.975;  160.375;    0.000
569.499; 8454.975;  156.375;    0.000
569.626; 8356.975;  191.375;    0.000
569.753; 8178.975;  163.375;    0.000
569.880; 7964.975;  167.375;    0.000
570.007; 7729.975;  143.375;    0.000
570.134; 7772.975;  191.375;    0.000
570.261; 7551.975;  164.375;    0.000
570.388; 7630.975;  162.375;    0.000
570.515; 7463.975;  220.375;    0.000
570.642; 7429.975;  184.375;    0.000
570.768; 7533.975;  174.375;    0.000
570.895; 7442.975;  177.375;    0.000
571.022; 7384.975;  152.375;    0.000
571.149; 7332.975;  183.375;    0.000
571.276; 7207.975;  153.375;    0.000
571.402; 7199.975;  190.375;    0.000
571.529; 7118.975;  187.375;    0.000
571.656; 6851.975;  167.375;    0.000
571.783; 6811.975;  186.375;    0.000
571.909; 6912.975;  183.375;    0.000
572.036; 6668.975;  162.375;    0.000
572.163; 6766.975;  196.375;    0.000
572.289; 6692.975;  180.375;    0.000
572.416; 6646.975;  190.375;    0.000
572.543; 6599.975;  174.375;    0.000
572.669; 6523.975;  186.375;    0.000
572.796; 6572.975;  205.375;    0.000
572.922; 6471.975;  185.375;    0.000
573.049; 6502.975;  178.375;    0.000
573.176; 6394.975;  196.375;    0.000
573.302; 6394.975;  202.375;    0.000
573.429; 6455.975;  189.375;    0.000
573.555; 6402.975;  145.375;    0.000
573.682; 6288.975;  228.375;    0.000
573.808; 6252.975;  197.375;    0.000
573.935; 6320.975;  216.375;    0.000
574.061; 6408.975;  173.375;    0.000
574.188; 6402.975;  151.375;    0.000
574.314; 6427.975;  181.375;    0.000
574.440; 6345.975;  167.375;    0.000
574.567; 6365.975;  185.375;    0.000
574.693; 6343.975;  173.375;    0.000
574.820; 6414.975;  164.375;    0.000
574.946; 6232.975;  199.375;    0.000
575.072; 6333.975;  162.375;    0.000
575.198; 6287.975;  225.375;    0.000
575.325; 6288.975;  171.375;    0.000
575.451; 6182.975;  183.375;    0.000
575.577; 6123.975;  190.375;    0.000
575.704; 6273.975;  210.375;    0.000
575.830; 6120.975;  185.375;    0.000
575.956; 6059.975;  168.375;    0.000
576.082; 6144.975;  158.375;    0.000
576.208; 6152.975;  158.375;    0.000
576.335; 6061.975;  196.375;    0.000
576.461; 6139.975;  187.375;    0.000
576.587; 6158.975;  157.375;    0.000
576.713; 6175.975;  156.375;    0.000
576.839; 6097.975;  196.375;    0.000
576.965; 6247.975;  187.375;    0.000
577.091; 6122.975;  204.375;    0.000
577.217; 6232.975;  207.375;    0.000
577.343; 6094.975;  175.375;    0.000
577.469; 6137.975;  197.375;    0.000
577.596; 6114.975;  182.375;    0.000
577.722; 6188.975;  159.375;    0.000
577.848; 6095.975;  162.375;    0.000
577.974; 6072.975;  180.375;    0.000
578.099; 6037.975;  161.375;    0.000
578.225; 6070.975;  180.375;    0.000
578.351; 6085.975;  190.375;    0.000
578.477; 6120.975;  212.375;    0.000
578.603; 6187.975;  179.375;    0.000
578.729; 5969.975;  195.375;    0.000
578.855; 5948.975;  153.375;    0.000
578.981; 6137.975;  162.375;    0.000
579.107; 6119.975;  149.375;    0.000
579.232; 6194.975;  164.375;    0.000
579.358; 6091.975;  162.375;    0.000
579.484; 6243.975;  181.375;    0.000
579.610; 6119.975;  190.375;    0.000
579.735; 6128.975;  191.375;    0.000
579.861; 6084.975;  189.375;    0.000
579.987; 6060.975;  202.375;    0.000
580.113; 6120.975;  197.375;    0.000
580.238; 6142.975;  228.375;    0.000
580.364; 6275.975;  212.375;    0.000
580.490; 6303.975;  225.375;    0.000
580.615; 6263.975;  218.375;    0.000
580.741; 6083.975;  167.375;    0.000
580.867; 6276.975;  215.375;    0.000
580.992; 6232.975;  191.375;    0.000
581.118; 6320.975;  171.375;    0.000
581.243; 6268.975;  204.375;    0.000
581.369; 6240.975;  186.375;    0.000
581.494; 6337.975;  184.375;    0.000
581.620; 6285.975;  212.375;    0.000
581.745; 6311.975;  192.375;    0.000
581.871; 6495.975;  195.375;    0.000
581.996; 6247.975;  160.375;    0.000
582.122; 6323.975;  217.375;    0.000
582.247; 6353.975;  213.375;    0.000
582.373; 6452.975;  187.375;    0.000
582.498; 6406.975;  208.375;    0.000
582.624; 6494.975;  189.375;    0.000
582.749; 6646.975;  185.375;    0.000
582.874; 6493.975;  195.375;    0.000
583.000; 6615.975;  208.375;    0.000
583.125; 6602.975;  147.375;    0.000
583.250; 6682.975;  201.375;    0.000
583.376; 6808.975;  191.375;    0.000
583.501; 6789.975;  206.375;    0.000
583.626; 6706.975;  167.375;    0.000
583.751; 6778.975;  180.375;    0.000
583.877; 6794.975;  185.375;    0.000
584.002; 6857.975;  186.375;    0.000
584.127; 6925.975;  176.375;    0.000
584.252; 6936.975;  214.375;    0.000
584.377; 7004.975;  225.375;    0.000
584.503; 7162.975;  195.375;    0.000
584.628; 7247.975;  206.375;    0.000
584.753; 7143.975;  181.375;    0.000
584.878; 7305.975;  136.375;    0.000
585.003; 7579.975;  215.375;    0.000
585.128; 7478.975;  206.375;    0.000
585.253; 7628.975;  200.375;    0.000
585.378; 7810.975;  169.375;    0.000
585.503; 7791.975;  191.375;    0.000
585.628; 7818.975;  182.375;    0.000
585.753; 7944.975;  164.375;    0.000
585.878; 8165.975;  123.375;    0.000
586.003; 8150.975;  187.375;    0.000
586.128; 8418.975;  198.375;    0.000
586.253; 8566.975;  172.375;    0.000
586.378; 8733.975;  191.375;    0.000
586.503; 8911.975;  190.375;    0.000
586.628; 9306.975;  178.375;    0.000
586.753; 9570.975;  184.375;    0.000
586.878; 9690.975;  169.375;    0.000
587.003;10187.975;  186.375;    0.000
587.127;10352.975;  170.375;    0.000
587.252;10702.975;  170.375;    0.000
587.377;11342.975;  181.375;    0.000
587.502;11754.975;  209.375;    0.000
587.627;12566.975;  210.375;    0.000
587.751;13061.975;  212.375;    0.000
587.876;14028.975;  198.375;    0.000
588.001;15148.975;  161.375;    0.000
588.125;16412.975;  191.375;    0.000
588.250;18004.975;  132.375;    0.000
588.375;20543.975;  183.375;    0.000
588.499;23891.975;  176.375;    0.000
588.624;28671.975;  173.375;    0.000
588.749;35945.977;  204.375;    0.000
588.873;45675.977;  179.375;    0.000
588.998;55586.977;  182.375;    0.000
589.122;56786.977;  165.375;    0.000
589.247;49800.977;  185.375;    0.000
589.372;44605.977;  199.375;    0.000
589.496;46514.977;  182.375;    0.000
589.621;50912.977;  158.375;    0.000
589.745;48088.977;  213.375;    0.000
589.870;39139.977;  175.375;    0.000
589.994;31257.975;  194.375;    0.000
590.118;26140.975;  218.375;    0.000
590.243;22395.975;  170.375;    0.000
590.367;20033.975;  189.375;    0.000
590.492;17950.975;  196.375;    0.000
590.616;16683.975;  182.375;    0.000
590.740;15555.975;  210.375;    0.000
590.865;14520.975;  242.375;    0.000
590.989;13805.975;  191.375;    0.000
591.114;12970.975;  167.375;    0.000
591.238;12770.975;  194.375;    0.000
591.362;11942.975;  236.375;    0.000
591.486;11695.975;  194.375;    0.000
591.611;11301.975;  154.375;    0.000
591.735;11040.975;  186.375;    0.000
591.859;10710.975;  148.375;    0.000
591.983;10742.975;  211.375;    0.000
592.107;10310.975;  204.375;    0.000
592.232;10273.975;  194.375;    0.000
592.356;10093.975;  238.375;    0.000
592.480; 9868.975;  179.375;    0.000
592.604; 9956.975;  192.375;    0.000
592.728; 9852.975;  201.375;    0.000
592.852; 9645.975;  158.375;    0.000
592.976; 9629.975;  152.375;    0.000
593.100; 9513.975;  194.375;    0.000
593.224; 9439.975;  235.375;    0.000
593.349; 9209.975;  233.375;    0.000
593.473; 9159.975;  194.375;    0.000
593.597; 9027.975;  215.375;    0.000
593.721; 9079.975;  212.375;    0.000
593.844; 8848.975;  220.375;    0.000
593.968; 9055.975;  221.375;    0.000
594.092; 8874.975;  150.375;    0.000
594.216; 8808.975;  212.375;    0.000
594.340; 8518.975;  209.375;    0.000
594.464; 8491.975;  207.375;    0.000
594.588; 8424.975;  195.375;    0.000
594.712; 8046.975;  176.375;    0.000
594.836; 8227.975;  219.375;    0.000
594.959; 7894.975;  215.375;    0.000
595.083; 7806.975;  200.375;    0.000
595.207; 7687.975;  206.375;    0.000
595.331; 7540.975;  207.375;    0.000
595.455; 7496.975;  206.375;    0.000
595.578; 7360.975;  204.375;    0.000
595.702; 7260.975;  225.375;    0.000
595.826; 7132.975;  186.375;    0.000
595.949; 7135.975;  196.375;    0.000
596.073; 7069.975;  188.375;    0.000
596.197; 6887.975;  217.375;    0.000
596.320; 6901.975;  225.375;    0.000
596.444; 6939.975;  220.375;    0.000
596.568; 6682.975;  155.375;    0.000
596.691; 6673.975;  195.375;    0.000
596.815; 6592.975;  163.375;    0.000
596.938; 6629.975;  181.375;    0.000
597.062; 6484.975;  201.375;    0.000
597.186; 6428.975;  200.375;    0.000
597.309; 6377.975;  214.375;    0.000
597.433; 6345.975;  176.375;    0.000
597.556; 6333.975;  193.375;    0.000
597.680; 6183.975;  241.375;    0.000
597.803; 6417.975;  185.375;    0.000
597.926; 6273.975;  200.375;    0.000
598.050; 6207.975;  193.375;    0.000
598.173; 6223.975;  219.375;    0.000
598.297; 6034.975;  223.375;    0.000
598.420; 6173.975;  187.375;    0.000
598.543; 6041.975;  205.375;    0.000
598.667; 6054.975;  177.375;    0.000
598.790; 5984.975;  208.375;    0.000
598.913; 6070.975;  170.375;    0.000
599.037; 6015.975;  212.375;    0.000
599.160; 5983.975;  165.375;    0.000
599.283; 5972.975;  211.375;    0.000
599.406; 5877.975;  207.375;    0.000
599.530; 5894.975;  182.375;    0.000
599.653; 5982.975;  215.375;    0.000
599.776; 5840.975;  167.375;    0.000
599.899; 5965.975;  190.375;    0.000
600.022; 5825.975;  182.375;    0.000
600.145; 5696.975;  180.375;    0.000
600.269; 5920.975;  208.375;    0.000
600.392; 5707.975;  214.375;    0.000
600.515; 5681.975;  196.375;    0.000
600.638; 5609.975;  204.375;    0.000
600.761; 5773.975;  209.375;    0.000
600.884; 5551.975;  207.375;    0.000
601.007; 5638.975;  234.375;    0.000
601.130; 5527.975;  183.375;    0.000
601.253; 5591.975;  211.375;    0.000
601.376; 5633.975;  199.375;    0.000
601.499; 5580.975;  190.375;    0.000
601.622; 5690.975;  210.375;    0.000
601.745; 5536.975;  180.375;    0.000
601.868; 5550.975;  204.375;    0.000
601.991; 5599.975;  188.375;    0.000
602.113; 5623.975;  210.375;    0.000
602.236; 5524.975;  194.375;    0.000
602.359; 5539.975;  213.375;    0.000
602.482; 5420.975;  169.375;    0.000
602.605; 5454.975;  189.375;    0.000
602.728; 5466.975;  236.375;    0.000
602.850; 5389.975;  230.375;    0.000
602.973; 5472.975;  187.375;    0.000
603.096; 5523.975;  201.375;    0.000
603.219; 5548.975;  209.375;    0.000
603.341; 5480.975;  209.375;    0.000
603.464; 5467.975;  194.375;    0.000
603.587; 5423.975;  166.375;    0.000
603.709; 5382.975;  175.375;    0.000
603.832; 5563.975;  239.375;    0.000
603.955; 5397.975;  205.375;    0.000
604.077; 5426.975;  196.375;    0.000
604.200; 5378.975;  188.375;    0.000
604.323; 5296.975;  224.375;    0.000
604.445; 5372.975;  182.375;    0.000
604.568; 5339.975;  199.375;    0.000
604.690; 5300.975;  175.375;    0.000
604.813; 5362.975;  211.375;    0.000
604.935; 5407.975;  171.375;    0.000
605.058; 5345.975;  196.375;    0.000
605.180; 5330.975;  194.375;    0.000
605.303; 5231.975;  198.375;    0.000
605.425; 5260.975;  212.375;    0.000
605.547; 5364.975;  238.375;    0.000
605.670; 5267.975;  207.375;    0.000
605.792; 5320.975;  204.375;    0.000
605.915; 5320.975;  198.375;    0.000
606.037; 5353.975;  215.375;    0.000
606.159; 5277.975;  170.375;    0.000
606.282; 5202.975;  194.375;    0.000
606.404; 5115.975;  207.375;    0.000
606.526; 5233.975;  208.375;    0.000
606.648; 5131.975;  174.375;    0.000
606.771; 5257.975;  170.375;    0.000
606.893; 5264.975;  182.375;    0.000
607.015; 5276.975;  180.375;    0.000
607.137; 5291.975;  187.375;    0.000
607.260; 5116.975;  202.375;    0.000
607.382; 5149.975;  226.375;    0.000
607.504; 5311.975;  208.375;    0.000
607.626; 5193.975;  229.375;    0.000
607.748; 5236.975;  170.375;    0.000
607.870; 5133.975;  208.375;    0.000
607.992; 5149.975;  184.375;    0.000
608.114; 5164.975;  213.375;    0.000
608.237; 5155.975;  237.375;    0.000
608.359; 5045.975;  176.375;    0.000
608.481; 5069.975;  173.375;    0.000
608.603; 5133.975;  189.375;    0.000
608.725; 5239.975;  185.375;    0.000
608.847; 5116.975;  239.375;    0.000
608.969; 5171.975;  237.375;    0.000
609.090; 5191.975;  189.375;    0.000
609.212; 5137.975;  147.375;    0.000
609.334; 5056.975;  177.375;    0.000
609.456; 5203.975;  196.375;    0.000
609.578; 5064.975;  199.375;    0.000
609.700; 5074.975;  167.375;    0.000
609.822; 5035.975;  140.375;    0.000
609.944; 5177.975;  225.375;    0.000
610.065; 5172.975;  183.375;    0.000
610.187; 5077.975;  170.375;    0.000
610.309; 5104.975;  210.375;    0.000
610.431; 5100.975;  185.375;    0.000
610.552; 5031.975;  197.375;    0.000
610.674; 5065.975;  188.375;    0.000
610.796; 5001.975;  162.375;    0.000
610.918; 5027.975;  200.375;    0.000
611.039; 4977.975;  209.375;    0.000
611.161; 5076.975;  201.375;    0.000
611.282; 5023.975;  197.375;    0.000
611.404; 5067.975;  220.375;    0.000
611.526; 5016.975;  159.375;    0.000
611.647; 5059.975;  205.375;    0.000
611.769; 5045.975;  161.375;    0.000
611.890; 5020.975;  173.375;    0.000
612.012; 5126.975;  225.375;    0.000
612.133; 4989.975;  188.375;    0.000
612.255; 5132.975;  217.375;    0.000
612.377; 4955.975;  219.375;    0.000
612.498; 4937.975;  177.375;    0.000
612.619; 5048.975;  211.375;    0.000
612.741; 4907.975;  185.375;    0.000
612.862; 4935.975;  191.375;    0.000
612.984; 5032.975;  190.375;    0.000
613.105; 4973.975;  211.375;    0.000
613.226; 4911.975;  174.375;    0.000
613.348; 5080.975;  235.375;    0.000
613.469; 4984.975;  230.375;    0.000
613.590; 5097.975;  208.375;    0.000
613.712; 4881.975;  244.375;    0.000
613.833; 4924.975;  202.375;    0.000
613.954; 4841.975;  228.375;    0.000
614.076; 4919.975;  220.375;    0.000
614.197; 4969.975;  191.375;    0.000
614.318; 4889.975;  201.375;    0.000
614.439; 4883.975;  212.375;    0.000
614.560; 4977.975;  219.375;    0.000
614.682; 4896.975;  189.375;    0.000
614.803; 5033.975;  188.375;    0.000
614.924; 5101.975;  225.375;    0.000
615.045; 5012.975;  227.375;    0.000
615.166; 5097.975;  200.375;    0.000
615.287; 5289.975;  195.375;    0.000
615.408; 5453.975;  199.375;    0.000
615.529; 5559.975;  227.375;    0.000
615.650; 5329.975;  176.375;    0.000
615.771; 5351.975;  211.375;    0.000
615.892; 5269.975;  212.375;    0.000
616.013; 5849.975;  172.375;    0.000
616.134; 6140.975;  220.375;    0.000
616.255; 5899.975;  251.375;    0.000
616.376; 5460.975;  186.375;    0.000
616.497; 5381.975;  201.375;    0.000
616.618; 5217.975;  149.375;    0.000
616.739; 5207.975;  213.375;    0.000
616.860; 5172.975;  224.375;    0.000
616.981; 5169.975;  224.375;    0.000
617.102; 5129.975;  217.375;    0.000
617.222; 5173.975;  237.375;    0.000
617.343; 5084.975;  205.375;    0.000
617.464; 5055.975;  229.375;    0.000
617.585; 5085.975;  227.375;    0.000
617.705; 5069.975;  191.375;    0.000
617.826; 5121.975;  237.375;    0.000
617.947; 5041.975;  223.375;    0.000
618.068; 4956.975;  189.375;    0.000
618.188; 4883.975;  194.375;    0.000
618.309; 5113.975;  206.375;    0.000
618.430; 5003.975;  229.375;    0.000
618.550; 4979.975;  250.375;    0.000
618.671; 4937.975;  201.375;    0.000
618.791; 5010.975;  226.375;    0.000
618.912; 5007.975;  246.375;    0.000
619.033; 4896.975;  243.375;    0.000
619.153; 5032.975;  208.375;    0.000
619.274; 4819.975;  223.375;    0.000
619.394; 4834.975;  226.375;    0.000
619.515; 4832.975;  188.375;    0.000
619.635; 4905.975;  216.375;    0.000
619.756; 4899.975;  229.375;    0.000
619.876; 4944.975;  216.375;    0.000
619.996; 4924.975;  244.375;    0.000
620.117; 4819.975;  225.375;    0.000
620.237; 4789.975;  207.375;    0.000
620.358; 4896.975;  239.375;    0.000
620.478; 4811.975;  237.375;    0.000
620.598; 4813.975;  237.375;    0.000
620.719; 4868.975;  223.375;    0.000
620.839; 4815.975;  254.375;    0.000
620.959; 4829.975;  244.375;    0.000
621.079; 4806.975;  193.375;    0.000
621.200; 4761.975;  233.375;    0.000
621.320; 4865.975;  270.375;    0.000
621.440; 4776.975;  206.375;    0.000
621.560; 4797.975;  241.375;    0.000
621.681; 4668.975;  231.375;    0.000
621.801; 4891.975;  235.375;    0.000
621.921; 4885.975;  240.375;    0.000
622.041; 4811.975;  244.375;    0.000
622.161; 4797.975;  225.375;    0.000
622.281; 4671.975;  222.375;    0.000
622.401; 4764.975;  238.375;    0.000
622.521; 4689.975;  233.375;    0.000
622.641; 4612.975;  241.375;    0.000
622.761; 4761.975;  233.375;    0.000
622.882; 4624.975;  230.375;    0.000
623.002; 4741.975;  206.375;    0.000
623.121; 4709.975;  217.375;    0.000
623.241; 4685.975;  263.375;    0.000
623.361; 4617.975;  245.375;    0.000
623.481; 4681.975;  194.375;    0.000
623.601; 4629.975;  228.375;    0.000
623.721; 4715.975;  219.375;    0.000
623.841; 4695.975;  234.375;    0.000
623.961; 4657.975;  235.375;    0.000
624.081; 4567.975;  166.375;    0.000
624.201; 4593.975;  229.375;    0.000
624.320; 4684.975;  224.375;    0.000
624.440; 4502.975;  200.375;    0.000
624.560; 4641.975;  220.375;    0.000
624.680; 4622.975;  214.375;    0.000
624.799; 4635.975;  179.375;    0.000
624.919; 4539.975;  199.375;    0.000
625.039; 4622.975;  211.375;    0.000
625.159; 4701.975;  213.375;    0.000
625.278; 4562.975;  178.375;    0.000
625.398; 4620.975;  206.375;    0.000
625.518; 4556.975;  182.375;    0.000
625.637; 4612.975;  206.375;    0.000
625.757; 4493.975;  197.375;    0.000
625.876; 4588.975;  204.375;    0.000
625.996; 4585.975;  222.375;    0.000
626.115; 4533.975;  222.375;    0.000
626.235; 4565.975;  222.375;    0.000
626.354; 4523.975;  211.375;    0.000
626.474; 4631.975;  217.375;    0.000
626.594; 4549.975;  190.375;    0.000
626.713; 4505.975;  200.375;    0.000
626.832; 4639.975;  234.375;    0.000
626.952; 4504.975;  214.375;    0.000
627.071; 4540.975;  243.375;    0.000
627.191; 4565.975;  192.375;    0.000
627.310; 4403.975;  211.375;    0.000
627.429; 4488.975;  218.375;    0.000
627.549; 4439.975;  214.375;    0.000
627.668; 4493.975;  208.375;    0.000
627.787; 4615.975;  199.375;    0.000
627.907; 4576.975;  208.375;    0.000
628.026; 4439.975;  216.375;    0.000
628.145; 4524.975;  170.375;    0.000
628.264; 4503.975;  217.375;    0.000
628.384; 4548.975;  190.375;    0.000
628.503; 4521.975;  203.375;    0.000
628.622; 4500.975;  197.375;    0.000
628.741; 4441.975;  186.375;    0.000
628.860; 4516.975;  191.375;    0.000
628.980; 4495.975;  196.375;    0.000
629.099; 4603.975;  190.375;    0.000
629.218; 4393.975;  165.375;    0.000
629.337; 4487.975;  190.375;    0.000
629.456; 4577.975;  222.375;    0.000
629.575; 4476.975;  197.375;    0.000
629.694; 4364.975;  210.375;    0.000
629.813; 4447.975;  187.375;    0.000
629.932; 4326.975;  224.375;    0.000
630.051; 4417.975;  216.375;    0.000
630.170; 4459.975;  203.375;    0.000
630.289; 4499.975;  178.375;    0.000
630.408; 4374.975;  192.375;    0.000
630.527; 4418.975;  223.375;    0.000
630.646; 4407.975;  177.375;    0.000
630.764; 4442.975;  224.375;    0.000
630.883; 4354.975;  220.375;    0.000
631.002; 4290.975;  187.375;    0.000
631.121; 4416.975;  208.375;    0.000
631.240; 4454.975;  217.375;    0.000
631.359; 4456.975;  241.375;    0.000
631.477; 4440.975;  189.375;    0.000
631.596; 4430.975;  244.375;    0.000
631.715; 4463.975;  241.375;    0.000
631.834; 4356.975;  219.375;    0.000
631.952; 4409.975;  231.375;    0.000
632.071; 4447.975;  197.375;    0.000
632.190; 4316.975;  193.375;    0.000
632.308; 4406.975;  185.375;    0.000
632.427; 4291.975;  188.375;    0.000
632.546; 4335.975;  208.375;    0.000
632.664; 4380.975;  191.375;    0.000
632.783; 4249.975;  201.375;    0.000
632.901; 4312.975;  239.375;    0.000
633.020; 4226.975;  197.375;    0.000
633.138; 4352.975;  189.375;    0.000
633.257; 4261.975;  210.375;    0.000
633.375; 4293.975;  213.375;    0.000
633.494; 4261.975;  206.375;    0.000
633.612; 4336.975;  231.375;    0.000
633.731; 4363.975;  213.375;    0.000
633.849; 4297.975;  244.375;    0.000
633.968; 4239.975;  251.375;    0.000
634.086; 4317.975;  224.375;    0.000
634.204; 4321.975;  212.375;    0.000
634.323; 4470.975;  213.375;    0.000
634.441; 4317.975;  219.375;    0.000
634.559; 4326.975;  198.375;    0.000
634.678; 4305.975;  201.375;    0.000
634.796; 4293.975;  179.375;    0.000
634.914; 4298.975;  255.375;    0.000
635.032; 4305.975;  264.375;    0.000
635.151; 4258.975;  228.375;    0.000
635.269; 4295.975;  223.375;    0.000
635.387; 4403.975;  228.375;    0.000
635.505; 4302.975;  214.375;    0.000
635.623; 4287.975;  279.375;    0.000
635.742; 4340.975;  237.375;    0.000
635.860; 4296.975;  244.375;    0.000
635.978; 4330.975;  213.375;    0.000
636.096; 4144.975;  230.375;    0.000
636.214; 4308.975;  252.375;    0.000
636.332; 4207.975;  221.375;    0.000
636.450; 4325.975;  227.375;    0.000
636.568; 4146.975;  193.375;    0.000
636.686; 4207.975;  208.375;    0.000
636.804; 4197.975;  213.375;    0.000
636.922; 4308.975;  199.375;    0.000
637.040; 4261.975;  202.375;    0.000
637.158; 4258.975;  239.375;    0.000
637.276; 4338.975;  225.375;    0.000
637.394; 4329.975;  217.375;    0.000
637.512; 4329.975;  192.375;    0.000
637.629; 4317.975;  216.375;    0.000
637.747; 4262.975;  198.375;    0.000
637.865; 4296.975;  265.375;    0.000
637.983; 4311.975;  245.375;    0.000
638.101; 4237.975;  199.375;    0.000
638.218; 4193.975;  197.375;    0.000
638.336; 4194.975;  212.375;    0.000
638.454; 4263.975;  227.375;    0.000
638.572; 4200.975;  215.375;    0.000
638.689; 4253.975;  214.375;    0.000
638.807; 4217.975;  233.375;    0.000
638.925; 4184.975;  217.375;    0.000
639.042; 4232.975;  180.375;    0.000
639.160; 4227.975;  220.375;    0.000
639.278; 4149.975;  180.375;    0.000
639.395; 4137.975;  243.375;    0.000
639.513; 4183.975;  207.375;    0.000
639.630; 4223.975;  183.375;    0.000
639.748; 4154.975;  231.375;    0.000
639.865; 4075.975;  215.375;    0.000
639.983; 4145.975;  182.375;    0.000
640.100; 4186.975;  190.375;    0.000
640.218; 4142.975;  224.375;    0.000
640.335; 4170.975;  214.375;    0.000
640.453; 4140.975;  212.375;    0.000
640.570; 4131.975;  224.375;    0.000
640.688; 4170.975;  220.375;    0.000
640.805; 4104.975;  189.375;    0.000
640.922; 4164.975;  256.375;    0.000
641.040; 4179.975;  209.375;    0.000
641.157; 4160.975;  195.375;    0.000
641.274; 4146.975;  195.375;    0.000
641.391; 4171.975;  231.375;    0.000
641.509; 4229.975;  207.375;    0.000
641.626; 4124.975;  227.375;    0.000
641.743; 4115.975;  188.375;    0.000
641.860; 4184.975;  208.375;    0.000
641.978; 4240.975;  222.375;    0.000
642.095; 4093.975;  194.375;    0.000
642.212; 4255.975;  202.375;    0.000
642.329; 4174.975;  241.375;    0.000
642.446; 4109.975;  261.375;    0.000
642.563; 4067.975;  236.375;    0.000
642.681; 4193.975;  228.375;    0.000
642.798; 4172.975;  242.375;    0.000
642.915; 4294.975;  197.375;    0.000
643.032; 4255.975;  239.375;    0.000
643.149; 4156.975;  241.375;    0.000
643.266; 4145.975;  199.375;    0.000
643.383; 4157.975;  200.375;    0.000
643.500; 4222.975;  221.375;    0.000
643.617; 4172.975;  196.375;    0.000
643.734; 4121.975;  207.375;    0.000
643.850; 4099.975;  222.375;    0.000
643.967; 4197.975;  235.375;    0.000
644.084; 4316.975;  233.375;    0.000
644.201; 4219.975;  229.375;    0.000
644.318; 4137.975;  210.375;    0.000
644.435; 4192.975;  234.375;    0.000
644.552; 4265.975;  220.375;    0.000
644.668; 4295.975;  231.375;    0.000
644.785; 4226.975;  231.375;    0.000
644.902; 4323.975;  238.375;    0.000
645.019; 4233.975;  226.375;    0.000
645.135; 4201.975;  179.375;    0.000
645.252; 4218.975;  224.375;    0.000
645.369; 4260.975;  206.375;    0.000
645.485; 4444.975;  200.375;    0.000
645.602; 4351.975;  210.375;    0.000
645.719; 4309.975;  206.375;    0.000
645.835; 4286.975;  247.375;    0.000
645.952; 4391.975;  222.375;    0.000
646.068; 4367.975;  205.375;    0.000
646.185; 4448.975;  230.375;    0.000
646.302; 4333.975;  254.375;    0.000
646.418; 4408.975;  230.375;    0.000
646.535; 4332.975;  214.375;    0.000
646.651; 4432.975;  179.375;    0.000
646.768; 4469.975;  190.375;    0.000
646.884; 4469.975;  208.375;    0.000
647.000; 4461.975;  262.375;    0.000
647.117; 4439.975;  212.375;    0.000
647.233; 4579.975;  228.375;    0.000
647.350; 4467.975;  208.375;    0.000
647.466; 4595.975;  211.375;    0.000
647.582; 4691.975;  196.375;    0.000
647.699; 4626.975;  217.375;    0.000
647.815; 4756.975;  203.375;    0.000
647.931; 4740.975;  201.375;    0.000
648.047; 4632.975;  182.375;    0.000
648.164; 4700.975;  219.375;    0.000
648.280; 4704.975;  213.375;    0.000
648.396; 4667.975;  202.375;    0.000
648.512; 4765.975;  233.375;    0.000
648.629; 4731.975;  206.375;    0.000
648.745; 4831.975;  188.375;    0.000
648.861; 4711.975;  209.375;    0.000
648.977; 4718.975;  218.375;    0.000
649.093; 4657.975;  225.375;    0.000
649.209; 4780.975;  240.375;    0.000
649.325; 4720.975;  253.375;    0.000
649.441; 4788.975;  263.375;    0.000
649.557; 4828.975;  256.375;    0.000
649.673; 4811.975;  211.375;    0.000
649.789; 4723.975;  237.375;    0.000
649.905; 4719.975;  183.375;    0.000
650.021; 4717.975;  238.375;    0.000
650.137; 4709.975;  241.375;    0.000
650.253; 4768.975;  228.375;    0.000
650.369; 4690.975;  221.375;    0.000
650.485; 4826.975;  240.375;    0.000
650.601; 4795.975;  254.375;    0.000
650.717; 4877.975;  201.375;    0.000
650.833; 4873.975;  257.375;    0.000
650.948; 4922.975;  213.375;    0.000
651.064; 4908.975;  223.375;    0.000
651.180; 4842.975;  230.375;    0.000
651.296; 4917.975;  235.375;    0.000
651.411; 4879.975;  221.375;    0.000
651.527; 5020.975;  233.375;    0.000
651.643; 4955.975;  236.375;    0.000
651.759; 5158.975;  268.375;    0.000
651.874; 4999.975;  214.375;    0.000
651.990; 5116.975;  251.375;    0.000
652.105; 5077.975;  217.375;    0.000
652.221; 5282.975;  243.375;    0.000
652.337; 5138.975;  231.375;    0.000
652.452; 5338.975;  238.375;    0.000
652.568; 5279.975;  188.375;    0.000
652.683; 5391.975;  197.375;    0.000
652.799; 5262.975;  194.375;    0.000
652.914; 5374.975;  222.375;    0.000
653.030; 5458.975;  200.375;    0.000
653.145; 5614.975;  235.375;    0.000
653.261; 5618.975;  261.375;    0.000
653.376; 5646.975;  228.375;    0.000
653.492; 5764.975;  222.375;    0.000
653.607; 5776.975;  227.375;    0.000
653.722; 5858.975;  250.375;    0.000
653.838; 5898.975;  255.375;    0.000
653.953; 6002.975;  235.375;    0.000
654.068; 6167.975;  266.375;    0.000
654.184; 6203.975;  210.375;    0.000
654.299; 6472.975;  240.375;    0.000
654.414; 6374.975;  222.375;    0.000
654.530; 6498.975;  222.375;    0.000
654.645; 6642.975;  256.375;    0.000
654.760; 6836.975;  244.375;    0.000
654.875; 6959.975;  229.375;    0.000
654.990; 7122.975;  226.375;    0.000
655.106; 7240.975;  254.375;    0.000
655.221; 7572.975;  251.375;    0.000
655.336; 7741.975;  245.375;    0.000
655.451; 7908.975;  199.375;    0.000
655.566; 8140.975;  228.375;    0.000
655.681; 8273.975;  208.375;    0.000
655.796; 8757.975;  218.375;    0.000
655.911; 9061.975;  233.375;    0.000
656.026; 9319.975;  232.375;    0.000
656.141; 9819.975;  223.375;    0.000
656.256;10181.975;  247.375;    0.000
656.371;10239.975;  220.375;    0.000
656.486;10091.975;  225.375;    0.000
656.601;10080.975;  257.375;    0.000
656.716; 9844.975;  248.375;    0.000
656.831; 9675.975;  262.375;    0.000
656.946; 9404.975;  249.375;    0.000
657.060; 9284.975;  245.375;    0.000
657.175; 8811.975;  245.375;    0.000
657.290; 8483.975;  219.375;    0.000
657.405; 8576.975;  286.375;    0.000
657.520; 8277.975;  259.375;    0.000
657.634; 8077.975;  239.375;    0.000
657.749; 8022.975;  227.375;    0.000
657.864; 7826.975;  210.375;    0.000
657.979; 7513.975;  236.375;    0.000
658.093; 7549.975;  210.375;    0.000
658.208; 7321.975;  248.375;    0.000
658.323; 7012.975;  216.375;    0.000
658.437; 6972.975;  248.375;    0.000
658.552; 6883.975;  249.375;    0.000
658.666; 6795.975;  256.375;    0.000
658.781; 6669.975;  247.375;    0.000
658.895; 6637.975;  209.375;    0.000
659.010; 6473.975;  219.375;    0.000
659.125; 6200.975;  215.375;    0.000
659.239; 6206.975;  205.375;    0.000
659.353; 6213.975;  246.375;    0.000
659.468; 6033.975;  245.375;    0.000
659.582; 5985.975;  244.375;    0.000
659.697; 6113.975;  242.375;    0.000
659.811; 6070.975;  239.375;    0.000
659.926; 5977.975;  226.375;    0.000
660.040; 5763.975;  255.375;    0.000
660.154; 5787.975;  225.375;    0.000
660.269; 5723.975;  200.375;    0.000
660.383; 5674.975;  192.375;    0.000
660.497; 5741.975;  218.375;    0.000
660.612; 5646.975;  236.375;    0.000
660.726; 5750.975;  263.375;    0.000
660.840; 5604.975;  205.375;    0.000
660.954; 5400.975;  219.375;    0.000
661.068; 5335.975;  240.375;    0.000
661.183; 5342.975;  221.375;    0.000
661.297; 5264.975;  194.375;    0.000
661.411; 5299.975;  253.375;    0.000
661.525; 5207.975;  246.375;    0.000
661.639; 5240.975;  217.375;    0.000
661.753; 5094.975;  241.375;    0.000
661.867; 5117.975;  276.375;    0.000
661.981; 5004.975;  203.375;    0.000
662.095; 4826.975;  224.375;    0.000
662.209; 4721.975;  217.375;    0.000
662.323; 4702.975;  251.375;    0.000
662.437; 4673.975;  243.375;    0.000
662.551; 4671.975;  244.375;    0.000
662.665; 4768.975;  247.375;    0.000
662.779; 4683.975;  251.375;    0.000
662.893; 4616.975;  254.375;    0.000
663.007; 4475.975;  222.375;    0.000
663.121; 4520.975;  253.375;    0.000
663.235; 4521.975;  270.375;    0.000
663.349; 4332.975;  242.375;    0.000
663.462; 4363.975;  230.375;    0.000
663.576; 4444.975;  230.375;    0.000
663.690; 4371.975;  249.375;    0.000
663.804; 4445.975;  200.375;    0.000
663.917; 4245.975;  204.375;    0.000
664.031; 4336.975;  206.375;    0.000
664.145; 4137.975;  202.375;    0.000
664.258; 4216.975;  221.375;    0.000
664.372; 4139.975;  215.375;    0.000
664.486; 4121.975;  179.375;    0.000
664.599; 4161.975;  208.375;    0.000
664.713; 4185.975;  268.375;    0.000
664.827; 4087.975;  225.375;    0.000
664.940; 4026.975;  222.375;    0.000
665.054; 4043.975;  208.375;    0.000
665.167; 3995.975;  253.375;    0.000
665.281; 4011.975;  237.375;    0.000
665.394; 3970.975;  227.375;    0.000
665.508; 3938.975;  192.375;    0.000
665.621; 3982.975;  175.375;    0.000
665.735; 3932.975;  249.375;    0.000
665.848; 3930.975;  197.375;    0.000
665.961; 3982.975;  206.375;    0.000
666.075; 3912.975;  245.375;    0.000
666.188; 3858.975;  230.375;    0.000
666.301; 3899.975;  219.375;    0.000
666.415; 3836.975;  231.375;    0.000
666.528; 3890.975;  258.375;    0.000
666.641; 3865.975;  243.375;    0.000
666.755; 3756.975;  208.375;    0.000
666.868; 3790.975;  228.375;    0.000
666.981; 3853.975;  244.375;    0.000
667.094; 3804.975;  244.375;    0.000
667.207; 3843.975;  226.375;    0.000
667.321; 3667.975;  175.375;    0.000
667.434; 3626.975;  211.375;    0.000
667.547; 3647.975;  249.375;    0.000
667.660; 3633.975;  225.375;    0.000
667.773; 3672.975;  242.375;    0.000
667.886; 3648.975;  246.375;    0.000
667.999; 3628.975;  244.375;    0.000
668.112; 3536.975;  227.375;    0.000
668.225; 3619.975;  231.375;    0.000
668.338; 3597.975;  256.375;    0.000
668.451; 3633.975;  216.375;    0.000
668.564; 3617.975;  261.375;    0.000
668.677; 3621.975;  230.375;    0.000
668.790; 3528.975;  192.375;    0.000
668.903; 3577.975;  243.375;    0.000
669.016; 3429.975;  201.375;    0.000
669.129; 3535.975;  249.375;    0.000
669.242; 3337.975;  190.375;    0.000
669.354; 3513.975;  219.375;    0.000
669.467; 3397.975;  242.375;    0.000
669.580; 3549.975;  237.375;    0.000
669.693; 3448.975;  243.375;    0.000
669.806; 3483.975;  234.375;    0.000
669.918; 3475.975;  206.375;    0.000
670.031; 3437.975;  258.375;    0.000
670.144; 3423.975;  231.375;    0.000
670.256; 3463.975;  244.375;    0.000
670.369; 3466.975;  262.375;    0.000
670.482; 3464.975;  264.375;    0.000
670.594; 3441.975;  256.375;    0.000
670.707; 3438.975;  224.375;    0.000
670.820; 3340.975;  261.375;    0.000
670.932; 3404.975;  226.375;    0.000
671.045; 3479.975;  243.375;    0.000
671.157; 3313.975;  235.375;    0.000
671.270; 3420.975;  217.375;    0.000
671.382; 3393.975;  267.375;    0.000
671.495; 3349.975;  258.375;    0.000
671.607; 3298.975;  236.375;    0.000
671.720; 3289.975;  200.375;    0.000
671.832; 3297.975;  219.375;    0.000
671.944; 3319.975;  234.375;    0.000
672.057; 3345.975;  226.375;    0.000
672.169; 3324.975;  225.375;    0.000
672.281; 3259.975;  253.375;    0.000
672.394; 3343.975;  238.375;    0.000
672.506; 3256.975;  244.375;    0.000
672.618; 3241.975;  272.375;    0.000
672.731; 3285.975;  247.375;    0.000
672.843; 3234.975;  261.375;    0.000
672.955; 3262.975;  262.375;    0.000
673.067; 3255.975;  253.375;    0.000
673.180; 3309.975;  239.375;    0.000
673.292; 3281.975;  240.375;    0.000
673.404; 3168.975;  243.375;    0.000
673.516; 3228.975;  258.375;    0.000
673.628; 3240.975;  263.375;    0.000
673.740; 3241.975;  250.375;    0.000
673.852; 3195.975;  285.375;    0.000
673.964; 3285.975;  264.375;    0.000
674.076; 3231.975;  260.375;    0.000
674.188; 3121.975;  226.375;    0.000
674.300; 3253.975;  272.375;    0.000
674.412; 3152.975;  259.375;    0.000
674.524; 3257.975;  283.375;    0.000
674.636; 3196.975;  259.375;    0.000
674.748; 3113.975;  238.375;    0.000
674.860; 3239.975;  277.375;    0.000
674.972; 3117.975;  272.375;    0.000
675.084; 3187.975;  244.375;    0.000
675.196; 3227.975;  272.375;    0.000
675.307; 3131.975;  244.375;    0.000
675.419; 3190.975;  219.375;    0.000
675.531; 3211.975;  275.375;    0.000
675.643; 3138.975;  215.375;    0.000
675.755; 3130.975;  243.375;    0.000
675.866; 3106.975;  223.375;    0.000
675.978; 3044.975;  216.375;    0.000
676.090; 3180.975;  242.375;    0.000
676.201; 3076.975;  276.375;    0.000
676.313; 3086.975;  226.375;    0.000
676.425; 3108.975;  234.375;    0.000
676.536; 3075.975;  231.375;    0.000
676.648; 3067.975;  254.375;    0.000
676.759; 3049.975;  273.375;    0.000
676.871; 3054.975;  250.375;    0.000
676.983; 2993.975;  256.375;    0.000
677.094; 2976.975;  210.375;    0.000
677.206; 3052.975;  248.375;    0.000
677.317; 3019.975;  263.375;    0.000
677.429; 2964.975;  238.375;    0.000
677.540; 2967.975;  247.375;    0.000
677.651; 2925.975;  224.375;    0.000
677.763; 3023.975;  217.375;    0.000
677.874; 3060.975;  234.375;    0.000
677.986; 3077.975;  238.375;    0.000
678.097; 3028.975;  226.375;    0.000
678.208; 3005.975;  253.375;    0.000
678.320; 3016.975;  217.375;    0.000
678.431; 3031.975;  238.375;    0.000
678.542; 2943.975;  236.375;    0.000
678.653; 2983.975;  218.375;    0.000
678.765; 2975.975;  275.375;    0.000
678.876; 2957.975;  213.375;    0.000
678.987; 2910.975;  182.375;    0.000
679.098; 2944.975;  221.375;    0.000
679.209; 2920.975;  238.375;    0.000
679.320; 2964.975;  212.375;    0.000
679.432; 2959.975;  231.375;    0.000
679.543; 2884.975;  198.375;    0.000
679.654; 2979.975;  191.375;    0.000
679.765; 2799.975;  214.375;    0.000
679.876; 2957.975;  221.375;    0.000
679.987; 2830.975;  162.375;    0.000
680.098; 2867.975;  230.375;    0.000
680.209; 2902.975;  206.375;    0.000
680.320; 2910.975;  196.375;    0.000
680.431; 2893.975;  191.375;    0.000
680.542; 2890.975;  214.375;    0.000
680.653; 2944.975;  238.375;    0.000
680.763; 2788.975;  182.375;    0.000
680.874; 2858.975;  213.375;    0.000
680.985; 2887.975;  224.375;    0.000
681.096; 2858.975;  222.375;    0.000
681.207; 2857.975;  220.375;    0.000
681.318; 2855.975;  216.375;    0.000
681.428; 2856.975;  229.375;    0.000
681.539; 2818.975;  183.375;    0.000
681.650; 2900.975;  202.375;    0.000
681.760; 2791.975;  223.375;    0.000
681.871; 2882.975;  211.375;    0.000
681.982; 2829.975;  189.375;    0.000
682.093; 2746.975;  222.375;    0.000
682.203; 2837.975;  220.375;    0.000
682.314; 2884.975;  214.375;    0.000
682.424; 2904.975;  208.375;    0.000
682.535; 2729.975;  213.375;    0.000
682.646; 2930.975;  302.375;    0.000
682.756; 2841.975;  255.375;    0.000
682.867; 2835.975;  244.375;    0.000
682.977; 2869.975;  221.375;    0.000
683.088; 2831.975;  259.375;    0.000
683.198; 2876.975;  212.375;    0.000
683.308; 2837.975;  202.375;    0.000
683.419; 2798.975;  255.375;    0.000
683.529; 2871.975;  217.375;    0.000
683.640; 2826.975;  240.375;    0.000
683.750; 2873.975;  181.375;    0.000
683.860; 2855.975;  246.375;    0.000
683.971; 2806.975;  254.375;    0.000
684.081; 2794.975;  235.375;    0.000
684.191; 2838.975;  251.375;    0.000
684.301; 2797.975;  233.375;    0.000
684.412; 2808.975;  202.375;    0.000
684.522; 2792.975;  232.375;    0.000
684.632; 2846.975;  202.375;    0.000
684.742; 2868.975;  254.375;    0.000
684.852; 2755.975;  219.375;    0.000
684.963; 2825.975;  256.375;    0.000
685.073; 2847.975;  253.375;    0.000
685.183; 2808.975;  254.375;    0.000
685.293; 2779.975;  232.375;    0.000
685.403; 2794.975;  242.375;    0.000
685.513; 2863.975;  261.375;    0.000
685.623; 2794.975;  245.375;    0.000
685.733; 2885.975;  254.375;    0.000
685.843; 2792.975;  249.375;    0.000
685.953; 2810.975;  252.375;    0.000
686.063; 2710.975;  227.375;    0.000
686.173; 2838.975;  223.375;    0.000
686.283; 2765.975;  234.375;    0.000
686.393; 2861.975;  239.375;    0.000
686.503; 2762.975;  231.375;    0.000
686.612; 2912.975;  232.375;    0.000
686.722; 2794.975;  258.375;    0.000
686.832; 2795.975;  256.375;    0.000
686.942; 2835.975;  230.375;    0.000
687.052; 2754.975;  274.375;    0.000
687.161; 2781.975;  269.375;    0.000
687.271; 2846.975;  218.375;    0.000
687.381; 2786.975;  235.375;    0.000
687.491; 2822.975;  262.375;    0.000
687.600; 2806.975;  256.375;    0.000
687.710; 2751.975;  225.375;    0.000
687.820; 2844.975;  230.375;    0.000
687.929; 2810.975;  226.375;    0.000
688.039; 2724.975;  228.375;    0.000
688.148; 2790.975;  249.375;    0.000
688.258; 2750.975;  237.375;    0.000
688.367; 2789.975;  260.375;    0.000
688.477; 2714.975;  200.375;    0.000
688.586; 2867.975;  223.375;    0.000
688.696; 2814.975;  223.375;    0.000
688.805; 2802.975;  257.375;    0.000
688.915; 2861.975;  185.375;    0.000
689.024; 2808.975;  227.375;    0.000
689.134; 2702.975;  224.375;    0.000
689.243; 2708.975;  206.375;    0.000
689.352; 2782.975;  275.375;    0.000
689.462; 2701.975;  233.375;    0.000
689.571; 2759.975;  244.375;    0.000
689.680; 2692.975;  261.375;    0.000
689.790; 2705.975;  192.375;    0.000
689.899; 2694.975;  214.375;    0.000
690.008; 2789.975;  255.375;    0.000
690.117; 2688.975;  219.375;    0.000
690.227; 2775.975;  241.375;    0.000
690.336; 2785.975;  231.375;    0.000
690.445; 2638.975;  212.375;    0.000
690.554; 2735.975;  234.375;    0.000
690.663; 2685.975;  210.375;    0.000
690.772; 2716.975;  221.375;    0.000
690.881; 2669.975;  244.375;    0.000
690.990; 2672.975;  247.375;    0.000
691.099; 2742.975;  222.375;    0.000
691.209; 2649.975;  240.375;    0.000
691.318; 2679.975;  223.375;    0.000
691.427; 2635.975;  217.375;    0.000
691.536; 2717.975;  216.375;    0.000
691.644; 2624.975;  194.375;    0.000
691.753; 2655.975;  221.375;    0.000
691.862; 2670.975;  224.375;    0.000
691.971; 2654.975;  191.375;    0.000
692.080; 2755.975;  247.375;    0.000
692.189; 2725.975;  208.375;    0.000
692.298; 2728.975;  203.375;    0.000
692.406; 2736.975;  239.375;    0.000
692.515; 2700.975;  250.375;    0.000
692.624; 2712.975;  226.375;    0.000
692.733; 2653.975;  229.375;    0.000
692.842; 2731.975;  254.375;    0.000
692.950; 2605.975;  242.375;    0.000
693.059; 2585.975;  204.375;    0.000
693.168; 2655.975;  252.375;    0.000
693.276; 2699.975;  195.375;    0.000
693.385; 2684.975;  228.375;    0.000
693.494; 2591.975;  282.375;    0.000
693.602; 2669.975;  221.375;    0.000
693.711; 2746.975;  225.375;    0.000
693.819; 2688.975;  234.375;    0.000
693.928; 2717.975;  229.375;    0.000
694.036; 2618.975;  192.375;    0.000
694.145; 2705.975;  233.375;    0.000
694.253; 2714.975;  277.375;    0.000
694.362; 2735.975;  188.375;    0.000
694.470; 2749.975;  263.375;    0.000
694.579; 2650.975;  253.375;    0.000
694.687; 2627.975;  281.375;    0.000
694.795; 2758.975;  233.375;    0.000
694.904; 2616.975;  223.375;    0.000
695.012; 2609.975;  296.375;    0.000
695.120; 2572.975;  227.375;    0.000
695.229; 2638.975;  269.375;    0.000
695.337; 2632.975;  229.375;    0.000
695.445; 2729.975;  244.375;    0.000
695.553; 2677.975;  259.375;    0.000
695.662; 2623.975;  208.375;    0.000
695.770; 2628.975;  241.375;    0.000
695.878; 2705.975;  239.375;    0.000
695.986; 2711.975;  247.375;    0.000
696.094; 2731.975;  224.375;    0.000
696.202; 2698.975;  205.375;    0.000
696.310; 2769.975;  217.375;    0.000
696.419; 2685.975;  228.375;    0.000
696.527; 2656.975;  246.375;    0.000
696.635; 2650.975;  245.375;    0.000
696.743; 2668.975;  233.375;    0.000
696.851; 2713.975;  251.375;    0.000
696.959; 2741.975;  257.375;    0.000
697.067; 2713.975;  260.375;    0.000
697.174; 2662.975;  223.375;    0.000
697.282; 2627.975;  239.375;    0.000
697.390; 2651.975;  264.375;    0.000
697.498; 2547.975;  227.375;    0.000
697.606; 2555.975;  243.375;    0.000
697.714; 2608.975;  256.375;    0.000
697.822; 2728.975;  278.375;    0.000
697.929; 2610.975;  227.375;    0.000
698.037; 2658.975;  232.375;    0.000
698.145; 2644.975;  256.375;    0.000
698.253; 2625.975;  245.375;    0.000
698.360; 2617.975;  282.375;    0.000
698.468; 2658.975;  244.375;    0.000
698.576; 2690.975;  279.375;    0.000
698.683; 2691.975;  259.375;    0.000
698.791; 2663.975;  265.375;    0.000
698.899; 2671.975;  250.375;    0.000
699.006; 2634.975;  245.375;    0.000
699.114; 2588.975;  280.375;    0.000
699.221; 2680.975;  240.375;    0.000
699.329; 2686.975;  293.375;    0.000
699.436; 2684.975;  216.375;    0.000
699.544; 2638.975;  269.375;    0.000
699.651; 2623.975;  219.375;    0.000
699.759; 2547.975;  245.375;    0.000
699.866; 2588.975;  261.375;    0.000
699.974; 2545.975;  245.375;    0.000
700.081; 2602.975;  257.375;    0.000
700.188; 2722.975;  268.375;    0.000
700.296; 2560.975;  225.375;    0.000
700.403; 2611.975;  257.375;    0.000
700.510; 2573.975;  267.375;    0.000
700.618; 2690.975;  299.375;    0.000
700.725; 2514.975;  223.375;    0.000
700.832; 2587.975;  233.375;    0.000
700.940; 2622.975;  255.375;    0.000
701.047; 2587.975;  244.375;    0.000
701.154; 2540.975;  248.375;    0.000
701.261; 2564.975;  264.375;    0.000
701.368; 2600.975;  299.375;    0.000
701.475; 2614.975;  264.375;    0.000
701.582; 2590.975;  275.375;    0.000
701.690; 2637.975;  261.375;    0.000
701.797; 2653.975;  273.375;    0.000
701.904; 2635.975;  320.375;    0.000
702.011; 2652.975;  299.375;    0.000
702.118; 2650.975;  292.375;    0.000
702.225; 2655.975;  317.375;    0.000
702.332; 2603.975;  307.375;    0.000
702.439; 2632.975;  313.375;    0.000
702.546; 2719.975;  312.375;    0.000
702.652; 2684.975;  297.375;    0.000
702.759; 2708.975;  345.375;    0.000
702.866; 2654.975;  330.375;    0.000
702.973; 2631.975;  303.375;    0.000
703.080; 2620.975;  303.375;    0.000
703.187; 2599.975;  327.375;    0.000
703.294; 2629.975;  325.375;    0.000
703.400; 2368.975;  302.375;    0.000
703.507;  534.975;  344.375;    0.000
703.614;  319.975;  294.375;    0.000
703.720;  290.975;  322.375;    0.000
703.827;  331.975;  329.375;    0.000
703.934;  351.975;  318.375;    0.000
704.040;  268.975;  299.375;    0.000
704.147;  326.975;  352.375;    0.000
704.254;  352.975;  350.375;    0.000
704.360;  304.975;  347.375;    0.000
704.467;  350.975;  336.375;    0.000
704.573;  337.975;  344.375;    0.000
704.680;  298.975;  365.375;    0.000
704.786;  307.975;  332.375;    0.000
704.893;  309.975;  304.375;    0.000
704.999;  290.975;  299.375;    0.000
705.106;  341.975;  365.375;    0.000

