
Integration time [ms]:   1.000
Averaging Nr. [scans]: 1
Smoothing Nr. [pixels]: 0
Data measured with spectrometer [name]: VIS
Wave   ;Sample   ;Dark     ;Reference
[nm]   ;[counts] ;[counts] ;[counts] 

450.961;  216.875;  200.375;    0.000
451.100;  246.875;  241.375;    0.000
451.239;  185.875;  201.375;    0.000
451.377;  250.875;  262.375;    0.000
451.516;  179.875;  229.375;    0.000
451.655;  210.875;  211.375;    0.000
451.794;  221.875;  225.375;    0.000
451.932;  224.875;  247.375;    0.000
452.071;  205.875;  260.375;    0.000
452.210;  209.875;  235.375;    0.000
452.348;  211.875;  276.375;    0.000
452.487;  238.875;  259.375;    0.000
452.626;  214.875;  254.375;    0.000
452.764;  232.875;  233.375;    0.000
452.903;  238.875;  202.375;    0.000
453.042;  273.875;  211.375;    0.000
453.180; 4411.875;  240.375;    0.000
453.319; 4493.875;  238.375;    0.000
453.458; 4470.875;  215.375;    0.000
453.596; 4639.875;  252.375;    0.000
453.735; 4514.875;  240.375;    0.000
453.873; 4681.875;  257.375;    0.000
454.012; 4608.875;  228.375;    0.000
454.150; 4693.875;  270.375;    0.000
454.289; 4757.875;  233.375;    0.000
454.427; 4837.875;  243.375;    0.000
454.566; 4838.875;  257.375;    0.000
454.704; 4924.875;  243.375;    0.000
454.843; 4792.875;  190.375;    0.000
454.981; 4988.875;  271.375;    0.000
455.120; 4932.875;  210.375;    0.000
455.258; 5027.875;  235.375;    0.000
455.397; 5016.875;  214.375;    0.000
455.535; 5216.875;  214.375;    0.000
455.674; 5104.875;  184.375;    0.000
455.812; 5248.875;  228.375;    0.000
455.951; 5291.875;  204.375;    0.000
456.089; 5332.875;  220.375;    0.000
456.227; 5300.875;  196.375;    0.000
456.366; 5432.875;  261.375;    0.000
456.504; 5492.875;  249.375;    0.000
456.642; 5591.875;  245.375;    0.000
456.781; 5476.875;  183.375;    0.000
456.919; 5616.875;  203.375;    0.000
457.057; 5696.875;  177.375;    0.000
457.196; 5776.875;  191.375;    0.000
457.334; 5847.875;  233.375;    0.000
457.472; 5946.875;  214.375;    0.000
457.610; 6020.875;  230.375;    0.000
457.749; 6022.875;  247.375;    0.000
457.887; 6206.875;  220.375;    0.000
458.025; 6069.875;  195.375;    0.000
458.163; 6443.875;  224.375;    0.000
458.301; 6444.875;  228.375;    0.000
458.440; 6443.875;  200.375;    0.000
458.578; 6679.875;  233.375;    0.000
458.716; 6604.875;  182.375;    0.000
458.854; 6823.875;  251.375;    0.000
458.992; 6720.875;  187.375;    0.000
459.130; 6947.875;  229.375;    0.000
459.269; 7007.875;  237.375;    0.000
459.407; 7172.875;  228.375;    0.000
459.545; 7099.875;  216.375;    0.000
459.683; 7336.875;  204.375;    0.000
459.821; 7355.875;  191.375;    0.000
459.959; 7479.875;  227.375;    0.000
460.097; 7432.875;  221.375;    0.000
460.235; 7475.875;  241.375;    0.000
460.373; 7632.875;  231.375;    0.000
460.511; 7433.875;  214.375;    0.000
460.649; 7719.875;  172.375;    0.000
460.787; 7854.875;  275.375;    0.000
460.925; 7667.875;  175.375;    0.000
461.063; 7878.875;  252.375;    0.000
461.201; 7798.875;  210.375;    0.000
461.339; 8061.875;  237.375;    0.000
461.477; 7957.875;  210.375;    0.000
461.615; 7891.875;  236.375;    0.000
461.753; 8199.875;  215.375;    0.000
461.891; 8091.875;  222.375;    0.000
462.029; 8328.875;  227.375;    0.000
462.166; 8440.875;  202.375;    0.000
462.304; 8471.875;  191.375;    0.000
462.442; 8759.875;  210.375;    0.000
462.580; 8767.875;  184.375;    0.000
462.718; 8828.875;  220.375;    0.000
462.856; 8960.875;  226.375;    0.000
462.993; 8839.875;  254.375;    0.000
463.131; 8819.875;  200.375;    0.000
463.269; 8811.875;  215.375;    0.000
463.407; 8588.875;  213.375;    0.000
463.545; 8390.875;  242.375;    0.000
463.682; 8591.875;  212.375;    0.000
463.820; 8885.875;  185.375;    0.000
463.958; 9085.875;  212.375;    0.000
464.095; 9254.875;  181.375;    0.000
464.233; 9371.875;  192.375;    0.000
464.371; 9377.875;  247.375;    0.000
464.509; 9268.875;  151.375;    0.000
464.646; 9442.875;  207.375;    0.000
464.784; 9165.875;  199.375;    0.000
464.921; 9165.875;  253.375;    0.000
465.059; 8888.875;  214.375;    0.000
465.197; 8752.875;  200.375;    0.000
465.334; 8559.875;  180.375;    0.000
465.472; 8484.875;  204.375;    0.000
465.609; 8264.875;  203.375;    0.000
465.747; 8132.875;  214.375;    0.000
465.885; 8128.875;  233.375;    0.000
466.022; 8367.875;  215.375;    0.000
466.160; 8276.875;  201.375;    0.000
466.297; 8156.875;  196.375;    0.000
466.435; 8220.875;  230.375;    0.000
466.572; 8050.875;  227.375;    0.000
466.710; 8223.875;  218.375;    0.000
466.847; 8102.875;  245.375;    0.000
466.985; 8104.875;  223.375;    0.000
467.122; 8094.875;  168.375;    0.000
467.260; 8029.875;  196.375;    0.000
467.397; 7999.875;  198.375;    0.000
467.534; 8041.875;  219.375;    0.000
467.672; 7854.875;  214.375;    0.000
467.809; 7895.875;  185.375;    0.000
467.947; 8082.875;  247.375;    0.000
468.084; 7973.875;  196.375;    0.000
468.221; 8162.875;  238.375;    0.000
468.359; 7921.875;  236.375;    0.000
468.496; 7919.875;  235.375;    0.000
468.633; 7955.875;  218.375;    0.000
468.771; 8072.875;  223.375;    0.000
468.908; 8039.875;  208.375;    0.000
469.045; 8100.875;  249.375;    0.000
469.183; 8227.875;  222.375;    0.000
469.320; 8327.875;  216.375;    0.000
469.457; 8244.875;  224.375;    0.000
469.594; 8409.875;  259.375;    0.000
469.732; 8352.875;  223.375;    0.000
469.869; 8409.875;  234.375;    0.000
470.006; 8481.875;  225.375;    0.000
470.143; 8502.875;  243.375;    0.000
470.280; 8592.875;  208.375;    0.000
470.417; 8728.875;  232.375;    0.000
470.555; 8800.875;  218.375;    0.000
470.692; 8628.875;  223.375;    0.000
470.829; 8727.875;  238.375;    0.000
470.966; 8448.875;  205.375;    0.000
471.103; 8584.875;  259.375;    0.000
471.240; 8598.875;  214.375;    0.000
471.377; 8540.875;  226.375;    0.000
471.514; 8533.875;  250.375;    0.000
471.651; 8410.875;  221.375;    0.000
471.789; 8326.875;  242.375;    0.000
471.926; 8511.875;  190.375;    0.000
472.063; 8348.875;  234.375;    0.000
472.200; 8404.875;  252.375;    0.000
472.337; 8191.875;  241.375;    0.000
472.474; 8395.875;  244.375;    0.000
472.611; 8233.875;  268.375;    0.000
472.748; 8236.875;  222.375;    0.000
472.884; 8126.875;  271.375;    0.000
473.021; 8315.875;  195.375;    0.000
473.158; 8161.875;  205.375;    0.000
473.295; 8242.875;  223.375;    0.000
473.432; 8098.875;  216.375;    0.000
473.569; 7925.875;  196.375;    0.000
473.706; 8195.875;  190.375;    0.000
473.843; 8100.875;  211.375;    0.000
473.980; 8063.875;  254.375;    0.000
474.117; 8211.875;  185.375;    0.000
474.253; 8098.875;  229.375;    0.000
474.390; 8175.875;  238.375;    0.000
474.527; 8158.875;  220.375;    0.000
474.664; 8123.875;  242.375;    0.000
474.801; 8201.875;  229.375;    0.000
474.937; 8249.875;  229.375;    0.000
475.074; 8329.875;  210.375;    0.000
475.211; 8277.875;  219.375;    0.000
475.348; 8259.875;  226.375;    0.000
475.484; 8320.875;  207.375;    0.000
475.621; 8362.875;  233.375;    0.000
475.758; 8296.875;  230.375;    0.000
475.894; 8346.875;  234.375;    0.000
476.031; 8177.875;  202.375;    0.000
476.168; 8278.875;  222.375;    0.000
476.304; 8455.875;  237.375;    0.000
476.441; 8566.875;  238.375;    0.000
476.578; 8335.875;  216.375;    0.000
476.714; 8518.875;  212.375;    0.000
476.851; 8541.875;  210.375;    0.000
476.987; 8745.875;  239.375;    0.000
477.124; 8599.875;  250.375;    0.000
477.261; 8701.875;  227.375;    0.000
477.397; 8651.875;  189.375;    0.000
477.534; 8878.875;  204.375;    0.000
477.670; 8786.875;  190.375;    0.000
477.807; 8841.875;  198.375;    0.000
477.943; 9224.875;  216.375;    0.000
478.080; 8965.875;  213.375;    0.000
478.216; 9035.875;  239.375;    0.000
478.353; 9137.875;  218.375;    0.000
478.489; 9150.875;  184.375;    0.000
478.626; 9248.875;  223.375;    0.000
478.762; 9236.875;  213.375;    0.000
478.898; 9425.875;  216.375;    0.000
479.035; 9148.875;  250.375;    0.000
479.171; 9245.875;  201.375;    0.000
479.308; 9114.875;  242.375;    0.000
479.444; 9268.875;  205.375;    0.000
479.580; 9338.875;  203.375;    0.000
479.717; 9198.875;  260.375;    0.000
479.853; 9428.875;  225.375;    0.000
479.989; 9517.875;  226.375;    0.000
480.126; 9418.875;  211.375;    0.000
480.262; 9651.875;  220.375;    0.000
480.398; 9693.875;  207.375;    0.000
480.535; 9490.875;  179.375;    0.000
480.671; 9436.875;  200.375;    0.000
480.807; 9353.875;  190.375;    0.000
480.943; 9461.875;  165.375;    0.000
481.080; 9428.875;  210.375;    0.000
481.216; 9321.875;  232.375;    0.000
481.352; 8982.875;  235.375;    0.000
481.488; 9288.875;  208.375;    0.000
481.624; 9280.875;  245.375;    0.000
481.760; 9138.875;  210.375;    0.000
481.897; 9188.875;  189.375;    0.000
482.033; 9119.875;  256.375;    0.000
482.169; 9214.875;  257.375;    0.000
482.305; 9116.875;  199.375;    0.000
482.441; 9123.875;  182.375;    0.000
482.577; 9112.875;  223.375;    0.000
482.713; 9235.875;  243.375;    0.000
482.849; 9167.875;  197.375;    0.000
482.985; 9144.875;  240.375;    0.000
483.121; 9191.875;  210.375;    0.000
483.258; 9108.875;  248.375;    0.000
483.394; 9107.875;  224.375;    0.000
483.530; 9175.875;  209.375;    0.000
483.665; 9276.875;  225.375;    0.000
483.801; 9163.875;  216.375;    0.000
483.937; 9124.875;  211.375;    0.000
484.073; 9279.875;  259.375;    0.000
484.209; 9239.875;  191.375;    0.000
484.345; 9216.875;  239.375;    0.000
484.481; 9299.875;  231.375;    0.000
484.617; 9254.875;  216.375;    0.000
484.753; 9403.875;  180.375;    0.000
484.889; 9515.875;  252.375;    0.000
485.025; 9344.875;  244.375;    0.000
485.161; 9391.875;  242.375;    0.000
485.296; 9519.875;  235.375;    0.000
485.432; 9367.875;  247.375;    0.000
485.568; 9313.875;  203.375;    0.000
485.704; 9408.875;  229.375;    0.000
485.840; 9383.875;  230.375;    0.000
485.975; 9547.875;  266.375;    0.000
486.111; 9515.875;  220.375;    0.000
486.247; 9420.875;  264.375;    0.000
486.383; 9352.875;  213.375;    0.000
486.518; 9435.875;  222.375;    0.000
486.654; 9371.875;  244.375;    0.000
486.790; 9391.875;  273.375;    0.000
486.926; 9316.875;  203.375;    0.000
487.061; 9220.875;  227.375;    0.000
487.197; 9331.875;  210.375;    0.000
487.333; 9343.875;  209.375;    0.000
487.468; 9487.875;  197.375;    0.000
487.604; 9498.875;  230.375;    0.000
487.740; 9268.875;  254.375;    0.000
487.875; 9415.875;  286.375;    0.000
488.011; 9429.875;  225.375;    0.000
488.146; 9319.875;  251.375;    0.000
488.282; 9375.875;  242.375;    0.000
488.417; 9392.875;  230.375;    0.000
488.553; 9337.875;  260.375;    0.000
488.688; 9488.875;  207.375;    0.000
488.824; 9239.875;  204.375;    0.000
488.960; 9429.875;  248.375;    0.000
489.095; 9708.875;  204.375;    0.000
489.230; 9464.875;  227.375;    0.000
489.366; 9532.875;  226.375;    0.000
489.501; 9311.875;  199.375;    0.000
489.637; 9368.875;  233.375;    0.000
489.772; 9476.875;  249.375;    0.000
489.908; 9584.875;  200.375;    0.000
490.043; 9568.875;  246.375;    0.000
490.178; 9611.875;  222.375;    0.000
490.314; 9524.875;  219.375;    0.000
490.449; 9660.875;  227.375;    0.000
490.585; 9478.875;  209.375;    0.000
490.720; 9340.875;  238.375;    0.000
490.855; 9563.875;  222.375;    0.000
490.991; 9536.875;  202.375;    0.000
491.126; 9492.875;  272.375;    0.000
491.261; 9427.875;  261.375;    0.000
491.396; 9662.875;  190.375;    0.000
491.532; 9513.875;  202.375;    0.000
491.667; 9544.875;  208.375;    0.000
491.802; 9492.875;  203.375;    0.000
491.937; 9531.875;  253.375;    0.000
492.073; 9599.875;  242.375;    0.000
492.208; 9568.875;  230.375;    0.000
492.343; 9578.875;  183.375;    0.000
492.478; 9836.875;  246.375;    0.000
492.613; 9735.875;  223.375;    0.000
492.749; 9507.875;  230.375;    0.000
492.884; 9748.875;  190.375;    0.000
493.019; 9703.875;  234.375;    0.000
493.154; 9700.875;  218.375;    0.000
493.289; 9551.875;  222.375;    0.000
493.424; 9671.875;  196.375;    0.000
493.559; 9598.875;  202.375;    0.000
493.694; 9571.875;  180.375;    0.000
493.829; 9704.875;  224.375;    0.000
493.964; 9821.875;  218.375;    0.000
494.099; 9667.875;  275.375;    0.000
494.234; 9747.875;  226.375;    0.000
494.369; 9629.875;  225.375;    0.000
494.504; 9574.875;  219.375;    0.000
494.639; 9552.875;  296.375;    0.000
494.774; 9525.875;  228.375;    0.000
494.909; 9589.875;  222.375;    0.000
495.044; 9648.875;  215.375;    0.000
495.179; 9627.875;  200.375;    0.000
495.314; 9630.875;  235.375;    0.000
495.449; 9916.875;  249.375;    0.000
495.584; 9584.875;  228.375;    0.000
495.719; 9686.875;  212.375;    0.000
495.854; 9651.875;  201.375;    0.000
495.988; 9699.875;  248.375;    0.000
496.123; 9520.875;  209.375;    0.000
496.258; 9672.875;  249.375;    0.000
496.393; 9743.875;  223.375;    0.000
496.528; 9933.875;  209.375;    0.000
496.663; 9963.875;  207.375;    0.000
496.797; 9988.875;  229.375;    0.000
496.932;10036.875;  225.375;    0.000
497.067;10299.875;  218.375;    0.000
497.202;10208.875;  163.375;    0.000
497.336;10475.875;  246.375;    0.000
497.471;10318.875;  229.375;    0.000
497.606;10664.875;  251.375;    0.000
497.740;10923.875;  220.375;    0.000
497.875;11056.875;  216.375;    0.000
498.010;11171.875;  226.375;    0.000
498.144;11389.875;  237.375;    0.000
498.279;11460.875;  196.375;    0.000
498.414;11911.875;  219.375;    0.000
498.548;11980.875;  205.375;    0.000
498.683;12063.875;  206.375;    0.000
498.817;12364.875;  225.375;    0.000
498.952;12508.875;  221.375;    0.000
499.087;12981.875;  220.375;    0.000
499.221;13428.875;  233.375;    0.000
499.356;13539.875;  230.375;    0.000
499.490;14022.875;  229.375;    0.000
499.625;14392.875;  231.375;    0.000
499.759;15132.875;  243.375;    0.000
499.894;15530.875;  241.375;    0.000
500.028;15935.875;  264.375;    0.000
500.162;16599.875;  287.375;    0.000
500.297;16716.875;  234.375;    0.000
500.431;16906.875;  230.375;    0.000
500.566;16967.875;  213.375;    0.000
500.700;16795.875;  243.375;    0.000
500.835;16433.875;  272.375;    0.000
500.969;15588.875;  188.375;    0.000
501.103;15289.875;  200.375;    0.000
501.238;14875.875;  257.375;    0.000
501.372;14167.875;  224.375;    0.000
501.506;13970.875;  225.375;    0.000
501.641;13076.875;  271.375;    0.000
501.775;12700.875;  199.375;    0.000
501.909;12411.875;  249.375;    0.000
502.043;12249.875;  211.375;    0.000
502.178;12067.875;  269.375;    0.000
502.312;11660.875;  198.375;    0.000
502.446;11436.875;  256.375;    0.000
502.580;11223.875;  195.375;    0.000
502.715;11176.875;  224.375;    0.000
502.849;10947.875;  245.375;    0.000
502.983;10996.875;  250.375;    0.000
503.117;10800.875;  193.375;    0.000
503.251;10525.875;  242.375;    0.000
503.385;10246.875;  227.375;    0.000
503.520;10163.875;  235.375;    0.000
503.654;10148.875;  220.375;    0.000
503.788; 9916.875;  267.375;    0.000
503.922;10024.875;  220.375;    0.000
504.056; 9805.875;  238.375;    0.000
504.190; 9849.875;  212.375;    0.000
504.324; 9716.875;  265.375;    0.000
504.458; 9680.875;  228.375;    0.000
504.592; 9700.875;  231.375;    0.000
504.726; 9464.875;  218.375;    0.000
504.860; 9338.875;  253.375;    0.000
504.994; 9106.875;  217.375;    0.000
505.128; 9136.875;  243.375;    0.000
505.262; 8916.875;  194.375;    0.000
505.396; 8954.875;  210.375;    0.000
505.530; 8635.875;  211.375;    0.000
505.664; 8419.875;  219.375;    0.000
505.798; 8448.875;  240.375;    0.000
505.932; 8388.875;  240.375;    0.000
506.066; 8407.875;  252.375;    0.000
506.199; 8365.875;  242.375;    0.000
506.333; 8309.875;  244.375;    0.000
506.467; 8156.875;  223.375;    0.000
506.601; 8054.875;  183.375;    0.000
506.735; 8065.875;  249.375;    0.000
506.869; 7916.875;  270.375;    0.000
507.002; 7890.875;  207.375;    0.000
507.136; 8014.875;  242.375;    0.000
507.270; 7899.875;  232.375;    0.000
507.404; 7886.875;  195.375;    0.000
507.537; 7870.875;  218.375;    0.000
507.671; 7571.875;  246.375;    0.000
507.805; 7785.875;  244.375;    0.000
507.939; 7669.875;  251.375;    0.000
508.072; 7751.875;  212.375;    0.000
508.206; 7709.875;  198.375;    0.000
508.340; 7707.875;  234.375;    0.000
508.473; 7708.875;  217.375;    0.000
508.607; 7608.875;  224.375;    0.000
508.740; 7557.875;  207.375;    0.000
508.874; 7556.875;  230.375;    0.000
509.008; 7419.875;  246.375;    0.000
509.141; 7446.875;  239.375;    0.000
509.275; 7430.875;  229.375;    0.000
509.408; 7412.875;  234.375;    0.000
509.542; 7532.875;  212.375;    0.000
509.675; 7539.875;  256.375;    0.000
509.809; 7335.875;  232.375;    0.000
509.942; 7267.875;  237.375;    0.000
510.076; 7312.875;  226.375;    0.000
510.209; 7420.875;  251.375;    0.000
510.343; 7387.875;  229.375;    0.000
510.476; 7343.875;  285.375;    0.000
510.610; 7343.875;  211.375;    0.000
510.743; 7300.875;  258.375;    0.000
510.877; 7252.875;  244.375;    0.000
511.010; 7183.875;  235.375;    0.000
511.143; 7251.875;  251.375;    0.000
511.277; 7081.875;  228.375;    0.000
511.410; 7328.875;  216.375;    0.000
511.543; 7022.875;  231.375;    0.000
511.677; 7101.875;  244.375;    0.000
511.810; 7079.875;  186.375;    0.000
511.943; 7048.875;  211.375;    0.000
512.077; 7228.875;  201.375;    0.000
512.210; 7093.875;  194.375;    0.000
512.343; 7084.875;  233.375;    0.000
512.476; 7241.875;  234.375;    0.000
512.610; 7122.875;  224.375;    0.000
512.743; 7196.875;  255.375;    0.000
512.876; 7108.875;  264.375;    0.000
513.009; 7244.875;  283.375;    0.000
513.142; 7092.875;  246.375;    0.000
513.276; 6943.875;  217.375;    0.000
513.409; 7152.875;  222.375;    0.000
513.542; 7056.875;  237.375;    0.000
513.675; 7176.875;  238.375;    0.000
513.808; 7124.875;  220.375;    0.000
513.941; 6983.875;  233.375;    0.000
514.074; 7032.875;  248.375;    0.000
514.207; 7058.875;  233.375;    0.000
514.340; 7040.875;  190.375;    0.000
514.474; 7182.875;  221.375;    0.000
514.607; 7123.875;  213.375;    0.000
514.740; 7160.875;  251.375;    0.000
514.873; 7289.875;  257.375;    0.000
515.006; 7342.875;  268.375;    0.000
515.139; 7333.875;  257.375;    0.000
515.272; 7495.875;  227.375;    0.000
515.404; 7330.875;  238.375;    0.000
515.537; 7584.875;  275.375;    0.000
515.670; 7415.875;  239.375;    0.000
515.803; 7578.875;  223.375;    0.000
515.936; 7565.875;  202.375;    0.000
516.069; 7667.875;  188.375;    0.000
516.202; 7860.875;  240.375;    0.000
516.335; 8019.875;  252.375;    0.000
516.468; 8351.875;  254.375;    0.000
516.600; 9804.875;  254.375;    0.000
516.733;12231.875;  255.375;    0.000
516.866;12328.875;  265.375;    0.000
516.999;11183.875;  251.375;    0.000
517.132;13617.875;  256.375;    0.000
517.264;18624.875;  202.375;    0.000
517.397;18569.875;  248.375;    0.000
517.530;14194.875;  221.375;    0.000
517.663;12183.875;  244.375;    0.000
517.795;11080.875;  245.375;    0.000
517.928;10850.875;  236.375;    0.000
518.061;10686.875;  219.375;    0.000
518.193;13961.875;  251.375;    0.000
518.326;21343.875;  271.375;    0.000
518.459;23054.875;  207.375;    0.000
518.591;17715.875;  217.375;    0.000
518.724;13363.875;  200.375;    0.000
518.857;11658.875;  204.375;    0.000
518.989;10487.875;  242.375;    0.000
519.122; 9909.875;  254.375;    0.000
519.254; 9313.875;  239.375;    0.000
519.387; 8959.875;  235.375;    0.000
519.519; 8631.875;  227.375;    0.000
519.652; 8395.875;  178.375;    0.000
519.784; 8248.875;  226.375;    0.000
519.917; 8080.875;  256.375;    0.000
520.049; 7841.875;  234.375;    0.000
520.182; 7863.875;  258.375;    0.000
520.314; 7521.875;  298.375;    0.000
520.447; 7492.875;  204.375;    0.000
520.579; 7512.875;  235.375;    0.000
520.712; 7502.875;  208.375;    0.000
520.844; 7375.875;  272.375;    0.000
520.976; 7146.875;  234.375;    0.000
521.109; 7150.875;  235.375;    0.000
521.241; 7126.875;  250.375;    0.000
521.373; 6959.875;  233.375;    0.000
521.506; 6965.875;  231.375;    0.000
521.638; 6867.875;  258.375;    0.000
521.770; 6795.875;  226.375;    0.000
521.903; 6791.875;  258.375;    0.000
522.035; 6789.875;  263.375;    0.000
522.167; 6644.875;  214.375;    0.000
522.300; 6679.875;  212.375;    0.000
522.432; 6541.875;  220.375;    0.000
522.564; 6641.875;  228.375;    0.000
522.696; 6668.875;  272.375;    0.000
522.828; 6404.875;  222.375;    0.000
522.961; 6577.875;  205.375;    0.000
523.093; 6488.875;  253.375;    0.000
523.225; 6362.875;  239.375;    0.000
523.357; 6478.875;  263.375;    0.000
523.489; 6284.875;  264.375;    0.000
523.621; 6416.875;  259.375;    0.000
523.753; 6204.875;  233.375;    0.000
523.885; 6269.875;  232.375;    0.000
524.018; 6211.875;  214.375;    0.000
524.150; 6302.875;  235.375;    0.000
524.282; 6166.875;  242.375;    0.000
524.414; 6256.875;  261.375;    0.000
524.546; 6190.875;  233.375;    0.000
524.678; 6119.875;  242.375;    0.000
524.810; 6033.875;  216.375;    0.000
524.942; 6025.875;  220.375;    0.000
525.074; 5940.875;  249.375;    0.000
525.206; 5959.875;  227.375;    0.000
525.338; 6051.875;  250.375;    0.000
525.469; 5898.875;  231.375;    0.000
525.601; 5948.875;  245.375;    0.000
525.733; 5834.875;  187.375;    0.000
525.865; 5955.875;  280.375;    0.000
525.997; 5991.875;  216.375;    0.000
526.129; 5817.875;  228.375;    0.000
526.261; 5864.875;  187.375;    0.000
526.393; 5919.875;  228.375;    0.000
526.524; 5717.875;  201.375;    0.000
526.656; 5869.875;  199.375;    0.000
526.788; 5802.875;  233.375;    0.000
526.920; 5872.875;  256.375;    0.000
527.052; 5589.875;  219.375;    0.000
527.183; 5764.875;  227.375;    0.000
527.315; 5772.875;  266.375;    0.000
527.447; 5719.875;  239.375;    0.000
527.578; 5718.875;  213.375;    0.000
527.710; 5702.875;  216.375;    0.000
527.842; 5756.875;  240.375;    0.000
527.973; 5848.875;  286.375;    0.000
528.105; 5625.875;  222.375;    0.000
528.237; 5585.875;  223.375;    0.000
528.368; 5697.875;  211.375;    0.000
528.500; 5756.875;  215.375;    0.000
528.632; 5754.875;  216.375;    0.000
528.763; 5698.875;  234.375;    0.000
528.895; 5612.875;  196.375;    0.000
529.026; 5712.875;  202.375;    0.000
529.158; 5808.875;  226.375;    0.000
529.289; 5675.875;  229.375;    0.000
529.421; 5679.875;  264.375;    0.000
529.552; 5670.875;  265.375;    0.000
529.684; 5670.875;  260.375;    0.000
529.815; 5826.875;  284.375;    0.000
529.947; 5575.875;  237.375;    0.000
530.078; 5633.875;  223.375;    0.000
530.210; 5783.875;  223.375;    0.000
530.341; 5565.875;  209.375;    0.000
530.472; 5781.875;  203.375;    0.000
530.604; 5717.875;  223.375;    0.000
530.735; 5672.875;  218.375;    0.000
530.867; 5637.875;  222.375;    0.000
530.998; 5780.875;  239.375;    0.000
531.129; 5634.875;  250.375;    0.000
531.260; 5582.875;  224.375;    0.000
531.392; 5662.875;  216.375;    0.000
531.523; 5748.875;  234.375;    0.000
531.654; 5852.875;  256.375;    0.000
531.786; 5735.875;  226.375;    0.000
531.917; 5933.875;  239.375;    0.000
532.048; 5805.875;  205.375;    0.000
532.179; 5792.875;  244.375;    0.000
532.311; 5792.875;  235.375;    0.000
532.442; 5725.875;  258.375;    0.000
532.573; 5674.875;  220.375;    0.000
532.704; 5582.875;  213.375;    0.000
532.835; 5710.875;  249.375;    0.000
532.966; 5688.875;  226.375;    0.000
533.097; 5674.875;  246.375;    0.000
533.229; 5613.875;  237.375;    0.000
533.360; 5559.875;  225.375;    0.000
533.491; 5565.875;  241.375;    0.000
533.622; 5630.875;  242.375;    0.000
533.753; 5579.875;  264.375;    0.000
533.884; 5658.875;  245.375;    0.000
534.015; 5765.875;  269.375;    0.000
534.146; 5748.875;  267.375;    0.000
534.277; 5773.875;  282.375;    0.000
534.408; 5641.875;  229.375;    0.000
534.539; 5761.875;  269.375;    0.000
534.670; 5714.875;  231.375;    0.000
534.801; 5622.875;  260.375;    0.000
534.932; 5534.875;  232.375;    0.000
535.063; 5784.875;  227.375;    0.000
535.194; 5558.875;  281.375;    0.000
535.324; 5567.875;  206.375;    0.000
535.455; 5549.875;  257.375;    0.000
535.586; 5545.875;  275.375;    0.000
535.717; 5476.875;  206.375;    0.000
535.848; 5581.875;  271.375;    0.000
535.979; 5587.875;  250.375;    0.000
536.109; 5508.875;  253.375;    0.000
536.240; 5556.875;  234.375;    0.000
536.371; 5536.875;  230.375;    0.000
536.502; 5476.875;  270.375;    0.000
536.632; 5567.875;  228.375;    0.000
536.763; 5444.875;  249.375;    0.000
536.894; 5436.875;  262.375;    0.000
537.025; 5428.875;  258.375;    0.000
537.155; 5556.875;  278.375;    0.000
537.286; 5499.875;  209.375;    0.000
537.417; 5386.875;  255.375;    0.000
537.547; 5360.875;  208.375;    0.000
537.678; 5356.875;  224.375;    0.000
537.808; 5356.875;  224.375;    0.000
537.939; 5421.875;  257.375;    0.000
538.070; 5355.875;  240.375;    0.000
538.200; 5446.875;  259.375;    0.000
538.331; 5386.875;  235.375;    0.000
538.461; 5360.875;  251.375;    0.000
538.592; 5408.875;  245.375;    0.000
538.722; 5411.875;  239.375;    0.000
538.853; 5457.875;  216.375;    0.000
538.983; 5439.875;  226.375;    0.000
539.114; 5382.875;  240.375;    0.000
539.244; 5376.875;  237.375;    0.000
539.375; 5307.875;  198.375;    0.000
539.505; 5256.875;  263.375;    0.000
539.636; 5219.875;  226.375;    0.000
539.766; 5295.875;  229.375;    0.000
539.896; 5380.875;  219.375;    0.000
540.027; 5355.875;  246.375;    0.000
540.157; 5384.875;  218.375;    0.000
540.287; 5309.875;  216.375;    0.000
540.418; 5463.875;  267.375;    0.000
540.548; 5396.875;  260.375;    0.000
540.678; 5405.875;  242.375;    0.000
540.809; 5474.875;  260.375;    0.000
540.939; 5560.875;  257.375;    0.000
541.069; 5357.875;  226.375;    0.000
541.200; 5424.875;  227.375;    0.000
541.330; 5384.875;  218.375;    0.000
541.460; 5537.875;  223.375;    0.000
541.590; 5402.875;  237.375;    0.000
541.720; 5462.875;  222.375;    0.000
541.851; 5440.875;  250.375;    0.000
541.981; 5410.875;  222.375;    0.000
542.111; 5366.875;  212.375;    0.000
542.241; 5459.875;  205.375;    0.000
542.371; 5577.875;  202.375;    0.000
542.501; 5572.875;  218.375;    0.000
542.631; 5671.875;  222.375;    0.000
542.761; 5779.875;  249.375;    0.000
542.891; 5695.875;  173.375;    0.000
543.021; 5676.875;  218.375;    0.000
543.151; 5814.875;  222.375;    0.000
543.281; 5691.875;  188.375;    0.000
543.411; 5735.875;  239.375;    0.000
543.542; 5575.875;  215.375;    0.000
543.671; 5642.875;  250.375;    0.000
543.801; 5571.875;  212.375;    0.000
543.931; 5619.875;  233.375;    0.000
544.061; 5577.875;  194.375;    0.000
544.191; 5519.875;  218.375;    0.000
544.321; 5683.875;  220.375;    0.000
544.451; 5721.875;  183.375;    0.000
544.581; 5601.875;  221.375;    0.000
544.711; 5814.875;  224.375;    0.000
544.841; 5739.875;  214.375;    0.000
544.970; 5819.875;  227.375;    0.000
545.100; 5848.875;  186.375;    0.000
545.230; 5988.875;  205.375;    0.000
545.360; 5833.875;  211.375;    0.000
545.490; 5835.875;  202.375;    0.000
545.619; 5697.875;  182.375;    0.000
545.749; 5612.875;  174.375;    0.000
545.879; 5756.875;  169.375;    0.000
546.009; 5606.875;  182.375;    0.000
546.138; 5599.875;  200.375;    0.000
546.268; 5596.875;  204.375;    0.000
546.398; 5482.875;  200.375;    0.000
546.527; 5426.875;  179.375;    0.000
546.657; 5699.875;  162.375;    0.000
546.786; 5627.875;  179.375;    0.000
546.916; 5592.875;  221.375;    0.000
547.046; 5675.875;  179.375;    0.000
547.175; 5655.875;  168.375;    0.000
547.305; 5643.875;  200.375;    0.000
547.434; 5617.875;  166.375;    0.000
547.564; 5586.875;  177.375;    0.000
547.693; 5537.875;  152.375;    0.000
547.823; 5633.875;  171.375;    0.000
547.953; 5693.875;  195.375;    0.000
548.082; 5664.875;  214.375;    0.000
548.211; 5545.875;  177.375;    0.000
548.341; 5564.875;  189.375;    0.000
548.470; 5610.875;  194.375;    0.000
548.600; 5670.875;  172.375;    0.000
548.729; 5496.875;  158.375;    0.000
548.859; 5616.875;  193.375;    0.000
548.988; 5552.875;  131.375;    0.000
549.117; 5579.875;  204.375;    0.000
549.247; 5575.875;  191.375;    0.000
549.376; 5654.875;  202.375;    0.000
549.505; 5544.875;  187.375;    0.000
549.635; 5710.875;  198.375;    0.000
549.764; 5697.875;  155.375;    0.000
549.893; 5647.875;  176.375;    0.000
550.023; 5743.875;  202.375;    0.000
550.152; 5712.875;  168.375;    0.000
550.281; 5709.875;  180.375;    0.000
550.410; 5570.875;  180.375;    0.000
550.539; 5653.875;  181.375;    0.000
550.669; 5831.875;  168.375;    0.000
550.798; 5692.875;  223.375;    0.000
550.927; 5794.875;  179.375;    0.000
551.056; 5815.875;  159.375;    0.000
551.185; 5682.875;  199.375;    0.000
551.314; 5557.875;  185.375;    0.000
551.443; 5688.875;  172.375;    0.000
551.573; 5683.875;  158.375;    0.000
551.702; 5865.875;  210.375;    0.000
551.831; 5845.875;  238.375;    0.000
551.960; 5728.875;  191.375;    0.000
552.089; 5716.875;  195.375;    0.000
552.218; 5825.875;  196.375;    0.000
552.347; 5976.875;  194.375;    0.000
552.476; 5894.875;  192.375;    0.000
552.605; 6048.875;  172.375;    0.000
552.734; 6256.875;  214.375;    0.000
552.863; 6214.875;  177.375;    0.000
552.992; 6398.875;  190.375;    0.000
553.121; 6229.875;  185.375;    0.000
553.249; 6278.875;  175.375;    0.000
553.378; 6198.875;  192.375;    0.000
553.507; 5997.875;  193.375;    0.000
553.636; 6073.875;  182.375;    0.000
553.765; 5952.875;  187.375;    0.000
553.894; 5999.875;  214.375;    0.000
554.023; 5957.875;  217.375;    0.000
554.151; 5948.875;  223.375;    0.000
554.280; 5884.875;  170.375;    0.000
554.409; 5762.875;  172.375;    0.000
554.538; 5835.875;  182.375;    0.000
554.666; 5930.875;  195.375;    0.000
554.795; 5772.875;  176.375;    0.000
554.924; 5774.875;  164.375;    0.000
555.052; 5651.875;  171.375;    0.000
555.181; 5651.875;  208.375;    0.000
555.310; 5845.875;  214.375;    0.000
555.439; 5734.875;  193.375;    0.000
555.567; 5659.875;  189.375;    0.000
555.696; 5587.875;  196.375;    0.000
555.824; 5581.875;  183.375;    0.000
555.953; 5638.875;  234.375;    0.000
556.082; 5659.875;  183.375;    0.000
556.210; 5579.875;  199.375;    0.000
556.339; 5643.875;  201.375;    0.000
556.467; 5604.875;  208.375;    0.000
556.596; 5541.875;  194.375;    0.000
556.724; 5609.875;  170.375;    0.000
556.853; 5543.875;  166.375;    0.000
556.981; 5507.875;  185.375;    0.000
557.110; 5456.875;  213.375;    0.000
557.238; 5532.875;  188.375;    0.000
557.367; 5380.875;  176.375;    0.000
557.495; 5489.875;  180.375;    0.000
557.623; 5465.875;  193.375;    0.000
557.752; 5486.875;  207.375;    0.000
557.880; 5534.875;  189.375;    0.000
558.008; 5452.875;  169.375;    0.000
558.137; 5484.875;  203.375;    0.000
558.265; 5426.875;  167.375;    0.000
558.393; 5475.875;  204.375;    0.000
558.522; 5497.875;  203.375;    0.000
558.650; 5616.875;  215.375;    0.000
558.778; 5514.875;  190.375;    0.000
558.906; 5547.875;  186.375;    0.000
559.035; 5501.875;  193.375;    0.000
559.163; 5510.875;  198.375;    0.000
559.291; 5532.875;  222.375;    0.000
559.419; 5481.875;  192.375;    0.000
559.548; 5533.875;  186.375;    0.000
559.676; 5420.875;  199.375;    0.000
559.804; 5533.875;  186.375;    0.000
559.932; 5562.875;  202.375;    0.000
560.060; 5584.875;  183.375;    0.000
560.188; 5524.875;  212.375;    0.000
560.316; 5574.875;  192.375;    0.000
560.444; 5658.875;  180.375;    0.000
560.572; 5729.875;  206.375;    0.000
560.700; 5852.875;  184.375;    0.000
560.828; 5778.875;  177.375;    0.000
560.956; 5585.875;  221.375;    0.000
561.085; 5739.875;  227.375;    0.000
561.212; 5624.875;  208.375;    0.000
561.340; 5686.875;  189.375;    0.000
561.468; 5761.875;  189.375;    0.000
561.596; 5582.875;  183.375;    0.000
561.724; 5753.875;  188.375;    0.000
561.852; 5750.875;  183.375;    0.000
561.980; 5739.875;  209.375;    0.000
562.108; 5732.875;  165.375;    0.000
562.236; 5783.875;  188.375;    0.000
562.364; 5796.875;  177.375;    0.000
562.492; 5799.875;  192.375;    0.000
562.619; 5715.875;  187.375;    0.000
562.747; 6052.875;  217.375;    0.000
562.875; 5867.875;  221.375;    0.000
563.003; 6018.875;  199.375;    0.000
563.130; 6023.875;  191.375;    0.000
563.258; 6049.875;  186.375;    0.000
563.386; 6234.875;  191.375;    0.000
563.514; 6129.875;  217.375;    0.000
563.641; 6219.875;  220.375;    0.000
563.769; 6191.875;  186.375;    0.000
563.897; 6388.875;  158.375;    0.000
564.024; 6329.875;  192.375;    0.000
564.152; 6560.875;  217.375;    0.000
564.280; 6573.875;  203.375;    0.000
564.407; 6637.875;  190.375;    0.000
564.535; 6524.875;  188.375;    0.000
564.662; 6724.875;  199.375;    0.000
564.790; 6598.875;  227.375;    0.000
564.917; 6618.875;  160.375;    0.000
565.045; 6782.875;  222.375;    0.000
565.173; 6724.875;  169.375;    0.000
565.300; 6836.875;  208.375;    0.000
565.428; 6931.875;  174.375;    0.000
565.555; 6871.875;  201.375;    0.000
565.682; 6979.875;  180.375;    0.000
565.810; 7270.875;  165.375;    0.000
565.937; 7300.875;  167.375;    0.000
566.065; 7597.875;  190.375;    0.000
566.192; 7511.875;  169.375;    0.000
566.320; 7829.875;  167.375;    0.000
566.447; 7965.875;  151.375;    0.000
566.574; 8202.875;  176.375;    0.000
566.702; 8266.875;  198.375;    0.000
566.829; 8261.875;  209.375;    0.000
566.956; 8292.875;  186.375;    0.000
567.083; 8306.875;  188.375;    0.000
567.211; 8359.875;  159.375;    0.000
567.338; 8459.875;  204.375;    0.000
567.465; 8610.875;  141.375;    0.000
567.593; 8752.875;  168.375;    0.000
567.720; 8737.875;  177.375;    0.000
567.847; 8765.875;  160.375;    0.000
567.974; 8609.875;  139.375;    0.000
568.101; 8841.875;  153.375;    0.000
568.228; 9498.875;  173.375;    0.000
568.356; 9492.875;  149.375;    0.000
568.483; 9084.875;  185.375;    0.000
568.610; 8954.875;  170.375;    0.000
568.737; 9644.875;  223.375;    0.000
568.864;10365.875;  167.375;    0.000
568.991; 9678.875;  177.375;    0.000
569.118; 8950.875;  169.375;    0.000
569.245; 8203.875;  128.375;    0.000
569.372; 7922.875;  160.375;    0.000
569.499; 7764.875;  156.375;    0.000
569.626; 7435.875;  191.375;    0.000
569.753; 7305.875;  163.375;    0.000
569.880; 7147.875;  167.375;    0.000
570.007; 6945.875;  143.375;    0.000
570.134; 6908.875;  191.375;    0.000
570.261; 6867.875;  164.375;    0.000
570.388; 6828.875;  162.375;    0.000
570.515; 6789.875;  220.375;    0.000
570.642; 6704.875;  184.375;    0.000
570.768; 6598.875;  174.375;    0.000
570.895; 6635.875;  177.375;    0.000
571.022; 6544.875;  152.375;    0.000
571.149; 6558.875;  183.375;    0.000
571.276; 6418.875;  153.375;    0.000
571.402; 6359.875;  190.375;    0.000
571.529; 6315.875;  187.375;    0.000
571.656; 6270.875;  167.375;    0.000
571.783; 6167.875;  186.375;    0.000
571.909; 6225.875;  183.375;    0.000
572.036; 6053.875;  162.375;    0.000
572.163; 6035.875;  196.375;    0.000
572.289; 5961.875;  180.375;    0.000
572.416; 6107.875;  190.375;    0.000
572.543; 5924.875;  174.375;    0.000
572.669; 5980.875;  186.375;    0.000
572.796; 5929.875;  205.375;    0.000
572.922; 5862.875;  185.375;    0.000
573.049; 5811.875;  178.375;    0.000
573.176; 5826.875;  196.375;    0.000
573.302; 5722.875;  202.375;    0.000
573.429; 5804.875;  189.375;    0.000
573.555; 5713.875;  145.375;    0.000
573.682; 5721.875;  228.375;    0.000
573.808; 5759.875;  197.375;    0.000
573.935; 5775.875;  216.375;    0.000
574.061; 5754.875;  173.375;    0.000
574.188; 5752.875;  151.375;    0.000
574.314; 5778.875;  181.375;    0.000
574.440; 5819.875;  167.375;    0.000
574.567; 5731.875;  185.375;    0.000
574.693; 5617.875;  173.375;    0.000
574.820; 5716.875;  164.375;    0.000
574.946; 5635.875;  199.375;    0.000
575.072; 5567.875;  162.375;    0.000
575.198; 5701.875;  225.375;    0.000
575.325; 5512.875;  171.375;    0.000
575.451; 5598.875;  183.375;    0.000
575.577; 5645.875;  190.375;    0.000
575.704; 5697.875;  210.375;    0.000
575.830; 5640.875;  185.375;    0.000
575.956; 5576.875;  168.375;    0.000
576.082; 5567.875;  158.375;    0.000
576.208; 5548.875;  158.375;    0.000
576.335; 5552.875;  196.375;    0.000
576.461; 5744.875;  187.375;    0.000
576.587; 5532.875;  157.375;    0.000
576.713; 5609.875;  156.375;    0.000
576.839; 5592.875;  196.375;    0.000
576.965; 5440.875;  187.375;    0.000
577.091; 5498.875;  204.375;    0.000
577.217; 5602.875;  207.375;    0.000
577.343; 5480.875;  175.375;    0.000
577.469; 5516.875;  197.375;    0.000
577.596; 5504.875;  182.375;    0.000
577.722; 5491.875;  159.375;    0.000
577.848; 5521.875;  162.375;    0.000
577.974; 5530.875;  180.375;    0.000
578.099; 5492.875;  161.375;    0.000
578.225; 5530.875;  180.375;    0.000
578.351; 5603.875;  190.375;    0.000
578.477; 5550.875;  212.375;    0.000
578.603; 5537.875;  179.375;    0.000
578.729; 5590.875;  195.375;    0.000
578.855; 5565.875;  153.375;    0.000
578.981; 5603.875;  162.375;    0.000
579.107; 5415.875;  149.375;    0.000
579.232; 5544.875;  164.375;    0.000
579.358; 5571.875;  162.375;    0.000
579.484; 5502.875;  181.375;    0.000
579.610; 5607.875;  190.375;    0.000
579.735; 5487.875;  191.375;    0.000
579.861; 5616.875;  189.375;    0.000
579.987; 5705.875;  202.375;    0.000
580.113; 5591.875;  197.375;    0.000
580.238; 5537.875;  228.375;    0.000
580.364; 5765.875;  212.375;    0.000
580.490; 5612.875;  225.375;    0.000
580.615; 5666.875;  218.375;    0.000
580.741; 5577.875;  167.375;    0.000
580.867; 5652.875;  215.375;    0.000
580.992; 5656.875;  191.375;    0.000
581.118; 5750.875;  171.375;    0.000
581.243; 5701.875;  204.375;    0.000
581.369; 5616.875;  186.375;    0.000
581.494; 5674.875;  184.375;    0.000
581.620; 5852.875;  212.375;    0.000
581.745; 5749.875;  192.375;    0.000
581.871; 5798.875;  195.375;    0.000
581.996; 5886.875;  160.375;    0.000
582.122; 5947.875;  217.375;    0.000
582.247; 5838.875;  213.375;    0.000
582.373; 5772.875;  187.375;    0.000
582.498; 5811.875;  208.375;    0.000
582.624; 5953.875;  189.375;    0.000
582.749; 5925.875;  185.375;    0.000
582.874; 5951.875;  195.375;    0.000
583.000; 5962.875;  208.375;    0.000
583.125; 5951.875;  147.375;    0.000
583.250; 6036.875;  201.375;    0.000
583.376; 6184.875;  191.375;    0.000
583.501; 6239.875;  206.375;    0.000
583.626; 6083.875;  167.375;    0.000
583.751; 6149.875;  180.375;    0.000
583.877; 6300.875;  185.375;    0.000
584.002; 6322.875;  186.375;    0.000
584.127; 6327.875;  176.375;    0.000
584.252; 6475.875;  214.375;    0.000
584.377; 6466.875;  225.375;    0.000
584.503; 6510.875;  195.375;    0.000
584.628; 6699.875;  206.375;    0.000
584.753; 6693.875;  181.375;    0.000
584.878; 6673.875;  136.375;    0.000
585.003; 6635.875;  215.375;    0.000
585.128; 7045.875;  206.375;    0.000
585.253; 7043.875;  200.375;    0.000
585.378; 6980.875;  169.375;    0.000
585.503; 7102.875;  191.375;    0.000
585.628; 7319.875;  182.375;    0.000
585.753; 7344.875;  164.375;    0.000
585.878; 7453.875;  123.375;    0.000
586.003; 7612.875;  187.375;    0.000
586.128; 7789.875;  198.375;    0.000
586.253; 8059.875;  172.375;    0.000
586.378; 8080.875;  191.375;    0.000
586.503; 8342.875;  190.375;    0.000
586.628; 8660.875;  178.375;    0.000
586.753; 8854.875;  184.375;    0.000
586.878; 9169.875;  169.375;    0.000
587.003; 9564.875;  186.375;    0.000
587.127; 9851.875;  170.375;    0.000
587.252;10310.875;  170.375;    0.000
587.377;10895.875;  181.375;    0.000
587.502;11464.875;  209.375;    0.000
587.627;12188.875;  210.375;    0.000
587.751;12807.875;  212.375;    0.000
587.876;13903.875;  198.375;    0.000
588.001;14973.875;  161.375;    0.000
588.125;16396.875;  191.375;    0.000
588.250;18312.875;  132.375;    0.000
588.375;20659.875;  183.375;    0.000
588.499;23755.875;  176.375;    0.000
588.624;28444.875;  173.375;    0.000
588.749;35860.875;  204.375;    0.000
588.873;46346.875;  179.375;    0.000
588.998;55553.875;  182.375;    0.000
589.122;55395.875;  165.375;    0.000
589.247;48168.875;  185.375;    0.000
589.372;43792.875;  199.375;    0.000
589.496;47069.875;  182.375;    0.000
589.621;51500.875;  158.375;    0.000
589.745;47383.875;  213.375;    0.000
589.870;38082.875;  175.375;    0.000
589.994;30460.875;  194.375;    0.000
590.118;25728.875;  218.375;    0.000
590.243;22320.875;  170.375;    0.000
590.367;19633.875;  189.375;    0.000
590.492;17939.875;  196.375;    0.000
590.616;16436.875;  182.375;    0.000
590.740;14946.875;  210.375;    0.000
590.865;14104.875;  242.375;    0.000
590.989;13120.875;  191.375;    0.000
591.114;12637.875;  167.375;    0.000
591.238;11948.875;  194.375;    0.000
591.362;11475.875;  236.375;    0.000
591.486;10932.875;  194.375;    0.000
591.611;10654.875;  154.375;    0.000
591.735;10350.875;  186.375;    0.000
591.859; 9960.875;  148.375;    0.000
591.983; 9881.875;  211.375;    0.000
592.107; 9562.875;  204.375;    0.000
592.232; 9205.875;  194.375;    0.000
592.356; 9171.875;  238.375;    0.000
592.480; 8920.875;  179.375;    0.000
592.604; 8908.875;  192.375;    0.000
592.728; 8723.875;  201.375;    0.000
592.852; 8596.875;  158.375;    0.000
592.976; 8417.875;  152.375;    0.000
593.100; 8258.875;  194.375;    0.000
593.224; 8196.875;  235.375;    0.000
593.349; 8243.875;  233.375;    0.000
593.473; 7960.875;  194.375;    0.000
593.597; 7976.875;  215.375;    0.000
593.721; 7903.875;  212.375;    0.000
593.844; 7816.875;  220.375;    0.000
593.968; 7895.875;  221.375;    0.000
594.092; 7716.875;  150.375;    0.000
594.216; 7554.875;  212.375;    0.000
594.340; 7545.875;  209.375;    0.000
594.464; 7418.875;  207.375;    0.000
594.588; 7255.875;  195.375;    0.000
594.712; 7156.875;  176.375;    0.000
594.836; 7039.875;  219.375;    0.000
594.959; 6858.875;  215.375;    0.000
595.083; 6797.875;  200.375;    0.000
595.207; 6829.875;  206.375;    0.000
595.331; 6682.875;  207.375;    0.000
595.455; 6531.875;  206.375;    0.000
595.578; 6483.875;  204.375;    0.000
595.702; 6410.875;  225.375;    0.000
595.826; 6442.875;  186.375;    0.000
595.949; 6379.875;  196.375;    0.000
596.073; 6281.875;  188.375;    0.000
596.197; 6309.875;  217.375;    0.000
596.320; 6223.875;  225.375;    0.000
596.444; 6099.875;  220.375;    0.000
596.568; 6063.875;  155.375;    0.000
596.691; 5864.875;  195.375;    0.000
596.815; 6016.875;  163.375;    0.000
596.938; 5829.875;  181.375;    0.000
597.062; 5917.875;  201.375;    0.000
597.186; 5813.875;  200.375;    0.000
597.309; 5790.875;  214.375;    0.000
597.433; 5850.875;  176.375;    0.000
597.556; 5706.875;  193.375;    0.000
597.680; 5582.875;  241.375;    0.000
597.803; 5622.875;  185.375;    0.000
597.926; 5529.875;  200.375;    0.000
598.050; 5591.875;  193.375;    0.000
598.173; 5601.875;  219.375;    0.000
598.297; 5541.875;  223.375;    0.000
598.420; 5555.875;  187.375;    0.000
598.543; 5502.875;  205.375;    0.000
598.667; 5519.875;  177.375;    0.000
598.790; 5572.875;  208.375;    0.000
598.913; 5440.875;  170.375;    0.000
599.037; 5423.875;  212.375;    0.000
599.160; 5401.875;  165.375;    0.000
599.283; 5437.875;  211.375;    0.000
599.406; 5468.875;  207.375;    0.000
599.530; 5296.875;  182.375;    0.000
599.653; 5269.875;  215.375;    0.000
599.776; 5330.875;  167.375;    0.000
599.899; 5310.875;  190.375;    0.000
600.022; 5208.875;  182.375;    0.000
600.145; 5476.875;  180.375;    0.000
600.269; 5404.875;  208.375;    0.000
600.392; 5351.875;  214.375;    0.000
600.515; 5103.875;  196.375;    0.000
600.638; 5136.875;  204.375;    0.000
600.761; 5118.875;  209.375;    0.000
600.884; 5168.875;  207.375;    0.000
601.007; 5215.875;  234.375;    0.000
601.130; 5155.875;  183.375;    0.000
601.253; 5260.875;  211.375;    0.000
601.376; 4993.875;  199.375;    0.000
601.499; 5144.875;  190.375;    0.000
601.622; 5149.875;  210.375;    0.000
601.745; 5115.875;  180.375;    0.000
601.868; 5118.875;  204.375;    0.000
601.991; 5178.875;  188.375;    0.000
602.113; 5144.875;  210.375;    0.000
602.236; 5046.875;  194.375;    0.000
602.359; 4975.875;  213.375;    0.000
602.482; 5173.875;  169.375;    0.000
602.605; 4985.875;  189.375;    0.000
602.728; 4982.875;  236.375;    0.000
602.850; 5129.875;  230.375;    0.000
602.973; 4973.875;  187.375;    0.000
603.096; 4952.875;  201.375;    0.000
603.219; 5012.875;  209.375;    0.000
603.341; 5043.875;  209.375;    0.000
603.464; 4954.875;  194.375;    0.000
603.587; 4996.875;  166.375;    0.000
603.709; 4980.875;  175.375;    0.000
603.832; 5010.875;  239.375;    0.000
603.955; 4991.875;  205.375;    0.000
604.077; 4909.875;  196.375;    0.000
604.200; 4968.875;  188.375;    0.000
604.323; 4942.875;  224.375;    0.000
604.445; 4997.875;  182.375;    0.000
604.568; 4901.875;  199.375;    0.000
604.690; 4924.875;  175.375;    0.000
604.813; 4916.875;  211.375;    0.000
604.935; 4955.875;  171.375;    0.000
605.058; 4870.875;  196.375;    0.000
605.180; 4890.875;  194.375;    0.000
605.303; 4760.875;  198.375;    0.000
605.425; 4878.875;  212.375;    0.000
605.547; 4875.875;  238.375;    0.000
605.670; 4795.875;  207.375;    0.000
605.792; 4833.875;  204.375;    0.000
605.915; 4718.875;  198.375;    0.000
606.037; 4813.875;  215.375;    0.000
606.159; 4817.875;  170.375;    0.000
606.282; 4843.875;  194.375;    0.000
606.404; 4868.875;  207.375;    0.000
606.526; 4799.875;  208.375;    0.000
606.648; 4780.875;  174.375;    0.000
606.771; 4778.875;  170.375;    0.000
606.893; 4765.875;  182.375;    0.000
607.015; 4890.875;  180.375;    0.000
607.137; 4895.875;  187.375;    0.000
607.260; 4862.875;  202.375;    0.000
607.382; 4861.875;  226.375;    0.000
607.504; 4846.875;  208.375;    0.000
607.626; 4769.875;  229.375;    0.000
607.748; 4773.875;  170.375;    0.000
607.870; 4713.875;  208.375;    0.000
607.992; 4768.875;  184.375;    0.000
608.114; 4727.875;  213.375;    0.000
608.237; 4818.875;  237.375;    0.000
608.359; 4708.875;  176.375;    0.000
608.481; 4748.875;  173.375;    0.000
608.603; 4770.875;  189.375;    0.000
608.725; 4689.875;  185.375;    0.000
608.847; 4783.875;  239.375;    0.000
608.969; 4810.875;  237.375;    0.000
609.090; 4750.875;  189.375;    0.000
609.212; 4685.875;  147.375;    0.000
609.334; 4772.875;  177.375;    0.000
609.456; 4741.875;  196.375;    0.000
609.578; 4733.875;  199.375;    0.000
609.700; 4745.875;  167.375;    0.000
609.822; 4654.875;  140.375;    0.000
609.944; 4748.875;  225.375;    0.000
610.065; 4680.875;  183.375;    0.000
610.187; 4762.875;  170.375;    0.000
610.309; 4708.875;  210.375;    0.000
610.431; 4615.875;  185.375;    0.000
610.552; 4656.875;  197.375;    0.000
610.674; 4674.875;  188.375;    0.000
610.796; 4605.875;  162.375;    0.000
610.918; 4660.875;  200.375;    0.000
611.039; 4639.875;  209.375;    0.000
611.161; 4704.875;  201.375;    0.000
611.282; 4683.875;  197.375;    0.000
611.404; 4702.875;  220.375;    0.000
611.526; 4648.875;  159.375;    0.000
611.647; 4619.875;  205.375;    0.000
611.769; 4548.875;  161.375;    0.000
611.890; 4649.875;  173.375;    0.000
612.012; 4681.875;  225.375;    0.000
612.133; 4596.875;  188.375;    0.000
612.255; 4695.875;  217.375;    0.000
612.377; 4650.875;  219.375;    0.000
612.498; 4700.875;  177.375;    0.000
612.619; 4590.875;  211.375;    0.000
612.741; 4638.875;  185.375;    0.000
612.862; 4647.875;  191.375;    0.000
612.984; 4587.875;  190.375;    0.000
613.105; 4564.875;  211.375;    0.000
613.226; 4617.875;  174.375;    0.000
613.348; 4581.875;  235.375;    0.000
613.469; 4605.875;  230.375;    0.000
613.590; 4583.875;  208.375;    0.000
613.712; 4710.875;  244.375;    0.000
613.833; 4558.875;  202.375;    0.000
613.954; 4548.875;  228.375;    0.000
614.076; 4638.875;  220.375;    0.000
614.197; 4503.875;  191.375;    0.000
614.318; 4615.875;  201.375;    0.000
614.439; 4525.875;  212.375;    0.000
614.560; 4618.875;  219.375;    0.000
614.682; 4621.875;  189.375;    0.000
614.803; 4659.875;  188.375;    0.000
614.924; 4669.875;  225.375;    0.000
615.045; 4804.875;  227.375;    0.000
615.166; 4651.875;  200.375;    0.000
615.287; 4866.875;  195.375;    0.000
615.408; 5079.875;  199.375;    0.000
615.529; 5248.875;  227.375;    0.000
615.650; 4834.875;  176.375;    0.000
615.771; 4701.875;  211.375;    0.000
615.892; 4897.875;  212.375;    0.000
616.013; 5449.875;  172.375;    0.000
616.134; 5646.875;  220.375;    0.000
616.255; 5485.875;  251.375;    0.000
616.376; 5064.875;  186.375;    0.000
616.497; 4984.875;  201.375;    0.000
616.618; 4852.875;  149.375;    0.000
616.739; 4859.875;  213.375;    0.000
616.860; 4742.875;  224.375;    0.000
616.981; 4724.875;  224.375;    0.000
617.102; 4760.875;  217.375;    0.000
617.222; 4778.875;  237.375;    0.000
617.343; 4653.875;  205.375;    0.000
617.464; 4781.875;  229.375;    0.000
617.585; 4748.875;  227.375;    0.000
617.705; 4606.875;  191.375;    0.000
617.826; 4667.875;  237.375;    0.000
617.947; 4656.875;  223.375;    0.000
618.068; 4624.875;  189.375;    0.000
618.188; 4428.875;  194.375;    0.000
618.309; 4639.875;  206.375;    0.000
618.430; 4665.875;  229.375;    0.000
618.550; 4602.875;  250.375;    0.000
618.671; 4736.875;  201.375;    0.000
618.791; 4548.875;  226.375;    0.000
618.912; 4583.875;  246.375;    0.000
619.033; 4598.875;  243.375;    0.000
619.153; 4533.875;  208.375;    0.000
619.274; 4562.875;  223.375;    0.000
619.394; 4540.875;  226.375;    0.000
619.515; 4513.875;  188.375;    0.000
619.635; 4451.875;  216.375;    0.000
619.756; 4528.875;  229.375;    0.000
619.876; 4503.875;  216.375;    0.000
619.996; 4562.875;  244.375;    0.000
620.117; 4530.875;  225.375;    0.000
620.237; 4477.875;  207.375;    0.000
620.358; 4448.875;  239.375;    0.000
620.478; 4417.875;  237.375;    0.000
620.598; 4471.875;  237.375;    0.000
620.719; 4481.875;  223.375;    0.000
620.839; 4532.875;  254.375;    0.000
620.959; 4436.875;  244.375;    0.000
621.079; 4418.875;  193.375;    0.000
621.200; 4569.875;  233.375;    0.000
621.320; 4460.875;  270.375;    0.000
621.440; 4326.875;  206.375;    0.000
621.560; 4406.875;  241.375;    0.000
621.681; 4337.875;  231.375;    0.000
621.801; 4410.875;  235.375;    0.000
621.921; 4418.875;  240.375;    0.000
622.041; 4533.875;  244.375;    0.000
622.161; 4419.875;  225.375;    0.000
622.281; 4486.875;  222.375;    0.000
622.401; 4323.875;  238.375;    0.000
622.521; 4409.875;  233.375;    0.000
622.641; 4314.875;  241.375;    0.000
622.761; 4353.875;  233.375;    0.000
622.882; 4349.875;  230.375;    0.000
623.002; 4337.875;  206.375;    0.000
623.121; 4316.875;  217.375;    0.000
623.241; 4441.875;  263.375;    0.000
623.361; 4346.875;  245.375;    0.000
623.481; 4302.875;  194.375;    0.000
623.601; 4392.875;  228.375;    0.000
623.721; 4376.875;  219.375;    0.000
623.841; 4314.875;  234.375;    0.000
623.961; 4363.875;  235.375;    0.000
624.081; 4363.875;  166.375;    0.000
624.201; 4276.875;  229.375;    0.000
624.320; 4238.875;  224.375;    0.000
624.440; 4247.875;  200.375;    0.000
624.560; 4267.875;  220.375;    0.000
624.680; 4219.875;  214.375;    0.000
624.799; 4266.875;  179.375;    0.000
624.919; 4291.875;  199.375;    0.000
625.039; 4353.875;  211.375;    0.000
625.159; 4225.875;  213.375;    0.000
625.278; 4223.875;  178.375;    0.000
625.398; 4265.875;  206.375;    0.000
625.518; 4239.875;  182.375;    0.000
625.637; 4172.875;  206.375;    0.000
625.757; 4234.875;  197.375;    0.000
625.876; 4203.875;  204.375;    0.000
625.996; 4308.875;  222.375;    0.000
626.115; 4297.875;  222.375;    0.000
626.235; 4178.875;  222.375;    0.000
626.354; 4149.875;  211.375;    0.000
626.474; 4323.875;  217.375;    0.000
626.594; 4248.875;  190.375;    0.000
626.713; 4264.875;  200.375;    0.000
626.832; 4297.875;  234.375;    0.000
626.952; 4130.875;  214.375;    0.000
627.071; 4123.875;  243.375;    0.000
627.191; 4068.875;  192.375;    0.000
627.310; 4274.875;  211.375;    0.000
627.429; 4242.875;  218.375;    0.000
627.549; 4175.875;  214.375;    0.000
627.668; 4161.875;  208.375;    0.000
627.787; 4176.875;  199.375;    0.000
627.907; 4151.875;  208.375;    0.000
628.026; 4183.875;  216.375;    0.000
628.145; 4157.875;  170.375;    0.000
628.264; 4144.875;  217.375;    0.000
628.384; 4152.875;  190.375;    0.000
628.503; 4235.875;  203.375;    0.000
628.622; 4219.875;  197.375;    0.000
628.741; 4108.875;  186.375;    0.000
628.860; 4218.875;  191.375;    0.000
628.980; 4146.875;  196.375;    0.000
629.099; 4137.875;  190.375;    0.000
629.218; 4173.875;  165.375;    0.000
629.337; 4142.875;  190.375;    0.000
629.456; 4105.875;  222.375;    0.000
629.575; 4125.875;  197.375;    0.000
629.694; 4144.875;  210.375;    0.000
629.813; 4182.875;  187.375;    0.000
629.932; 4279.875;  224.375;    0.000
630.051; 4166.875;  216.375;    0.000
630.170; 4084.875;  203.375;    0.000
630.289; 4072.875;  178.375;    0.000
630.408; 4081.875;  192.375;    0.000
630.527; 4191.875;  223.375;    0.000
630.646; 4177.875;  177.375;    0.000
630.764; 4126.875;  224.375;    0.000
630.883; 4056.875;  220.375;    0.000
631.002; 4120.875;  187.375;    0.000
631.121; 3997.875;  208.375;    0.000
631.240; 4244.875;  217.375;    0.000
631.359; 4115.875;  241.375;    0.000
631.477; 4138.875;  189.375;    0.000
631.596; 4070.875;  244.375;    0.000
631.715; 4142.875;  241.375;    0.000
631.834; 4112.875;  219.375;    0.000
631.952; 4063.875;  231.375;    0.000
632.071; 4203.875;  197.375;    0.000
632.190; 4071.875;  193.375;    0.000
632.308; 4169.875;  185.375;    0.000
632.427; 4004.875;  188.375;    0.000
632.546; 4101.875;  208.375;    0.000
632.664; 3913.875;  191.375;    0.000
632.783; 4077.875;  201.375;    0.000
632.901; 4116.875;  239.375;    0.000
633.020; 3960.875;  197.375;    0.000
633.138; 4060.875;  189.375;    0.000
633.257; 4058.875;  210.375;    0.000
633.375; 4060.875;  213.375;    0.000
633.494; 4076.875;  206.375;    0.000
633.612; 3990.875;  231.375;    0.000
633.731; 4020.875;  213.375;    0.000
633.849; 4055.875;  244.375;    0.000
633.968; 3920.875;  251.375;    0.000
634.086; 4028.875;  224.375;    0.000
634.204; 4049.875;  212.375;    0.000
634.323; 4042.875;  213.375;    0.000
634.441; 4029.875;  219.375;    0.000
634.559; 4050.875;  198.375;    0.000
634.678; 4006.875;  201.375;    0.000
634.796; 4004.875;  179.375;    0.000
634.914; 3969.875;  255.375;    0.000
635.032; 4052.875;  264.375;    0.000
635.151; 3933.875;  228.375;    0.000
635.269; 4063.875;  223.375;    0.000
635.387; 3978.875;  228.375;    0.000
635.505; 3982.875;  214.375;    0.000
635.623; 4090.875;  279.375;    0.000
635.742; 4046.875;  237.375;    0.000
635.860; 4049.875;  244.375;    0.000
635.978; 3947.875;  213.375;    0.000
636.096; 4007.875;  230.375;    0.000
636.214; 4087.875;  252.375;    0.000
636.332; 3963.875;  221.375;    0.000
636.450; 4036.875;  227.375;    0.000
636.568; 3957.875;  193.375;    0.000
636.686; 3995.875;  208.375;    0.000
636.804; 4045.875;  213.375;    0.000
636.922; 3937.875;  199.375;    0.000
637.040; 4006.875;  202.375;    0.000
637.158; 3880.875;  239.375;    0.000
637.276; 3979.875;  225.375;    0.000
637.394; 3946.875;  217.375;    0.000
637.512; 4008.875;  192.375;    0.000
637.629; 4001.875;  216.375;    0.000
637.747; 3982.875;  198.375;    0.000
637.865; 3997.875;  265.375;    0.000
637.983; 3993.875;  245.375;    0.000
638.101; 3916.875;  199.375;    0.000
638.218; 3890.875;  197.375;    0.000
638.336; 3975.875;  212.375;    0.000
638.454; 3952.875;  227.375;    0.000
638.572; 3890.875;  215.375;    0.000
638.689; 4014.875;  214.375;    0.000
638.807; 3961.875;  233.375;    0.000
638.925; 3891.875;  217.375;    0.000
639.042; 3844.875;  180.375;    0.000
639.160; 3917.875;  220.375;    0.000
639.278; 3875.875;  180.375;    0.000
639.395; 3962.875;  243.375;    0.000
639.513; 3975.875;  207.375;    0.000
639.630; 3946.875;  183.375;    0.000
639.748; 3834.875;  231.375;    0.000
639.865; 3905.875;  215.375;    0.000
639.983; 3887.875;  182.375;    0.000
640.100; 3875.875;  190.375;    0.000
640.218; 3869.875;  224.375;    0.000
640.335; 3947.875;  214.375;    0.000
640.453; 3890.875;  212.375;    0.000
640.570; 3915.875;  224.375;    0.000
640.688; 3717.875;  220.375;    0.000
640.805; 3880.875;  189.375;    0.000
640.922; 3865.875;  256.375;    0.000
641.040; 3979.875;  209.375;    0.000
641.157; 4015.875;  195.375;    0.000
641.274; 3914.875;  195.375;    0.000
641.391; 4058.875;  231.375;    0.000
641.509; 3790.875;  207.375;    0.000
641.626; 3889.875;  227.375;    0.000
641.743; 3907.875;  188.375;    0.000
641.860; 3767.875;  208.375;    0.000
641.978; 3821.875;  222.375;    0.000
642.095; 3877.875;  194.375;    0.000
642.212; 3894.875;  202.375;    0.000
642.329; 3899.875;  241.375;    0.000
642.446; 3845.875;  261.375;    0.000
642.563; 3830.875;  236.375;    0.000
642.681; 3850.875;  228.375;    0.000
642.798; 3779.875;  242.375;    0.000
642.915; 3835.875;  197.375;    0.000
643.032; 3902.875;  239.375;    0.000
643.149; 3897.875;  241.375;    0.000
643.266; 3933.875;  199.375;    0.000
643.383; 3877.875;  200.375;    0.000
643.500; 3857.875;  221.375;    0.000
643.617; 3937.875;  196.375;    0.000
643.734; 3860.875;  207.375;    0.000
643.850; 3952.875;  222.375;    0.000
643.967; 3922.875;  235.375;    0.000
644.084; 3998.875;  233.375;    0.000
644.201; 4000.875;  229.375;    0.000
644.318; 3878.875;  210.375;    0.000
644.435; 3838.875;  234.375;    0.000
644.552; 3907.875;  220.375;    0.000
644.668; 3977.875;  231.375;    0.000
644.785; 3962.875;  231.375;    0.000
644.902; 3981.875;  238.375;    0.000
645.019; 3903.875;  226.375;    0.000
645.135; 3915.875;  179.375;    0.000
645.252; 3934.875;  224.375;    0.000
645.369; 4025.875;  206.375;    0.000
645.485; 4070.875;  200.375;    0.000
645.602; 4011.875;  210.375;    0.000
645.719; 4017.875;  206.375;    0.000
645.835; 4101.875;  247.375;    0.000
645.952; 3956.875;  222.375;    0.000
646.068; 3927.875;  205.375;    0.000
646.185; 3963.875;  230.375;    0.000
646.302; 4146.875;  254.375;    0.000
646.418; 4130.875;  230.375;    0.000
646.535; 4076.875;  214.375;    0.000
646.651; 4033.875;  179.375;    0.000
646.768; 4111.875;  190.375;    0.000
646.884; 4107.875;  208.375;    0.000
647.000; 4187.875;  262.375;    0.000
647.117; 4108.875;  212.375;    0.000
647.233; 4096.875;  228.375;    0.000
647.350; 4135.875;  208.375;    0.000
647.466; 4121.875;  211.375;    0.000
647.582; 4125.875;  196.375;    0.000
647.699; 4266.875;  217.375;    0.000
647.815; 4240.875;  203.375;    0.000
647.931; 4221.875;  201.375;    0.000
648.047; 4310.875;  182.375;    0.000
648.164; 4314.875;  219.375;    0.000
648.280; 4331.875;  213.375;    0.000
648.396; 4252.875;  202.375;    0.000
648.512; 4236.875;  233.375;    0.000
648.629; 4325.875;  206.375;    0.000
648.745; 4245.875;  188.375;    0.000
648.861; 4201.875;  209.375;    0.000
648.977; 4250.875;  218.375;    0.000
649.093; 4228.875;  225.375;    0.000
649.209; 4312.875;  240.375;    0.000
649.325; 4150.875;  253.375;    0.000
649.441; 4320.875;  263.375;    0.000
649.557; 4213.875;  256.375;    0.000
649.673; 4320.875;  211.375;    0.000
649.789; 4368.875;  237.375;    0.000
649.905; 4191.875;  183.375;    0.000
650.021; 4354.875;  238.375;    0.000
650.137; 4202.875;  241.375;    0.000
650.253; 4222.875;  228.375;    0.000
650.369; 4282.875;  221.375;    0.000
650.485; 4379.875;  240.375;    0.000
650.601; 4403.875;  254.375;    0.000
650.717; 4417.875;  201.375;    0.000
650.833; 4401.875;  257.375;    0.000
650.948; 4389.875;  213.375;    0.000
651.064; 4369.875;  223.375;    0.000
651.180; 4357.875;  230.375;    0.000
651.296; 4282.875;  235.375;    0.000
651.411; 4410.875;  221.375;    0.000
651.527; 4424.875;  233.375;    0.000
651.643; 4402.875;  236.375;    0.000
651.759; 4422.875;  268.375;    0.000
651.874; 4463.875;  214.375;    0.000
651.990; 4519.875;  251.375;    0.000
652.105; 4570.875;  217.375;    0.000
652.221; 4605.875;  243.375;    0.000
652.337; 4611.875;  231.375;    0.000
652.452; 4701.875;  238.375;    0.000
652.568; 4689.875;  188.375;    0.000
652.683; 4673.875;  197.375;    0.000
652.799; 4694.875;  194.375;    0.000
652.914; 4715.875;  222.375;    0.000
653.030; 4850.875;  200.375;    0.000
653.145; 4902.875;  235.375;    0.000
653.261; 4892.875;  261.375;    0.000
653.376; 4805.875;  228.375;    0.000
653.492; 4941.875;  222.375;    0.000
653.607; 5059.875;  227.375;    0.000
653.722; 5003.875;  250.375;    0.000
653.838; 5132.875;  255.375;    0.000
653.953; 5196.875;  235.375;    0.000
654.068; 5286.875;  266.375;    0.000
654.184; 5347.875;  210.375;    0.000
654.299; 5371.875;  240.375;    0.000
654.414; 5420.875;  222.375;    0.000
654.530; 5534.875;  222.375;    0.000
654.645; 5599.875;  256.375;    0.000
654.760; 5701.875;  244.375;    0.000
654.875; 5811.875;  229.375;    0.000
654.990; 5964.875;  226.375;    0.000
655.106; 6159.875;  254.375;    0.000
655.221; 6145.875;  251.375;    0.000
655.336; 6360.875;  245.375;    0.000
655.451; 6517.875;  199.375;    0.000
655.566; 6516.875;  228.375;    0.000
655.681; 6783.875;  208.375;    0.000
655.796; 7052.875;  218.375;    0.000
655.911; 7316.875;  233.375;    0.000
656.026; 7612.875;  232.375;    0.000
656.141; 7868.875;  223.375;    0.000
656.256; 8089.875;  247.375;    0.000
656.371; 8162.875;  220.375;    0.000
656.486; 8096.875;  225.375;    0.000
656.601; 7978.875;  257.375;    0.000
656.716; 7876.875;  248.375;    0.000
656.831; 7760.875;  262.375;    0.000
656.946; 7493.875;  249.375;    0.000
657.060; 7310.875;  245.375;    0.000
657.175; 7127.875;  245.375;    0.000
657.290; 6982.875;  219.375;    0.000
657.405; 7078.875;  286.375;    0.000
657.520; 6772.875;  259.375;    0.000
657.634; 6673.875;  239.375;    0.000
657.749; 6517.875;  227.375;    0.000
657.864; 6367.875;  210.375;    0.000
657.979; 6301.875;  236.375;    0.000
658.093; 6118.875;  210.375;    0.000
658.208; 6000.875;  248.375;    0.000
658.323; 5810.875;  216.375;    0.000
658.437; 5735.875;  248.375;    0.000
658.552; 5796.875;  249.375;    0.000
658.666; 5639.875;  256.375;    0.000
658.781; 5686.875;  247.375;    0.000
658.895; 5569.875;  209.375;    0.000
659.010; 5379.875;  219.375;    0.000
659.125; 5404.875;  215.375;    0.000
659.239; 5365.875;  205.375;    0.000
659.353; 5283.875;  246.375;    0.000
659.468; 5248.875;  245.375;    0.000
659.582; 5221.875;  244.375;    0.000
659.697; 5016.875;  242.375;    0.000
659.811; 5144.875;  239.375;    0.000
659.926; 5015.875;  226.375;    0.000
660.040; 4996.875;  255.375;    0.000
660.154; 4932.875;  225.375;    0.000
660.269; 4976.875;  200.375;    0.000
660.383; 4888.875;  192.375;    0.000
660.497; 4891.875;  218.375;    0.000
660.612; 4868.875;  236.375;    0.000
660.726; 4880.875;  263.375;    0.000
660.840; 4768.875;  205.375;    0.000
660.954; 4694.875;  219.375;    0.000
661.068; 4703.875;  240.375;    0.000
661.183; 4670.875;  221.375;    0.000
661.297; 4478.875;  194.375;    0.000
661.411; 4510.875;  253.375;    0.000
661.525; 4423.875;  246.375;    0.000
661.639; 4505.875;  217.375;    0.000
661.753; 4403.875;  241.375;    0.000
661.867; 4427.875;  276.375;    0.000
661.981; 4371.875;  203.375;    0.000
662.095; 4315.875;  224.375;    0.000
662.209; 4324.875;  217.375;    0.000
662.323; 4311.875;  251.375;    0.000
662.437; 4121.875;  243.375;    0.000
662.551; 4107.875;  244.375;    0.000
662.665; 4187.875;  247.375;    0.000
662.779; 4016.875;  251.375;    0.000
662.893; 4087.875;  254.375;    0.000
663.007; 4032.875;  222.375;    0.000
663.121; 4103.875;  253.375;    0.000
663.235; 4011.875;  270.375;    0.000
663.349; 4036.875;  242.375;    0.000
663.462; 4005.875;  230.375;    0.000
663.576; 3916.875;  230.375;    0.000
663.690; 3953.875;  249.375;    0.000
663.804; 3895.875;  200.375;    0.000
663.917; 3850.875;  204.375;    0.000
664.031; 3882.875;  206.375;    0.000
664.145; 3840.875;  202.375;    0.000
664.258; 3838.875;  221.375;    0.000
664.372; 3807.875;  215.375;    0.000
664.486; 3797.875;  179.375;    0.000
664.599; 3695.875;  208.375;    0.000
664.713; 3848.875;  268.375;    0.000
664.827; 3615.875;  225.375;    0.000
664.940; 3713.875;  222.375;    0.000
665.054; 3672.875;  208.375;    0.000
665.167; 3687.875;  253.375;    0.000
665.281; 3626.875;  237.375;    0.000
665.394; 3651.875;  227.375;    0.000
665.508; 3552.875;  192.375;    0.000
665.621; 3608.875;  175.375;    0.000
665.735; 3563.875;  249.375;    0.000
665.848; 3631.875;  197.375;    0.000
665.961; 3589.875;  206.375;    0.000
666.075; 3624.875;  245.375;    0.000
666.188; 3658.875;  230.375;    0.000
666.301; 3585.875;  219.375;    0.000
666.415; 3621.875;  231.375;    0.000
666.528; 3552.875;  258.375;    0.000
666.641; 3532.875;  243.375;    0.000
666.755; 3563.875;  208.375;    0.000
666.868; 3482.875;  228.375;    0.000
666.981; 3522.875;  244.375;    0.000
667.094; 3494.875;  244.375;    0.000
667.207; 3512.875;  226.375;    0.000
667.321; 3501.875;  175.375;    0.000
667.434; 3509.875;  211.375;    0.000
667.547; 3503.875;  249.375;    0.000
667.660; 3387.875;  225.375;    0.000
667.773; 3380.875;  242.375;    0.000
667.886; 3388.875;  246.375;    0.000
667.999; 3404.875;  244.375;    0.000
668.112; 3357.875;  227.375;    0.000
668.225; 3387.875;  231.375;    0.000
668.338; 3376.875;  256.375;    0.000
668.451; 3322.875;  216.375;    0.000
668.564; 3408.875;  261.375;    0.000
668.677; 3306.875;  230.375;    0.000
668.790; 3275.875;  192.375;    0.000
668.903; 3326.875;  243.375;    0.000
669.016; 3265.875;  201.375;    0.000
669.129; 3310.875;  249.375;    0.000
669.242; 3185.875;  190.375;    0.000
669.354; 3289.875;  219.375;    0.000
669.467; 3225.875;  242.375;    0.000
669.580; 3310.875;  237.375;    0.000
669.693; 3229.875;  243.375;    0.000
669.806; 3348.875;  234.375;    0.000
669.918; 3216.875;  206.375;    0.000
670.031; 3284.875;  258.375;    0.000
670.144; 3181.875;  231.375;    0.000
670.256; 3150.875;  244.375;    0.000
670.369; 3172.875;  262.375;    0.000
670.482; 3100.875;  264.375;    0.000
670.594; 3194.875;  256.375;    0.000
670.707; 3180.875;  224.375;    0.000
670.820; 3143.875;  261.375;    0.000
670.932; 3160.875;  226.375;    0.000
671.045; 3220.875;  243.375;    0.000
671.157; 3205.875;  235.375;    0.000
671.270; 3118.875;  217.375;    0.000
671.382; 3089.875;  267.375;    0.000
671.495; 3200.875;  258.375;    0.000
671.607; 3110.875;  236.375;    0.000
671.720; 3052.875;  200.375;    0.000
671.832; 3087.875;  219.375;    0.000
671.944; 3156.875;  234.375;    0.000
672.057; 3116.875;  226.375;    0.000
672.169; 3075.875;  225.375;    0.000
672.281; 3154.875;  253.375;    0.000
672.394; 3125.875;  238.375;    0.000
672.506; 3086.875;  244.375;    0.000
672.618; 3126.875;  272.375;    0.000
672.731; 3021.875;  247.375;    0.000
672.843; 3107.875;  261.375;    0.000
672.955; 3070.875;  262.375;    0.000
673.067; 3155.875;  253.375;    0.000
673.180; 3051.875;  239.375;    0.000
673.292; 2992.875;  240.375;    0.000
673.404; 3129.875;  243.375;    0.000
673.516; 3087.875;  258.375;    0.000
673.628; 3073.875;  263.375;    0.000
673.740; 3049.875;  250.375;    0.000
673.852; 3074.875;  285.375;    0.000
673.964; 3054.875;  264.375;    0.000
674.076; 3039.875;  260.375;    0.000
674.188; 3078.875;  226.375;    0.000
674.300; 3080.875;  272.375;    0.000
674.412; 3065.875;  259.375;    0.000
674.524; 3115.875;  283.375;    0.000
674.636; 2979.875;  259.375;    0.000
674.748; 2937.875;  238.375;    0.000
674.860; 2942.875;  277.375;    0.000
674.972; 3106.875;  272.375;    0.000
675.084; 2979.875;  244.375;    0.000
675.196; 3067.875;  272.375;    0.000
675.307; 3026.875;  244.375;    0.000
675.419; 2999.875;  219.375;    0.000
675.531; 3109.875;  275.375;    0.000
675.643; 2995.875;  215.375;    0.000
675.755; 2977.875;  243.375;    0.000
675.866; 3045.875;  223.375;    0.000
675.978; 2915.875;  216.375;    0.000
676.090; 2934.875;  242.375;    0.000
676.201; 2991.875;  276.375;    0.000
676.313; 2938.875;  226.375;    0.000
676.425; 2940.875;  234.375;    0.000
676.536; 2985.875;  231.375;    0.000
676.648; 2991.875;  254.375;    0.000
676.759; 3001.875;  273.375;    0.000
676.871; 2929.875;  250.375;    0.000
676.983; 2878.875;  256.375;    0.000
677.094; 2828.875;  210.375;    0.000
677.206; 2907.875;  248.375;    0.000
677.317; 2922.875;  263.375;    0.000
677.429; 2874.875;  238.375;    0.000
677.540; 2893.875;  247.375;    0.000
677.651; 2858.875;  224.375;    0.000
677.763; 2815.875;  217.375;    0.000
677.874; 2883.875;  234.375;    0.000
677.986; 2917.875;  238.375;    0.000
678.097; 2886.875;  226.375;    0.000
678.208; 2853.875;  253.375;    0.000
678.320; 2923.875;  217.375;    0.000
678.431; 2903.875;  238.375;    0.000
678.542; 2852.875;  236.375;    0.000
678.653; 2797.875;  218.375;    0.000
678.765; 2798.875;  275.375;    0.000
678.876; 2829.875;  213.375;    0.000
678.987; 2809.875;  182.375;    0.000
679.098; 2690.875;  221.375;    0.000
679.209; 2726.875;  238.375;    0.000
679.320; 2879.875;  212.375;    0.000
679.432; 2826.875;  231.375;    0.000
679.543; 2818.875;  198.375;    0.000
679.654; 2869.875;  191.375;    0.000
679.765; 2747.875;  214.375;    0.000
679.876; 2765.875;  221.375;    0.000
679.987; 2789.875;  162.375;    0.000
680.098; 2847.875;  230.375;    0.000
680.209; 2770.875;  206.375;    0.000
680.320; 2797.875;  196.375;    0.000
680.431; 2792.875;  191.375;    0.000
680.542; 2766.875;  214.375;    0.000
680.653; 2817.875;  238.375;    0.000
680.763; 2721.875;  182.375;    0.000
680.874; 2694.875;  213.375;    0.000
680.985; 2662.875;  224.375;    0.000
681.096; 2741.875;  222.375;    0.000
681.207; 2754.875;  220.375;    0.000
681.318; 2818.875;  216.375;    0.000
681.428; 2779.875;  229.375;    0.000
681.539; 2799.875;  183.375;    0.000
681.650; 2804.875;  202.375;    0.000
681.760; 2689.875;  223.375;    0.000
681.871; 2735.875;  211.375;    0.000
681.982; 2723.875;  189.375;    0.000
682.093; 2785.875;  222.375;    0.000
682.203; 2734.875;  220.375;    0.000
682.314; 2728.875;  214.375;    0.000
682.424; 2691.875;  208.375;    0.000
682.535; 2627.875;  213.375;    0.000
682.646; 2672.875;  302.375;    0.000
682.756; 2759.875;  255.375;    0.000
682.867; 2700.875;  244.375;    0.000
682.977; 2731.875;  221.375;    0.000
683.088; 2747.875;  259.375;    0.000
683.198; 2714.875;  212.375;    0.000
683.308; 2627.875;  202.375;    0.000
683.419; 2756.875;  255.375;    0.000
683.529; 2631.875;  217.375;    0.000
683.640; 2691.875;  240.375;    0.000
683.750; 2755.875;  181.375;    0.000
683.860; 2741.875;  246.375;    0.000
683.971; 2738.875;  254.375;    0.000
684.081; 2701.875;  235.375;    0.000
684.191; 2769.875;  251.375;    0.000
684.301; 2707.875;  233.375;    0.000
684.412; 2712.875;  202.375;    0.000
684.522; 2683.875;  232.375;    0.000
684.632; 2650.875;  202.375;    0.000
684.742; 2704.875;  254.375;    0.000
684.852; 2681.875;  219.375;    0.000
684.963; 2690.875;  256.375;    0.000
685.073; 2731.875;  253.375;    0.000
685.183; 2715.875;  254.375;    0.000
685.293; 2584.875;  232.375;    0.000
685.403; 2708.875;  242.375;    0.000
685.513; 2687.875;  261.375;    0.000
685.623; 2761.875;  245.375;    0.000
685.733; 2763.875;  254.375;    0.000
685.843; 2716.875;  249.375;    0.000
685.953; 2742.875;  252.375;    0.000
686.063; 2651.875;  227.375;    0.000
686.173; 2656.875;  223.375;    0.000
686.283; 2685.875;  234.375;    0.000
686.393; 2594.875;  239.375;    0.000
686.503; 2669.875;  231.375;    0.000
686.612; 2667.875;  232.375;    0.000
686.722; 2678.875;  258.375;    0.000
686.832; 2654.875;  256.375;    0.000
686.942; 2737.875;  230.375;    0.000
687.052; 2658.875;  274.375;    0.000
687.161; 2635.875;  269.375;    0.000
687.271; 2609.875;  218.375;    0.000
687.381; 2627.875;  235.375;    0.000
687.491; 2676.875;  262.375;    0.000
687.600; 2661.875;  256.375;    0.000
687.710; 2669.875;  225.375;    0.000
687.820; 2624.875;  230.375;    0.000
687.929; 2603.875;  226.375;    0.000
688.039; 2666.875;  228.375;    0.000
688.148; 2644.875;  249.375;    0.000
688.258; 2648.875;  237.375;    0.000
688.367; 2608.875;  260.375;    0.000
688.477; 2543.875;  200.375;    0.000
688.586; 2691.875;  223.375;    0.000
688.696; 2724.875;  223.375;    0.000
688.805; 2718.875;  257.375;    0.000
688.915; 2670.875;  185.375;    0.000
689.024; 2601.875;  227.375;    0.000
689.134; 2623.875;  224.375;    0.000
689.243; 2596.875;  206.375;    0.000
689.352; 2665.875;  275.375;    0.000
689.462; 2635.875;  233.375;    0.000
689.571; 2610.875;  244.375;    0.000
689.680; 2699.875;  261.375;    0.000
689.790; 2590.875;  192.375;    0.000
689.899; 2540.875;  214.375;    0.000
690.008; 2663.875;  255.375;    0.000
690.117; 2621.875;  219.375;    0.000
690.227; 2575.875;  241.375;    0.000
690.336; 2509.875;  231.375;    0.000
690.445; 2540.875;  212.375;    0.000
690.554; 2643.875;  234.375;    0.000
690.663; 2588.875;  210.375;    0.000
690.772; 2517.875;  221.375;    0.000
690.881; 2660.875;  244.375;    0.000
690.990; 2628.875;  247.375;    0.000
691.099; 2555.875;  222.375;    0.000
691.209; 2550.875;  240.375;    0.000
691.318; 2574.875;  223.375;    0.000
691.427; 2550.875;  217.375;    0.000
691.536; 2550.875;  216.375;    0.000
691.644; 2569.875;  194.375;    0.000
691.753; 2579.875;  221.375;    0.000
691.862; 2567.875;  224.375;    0.000
691.971; 2573.875;  191.375;    0.000
692.080; 2601.875;  247.375;    0.000
692.189; 2614.875;  208.375;    0.000
692.298; 2521.875;  203.375;    0.000
692.406; 2555.875;  239.375;    0.000
692.515; 2592.875;  250.375;    0.000
692.624; 2592.875;  226.375;    0.000
692.733; 2561.875;  229.375;    0.000
692.842; 2614.875;  254.375;    0.000
692.950; 2523.875;  242.375;    0.000
693.059; 2578.875;  204.375;    0.000
693.168; 2606.875;  252.375;    0.000
693.276; 2612.875;  195.375;    0.000
693.385; 2535.875;  228.375;    0.000
693.494; 2545.875;  282.375;    0.000
693.602; 2565.875;  221.375;    0.000
693.711; 2569.875;  225.375;    0.000
693.819; 2458.875;  234.375;    0.000
693.928; 2575.875;  229.375;    0.000
694.036; 2548.875;  192.375;    0.000
694.145; 2554.875;  233.375;    0.000
694.253; 2586.875;  277.375;    0.000
694.362; 2491.875;  188.375;    0.000
694.470; 2549.875;  263.375;    0.000
694.579; 2570.875;  253.375;    0.000
694.687; 2603.875;  281.375;    0.000
694.795; 2541.875;  233.375;    0.000
694.904; 2553.875;  223.375;    0.000
695.012; 2546.875;  296.375;    0.000
695.120; 2497.875;  227.375;    0.000
695.229; 2673.875;  269.375;    0.000
695.337; 2532.875;  229.375;    0.000
695.445; 2640.875;  244.375;    0.000
695.553; 2599.875;  259.375;    0.000
695.662; 2596.875;  208.375;    0.000
695.770; 2546.875;  241.375;    0.000
695.878; 2520.875;  239.375;    0.000
695.986; 2570.875;  247.375;    0.000
696.094; 2521.875;  224.375;    0.000
696.202; 2552.875;  205.375;    0.000
696.310; 2541.875;  217.375;    0.000
696.419; 2522.875;  228.375;    0.000
696.527; 2547.875;  246.375;    0.000
696.635; 2542.875;  245.375;    0.000
696.743; 2652.875;  233.375;    0.000
696.851; 2552.875;  251.375;    0.000
696.959; 2611.875;  257.375;    0.000
697.067; 2571.875;  260.375;    0.000
697.174; 2587.875;  223.375;    0.000
697.282; 2596.875;  239.375;    0.000
697.390; 2578.875;  264.375;    0.000
697.498; 2615.875;  227.375;    0.000
697.606; 2531.875;  243.375;    0.000
697.714; 2493.875;  256.375;    0.000
697.822; 2474.875;  278.375;    0.000
697.929; 2557.875;  227.375;    0.000
698.037; 2511.875;  232.375;    0.000
698.145; 2525.875;  256.375;    0.000
698.253; 2524.875;  245.375;    0.000
698.360; 2533.875;  282.375;    0.000
698.468; 2436.875;  244.375;    0.000
698.576; 2563.875;  279.375;    0.000
698.683; 2664.875;  259.375;    0.000
698.791; 2536.875;  265.375;    0.000
698.899; 2576.875;  250.375;    0.000
699.006; 2500.875;  245.375;    0.000
699.114; 2525.875;  280.375;    0.000
699.221; 2484.875;  240.375;    0.000
699.329; 2550.875;  293.375;    0.000
699.436; 2500.875;  216.375;    0.000
699.544; 2476.875;  269.375;    0.000
699.651; 2508.875;  219.375;    0.000
699.759; 2498.875;  245.375;    0.000
699.866; 2443.875;  261.375;    0.000
699.974; 2492.875;  245.375;    0.000
700.081; 2564.875;  257.375;    0.000
700.188; 2514.875;  268.375;    0.000
700.296; 2589.875;  225.375;    0.000
700.403; 2449.875;  257.375;    0.000
700.510; 2460.875;  267.375;    0.000
700.618; 2474.875;  299.375;    0.000
700.725; 2489.875;  223.375;    0.000
700.832; 2538.875;  233.375;    0.000
700.940; 2516.875;  255.375;    0.000
701.047; 2550.875;  244.375;    0.000
701.154; 2455.875;  248.375;    0.000
701.261; 2488.875;  264.375;    0.000
701.368; 2535.875;  299.375;    0.000
701.475; 2462.875;  264.375;    0.000
701.582; 2463.875;  275.375;    0.000
701.690; 2469.875;  261.375;    0.000
701.797; 2514.875;  273.375;    0.000
701.904; 2579.875;  320.375;    0.000
702.011; 2533.875;  299.375;    0.000
702.118; 2473.875;  292.375;    0.000
702.225; 2580.875;  317.375;    0.000
702.332; 2463.875;  307.375;    0.000
702.439; 2461.875;  313.375;    0.000
702.546; 2558.875;  312.375;    0.000
702.652; 2538.875;  297.375;    0.000
702.759; 2590.875;  345.375;    0.000
702.866; 2617.875;  330.375;    0.000
702.973; 2572.875;  303.375;    0.000
703.080; 2599.875;  303.375;    0.000
703.187; 2517.875;  327.375;    0.000
703.294; 2521.875;  325.375;    0.000
703.400; 2332.875;  302.375;    0.000
703.507;  534.875;  344.375;    0.000
703.614;  303.875;  294.375;    0.000
703.720;  302.875;  322.375;    0.000
703.827;  302.875;  329.375;    0.000
703.934;  308.875;  318.375;    0.000
704.040;  285.875;  299.375;    0.000
704.147;  299.875;  352.375;    0.000
704.254;  347.875;  350.375;    0.000
704.360;  291.875;  347.375;    0.000
704.467;  340.875;  336.375;    0.000
704.573;  328.875;  344.375;    0.000
704.680;  325.875;  365.375;    0.000
704.786;  347.875;  332.375;    0.000
704.893;  333.875;  304.375;    0.000
704.999;  314.875;  299.375;    0.000
705.106;  336.875;  365.375;    0.000

