
Integration time [ms]:   1.000
Averaging Nr. [scans]: 1
Smoothing Nr. [pixels]: 0
Data measured with spectrometer [name]: UV1
Wave   ;Sample   ;Dark     ;Reference
[nm]   ;[counts] ;[counts] ;[counts] 

236.381;  174.250;  175.825;    0.000
236.451;  152.250;  220.825;    0.000
236.520;  183.250;  178.825;    0.000
236.590;  196.250;  182.825;    0.000
236.660;  166.250;  180.825;    0.000
236.730;  178.250;  201.825;    0.000
236.799;  169.250;  168.825;    0.000
236.869;  183.250;  205.825;    0.000
236.939;  201.250;  175.825;    0.000
237.009;  170.250;  186.825;    0.000
237.078;  182.250;  200.825;    0.000
237.148;  180.250;  156.825;    0.000
237.218;  173.250;  190.825;    0.000
237.287;  194.250;  167.825;    0.000
237.357;  202.250;  213.825;    0.000
237.427;  198.250;  164.825;    0.000
237.496;  931.250;  210.825;    0.000
237.566;  900.250;  193.825;    0.000
237.636;  840.250;  179.825;    0.000
237.705;  902.250;  218.825;    0.000
237.775;  826.250;  160.825;    0.000
237.845;  849.250;  207.825;    0.000
237.914;  871.250;  180.825;    0.000
237.984;  899.250;  207.825;    0.000
238.054;  852.250;  149.825;    0.000
238.123;  836.250;  190.825;    0.000
238.193;  896.250;  167.825;    0.000
238.263;  891.250;  172.825;    0.000
238.332;  843.250;  173.825;    0.000
238.402;  879.250;  214.825;    0.000
238.471;  873.250;  181.825;    0.000
238.541;  909.250;  177.825;    0.000
238.611;  891.250;  138.825;    0.000
238.680;  847.250;  168.825;    0.000
238.750;  885.250;  171.825;    0.000
238.819;  874.250;  156.825;    0.000
238.889;  832.250;  194.825;    0.000
238.958;  893.250;  185.825;    0.000
239.028;  855.250;  170.825;    0.000
239.097;  896.250;  159.825;    0.000
239.167;  884.250;  208.825;    0.000
239.237;  887.250;  167.825;    0.000
239.306;  840.250;  154.825;    0.000
239.376;  943.250;  183.825;    0.000
239.445;  871.250;  221.825;    0.000
239.515;  891.250;  208.825;    0.000
239.584;  875.250;  177.825;    0.000
239.654;  805.250;  133.825;    0.000
239.723;  889.250;  167.825;    0.000
239.793;  853.250;  190.825;    0.000
239.862;  817.250;  192.825;    0.000
239.932;  829.250;  174.825;    0.000
240.001;  856.250;  166.825;    0.000
240.070;  844.250;  179.825;    0.000
240.140;  862.250;  191.825;    0.000
240.209;  872.250;  134.825;    0.000
240.279;  858.250;  185.825;    0.000
240.348;  851.250;  193.825;    0.000
240.418;  857.250;  149.825;    0.000
240.487;  842.250;  197.825;    0.000
240.556;  855.250;  193.825;    0.000
240.626;  874.250;  178.825;    0.000
240.695;  891.250;  194.825;    0.000
240.765;  826.250;  178.825;    0.000
240.834;  854.250;  190.825;    0.000
240.903;  817.250;  212.825;    0.000
240.973;  822.250;  153.825;    0.000
241.042;  849.250;  177.825;    0.000
241.112;  818.250;  193.825;    0.000
241.181;  848.250;  171.825;    0.000
241.250;  848.250;  152.825;    0.000
241.320;  844.250;  176.825;    0.000
241.389;  898.250;  186.825;    0.000
241.458;  846.250;  182.825;    0.000
241.528;  791.250;  175.825;    0.000
241.597;  851.250;  180.825;    0.000
241.666;  825.250;  162.825;    0.000
241.736;  818.250;  187.825;    0.000
241.805;  788.250;  173.825;    0.000
241.874;  835.250;  177.825;    0.000
241.943;  855.250;  208.825;    0.000
242.013;  850.250;  183.825;    0.000
242.082;  810.250;  171.825;    0.000
242.151;  837.250;  208.825;    0.000
242.221;  871.250;  160.825;    0.000
242.290;  867.250;  200.825;    0.000
242.359;  822.250;  167.825;    0.000
242.428;  840.250;  213.825;    0.000
242.498;  818.250;  156.825;    0.000
242.567;  865.250;  200.825;    0.000
242.636;  797.250;  178.825;    0.000
242.705;  872.250;  185.825;    0.000
242.774;  843.250;  190.825;    0.000
242.844;  864.250;  194.825;    0.000
242.913;  864.250;  162.825;    0.000
242.982;  864.250;  189.825;    0.000
243.051;  845.250;  176.825;    0.000
243.120;  871.250;  213.825;    0.000
243.190;  853.250;  155.825;    0.000
243.259;  851.250;  183.825;    0.000
243.328;  817.250;  170.825;    0.000
243.397;  852.250;  224.825;    0.000
243.466;  843.250;  172.825;    0.000
243.535;  820.250;  145.825;    0.000
243.605;  819.250;  157.825;    0.000
243.674;  800.250;  199.825;    0.000
243.743;  903.250;  196.825;    0.000
243.812;  771.250;  152.825;    0.000
243.881;  777.250;  188.825;    0.000
243.950;  781.250;  154.825;    0.000
244.019;  771.250;  195.825;    0.000
244.088;  833.250;  164.825;    0.000
244.158;  871.250;  220.825;    0.000
244.227;  760.250;  150.825;    0.000
244.296;  744.250;  153.825;    0.000
244.365;  847.250;  195.825;    0.000
244.434;  770.250;  136.825;    0.000
244.503;  793.250;  172.825;    0.000
244.572;  807.250;  129.825;    0.000
244.641;  833.250;  132.825;    0.000
244.710;  863.250;  185.825;    0.000
244.779;  824.250;  164.825;    0.000
244.848;  792.250;  132.825;    0.000
244.917;  779.250;  196.825;    0.000
244.986;  778.250;  148.825;    0.000
245.055;  779.250;  192.825;    0.000
245.124;  765.250;  170.825;    0.000
245.193;  769.250;  172.825;    0.000
245.262;  745.250;  146.825;    0.000
245.331;  750.250;  178.825;    0.000
245.400;  659.250;  108.825;    0.000
245.469;  676.250;  173.825;    0.000
245.538;  710.250;  180.825;    0.000
245.607;  782.250;  171.825;    0.000
245.676;  748.250;  149.825;    0.000
245.745;  753.250;  194.825;    0.000
245.814;  715.250;  186.825;    0.000
245.883;  746.250;  192.825;    0.000
245.952;  732.250;  169.825;    0.000
246.021;  703.250;  190.825;    0.000
246.090;  722.250;  181.825;    0.000
246.159;  701.250;  179.825;    0.000
246.227;  608.250;  182.825;    0.000
246.296;  673.250;  182.825;    0.000
246.365;  727.250;  171.825;    0.000
246.434;  746.250;  218.825;    0.000
246.503;  712.250;  147.825;    0.000
246.572;  713.250;  227.825;    0.000
246.641;  704.250;  193.825;    0.000
246.710;  729.250;  207.825;    0.000
246.779;  684.250;  181.825;    0.000
246.847;  705.250;  179.825;    0.000
246.916;  696.250;  155.825;    0.000
246.985;  739.250;  168.825;    0.000
247.054;  682.250;  137.825;    0.000
247.123;  715.250;  128.825;    0.000
247.192;  686.250;  163.825;    0.000
247.260;  769.250;  173.825;    0.000
247.329;  647.250;  174.825;    0.000
247.398;  724.250;  238.825;    0.000
247.467;  691.250;  168.825;    0.000
247.536;  754.250;  203.825;    0.000
247.604;  762.250;  194.825;    0.000
247.673;  711.250;  145.825;    0.000
247.742;  717.250;  167.825;    0.000
247.811;  713.250;  180.825;    0.000
247.879;  668.250;  187.825;    0.000
247.948;  712.250;  187.825;    0.000
248.017;  671.250;  170.825;    0.000
248.086;  688.250;  223.825;    0.000
248.154;  688.250;  160.825;    0.000
248.223;  687.250;  163.825;    0.000
248.292;  695.250;  201.825;    0.000
248.361;  715.250;  205.825;    0.000
248.429;  671.250;  191.825;    0.000
248.498;  657.250;  194.825;    0.000
248.567;  689.250;  217.825;    0.000
248.635;  709.250;  224.825;    0.000
248.704;  683.250;  204.825;    0.000
248.773;  693.250;  175.825;    0.000
248.841;  726.250;  157.825;    0.000
248.910;  680.250;  206.825;    0.000
248.979;  652.250;  170.825;    0.000
249.047;  671.250;  178.825;    0.000
249.116;  680.250;  183.825;    0.000
249.185;  682.250;  202.825;    0.000
249.253;  677.250;  159.825;    0.000
249.322;  645.250;  177.825;    0.000
249.390;  653.250;  157.825;    0.000
249.459;  699.250;  211.825;    0.000
249.528;  648.250;  181.825;    0.000
249.596;  694.250;  179.825;    0.000
249.665;  622.250;  176.825;    0.000
249.733;  678.250;  186.825;    0.000
249.802;  657.250;  185.825;    0.000
249.871;  685.250;  166.825;    0.000
249.939;  658.250;  163.825;    0.000
250.008;  700.250;  212.825;    0.000
250.076;  720.250;  227.825;    0.000
250.145;  688.250;  172.825;    0.000
250.213;  668.250;  173.825;    0.000
250.282;  666.250;  189.825;    0.000
250.350;  621.250;  166.825;    0.000
250.419;  685.250;  161.825;    0.000
250.487;  675.250;  178.825;    0.000
250.556;  671.250;  208.825;    0.000
250.624;  702.250;  190.825;    0.000
250.693;  628.250;  163.825;    0.000
250.761;  704.250;  194.825;    0.000
250.830;  671.250;  225.825;    0.000
250.898;  613.250;  140.825;    0.000
250.967;  648.250;  167.825;    0.000
251.035;  607.250;  155.825;    0.000
251.104;  597.250;  189.825;    0.000
251.172;  631.250;  136.825;    0.000
251.241;  640.250;  148.825;    0.000
251.309;  689.250;  201.825;    0.000
251.378;  657.250;  169.825;    0.000
251.446;  658.250;  178.825;    0.000
251.514;  631.250;  206.825;    0.000
251.583;  639.250;  178.825;    0.000
251.651;  656.250;  168.825;    0.000
251.720;  626.250;  190.825;    0.000
251.788;  684.250;  209.825;    0.000
251.856;  647.250;  173.825;    0.000
251.925;  635.250;  171.825;    0.000
251.993;  643.250;  188.825;    0.000
252.062;  660.250;  169.825;    0.000
252.130;  641.250;  196.825;    0.000
252.198;  653.250;  210.825;    0.000
252.267;  569.250;  181.825;    0.000
252.335;  627.250;  164.825;    0.000
252.403;  619.250;  152.825;    0.000
252.472;  562.250;  166.825;    0.000
252.540;  678.250;  189.825;    0.000
252.608;  634.250;  198.825;    0.000
252.677;  625.250;  156.825;    0.000
252.745;  625.250;  184.825;    0.000
252.813;  598.250;  163.825;    0.000
252.881;  556.250;  130.825;    0.000
252.950;  584.250;  189.825;    0.000
253.018;  548.250;  164.825;    0.000
253.086;  560.250;  172.825;    0.000
253.155;  544.250;  205.825;    0.000
253.223;  507.250;  175.825;    0.000
253.291;  489.250;  176.825;    0.000
253.359;  529.250;  182.825;    0.000
253.428;  555.250;  222.825;    0.000
253.496;  465.250;  166.825;    0.000
253.564;  477.250;  135.825;    0.000
253.632;  448.250;  184.825;    0.000
253.700;  496.250;  173.825;    0.000
253.769;  495.250;  163.825;    0.000
253.837;  532.250;  179.825;    0.000
253.905;  492.250;  157.825;    0.000
253.973;  477.250;  164.825;    0.000
254.041;  471.250;  170.825;    0.000
254.110;  427.250;  169.825;    0.000
254.178;  425.250;  165.825;    0.000
254.246;  441.250;  126.825;    0.000
254.314;  462.250;  166.825;    0.000
254.382;  463.250;  169.825;    0.000
254.450;  499.250;  170.825;    0.000
254.518;  464.250;  196.825;    0.000
254.587;  438.250;  161.825;    0.000
254.655;  466.250;  187.825;    0.000
254.723;  445.250;  144.825;    0.000
254.791;  475.250;  175.825;    0.000
254.859;  479.250;  168.825;    0.000
254.927;  522.250;  198.825;    0.000
254.995;  450.250;  165.825;    0.000
255.063;  474.250;  150.825;    0.000
255.131;  453.250;  181.825;    0.000
255.199;  483.250;  160.825;    0.000
255.267;  468.250;  131.825;    0.000
255.336;  522.250;  188.825;    0.000
255.404;  454.250;  163.825;    0.000
255.472;  444.250;  192.825;    0.000
255.540;  489.250;  158.825;    0.000
255.608;  449.250;  147.825;    0.000
255.676;  482.250;  166.825;    0.000
255.744;  484.250;  159.825;    0.000
255.812;  467.250;  164.825;    0.000
255.880;  456.250;  195.825;    0.000
255.948;  476.250;  167.825;    0.000
256.016;  508.250;  185.825;    0.000
256.084;  539.250;  191.825;    0.000
256.152;  491.250;  214.825;    0.000
256.220;  507.250;  195.825;    0.000
256.288;  531.250;  185.825;    0.000
256.356;  479.250;  168.825;    0.000
256.424;  469.250;  161.825;    0.000
256.491;  479.250;  161.825;    0.000
256.559;  523.250;  157.825;    0.000
256.627;  513.250;  164.825;    0.000
256.695;  547.250;  146.825;    0.000
256.763;  572.250;  194.825;    0.000
256.831;  533.250;  182.825;    0.000
256.899;  547.250;  192.825;    0.000
256.967;  566.250;  172.825;    0.000
257.035;  525.250;  169.825;    0.000
257.103;  569.250;  223.825;    0.000
257.171;  548.250;  141.825;    0.000
257.238;  539.250;  146.825;    0.000
257.306;  560.250;  180.825;    0.000
257.374;  564.250;  138.825;    0.000
257.442;  598.250;  135.825;    0.000
257.510;  557.250;  130.825;    0.000
257.578;  593.250;  123.825;    0.000
257.646;  573.250;  162.825;    0.000
257.713;  545.250;  149.825;    0.000
257.781;  602.250;  125.825;    0.000
257.849;  582.250;  149.825;    0.000
257.917;  584.250;  177.825;    0.000
257.985;  586.250;  143.825;    0.000
258.052;  622.250;  154.825;    0.000
258.120;  610.250;  162.825;    0.000
258.188;  594.250;  172.825;    0.000
258.256;  601.250;  160.825;    0.000
258.324;  666.250;  209.825;    0.000
258.391;  638.250;  153.825;    0.000
258.459;  656.250;  133.825;    0.000
258.527;  666.250;  160.825;    0.000
258.595;  664.250;  128.825;    0.000
258.662;  616.250;  114.825;    0.000
258.730;  664.250;  192.825;    0.000
258.798;  643.250;  144.825;    0.000
258.865;  670.250;  140.825;    0.000
258.933;  691.250;  150.825;    0.000
259.001;  715.250;  149.825;    0.000
259.069;  667.250;  110.825;    0.000
259.136;  709.250;  150.825;    0.000
259.204;  714.250;  156.825;    0.000
259.272;  793.250;  185.825;    0.000
259.339;  677.250;  148.825;    0.000
259.407;  735.250;  163.825;    0.000
259.475;  678.250;  129.825;    0.000
259.542;  754.250;  144.825;    0.000
259.610;  760.250;  164.825;    0.000
259.677;  802.250;  188.825;    0.000
259.745;  769.250;  113.825;    0.000
259.813;  822.250;  188.825;    0.000
259.880;  882.250;  174.825;    0.000
259.948;  843.250;  166.825;    0.000
260.016;  766.250;  150.825;    0.000
260.083;  872.250;  178.825;    0.000
260.151;  810.250;  120.825;    0.000
260.218;  788.250;  175.825;    0.000
260.286;  809.250;  155.825;    0.000
260.353;  856.250;  165.825;    0.000
260.421;  793.250;  169.825;    0.000
260.489;  898.250;  194.825;    0.000
260.556;  899.250;  161.825;    0.000
260.624;  888.250;  179.825;    0.000
260.691;  895.250;  174.825;    0.000
260.759;  876.250;  164.825;    0.000
260.826;  866.250;  125.825;    0.000
260.894;  875.250;  164.825;    0.000
260.961;  937.250;  147.825;    0.000
261.029;  953.250;  167.825;    0.000
261.096;  965.250;  136.825;    0.000
261.164;  946.250;  146.825;    0.000
261.231;  969.250;  190.825;    0.000
261.299;  920.250;  171.825;    0.000
261.366;  926.250;  165.825;    0.000
261.434;  976.250;  160.825;    0.000
261.501;  962.250;  149.825;    0.000
261.568;  968.250;  155.825;    0.000
261.636;  995.250;  137.825;    0.000
261.703;  992.250;  186.825;    0.000
261.771;  995.250;  162.825;    0.000
261.838; 1124.250;  190.825;    0.000
261.906;  971.250;  133.825;    0.000
261.973; 1081.250;  202.825;    0.000
262.040; 1001.250;  179.825;    0.000
262.108; 1063.250;  161.825;    0.000
262.175; 1067.250;  155.825;    0.000
262.243; 1089.250;  158.825;    0.000
262.310; 1096.250;  129.825;    0.000
262.377; 1046.250;  157.825;    0.000
262.445; 1099.250;  132.825;    0.000
262.512; 1101.250;  161.825;    0.000
262.579; 1092.250;  151.825;    0.000
262.647; 1101.250;  174.825;    0.000
262.714; 1138.250;  174.825;    0.000
262.781; 1087.250;  164.825;    0.000
262.849; 1094.250;  168.825;    0.000
262.916; 1143.250;  153.825;    0.000
262.983; 1112.250;  201.825;    0.000
263.051; 1204.250;  117.825;    0.000
263.118; 1245.250;  150.825;    0.000
263.185; 1160.250;  172.825;    0.000
263.252; 1185.250;  154.825;    0.000
263.320; 1157.250;  152.825;    0.000
263.387; 1193.250;  136.825;    0.000
263.454; 1192.250;  167.825;    0.000
263.522; 1175.250;  122.825;    0.000
263.589; 1202.250;  147.825;    0.000
263.656; 1180.250;  130.825;    0.000
263.723; 1166.250;  182.825;    0.000
263.790; 1133.250;  163.825;    0.000
263.858; 1259.250;  161.825;    0.000
263.925; 1232.250;  153.825;    0.000
263.992; 1259.250;  139.825;    0.000
264.059; 1324.250;  141.825;    0.000
264.126; 1296.250;  153.825;    0.000
264.194; 1237.250;  144.825;    0.000
264.261; 1341.250;  188.825;    0.000
264.328; 1289.250;  161.825;    0.000
264.395; 1239.250;  184.825;    0.000
264.462; 1389.250;  162.825;    0.000
264.529; 1252.250;  178.825;    0.000
264.597; 1300.250;  160.825;    0.000
264.664; 1362.250;  158.825;    0.000
264.731; 1311.250;  176.825;    0.000
264.798; 1314.250;  137.825;    0.000
264.865; 1363.250;  175.825;    0.000
264.932; 1387.250;  162.825;    0.000
264.999; 1376.250;  153.825;    0.000
265.066; 1389.250;  168.825;    0.000
265.133; 1322.250;  142.825;    0.000
265.201; 1335.250;  163.825;    0.000
265.268; 1425.250;  143.825;    0.000
265.335; 1389.250;  156.825;    0.000
265.402; 1408.250;  136.825;    0.000
265.469; 1376.250;  127.825;    0.000
265.536; 1381.250;  159.825;    0.000
265.603; 1490.250;  191.825;    0.000
265.670; 1488.250;  136.825;    0.000
265.737; 1387.250;  186.825;    0.000
265.804; 1507.250;  147.825;    0.000
265.871; 1444.250;  147.825;    0.000
265.938; 1394.250;  153.825;    0.000
266.005; 1547.250;  172.825;    0.000
266.072; 1425.250;  151.825;    0.000
266.139; 1549.250;  175.825;    0.000
266.206; 1389.250;  165.825;    0.000
266.273; 1560.250;  162.825;    0.000
266.340; 1519.250;  150.825;    0.000
266.407; 1514.250;  169.825;    0.000
266.474; 1472.250;  151.825;    0.000
266.541; 1580.250;  164.825;    0.000
266.608; 1519.250;  111.825;    0.000
266.675; 1521.250;  173.825;    0.000
266.742; 1450.250;  148.825;    0.000
266.808; 1561.250;  185.825;    0.000
266.875; 1561.250;  188.825;    0.000
266.942; 1531.250;  131.825;    0.000
267.009; 1626.250;  184.825;    0.000
267.076; 1632.250;  200.825;    0.000
267.143; 1614.250;  216.825;    0.000
267.210; 1520.250;  138.825;    0.000
267.277; 1523.250;  143.825;    0.000
267.344; 1538.250;  172.825;    0.000
267.410; 1575.250;  172.825;    0.000
267.477; 1526.250;  160.825;    0.000
267.544; 1671.250;  175.825;    0.000
267.611; 1601.250;  189.825;    0.000
267.678; 1608.250;  162.825;    0.000
267.745; 1583.250;  206.825;    0.000
267.811; 1556.250;  146.825;    0.000
267.878; 1581.250;  147.825;    0.000
267.945; 1662.250;  170.825;    0.000
268.012; 1585.250;  153.825;    0.000
268.079; 1543.250;  185.825;    0.000
268.145; 1651.250;  197.825;    0.000
268.212; 1532.250;  167.825;    0.000
268.279; 1628.250;  145.825;    0.000
268.346; 1634.250;  182.825;    0.000
268.412; 1615.250;  144.825;    0.000
268.479; 1645.250;  186.825;    0.000
268.546; 1587.250;  147.825;    0.000
268.613; 1663.250;  188.825;    0.000
268.679; 1656.250;  173.825;    0.000
268.746; 1629.250;  204.825;    0.000
268.813; 1650.250;  199.825;    0.000
268.879; 1593.250;  157.825;    0.000
268.946; 1627.250;  192.825;    0.000
269.013; 1615.250;  136.825;    0.000
269.079; 1652.250;  166.825;    0.000
269.146; 1596.250;  129.825;    0.000
269.213; 1634.250;  178.825;    0.000
269.280; 1599.250;  148.825;    0.000
269.346; 1587.250;  194.825;    0.000
269.413; 1575.250;  135.825;    0.000
269.479; 1671.250;  180.825;    0.000
269.546; 1668.250;  169.825;    0.000
269.613; 1571.250;  160.825;    0.000
269.679; 1727.250;  161.825;    0.000
269.746; 1685.250;  143.825;    0.000
269.813; 1603.250;  172.825;    0.000
269.879; 1573.250;  152.825;    0.000
269.946; 1599.250;  156.825;    0.000
270.012; 1643.250;  190.825;    0.000
270.079; 1566.250;  143.825;    0.000
270.145; 1619.250;  148.825;    0.000
270.212; 1556.250;  176.825;    0.000
270.279; 1543.250;  168.825;    0.000
270.345; 1535.250;  143.825;    0.000
270.412; 1628.250;  155.825;    0.000
270.478; 1623.250;  176.825;    0.000
270.545; 1615.250;  112.825;    0.000
270.611; 1625.250;  186.825;    0.000
270.678; 1563.250;  141.825;    0.000
270.744; 1617.250;  145.825;    0.000
270.811; 1609.250;  120.825;    0.000
270.877; 1567.250;  118.825;    0.000
270.944; 1598.250;  135.825;    0.000
271.010; 1617.250;  128.825;    0.000
271.077; 1550.250;  176.825;    0.000
271.143; 1602.250;  162.825;    0.000
271.210; 1575.250;  133.825;    0.000
271.276; 1562.250;  107.825;    0.000
271.342; 1680.250;  202.825;    0.000
271.409; 1652.250;  160.825;    0.000
271.475; 1654.250;  165.825;    0.000
271.542; 1617.250;  152.825;    0.000
271.608; 1586.250;  163.825;    0.000
271.675; 1597.250;  149.825;    0.000
271.741; 1639.250;  164.825;    0.000
271.807; 1578.250;  128.825;    0.000
271.874; 1606.250;  148.825;    0.000
271.940; 1622.250;  179.825;    0.000
272.007; 1670.250;  148.825;    0.000
272.073; 1583.250;  146.825;    0.000
272.139; 1558.250;  166.825;    0.000
272.206; 1632.250;  198.825;    0.000
272.272; 1614.250;  201.825;    0.000
272.338; 1666.250;  208.825;    0.000
272.405; 1517.250;  181.825;    0.000
272.471; 1558.250;  167.825;    0.000
272.537; 1583.250;  189.825;    0.000
272.604; 1590.250;  162.825;    0.000
272.670; 1636.250;  194.825;    0.000
272.736; 1622.250;  176.825;    0.000
272.802; 1620.250;  163.825;    0.000
272.869; 1605.250;  170.825;    0.000
272.935; 1570.250;  145.825;    0.000
273.001; 1647.250;  149.825;    0.000
273.068; 1684.250;  172.825;    0.000
273.134; 1585.250;  155.825;    0.000
273.200; 1704.250;  183.825;    0.000
273.266; 1694.250;  160.825;    0.000
273.333; 1633.250;  190.825;    0.000
273.399; 1555.250;  132.825;    0.000
273.465; 1614.250;  179.825;    0.000
273.531; 1643.250;  161.825;    0.000
273.597; 1694.250;  194.825;    0.000
273.664; 1628.250;  193.825;    0.000
273.730; 1683.250;  180.825;    0.000
273.796; 1690.250;  145.825;    0.000
273.862; 1763.250;  176.825;    0.000
273.928; 1718.250;  169.825;    0.000
273.995; 1759.250;  202.825;    0.000
274.061; 1729.250;  176.825;    0.000
274.127; 1684.250;  178.825;    0.000
274.193; 1675.250;  106.825;    0.000
274.259; 1732.250;  186.825;    0.000
274.325; 1707.250;  163.825;    0.000
274.391; 1722.250;  162.825;    0.000
274.457; 1721.250;  145.825;    0.000
274.524; 1819.250;  189.825;    0.000
274.590; 1745.250;  161.825;    0.000
274.656; 1797.250;  157.825;    0.000
274.722; 1816.250;  143.825;    0.000
274.788; 1830.250;  166.825;    0.000
274.854; 1813.250;  200.825;    0.000
274.920; 1882.250;  132.825;    0.000
274.986; 1876.250;  184.825;    0.000
275.052; 1875.250;  169.825;    0.000
275.118; 1812.250;  153.825;    0.000
275.184; 1918.250;  182.825;    0.000
275.250; 1926.250;  124.825;    0.000
275.316; 1889.250;  154.825;    0.000
275.382; 1939.250;  150.825;    0.000
275.448; 1879.250;  180.825;    0.000
275.514; 2008.250;  143.825;    0.000
275.580; 1960.250;  120.825;    0.000
275.646; 1934.250;  127.825;    0.000
275.712; 1955.250;  109.825;    0.000
275.778; 2025.250;  126.825;    0.000
275.844; 2071.250;  155.825;    0.000
275.910; 1967.250;  164.825;    0.000
275.976; 2074.250;  161.825;    0.000
276.042; 2085.250;  152.825;    0.000
276.108; 2122.250;  159.825;    0.000
276.174; 2157.250;  149.825;    0.000
276.240; 2161.250;  112.825;    0.000
276.306; 2138.250;  142.825;    0.000
276.372; 2284.250;  136.825;    0.000
276.437; 2340.250;  141.825;    0.000
276.503; 2308.250;  150.825;    0.000
276.569; 2364.250;  178.825;    0.000
276.635; 2368.250;  117.825;    0.000
276.701; 2467.250;  174.825;    0.000
276.767; 2435.250;  136.825;    0.000
276.833; 2587.250;  119.825;    0.000
276.899; 2599.250;  171.825;    0.000
276.964; 2723.250;  146.825;    0.000
277.030; 2689.250;  157.825;    0.000
277.096; 2823.250;  124.825;    0.000
277.162; 3017.250;  185.825;    0.000
277.228; 2995.250;  125.825;    0.000
277.293; 3079.250;  159.825;    0.000
277.359; 3170.250;  186.825;    0.000
277.425; 3309.250;  176.825;    0.000
277.491; 3432.250;  140.825;    0.000
277.557; 4259.250;  172.825;    0.000
277.622; 5709.250;  187.825;    0.000
277.688; 5726.250;  203.825;    0.000
277.754; 5834.250;  170.825;    0.000
277.820; 6307.250;  142.825;    0.000
277.885; 7707.250;  182.825;    0.000
277.951;10088.250;  171.825;    0.000
278.017; 8382.250;  173.825;    0.000
278.083; 7030.250;  151.825;    0.000
278.148; 6925.250;  159.825;    0.000
278.214; 7041.250;  173.825;    0.000
278.280; 7689.250;  137.825;    0.000
278.345; 6774.250;  190.825;    0.000
278.411; 6214.250;  149.825;    0.000
278.477; 6700.250;  157.825;    0.000
278.542; 7102.250;  136.825;    0.000
278.608; 7664.250;  144.825;    0.000
278.674; 8740.250;  215.825;    0.000
278.739; 9834.250;  148.825;    0.000
278.805;11265.250;  152.825;    0.000
278.871;13428.250;  170.825;    0.000
278.936;17977.250;  180.825;    0.000
279.002;28503.250;  177.825;    0.000
279.067;37686.250;  172.825;    0.000
279.133;36008.250;  160.825;    0.000
279.199;30923.250;  165.825;    0.000
279.264;31644.250;  130.825;    0.000
279.330;37263.250;  154.825;    0.000
279.395;49768.250;  170.825;    0.000
279.461;65302.250;  136.825;    0.000
279.527;65302.250;  174.825;    0.000
279.592;65302.250;  179.825;    0.000
279.658;56765.250;  187.825;    0.000
279.723;55341.250;  201.825;    0.000
279.789;58737.250;  194.825;    0.000
279.854;51585.250;  171.825;    0.000
279.920;41299.250;  183.825;    0.000
279.985;36710.250;  173.825;    0.000
280.051;37232.250;  194.825;    0.000
280.116;45250.250;  197.825;    0.000
280.182;62614.250;  171.825;    0.000
280.247;65302.250;  131.825;    0.000
280.313;59778.250;  166.825;    0.000
280.378;40141.250;  159.825;    0.000
280.444;28460.250;  190.825;    0.000
280.509;22076.250;  189.825;    0.000
280.574;17719.250;  171.825;    0.000
280.640;15182.250;  167.825;    0.000
280.705;13512.250;  129.825;    0.000
280.771;12289.250;  193.825;    0.000
280.836;11061.250;  172.825;    0.000
280.902;10053.250;  189.825;    0.000
280.967; 9130.250;  143.825;    0.000
281.032; 8729.250;  182.825;    0.000
281.098; 8092.250;  172.825;    0.000
281.163; 7808.250;  184.825;    0.000
281.229; 7428.250;  210.825;    0.000
281.294; 7018.250;  223.825;    0.000
281.359; 6608.250;  197.825;    0.000
281.425; 6429.250;  192.825;    0.000
281.490; 6063.250;  162.825;    0.000
281.555; 5903.250;  193.825;    0.000
281.621; 5710.250;  141.825;    0.000
281.686; 5361.250;  166.825;    0.000
281.751; 5118.250;  204.825;    0.000
281.816; 4897.250;  159.825;    0.000
281.882; 4885.250;  146.825;    0.000
281.947; 4732.250;  176.825;    0.000
282.012; 4604.250;  139.825;    0.000
282.078; 4440.250;  186.825;    0.000
282.143; 4338.250;  151.825;    0.000
282.208; 4376.250;  213.825;    0.000
282.273; 4233.250;  160.825;    0.000
282.339; 4087.250;  175.825;    0.000
282.404; 4045.250;  157.825;    0.000
282.469; 3858.250;  185.825;    0.000
282.534; 3835.250;  166.825;    0.000
282.600; 3908.250;  168.825;    0.000
282.665; 3595.250;  167.825;    0.000
282.730; 3652.250;  148.825;    0.000
282.795; 3638.250;  186.825;    0.000
282.860; 3635.250;  161.825;    0.000
282.926; 3559.250;  178.825;    0.000
282.991; 3413.250;  139.825;    0.000
283.056; 3473.250;  158.825;    0.000
283.121; 3440.250;  191.825;    0.000
283.186; 3371.250;  182.825;    0.000
283.251; 3357.250;  181.825;    0.000
283.316; 3378.250;  187.825;    0.000
283.382; 3312.250;  175.825;    0.000
283.447; 3259.250;  183.825;    0.000
283.512; 3179.250;  175.825;    0.000
283.577; 3120.250;  180.825;    0.000
283.642; 3158.250;  193.825;    0.000
283.707; 3055.250;  145.825;    0.000
283.772; 3099.250;  143.825;    0.000
283.837; 3051.250;  143.825;    0.000
283.902; 3145.250;  150.825;    0.000
283.967; 3130.250;  166.825;    0.000
284.032; 3011.250;  126.825;    0.000
284.097; 3103.250;  201.825;    0.000
284.163; 2973.250;  133.825;    0.000
284.228; 2996.250;  193.825;    0.000
284.293; 3010.250;  157.825;    0.000
284.358; 3061.250;  185.825;    0.000
284.423; 3085.250;  142.825;    0.000
284.488; 3048.250;  192.825;    0.000
284.553; 3225.250;  146.825;    0.000
284.618; 3300.250;  154.825;    0.000
284.683; 3346.250;  172.825;    0.000
284.748; 3432.250;  195.825;    0.000
284.812; 3789.250;  190.825;    0.000
284.877; 4048.250;  169.825;    0.000
284.942; 4551.250;  195.825;    0.000
285.007; 5566.250;  204.825;    0.000
285.072; 8667.250;  189.825;    0.000
285.137;17578.250;  149.825;    0.000
285.202;23909.250;  164.825;    0.000
285.267;17771.250;  161.825;    0.000
285.332; 9816.250;  140.825;    0.000
285.397; 6891.250;  142.825;    0.000
285.462; 5450.250;  146.825;    0.000
285.527; 4648.250;  132.825;    0.000
285.591; 4181.250;  160.825;    0.000
285.656; 3821.250;  136.825;    0.000
285.721; 3575.250;  135.825;    0.000
285.786; 3470.250;  171.825;    0.000
285.851; 3431.250;  168.825;    0.000
285.916; 3360.250;  178.825;    0.000
285.981; 3210.250;  152.825;    0.000
286.045; 3135.250;  167.825;    0.000
286.110; 3028.250;  187.825;    0.000
286.175; 3043.250;  162.825;    0.000
286.240; 3011.250;  163.825;    0.000
286.305; 2952.250;  190.825;    0.000
286.369; 2945.250;  143.825;    0.000
286.434; 2921.250;  185.825;    0.000
286.499; 2733.250;  195.825;    0.000
286.564; 2867.250;  173.825;    0.000
286.628; 2781.250;  159.825;    0.000
286.693; 2714.250;  175.825;    0.000
286.758; 2648.250;  170.825;    0.000
286.823; 2868.250;  129.825;    0.000
286.887; 2663.250;  172.825;    0.000
286.952; 2694.250;  163.825;    0.000
287.017; 2796.250;  217.825;    0.000
287.082; 2689.250;  165.825;    0.000
287.146; 2709.250;  176.825;    0.000
287.211; 2785.250;  192.825;    0.000
287.276; 2656.250;  147.825;    0.000
287.340; 2649.250;  162.825;    0.000
287.405; 2670.250;  196.825;    0.000
287.470; 2650.250;  148.825;    0.000
287.534; 2698.250;  166.825;    0.000
287.599; 2631.250;  193.825;    0.000
287.663; 2650.250;  191.825;    0.000
287.728; 2626.250;  146.825;    0.000
287.793; 2672.250;  234.825;    0.000
287.857; 2672.250;  177.825;    0.000
287.922; 2695.250;  166.825;    0.000
287.987; 2544.250;  169.825;    0.000
288.051; 2702.250;  169.825;    0.000
288.116; 2585.250;  187.825;    0.000
288.180; 2609.250;  200.825;    0.000
288.245; 2611.250;  201.825;    0.000
288.309; 2619.250;  176.825;    0.000
288.374; 2568.250;  162.825;    0.000
288.439; 2598.250;  195.825;    0.000
288.503; 2480.250;  162.825;    0.000
288.568; 2593.250;  228.825;    0.000
288.632; 2563.250;  194.825;    0.000
288.697; 2659.250;  173.825;    0.000
288.761; 2474.250;  153.825;    0.000
288.826; 2513.250;  151.825;    0.000
288.890; 2560.250;  208.825;    0.000
288.955; 2481.250;  159.825;    0.000
289.019; 2623.250;  198.825;    0.000
289.084; 2482.250;  152.825;    0.000
289.148; 2438.250;  171.825;    0.000
289.212; 2577.250;  184.825;    0.000
289.277; 2592.250;  165.825;    0.000
289.341; 2459.250;  207.825;    0.000
289.406; 2514.250;  156.825;    0.000
289.470; 2576.250;  191.825;    0.000
289.535; 2508.250;  222.825;    0.000
289.599; 2507.250;  214.825;    0.000
289.663; 2447.250;  183.825;    0.000
289.728; 2568.250;  192.825;    0.000
289.792; 2543.250;  197.825;    0.000
289.857; 2479.250;  221.825;    0.000
289.921; 2545.250;  177.825;    0.000
289.985; 2511.250;  177.825;    0.000
290.050; 2535.250;  178.825;    0.000
290.114; 2477.250;  112.825;    0.000
290.178; 2457.250;  170.825;    0.000
290.243; 2420.250;  162.825;    0.000
290.307; 2565.250;  178.825;    0.000
290.371; 2441.250;  141.825;    0.000
290.436; 2504.250;  178.825;    0.000
290.500; 2464.250;  135.825;    0.000
290.564; 2465.250;  199.825;    0.000
290.629; 2472.250;  165.825;    0.000
290.693; 2520.250;  154.825;    0.000
290.757; 2555.250;  159.825;    0.000
290.821; 2445.250;  179.825;    0.000
290.886; 2594.250;  141.825;    0.000
290.950; 2581.250;  166.825;    0.000
291.014; 2551.250;  169.825;    0.000
291.078; 2509.250;  191.825;    0.000
291.143; 2610.250;  169.825;    0.000
291.207; 2566.250;  164.825;    0.000
291.271; 2634.250;  193.825;    0.000
291.335; 2647.250;  150.825;    0.000
291.399; 2766.250;  175.825;    0.000
291.464; 2974.250;  128.825;    0.000
291.528; 3050.250;  162.825;    0.000
291.592; 2904.250;  152.825;    0.000
291.656; 2853.250;  175.825;    0.000
291.720; 2774.250;  173.825;    0.000
291.784; 2762.250;  192.825;    0.000
291.849; 2634.250;  159.825;    0.000
291.913; 2783.250;  174.825;    0.000
291.977; 2730.250;  177.825;    0.000
292.041; 2806.250;  188.825;    0.000
292.105; 2786.250;  174.825;    0.000
292.169; 2852.250;  143.825;    0.000
292.233; 2795.250;  149.825;    0.000
292.297; 2924.250;  176.825;    0.000
292.361; 2960.250;  178.825;    0.000
292.425; 3040.250;  153.825;    0.000
292.490; 3245.250;  185.825;    0.000
292.554; 3357.250;  144.825;    0.000
292.618; 3543.250;  166.825;    0.000
292.682; 4037.250;  181.825;    0.000
292.746; 4851.250;  152.825;    0.000
292.810; 7214.250;  208.825;    0.000
292.874; 9194.250;  142.825;    0.000
292.938; 8899.250;  195.825;    0.000
293.002; 7776.250;  156.825;    0.000
293.066; 6781.250;  108.825;    0.000
293.130; 6054.250;  136.825;    0.000
293.194; 5568.250;  135.825;    0.000
293.258; 5309.250;  187.825;    0.000
293.322; 5247.250;  148.825;    0.000
293.386; 5322.250;  186.825;    0.000
293.450; 5838.250;  196.825;    0.000
293.514; 6795.250;  175.825;    0.000
293.577; 9920.250;  137.825;    0.000
293.641;14311.250;  142.825;    0.000
293.705;15304.250;  201.825;    0.000
293.769;12786.250;  150.825;    0.000
293.833;10509.250;  147.825;    0.000
293.897; 8903.250;  170.825;    0.000
293.961; 7851.250;  121.825;    0.000
294.025; 6929.250;  172.825;    0.000
294.089; 6122.250;  167.825;    0.000
294.152; 5652.250;  167.825;    0.000
294.216; 5195.250;  165.825;    0.000
294.280; 4881.250;  168.825;    0.000
294.344; 4430.250;  160.825;    0.000
294.408; 4332.250;  187.825;    0.000
294.472; 4153.250;  141.825;    0.000
294.536; 3947.250;  184.825;    0.000
294.599; 3714.250;  176.825;    0.000
294.663; 3666.250;  120.825;    0.000
294.727; 3587.250;  159.825;    0.000
294.791; 3488.250;  190.825;    0.000
294.855; 3369.250;  148.825;    0.000
294.918; 3254.250;  160.825;    0.000
294.982; 3272.250;  156.825;    0.000
295.046; 3163.250;  177.825;    0.000
295.110; 2985.250;  149.825;    0.000
295.173; 3004.250;  156.825;    0.000
295.237; 2976.250;  174.825;    0.000
295.301; 2809.250;  152.825;    0.000
295.364; 2847.250;  204.825;    0.000
295.428; 2846.250;  196.825;    0.000
295.492; 2827.250;  178.825;    0.000
295.556; 2849.250;  161.825;    0.000
295.619; 2696.250;  178.825;    0.000
295.683; 2685.250;  152.825;    0.000
295.747; 2688.250;  148.825;    0.000
295.810; 2617.250;  177.825;    0.000
295.874; 2646.250;  146.825;    0.000
295.938; 2703.250;  115.825;    0.000
296.001; 2612.250;  172.825;    0.000
296.065; 2585.250;  146.825;    0.000
296.128; 2554.250;  164.825;    0.000
296.192; 2660.250;  137.825;    0.000
296.256; 2497.250;  143.825;    0.000
296.319; 2483.250;  156.825;    0.000
296.383; 2494.250;  165.825;    0.000
296.447; 2432.250;  170.825;    0.000
296.510; 2445.250;  174.825;    0.000
296.574; 2362.250;  127.825;    0.000
296.637; 2361.250;  132.825;    0.000
296.701; 2538.250;  206.825;    0.000
296.764; 2449.250;  179.825;    0.000
296.828; 2484.250;  213.825;    0.000
296.891; 2404.250;  149.825;    0.000
296.955; 2388.250;  170.825;    0.000
297.018; 2368.250;  185.825;    0.000
297.082; 2384.250;  205.825;    0.000
297.145; 2299.250;  154.825;    0.000
297.209; 2391.250;  200.825;    0.000
297.272; 2397.250;  157.825;    0.000
297.336; 2361.250;  164.825;    0.000
297.399; 2427.250;  166.825;    0.000
297.463; 2393.250;  195.825;    0.000
297.526; 2327.250;  176.825;    0.000
297.590; 2314.250;  198.825;    0.000
297.653; 2302.250;  146.825;    0.000
297.717; 2311.250;  175.825;    0.000
297.780; 2336.250;  139.825;    0.000
297.843; 2223.250;  174.825;    0.000
297.907; 2208.250;  149.825;    0.000
297.970; 2222.250;  161.825;    0.000
298.034; 2371.250;  185.825;    0.000
298.097; 2269.250;  167.825;    0.000
298.160; 2273.250;  195.825;    0.000
298.224; 2291.250;  178.825;    0.000
298.287; 2200.250;  164.825;    0.000
298.350; 2243.250;  194.825;    0.000
298.414; 2290.250;  191.825;    0.000
298.477; 2246.250;  155.825;    0.000
298.540; 2161.250;  139.825;    0.000
298.604; 2213.250;  198.825;    0.000
298.667; 2251.250;  183.825;    0.000
298.730; 2252.250;  185.825;    0.000
298.794; 2206.250;  153.825;    0.000
298.857; 2146.250;  169.825;    0.000
298.920; 2140.250;  159.825;    0.000
298.984; 2255.250;  179.825;    0.000
299.047; 2113.250;  174.825;    0.000
299.110; 2182.250;  144.825;    0.000
299.173; 2232.250;  190.825;    0.000
299.237; 2115.250;  163.825;    0.000
299.300; 2185.250;  153.825;    0.000
299.363; 2152.250;  145.825;    0.000
299.426; 2142.250;  160.825;    0.000
299.489; 2167.250;  173.825;    0.000
299.553; 2137.250;  209.825;    0.000
299.616; 2130.250;  172.825;    0.000
299.679; 2055.250;  204.825;    0.000
299.742; 2112.250;  162.825;    0.000
299.805; 2119.250;  198.825;    0.000
299.868; 2088.250;  176.825;    0.000
299.932; 2068.250;  166.825;    0.000
299.995; 2057.250;  162.825;    0.000
300.058; 2019.250;  175.825;    0.000
300.121; 2135.250;  197.825;    0.000
300.184; 2065.250;  188.825;    0.000
300.247; 2055.250;  181.825;    0.000
300.310; 1970.250;  161.825;    0.000
300.374; 2107.250;  201.825;    0.000
300.437; 2137.250;  156.825;    0.000
300.500; 2048.250;  180.825;    0.000
300.563; 2097.250;  174.825;    0.000
300.626; 2056.250;  206.825;    0.000
300.689; 2133.250;  218.825;    0.000
300.752; 2042.250;  192.825;    0.000
300.815; 2095.250;  172.825;    0.000
300.878; 2104.250;  207.825;    0.000
300.941; 2031.250;  163.825;    0.000
301.004; 2038.250;  171.825;    0.000
301.067; 2050.250;  198.825;    0.000
301.130; 2003.250;  156.825;    0.000
301.193; 2007.250;  173.825;    0.000
301.256; 1997.250;  167.825;    0.000
301.319; 2034.250;  211.825;    0.000
301.382; 1992.250;  167.825;    0.000
301.445; 2009.250;  224.825;    0.000
301.508; 2001.250;  168.825;    0.000
301.571; 1990.250;  161.825;    0.000
301.634; 1990.250;  177.825;    0.000
301.697; 1991.250;  203.825;    0.000
301.760; 2056.250;  190.825;    0.000
301.823; 1992.250;  182.825;    0.000
301.885; 1948.250;  202.825;    0.000
301.948; 2064.250;  200.825;    0.000
302.011; 2011.250;  157.825;    0.000
302.074; 1995.250;  205.825;    0.000
302.137; 2005.250;  149.825;    0.000
302.200; 1973.250;  201.825;    0.000
302.263; 2007.250;  178.825;    0.000
302.326; 1943.250;  184.825;    0.000
302.388; 2051.250;  176.825;    0.000
302.451; 1992.250;  146.825;    0.000
302.514; 2066.250;  192.825;    0.000
302.577; 2031.250;  181.825;    0.000
302.640; 1933.250;  186.825;    0.000
302.703; 1967.250;  164.825;    0.000
302.765; 1957.250;  197.825;    0.000
302.828; 2030.250;  208.825;    0.000
302.891; 1941.250;  168.825;    0.000
302.954; 2000.250;  177.825;    0.000
303.016; 1949.250;  190.825;    0.000
303.079; 1896.250;  216.825;    0.000
303.142; 1952.250;  228.825;    0.000
303.205; 2012.250;  192.825;    0.000
303.267; 1989.250;  182.825;    0.000
303.330; 2046.250;  201.825;    0.000
303.393; 1965.250;  196.825;    0.000
303.456; 1961.250;  184.825;    0.000
303.518; 1983.250;  194.825;    0.000
303.581; 1964.250;  195.825;    0.000
303.644; 1950.250;  184.825;    0.000
303.706; 1932.250;  150.825;    0.000
303.769; 1980.250;  182.825;    0.000
303.832; 1917.250;  143.825;    0.000
303.894; 2031.250;  207.825;    0.000
303.957; 1986.250;  178.825;    0.000
304.020; 2019.250;  203.825;    0.000
304.082; 2023.250;  175.825;    0.000
304.145; 1956.250;  171.825;    0.000
304.207; 2009.250;  157.825;    0.000
304.270; 1976.250;  195.825;    0.000
304.333; 1943.250;  195.825;    0.000
304.395; 1981.250;  197.825;    0.000
304.458; 1975.250;  231.825;    0.000
304.520; 1958.250;  218.825;    0.000
304.583; 1863.250;  177.825;    0.000
304.646; 1987.250;  177.825;    0.000
304.708; 1888.250;  178.825;    0.000
304.771; 1963.250;  143.825;    0.000
304.833; 2022.250;  241.825;    0.000
304.896; 1927.250;  200.825;    0.000
304.958; 1843.250;  176.825;    0.000
305.021; 2001.250;  159.825;    0.000
305.083; 1873.250;  159.825;    0.000
305.146; 1930.250;  190.825;    0.000
305.208; 1905.250;  152.825;    0.000
305.271; 1853.250;  162.825;    0.000
305.333; 2044.250;  219.825;    0.000
305.396; 1916.250;  163.825;    0.000
305.458; 1950.250;  215.825;    0.000
305.520; 1976.250;  174.825;    0.000
305.583; 2012.250;  161.825;    0.000
305.645; 1989.250;  203.825;    0.000
305.708; 2009.250;  163.825;    0.000
305.770; 2002.250;  215.825;    0.000
305.833; 1977.250;  207.825;    0.000
305.895; 1911.250;  166.825;    0.000
305.957; 1964.250;  175.825;    0.000
306.020; 1958.250;  169.825;    0.000
306.082; 2020.250;  203.825;    0.000
306.144; 2014.250;  181.825;    0.000
306.207; 1983.250;  199.825;    0.000
306.269; 1981.250;  177.825;    0.000
306.331; 2014.250;  160.825;    0.000
306.394; 2001.250;  193.825;    0.000
306.456; 1980.250;  136.825;    0.000
306.518; 2059.250;  189.825;    0.000
306.581; 2010.250;  156.825;    0.000
306.643; 1918.250;  190.825;    0.000
306.705; 1952.250;  190.825;    0.000
306.768; 2007.250;  172.825;    0.000
306.830; 1985.250;  214.825;    0.000
306.892; 1958.250;  198.825;    0.000
306.954; 2010.250;  177.825;    0.000
307.017; 2021.250;  183.825;    0.000
307.079; 2003.250;  170.825;    0.000
307.141; 2048.250;  173.825;    0.000
307.203; 1978.250;  171.825;    0.000
307.266; 2056.250;  166.825;    0.000
307.328; 2028.250;  207.825;    0.000
307.390; 2101.250;  201.825;    0.000
307.452; 1981.250;  182.825;    0.000
307.514; 2072.250;  213.825;    0.000
307.577; 2075.250;  213.825;    0.000
307.639; 2071.250;  197.825;    0.000
307.701; 2082.250;  174.825;    0.000
307.763; 2152.250;  181.825;    0.000
307.825; 2091.250;  186.825;    0.000
307.887; 2107.250;  198.825;    0.000
307.949; 2137.250;  158.825;    0.000
308.012; 2068.250;  209.825;    0.000
308.074; 2069.250;  176.825;    0.000
308.136; 2075.250;  227.825;    0.000
308.198; 2117.250;  187.825;    0.000
308.260; 2108.250;  211.825;    0.000
308.322; 2123.250;  206.825;    0.000
308.384; 2190.250;  186.825;    0.000
308.446; 2179.250;  175.825;    0.000
308.508; 2124.250;  211.825;    0.000
308.570; 2165.250;  191.825;    0.000
308.632; 2153.250;  195.825;    0.000
308.694; 2158.250;  173.825;    0.000
308.756; 2205.250;  185.825;    0.000
308.818; 2271.250;  195.825;    0.000
308.880; 2142.250;  189.825;    0.000
308.942; 2188.250;  231.825;    0.000
309.004; 2296.250;  188.825;    0.000
309.066; 2280.250;  196.825;    0.000
309.128; 2361.250;  155.825;    0.000
309.190; 2362.250;  176.825;    0.000
309.252; 2475.250;  191.825;    0.000
309.314; 2579.250;  236.825;    0.000
309.376; 2505.250;  212.825;    0.000
309.438; 2484.250;  201.825;    0.000
309.500; 2412.250;  206.825;    0.000
309.562; 2435.250;  213.825;    0.000
309.624; 2599.250;  196.825;    0.000
309.686; 2782.250;  198.825;    0.000
309.747; 2685.250;  186.825;    0.000
309.809; 2501.250;  215.825;    0.000
309.871; 2457.250;  242.825;    0.000
309.933; 2385.250;  162.825;    0.000
309.995; 2396.250;  163.825;    0.000
310.057; 2376.250;  145.825;    0.000
310.119; 2330.250;  205.825;    0.000
310.180; 2332.250;  195.825;    0.000
310.242; 2294.250;  167.825;    0.000
310.304; 2347.250;  213.825;    0.000
310.366; 2297.250;  224.825;    0.000
310.428; 2244.250;  170.825;    0.000
310.489; 2219.250;  195.825;    0.000
310.551; 2328.250;  207.825;    0.000
310.613; 2269.250;  168.825;    0.000
310.675; 2320.250;  188.825;    0.000
310.737; 2253.250;  211.825;    0.000
310.798; 2317.250;  221.825;    0.000
310.860; 2237.250;  201.825;    0.000
310.922; 2288.250;  206.825;    0.000
310.983; 2265.250;  222.825;    0.000
311.045; 2316.250;  235.825;    0.000
311.107; 2304.250;  184.825;    0.000
311.169; 2212.250;  148.825;    0.000
311.230; 2269.250;  211.825;    0.000
311.292; 2258.250;  235.825;    0.000
311.354; 2203.250;  183.825;    0.000
311.415; 2203.250;  196.825;    0.000
311.477; 2197.250;  200.825;    0.000
311.539; 2194.250;  171.825;    0.000
311.600; 2284.250;  169.825;    0.000
311.662; 2267.250;  231.825;    0.000
311.724; 2219.250;  204.825;    0.000
311.785; 2136.250;  214.825;    0.000
311.847; 2190.250;  193.825;    0.000
311.908; 2203.250;  180.825;    0.000
311.970; 2219.250;  233.825;    0.000
312.032; 2189.250;  192.825;    0.000
312.093; 2251.250;  195.825;    0.000
312.155; 2222.250;  194.825;    0.000
312.216; 2127.250;  238.825;    0.000
312.278; 2235.250;  146.825;    0.000
312.339; 2190.250;  184.825;    0.000
312.401; 2223.250;  201.825;    0.000
312.462; 2254.250;  173.825;    0.000
312.524; 2183.250;  205.825;    0.000
312.585; 2187.250;  199.825;    0.000
312.647; 2148.250;  168.825;    0.000
312.708; 2201.250;  180.825;    0.000
312.770; 2248.250;  180.825;    0.000
312.831; 2249.250;  176.825;    0.000
312.893; 2211.250;  211.825;    0.000
312.954; 2281.250;  178.825;    0.000
313.016; 2292.250;  204.825;    0.000
313.077; 2219.250;  216.825;    0.000
313.139; 2226.250;  172.825;    0.000
313.200; 2151.250;  197.825;    0.000
313.261; 2282.250;  227.825;    0.000
313.323; 2217.250;  204.825;    0.000
313.384; 2137.250;  182.825;    0.000
313.446; 2230.250;  204.825;    0.000
313.507; 2259.250;  164.825;    0.000
313.568; 2184.250;  197.825;    0.000
313.630; 2134.250;  190.825;    0.000
313.691; 2170.250;  185.825;    0.000
313.752; 2238.250;  192.825;    0.000
313.814; 2215.250;  176.825;    0.000
313.875; 2183.250;  210.825;    0.000
313.936; 2230.250;  165.825;    0.000
313.998; 2256.250;  162.825;    0.000
314.059; 2160.250;  178.825;    0.000
314.120; 2273.250;  176.825;    0.000
314.182; 2315.250;  167.825;    0.000
314.243; 2252.250;  204.825;    0.000
314.304; 2291.250;  197.825;    0.000
314.365; 2147.250;  183.825;    0.000
314.427; 2226.250;  176.825;    0.000
314.488; 2177.250;  149.825;    0.000
314.549; 2205.250;  218.825;    0.000
314.610; 2171.250;  160.825;    0.000
314.672; 2241.250;  187.825;    0.000
314.733; 2192.250;  184.825;    0.000
314.794; 2166.250;  164.825;    0.000
314.855; 2180.250;  191.825;    0.000
314.917; 2223.250;  172.825;    0.000
314.978; 2206.250;  185.825;    0.000
315.039; 2259.250;  194.825;    0.000
315.100; 2200.250;  190.825;    0.000
315.161; 2199.250;  185.825;    0.000
315.222; 2187.250;  204.825;    0.000
315.283; 2202.250;  166.825;    0.000
315.345; 2257.250;  133.825;    0.000
315.406; 2201.250;  191.825;    0.000
315.467; 2173.250;  166.825;    0.000
315.528; 2229.250;  194.825;    0.000
315.589; 2178.250;  193.825;    0.000
315.650; 2180.250;  190.825;    0.000
315.711; 2162.250;  219.825;    0.000
315.772; 2312.250;  159.825;    0.000
315.833; 2196.250;  191.825;    0.000
315.894; 2196.250;  202.825;    0.000
315.955; 2231.250;  167.825;    0.000
316.016; 2198.250;  177.825;    0.000
316.078; 2263.250;  185.825;    0.000
316.139; 2215.250;  219.825;    0.000
316.200; 2179.250;  163.825;    0.000
316.261; 2193.250;  183.825;    0.000
316.322; 2166.250;  230.825;    0.000
316.383; 2225.250;  198.825;    0.000
316.444; 2149.250;  209.825;    0.000
316.504; 2195.250;  179.825;    0.000
316.565; 2246.250;  185.825;    0.000
316.626; 2216.250;  155.825;    0.000
316.687; 2244.250;  211.825;    0.000
316.748; 2264.250;  192.825;    0.000
316.809; 2173.250;  183.825;    0.000
316.870; 2154.250;  196.825;    0.000
316.931; 2225.250;  173.825;    0.000
316.992; 2175.250;  179.825;    0.000
317.053; 2189.250;  186.825;    0.000
317.114; 2140.250;  189.825;    0.000
317.175; 2218.250;  226.825;    0.000
317.235; 2188.250;  206.825;    0.000
317.296; 2121.250;  191.825;    0.000
317.357; 2144.250;  173.825;    0.000
317.418; 2145.250;  212.825;    0.000
317.479; 2266.250;  247.825;    0.000
317.540; 2191.250;  205.825;    0.000
317.601; 2200.250;  205.825;    0.000
317.661; 2163.250;  150.825;    0.000
317.722; 2192.250;  198.825;    0.000
317.783; 2110.250;  153.825;    0.000
317.844; 2211.250;  202.825;    0.000
317.904; 2217.250;  180.825;    0.000
317.965; 2163.250;  205.825;    0.000
318.026; 2245.250;  223.825;    0.000
318.087; 2224.250;  218.825;    0.000
318.148; 2207.250;  207.825;    0.000
318.208; 2184.250;  212.825;    0.000
318.269; 2151.250;  174.825;    0.000
318.330; 2184.250;  191.825;    0.000
318.390; 2157.250;  197.825;    0.000
318.451; 2155.250;  167.825;    0.000
318.512; 2127.250;  174.825;    0.000
318.572; 2115.250;  199.825;    0.000
318.633; 2231.250;  233.825;    0.000
318.694; 2164.250;  232.825;    0.000
318.754; 2171.250;  181.825;    0.000
318.815; 2109.250;  199.825;    0.000
318.876; 2117.250;  207.825;    0.000
318.936; 2195.250;  202.825;    0.000
318.997; 2099.250;  182.825;    0.000
319.058; 2153.250;  180.825;    0.000
319.118; 2168.250;  199.825;    0.000
319.179; 2154.250;  199.825;    0.000
319.239; 2199.250;  229.825;    0.000
319.300; 2123.250;  223.825;    0.000
319.361; 2140.250;  210.825;    0.000
319.421; 2115.250;  205.825;    0.000
319.482; 2018.250;  205.825;    0.000
319.542; 2099.250;  176.825;    0.000
319.603; 2173.250;  191.825;    0.000
319.663; 2121.250;  183.825;    0.000
319.724; 2131.250;  174.825;    0.000
319.784; 2086.250;  198.825;    0.000
319.845; 2057.250;  218.825;    0.000
319.905; 2244.250;  217.825;    0.000
319.966; 2198.250;  197.825;    0.000
320.026; 2245.250;  209.825;    0.000
320.087; 2118.250;  225.825;    0.000
320.147; 2136.250;  201.825;    0.000
320.208; 2087.250;  176.825;    0.000
320.268; 2150.250;  168.825;    0.000
320.329; 2176.250;  238.825;    0.000
320.389; 2118.250;  220.825;    0.000
320.449; 2173.250;  230.825;    0.000
320.510; 2175.250;  234.825;    0.000
320.570; 2048.250;  210.825;    0.000
320.631; 2225.250;  207.825;    0.000
320.691; 2100.250;  222.825;    0.000
320.751; 2178.250;  195.825;    0.000
320.812; 2079.250;  193.825;    0.000
320.872; 2201.250;  237.825;    0.000
320.932; 2180.250;  213.825;    0.000
320.993; 2137.250;  185.825;    0.000
321.053; 2178.250;  245.825;    0.000
321.113; 2101.250;  206.825;    0.000
321.174; 2170.250;  202.825;    0.000
321.234; 2145.250;  244.825;    0.000
321.294; 2030.250;  228.825;    0.000
321.355; 2110.250;  208.825;    0.000
321.415; 2168.250;  223.825;    0.000
321.475; 2064.250;  203.825;    0.000
321.535; 2144.250;  230.825;    0.000
321.596; 2130.250;  186.825;    0.000
321.656; 2218.250;  216.825;    0.000
321.716; 2159.250;  207.825;    0.000
321.776; 2153.250;  181.825;    0.000
321.837; 2193.250;  207.825;    0.000
321.897; 2196.250;  225.825;    0.000
321.957; 2122.250;  222.825;    0.000
322.017; 2137.250;  215.825;    0.000
322.077; 2208.250;  250.825;    0.000
322.138; 2096.250;  189.825;    0.000
322.198; 2175.250;  200.825;    0.000
322.258; 2116.250;  217.825;    0.000
322.318; 2148.250;  183.825;    0.000
322.378; 2105.250;  231.825;    0.000
322.438; 2099.250;  228.825;    0.000
322.499; 2189.250;  248.825;    0.000
322.559; 2165.250;  198.825;    0.000
322.619; 2129.250;  221.825;    0.000
322.679; 2146.250;  217.825;    0.000
322.739; 2071.250;  204.825;    0.000
322.799; 2116.250;  236.825;    0.000
322.859; 2200.250;  213.825;    0.000
322.919; 2104.250;  210.825;    0.000
322.979; 2124.250;  244.825;    0.000
323.039; 2121.250;  218.825;    0.000
323.099; 2201.250;  232.825;    0.000
323.159; 2073.250;  216.825;    0.000
323.219; 2145.250;  169.825;    0.000
323.279; 2109.250;  236.825;    0.000
323.339; 2182.250;  243.825;    0.000
323.399; 2202.250;  208.825;    0.000
323.459; 2184.250;  220.825;    0.000
323.519; 2148.250;  228.825;    0.000
323.579; 2126.250;  164.825;    0.000
323.639; 2166.250;  209.825;    0.000
323.699; 2184.250;  188.825;    0.000
323.759; 2125.250;  206.825;    0.000
323.819; 2115.250;  204.825;    0.000
323.879; 2086.250;  222.825;    0.000
323.939; 2108.250;  206.825;    0.000
323.999; 2069.250;  202.825;    0.000
324.059; 2116.250;  245.825;    0.000
324.119; 2199.250;  214.825;    0.000
324.178; 2140.250;  183.825;    0.000
324.238; 2105.250;  193.825;    0.000
324.298; 2122.250;  207.825;    0.000
324.358; 2095.250;  196.825;    0.000
324.418; 2043.250;  193.825;    0.000
324.478; 2127.250;  191.825;    0.000
324.538; 2114.250;  224.825;    0.000
324.597; 2106.250;  187.825;    0.000
324.657; 2109.250;  208.825;    0.000
324.717; 2089.250;  198.825;    0.000
324.777; 2047.250;  159.825;    0.000
324.837; 2156.250;  180.825;    0.000
324.896; 2114.250;  215.825;    0.000
324.956; 2080.250;  210.825;    0.000
325.016; 2090.250;  187.825;    0.000
325.076; 2169.250;  197.825;    0.000
325.135; 2135.250;  226.825;    0.000
325.195; 2088.250;  201.825;    0.000
325.255; 2095.250;  167.825;    0.000
325.315; 2140.250;  217.825;    0.000
325.374; 2140.250;  196.825;    0.000
325.434; 2101.250;  167.825;    0.000
325.494; 2111.250;  214.825;    0.000
325.553; 2111.250;  203.825;    0.000
325.613; 2187.250;  206.825;    0.000
325.673; 2101.250;  148.825;    0.000
325.732; 2152.250;  207.825;    0.000
325.792; 2083.250;  151.825;    0.000
325.852; 2119.250;  195.825;    0.000
325.911; 2179.250;  201.825;    0.000
325.971; 2136.250;  224.825;    0.000
326.031; 2157.250;  201.825;    0.000
326.090; 2123.250;  203.825;    0.000
326.150; 2131.250;  183.825;    0.000
326.209; 2145.250;  226.825;    0.000
326.269; 2157.250;  194.825;    0.000
326.328; 2144.250;  200.825;    0.000
326.388; 2057.250;  177.825;    0.000
326.448; 2141.250;  239.825;    0.000
326.507; 2128.250;  197.825;    0.000
326.567; 2068.250;  161.825;    0.000
326.626; 2037.250;  220.825;    0.000
326.686; 2078.250;  178.825;    0.000
326.745; 2024.250;  167.825;    0.000
326.805; 2069.250;  176.825;    0.000
326.864; 2025.250;  204.825;    0.000
326.924; 2128.250;  218.825;    0.000
326.983; 2128.250;  201.825;    0.000
327.043; 2041.250;  219.825;    0.000
327.102; 2074.250;  202.825;    0.000
327.161; 2092.250;  228.825;    0.000
327.221; 2061.250;  217.825;    0.000
327.280; 2113.250;  188.825;    0.000
327.340; 2036.250;  209.825;    0.000
327.399; 2150.250;  189.825;    0.000
327.459; 2061.250;  216.825;    0.000
327.518; 2014.250;  200.825;    0.000
327.577; 2100.250;  194.825;    0.000
327.637; 2093.250;  180.825;    0.000
327.696; 2054.250;  208.825;    0.000
327.755; 2062.250;  218.825;    0.000
327.815; 2026.250;  234.825;    0.000
327.874; 2043.250;  259.825;    0.000
327.933; 1958.250;  192.825;    0.000
327.993; 2016.250;  208.825;    0.000
328.052; 2010.250;  221.825;    0.000
328.111; 2022.250;  203.825;    0.000
328.171; 2013.250;  221.825;    0.000
328.230; 2134.250;  222.825;    0.000
328.289; 2043.250;  254.825;    0.000
328.349; 2098.250;  232.825;    0.000
328.408; 2008.250;  223.825;    0.000
328.467; 2074.250;  198.825;    0.000
328.526; 2010.250;  217.825;    0.000
328.586; 2037.250;  185.825;    0.000
328.645; 2118.250;  210.825;    0.000
328.704; 2005.250;  211.825;    0.000
328.763; 2010.250;  231.825;    0.000
328.822; 2020.250;  254.825;    0.000
328.882; 2124.250;  216.825;    0.000
328.941; 2098.250;  239.825;    0.000
329.000; 1994.250;  251.825;    0.000
329.059; 1912.250;  227.825;    0.000
329.118; 2065.250;  233.825;    0.000
329.177; 2099.250;  188.825;    0.000
329.237; 2062.250;  257.825;    0.000
329.296; 2016.250;  265.825;    0.000
329.355; 2043.250;  245.825;    0.000
329.414; 2094.250;  236.825;    0.000
329.473; 2031.250;  242.825;    0.000
329.532; 2018.250;  228.825;    0.000
329.591; 1991.250;  206.825;    0.000
329.650; 2065.250;  250.825;    0.000
329.709; 2120.250;  278.825;    0.000
329.768; 2099.250;  219.825;    0.000
329.827; 2094.250;  254.825;    0.000
329.886; 2011.250;  221.825;    0.000
329.945; 2110.250;  239.825;    0.000
330.004; 2153.250;  245.825;    0.000
330.063; 1993.250;  201.825;    0.000
330.122; 2044.250;  227.825;    0.000
330.181; 2187.250;  196.825;    0.000
330.240; 2242.250;  203.825;    0.000
330.299; 2140.250;  214.825;    0.000
330.358; 2010.250;  196.825;    0.000
330.417; 2101.250;  201.825;    0.000
330.476; 2183.250;  248.825;    0.000
330.535; 2088.250;  253.825;    0.000
330.594; 2023.250;  231.825;    0.000
330.653; 2026.250;  210.825;    0.000
330.712; 1910.250;  242.825;    0.000
330.771; 1985.250;  240.825;    0.000
330.830; 1955.250;  230.825;    0.000
330.889; 1959.250;  217.825;    0.000
330.948; 2008.250;  211.825;    0.000
331.006; 1956.250;  217.825;    0.000
331.065; 1946.250;  170.825;    0.000
331.124; 1937.250;  211.825;    0.000
331.183; 2021.250;  192.825;    0.000
331.242; 1959.250;  227.825;    0.000
331.301; 1969.250;  240.825;    0.000
331.359; 2012.250;  223.825;    0.000
331.418; 2016.250;  215.825;    0.000
331.477; 2044.250;  230.825;    0.000
331.536; 2001.250;  221.825;    0.000
331.595; 1950.250;  198.825;    0.000
331.653; 1967.250;  207.825;    0.000
331.712; 1989.250;  217.825;    0.000
331.771; 1945.250;  221.825;    0.000
331.830; 2000.250;  222.825;    0.000
331.888; 1984.250;  213.825;    0.000
331.947; 1955.250;  233.825;    0.000
332.006; 1944.250;  212.825;    0.000
332.065; 2044.250;  200.825;    0.000
332.123; 1963.250;  223.825;    0.000
332.182; 1935.250;  180.825;    0.000
332.241; 1955.250;  192.825;    0.000
332.299; 1977.250;  172.825;    0.000
332.358; 2059.250;  216.825;    0.000
332.417; 2063.250;  211.825;    0.000
332.475; 1987.250;  222.825;    0.000
332.534; 2027.250;  238.825;    0.000
332.592; 1998.250;  216.825;    0.000
332.651; 2083.250;  196.825;    0.000
332.710; 2049.250;  215.825;    0.000
332.768; 2063.250;  193.825;    0.000
332.827; 1991.250;  201.825;    0.000
332.885; 2128.250;  226.825;    0.000
332.944; 2081.250;  174.825;    0.000
333.003; 2046.250;  187.825;    0.000
333.061; 2077.250;  208.825;    0.000
333.120; 2081.250;  202.825;    0.000
333.178; 2183.250;  227.825;    0.000
333.237; 2192.250;  215.825;    0.000
333.295; 2166.250;  245.825;    0.000
333.354; 2130.250;  194.825;    0.000
333.412; 2078.250;  165.825;    0.000
333.471; 2201.250;  219.825;    0.000
333.529; 2201.250;  255.825;    0.000
333.588; 2260.250;  264.825;    0.000
333.646; 2362.250;  231.825;    0.000
333.705; 2274.250;  232.825;    0.000
333.763; 2196.250;  233.825;    0.000
333.822; 2242.250;  221.825;    0.000
333.880; 2175.250;  180.825;    0.000
333.938; 2162.250;  229.825;    0.000
333.997; 2184.250;  194.825;    0.000
334.055; 2187.250;  230.825;    0.000
334.114; 2222.250;  230.825;    0.000
334.172; 2163.250;  170.825;    0.000
334.230; 2160.250;  192.825;    0.000
334.289; 2107.250;  225.825;    0.000
334.347; 2163.250;  233.825;    0.000
334.405; 2126.250;  207.825;    0.000
334.464; 2103.250;  175.825;    0.000
334.522; 2115.250;  180.825;    0.000
334.580; 2141.250;  172.825;    0.000
334.639; 2119.250;  230.825;    0.000
334.697; 2108.250;  217.825;    0.000
334.755; 2173.250;  217.825;    0.000
334.814; 2073.250;  210.825;    0.000
334.872; 2112.250;  170.825;    0.000
334.930; 2093.250;  167.825;    0.000
334.988; 2101.250;  244.825;    0.000
335.047; 2102.250;  202.825;    0.000
335.105; 2114.250;  181.825;    0.000
335.163; 2127.250;  195.825;    0.000
335.221; 2156.250;  203.825;    0.000
335.280; 2108.250;  216.825;    0.000
335.338; 2050.250;  197.825;    0.000
335.396; 2142.250;  232.825;    0.000
335.454; 2101.250;  211.825;    0.000
335.512; 2149.250;  221.825;    0.000
335.570; 2143.250;  216.825;    0.000
335.629; 2186.250;  244.825;    0.000
335.687; 2144.250;  244.825;    0.000
335.745; 2114.250;  189.825;    0.000
335.803; 2230.250;  198.825;    0.000
335.861; 2201.250;  236.825;    0.000
335.919; 2106.250;  234.825;    0.000
335.977; 2089.250;  214.825;    0.000
336.035; 2130.250;  242.825;    0.000
336.094; 2120.250;  219.825;    0.000
336.152; 2158.250;  196.825;    0.000
336.210; 2166.250;  221.825;    0.000
336.268; 2158.250;  257.825;    0.000
336.326; 2112.250;  211.825;    0.000
336.384; 2093.250;  217.825;    0.000
336.442; 2020.250;  176.825;    0.000
336.500; 2096.250;  242.825;    0.000
336.558; 2124.250;  238.825;    0.000
336.616; 2167.250;  261.825;    0.000
336.674; 2020.250;  200.825;    0.000
336.732; 2071.250;  208.825;    0.000
336.790; 2093.250;  183.825;    0.000
336.848; 2107.250;  199.825;    0.000
336.906; 2085.250;  240.825;    0.000
336.964; 2131.250;  234.825;    0.000
337.022; 2227.250;  282.825;    0.000
337.080; 2082.250;  265.825;    0.000
337.138; 2087.250;  255.825;    0.000
337.195; 2098.250;  200.825;    0.000
337.253; 2065.250;  199.825;    0.000
337.311; 2193.250;  233.825;    0.000
337.369; 2088.250;  250.825;    0.000
337.427; 2029.250;  201.825;    0.000
337.485; 2074.250;  228.825;    0.000
337.543; 1992.250;  221.825;    0.000
337.601; 2120.250;  232.825;    0.000
337.658; 2065.250;  215.825;    0.000
337.716; 1984.250;  198.825;    0.000
337.774; 2022.250;  262.825;    0.000
337.832; 2083.250;  220.825;    0.000
337.890; 1941.250;  194.825;    0.000
337.947; 1962.250;  205.825;    0.000
338.005; 1977.250;  229.825;    0.000
338.063; 2012.250;  237.825;    0.000
338.121; 2105.250;  220.825;    0.000
338.178; 2048.250;  227.825;    0.000
338.236; 2044.250;  238.825;    0.000
338.294; 2098.250;  242.825;    0.000
338.352; 2037.250;  230.825;    0.000
338.409; 2066.250;  222.825;    0.000
338.467; 1983.250;  233.825;    0.000
338.525; 2037.250;  253.825;    0.000
338.583; 1940.250;  221.825;    0.000
338.640; 1932.250;  225.825;    0.000
338.698; 1990.250;  229.825;    0.000
338.756; 2029.250;  238.825;    0.000
338.813; 2006.250;  260.825;    0.000
338.871; 2051.250;  246.825;    0.000
338.928; 2013.250;  240.825;    0.000
338.986; 1962.250;  228.825;    0.000
339.044; 2000.250;  265.825;    0.000
339.101; 1988.250;  224.825;    0.000
339.159; 1963.250;  235.825;    0.000
339.216; 1938.250;  244.825;    0.000
339.274; 2084.250;  266.825;    0.000
339.332; 2055.250;  248.825;    0.000
339.389; 2045.250;  246.825;    0.000
339.447; 1947.250;  237.825;    0.000
339.504; 1994.250;  244.825;    0.000
339.562; 1997.250;  249.825;    0.000
339.619; 1979.250;  266.825;    0.000
339.677; 2000.250;  263.825;    0.000
339.734; 2019.250;  216.825;    0.000
339.792; 1954.250;  276.825;    0.000
339.849; 1964.250;  240.825;    0.000
339.907; 1997.250;  275.825;    0.000
339.964; 1993.250;  243.825;    0.000
340.022; 2075.250;  224.825;    0.000
340.079; 1952.250;  230.825;    0.000
340.137; 1979.250;  232.825;    0.000
340.194; 2018.250;  261.825;    0.000
340.252; 1970.250;  219.825;    0.000
340.309; 1997.250;  212.825;    0.000
340.366; 1943.250;  231.825;    0.000
340.424; 1951.250;  244.825;    0.000
340.481; 1964.250;  238.825;    0.000
340.538; 1922.250;  217.825;    0.000
340.596; 1950.250;  224.825;    0.000
340.653; 2081.250;  225.825;    0.000
340.711; 2049.250;  276.825;    0.000
340.768; 2019.250;  239.825;    0.000
340.825; 2038.250;  216.825;    0.000
340.883; 2074.250;  264.825;    0.000
340.940; 1940.250;  256.825;    0.000
340.997; 2012.250;  230.825;    0.000
341.054; 1955.250;  229.825;    0.000
341.112; 1998.250;  220.825;    0.000
341.169; 2004.250;  276.825;    0.000
341.226; 1973.250;  224.825;    0.000
341.284; 2005.250;  235.825;    0.000
341.341; 1955.250;  226.825;    0.000
341.398; 2040.250;  200.825;    0.000
341.455; 2139.250;  242.825;    0.000
341.512; 2008.250;  226.825;    0.000
341.570; 2072.250;  299.825;    0.000
341.627; 2075.250;  221.825;    0.000
341.684; 1995.250;  204.825;    0.000
341.741; 2071.250;  285.825;    0.000
341.798; 2035.250;  237.825;    0.000
341.856; 1987.250;  223.825;    0.000
341.913; 2031.250;  232.825;    0.000
341.970; 2041.250;  250.825;    0.000
342.027; 1963.250;  272.825;    0.000
342.084; 1973.250;  242.825;    0.000
342.141; 1981.250;  207.825;    0.000
342.198; 2053.250;  252.825;    0.000
342.255; 2076.250;  189.825;    0.000
342.313; 2043.250;  222.825;    0.000
342.370; 2020.250;  203.825;    0.000
342.427; 2010.250;  261.825;    0.000
342.484; 1992.250;  230.825;    0.000
342.541; 1981.250;  224.825;    0.000
342.598; 2037.250;  245.825;    0.000
342.655; 2007.250;  235.825;    0.000
342.712; 1980.250;  238.825;    0.000
342.769; 2017.250;  235.825;    0.000
342.826; 1982.250;  232.825;    0.000
342.883; 2042.250;  212.825;    0.000
342.940; 2001.250;  189.825;    0.000
342.997; 2057.250;  241.825;    0.000
343.054; 1946.250;  235.825;    0.000
343.111; 1922.250;  216.825;    0.000
343.168; 1982.250;  202.825;    0.000
343.225; 2032.250;  228.825;    0.000
343.282; 2058.250;  208.825;    0.000
343.339; 2092.250;  241.825;    0.000
343.395; 2054.250;  206.825;    0.000
343.452; 2096.250;  227.825;    0.000
343.509; 2071.250;  212.825;    0.000
343.566; 2052.250;  266.825;    0.000
343.623; 2123.250;  240.825;    0.000
343.680; 2044.250;  215.825;    0.000
343.737; 2129.250;  231.825;    0.000
343.794; 2123.250;  256.825;    0.000
343.850; 2201.250;  235.825;    0.000
343.907; 2265.250;  246.825;    0.000
343.964; 2243.250;  241.825;    0.000
344.021; 2178.250;  237.825;    0.000
344.078; 2239.250;  248.825;    0.000
344.134; 2156.250;  225.825;    0.000
344.191; 2226.250;  209.825;    0.000
344.248; 2225.250;  234.825;    0.000
344.305; 2218.250;  224.825;    0.000
344.361; 2165.250;  194.825;    0.000
344.418; 2129.250;  240.825;    0.000
344.475; 2200.250;  252.825;    0.000
344.532; 2146.250;  251.825;    0.000
344.588; 2136.250;  240.825;    0.000
344.645; 2116.250;  253.825;    0.000
344.702; 2100.250;  216.825;    0.000
344.758; 2149.250;  258.825;    0.000
344.815; 2128.250;  239.825;    0.000
344.872; 2085.250;  216.825;    0.000
344.928; 2109.250;  236.825;    0.000
344.985; 2107.250;  238.825;    0.000
345.042; 2150.250;  211.825;    0.000
345.098; 2127.250;  223.825;    0.000
345.155; 2186.250;  266.825;    0.000
345.212; 2130.250;  266.825;    0.000
345.268; 2197.250;  245.825;    0.000
345.325; 2068.250;  225.825;    0.000
345.381; 2149.250;  223.825;    0.000
345.438; 2054.250;  259.825;    0.000
345.495; 2112.250;  233.825;    0.000
345.551; 2156.250;  254.825;    0.000
345.608; 2089.250;  212.825;    0.000
345.664; 2038.250;  225.825;    0.000
345.721; 2116.250;  223.825;    0.000
345.777; 2013.250;  226.825;    0.000
345.834; 2087.250;  215.825;    0.000
345.890; 2146.250;  230.825;    0.000
345.947; 2112.250;  232.825;    0.000
346.003; 2143.250;  241.825;    0.000
346.060; 2114.250;  241.825;    0.000
346.116; 2227.250;  231.825;    0.000
346.173; 2094.250;  229.825;    0.000
346.229; 2117.250;  262.825;    0.000
346.285; 2065.250;  232.825;    0.000
346.342; 2108.250;  228.825;    0.000
346.398; 2087.250;  203.825;    0.000
346.455; 2174.250;  214.825;    0.000
346.511; 2196.250;  245.825;    0.000
346.567; 2200.250;  192.825;    0.000
346.624; 2209.250;  206.825;    0.000
346.680; 2209.250;  209.825;    0.000
346.737; 2130.250;  239.825;    0.000
346.793; 2143.250;  234.825;    0.000
346.849; 2177.250;  252.825;    0.000
346.906; 2132.250;  247.825;    0.000
346.962; 2258.250;  274.825;    0.000
347.018; 2166.250;  225.825;    0.000
347.074; 2115.250;  261.825;    0.000
347.131; 2236.250;  230.825;    0.000
347.187; 2171.250;  269.825;    0.000
347.243; 2202.250;  261.825;    0.000
347.300; 2226.250;  236.825;    0.000
347.356; 2209.250;  284.825;    0.000
347.412; 2139.250;  243.825;    0.000
347.468; 2173.250;  276.825;    0.000
347.524; 2172.250;  232.825;    0.000
347.581; 2192.250;  242.825;    0.000
347.637; 2184.250;  270.825;    0.000
347.693; 2201.250;  269.825;    0.000
347.749; 2154.250;  278.825;    0.000
347.805; 2105.250;  224.825;    0.000
347.862; 2149.250;  207.825;    0.000
347.918; 2171.250;  259.825;    0.000
347.974; 2196.250;  244.825;    0.000
348.030; 2132.250;  219.825;    0.000
348.086; 2186.250;  250.825;    0.000
348.142; 2100.250;  251.825;    0.000
348.198; 2131.250;  267.825;    0.000
348.254; 2173.250;  230.825;    0.000
348.311; 2209.250;  261.825;    0.000
348.367; 2176.250;  259.825;    0.000
348.423; 2147.250;  251.825;    0.000
348.479; 2087.250;  251.825;    0.000
348.535; 2088.250;  269.825;    0.000
348.591; 2136.250;  238.825;    0.000
348.647; 2107.250;  273.825;    0.000
348.703; 2225.250;  291.825;    0.000
348.759; 2151.250;  231.825;    0.000
348.815; 2161.250;  286.825;    0.000
348.871; 2187.250;  265.825;    0.000
348.927; 2087.250;  234.825;    0.000
348.983; 2100.250;  267.825;    0.000
349.039; 2171.250;  233.825;    0.000
349.095; 2122.250;  225.825;    0.000
349.151; 2127.250;  242.825;    0.000
349.207; 2167.250;  223.825;    0.000
349.263; 2191.250;  219.825;    0.000
349.319; 2107.250;  226.825;    0.000
349.374; 2122.250;  232.825;    0.000
349.430; 2157.250;  235.825;    0.000
349.486; 2197.250;  227.825;    0.000
349.542; 2115.250;  253.825;    0.000
349.598; 2241.250;  227.825;    0.000
349.654; 2176.250;  270.825;    0.000
349.710; 2200.250;  233.825;    0.000
349.766; 2150.250;  245.825;    0.000
349.821; 2201.250;  242.825;    0.000
349.877; 2122.250;  229.825;    0.000
349.933; 2159.250;  229.825;    0.000
349.989; 2193.250;  230.825;    0.000
350.045; 2204.250;  236.825;    0.000
350.100; 2172.250;  237.825;    0.000
350.156; 2114.250;  230.825;    0.000
350.212; 2179.250;  254.825;    0.000
350.268; 2162.250;  239.825;    0.000
350.323; 2163.250;  204.825;    0.000
350.379; 2065.250;  246.825;    0.000
350.435; 2114.250;  249.825;    0.000
350.491; 2131.250;  217.825;    0.000
350.546; 2126.250;  231.825;    0.000
350.602; 2131.250;  240.825;    0.000
350.658; 2176.250;  235.825;    0.000
350.713; 2156.250;  234.825;    0.000
350.769; 2155.250;  218.825;    0.000
350.825; 2154.250;  227.825;    0.000
350.880; 2103.250;  226.825;    0.000
350.936; 2169.250;  247.825;    0.000
350.992; 2153.250;  213.825;    0.000
351.047; 2203.250;  207.825;    0.000
351.103; 2120.250;  271.825;    0.000
351.158; 2275.250;  251.825;    0.000
351.214; 2066.250;  199.825;    0.000
351.270; 2216.250;  214.825;    0.000
351.325; 2141.250;  235.825;    0.000
351.381; 2233.250;  223.825;    0.000
351.436; 2217.250;  237.825;    0.000
351.492; 2380.250;  221.825;    0.000
351.547; 2283.250;  237.825;    0.000
351.603; 2168.250;  239.825;    0.000
351.658; 2178.250;  209.825;    0.000
351.714; 2102.250;  226.825;    0.000
351.769; 2205.250;  238.825;    0.000
351.825; 2207.250;  226.825;    0.000
351.880; 2269.250;  217.825;    0.000
351.936; 2244.250;  246.825;    0.000
351.991; 2266.250;  233.825;    0.000
352.047; 2168.250;  215.825;    0.000
352.102; 2229.250;  243.825;    0.000
352.158; 2132.250;  234.825;    0.000
352.213; 2165.250;  201.825;    0.000
352.268; 2158.250;  234.825;    0.000
352.324; 2247.250;  211.825;    0.000
352.379; 2288.250;  221.825;    0.000
352.434; 2259.250;  259.825;    0.000
352.490; 2198.250;  250.825;    0.000
352.545; 2188.250;  251.825;    0.000
352.601; 2225.250;  283.825;    0.000
352.656; 2203.250;  236.825;    0.000
352.711; 2183.250;  237.825;    0.000
352.767; 2104.250;  201.825;    0.000
352.822; 2199.250;  209.825;    0.000
352.877; 2132.250;  239.825;    0.000
352.932; 2267.250;  228.825;    0.000
352.988; 2159.250;  202.825;    0.000
353.043; 2211.250;  268.825;    0.000
353.098; 2257.250;  208.825;    0.000
353.153; 2219.250;  219.825;    0.000
353.209; 2223.250;  252.825;    0.000
353.264; 2195.250;  225.825;    0.000
353.319; 2143.250;  234.825;    0.000
353.374; 2168.250;  236.825;    0.000
353.430; 2139.250;  245.825;    0.000
353.485; 2225.250;  238.825;    0.000
353.540; 2145.250;  238.825;    0.000
353.595; 2199.250;  215.825;    0.000
353.650; 2131.250;  238.825;    0.000
353.705; 2159.250;  274.825;    0.000
353.761; 2190.250;  229.825;    0.000
353.816; 2152.250;  275.825;    0.000
353.871; 2179.250;  245.825;    0.000
353.926; 2165.250;  253.825;    0.000
353.981; 2207.250;  269.825;    0.000
354.036; 2242.250;  246.825;    0.000
354.091; 2209.250;  257.825;    0.000
354.146; 2181.250;  278.825;    0.000
354.201; 2190.250;  276.825;    0.000
354.256; 2145.250;  224.825;    0.000
354.311; 2204.250;  287.825;    0.000
354.367; 2198.250;  210.825;    0.000
354.422; 2242.250;  231.825;    0.000
354.477; 2096.250;  226.825;    0.000
354.532; 2218.250;  262.825;    0.000
354.587; 2241.250;  275.825;    0.000
354.642; 2102.250;  247.825;    0.000
354.697; 2248.250;  251.825;    0.000
354.751; 2259.250;  249.825;    0.000
354.806; 2206.250;  217.825;    0.000
354.861; 2216.250;  247.825;    0.000
354.916; 2284.250;  259.825;    0.000
354.971; 2207.250;  241.825;    0.000
355.026; 2197.250;  250.825;    0.000
355.081; 2226.250;  244.825;    0.000
355.136; 2209.250;  203.825;    0.000
355.191; 2189.250;  241.825;    0.000
355.246; 2195.250;  248.825;    0.000
355.301; 2214.250;  259.825;    0.000
355.355; 2204.250;  236.825;    0.000
355.410; 2178.250;  221.825;    0.000
355.465; 2250.250;  206.825;    0.000
355.520; 2271.250;  258.825;    0.000
355.575; 2210.250;  273.825;    0.000
355.630; 2221.250;  252.825;    0.000
355.684; 2230.250;  246.825;    0.000
355.739; 2226.250;  251.825;    0.000
355.794; 2141.250;  247.825;    0.000
355.849; 2296.250;  246.825;    0.000
355.904; 2168.250;  262.825;    0.000
355.958; 2160.250;  249.825;    0.000
356.013; 2202.250;  213.825;    0.000
356.068; 2210.250;  255.825;    0.000
356.123; 2189.250;  205.825;    0.000
356.177; 2187.250;  239.825;    0.000
356.232; 2267.250;  258.825;    0.000
356.287; 2236.250;  248.825;    0.000
356.341; 2276.250;  221.825;    0.000
356.396; 2166.250;  220.825;    0.000
356.451; 2255.250;  231.825;    0.000
356.505; 2229.250;  231.825;    0.000
356.560; 2191.250;  254.825;    0.000
356.615; 2251.250;  234.825;    0.000
356.669; 2198.250;  250.825;    0.000
356.724; 2249.250;  261.825;    0.000
356.778; 2218.250;  207.825;    0.000
356.833; 2249.250;  205.825;    0.000
356.888; 2243.250;  235.825;    0.000
356.942; 2230.250;  205.825;    0.000
356.997; 2294.250;  276.825;    0.000
357.051; 2224.250;  243.825;    0.000
357.106; 2248.250;  242.825;    0.000
357.160; 2291.250;  241.825;    0.000
357.215; 2216.250;  212.825;    0.000
357.269; 2232.250;  238.825;    0.000
357.324; 2195.250;  223.825;    0.000
357.378; 2187.250;  221.825;    0.000
357.433; 2227.250;  262.825;    0.000
357.487; 2283.250;  246.825;    0.000
357.542; 2213.250;  221.825;    0.000
357.596; 2143.250;  225.825;    0.000
357.651; 2317.250;  244.825;    0.000
357.705; 2243.250;  269.825;    0.000
357.760; 2227.250;  209.825;    0.000
357.814; 2234.250;  250.825;    0.000
357.868; 2205.250;  266.825;    0.000
357.923; 2188.250;  248.825;    0.000
357.977; 2219.250;  262.825;    0.000
358.032; 2201.250;  228.825;    0.000
358.086; 2236.250;  257.825;    0.000
358.140; 2214.250;  217.825;    0.000
358.195; 2237.250;  246.825;    0.000
358.249; 2225.250;  255.825;    0.000
358.303; 2236.250;  252.825;    0.000
358.358; 2083.250;  278.825;    0.000
358.412; 2254.250;  276.825;    0.000
358.466; 2154.250;  275.825;    0.000
358.521; 2178.250;  229.825;    0.000
358.575; 2209.250;  270.825;    0.000
358.629; 2233.250;  239.825;    0.000
358.683; 2198.250;  254.825;    0.000
358.738; 2264.250;  239.825;    0.000
358.792; 2166.250;  272.825;    0.000
358.846; 2212.250;  289.825;    0.000
358.900; 2188.250;  299.825;    0.000
358.954; 2198.250;  247.825;    0.000
359.009; 2149.250;  245.825;    0.000
359.063; 2156.250;  272.825;    0.000
359.117; 2177.250;  242.825;    0.000
359.171; 2227.250;  279.825;    0.000
359.225; 2266.250;  221.825;    0.000
359.280; 2234.250;  238.825;    0.000
359.334; 2211.250;  264.825;    0.000
359.388; 2266.250;  273.825;    0.000
359.442; 2211.250;  233.825;    0.000
359.496; 2224.250;  226.825;    0.000
359.550; 2296.250;  271.825;    0.000
359.604; 2121.250;  296.825;    0.000
359.658; 2200.250;  252.825;    0.000
359.712; 2139.250;  256.825;    0.000
359.766; 2157.250;  257.825;    0.000
359.820; 2197.250;  239.825;    0.000
359.875; 2178.250;  252.825;    0.000
359.929; 2203.250;  258.825;    0.000
359.983; 2233.250;  232.825;    0.000
360.037; 2172.250;  268.825;    0.000
360.091; 2126.250;  303.825;    0.000
360.145; 2126.250;  232.825;    0.000
360.199; 2203.250;  255.825;    0.000
360.253; 2190.250;  252.825;    0.000
360.306; 2169.250;  278.825;    0.000
360.360; 2100.250;  249.825;    0.000
360.414; 2036.250;  274.825;    0.000
360.468; 2177.250;  247.825;    0.000
360.522; 2218.250;  268.825;    0.000
360.576; 2170.250;  263.825;    0.000
360.630; 2195.250;  296.825;    0.000
360.684; 2249.250;  253.825;    0.000
360.738; 2284.250;  301.825;    0.000
360.792; 2112.250;  282.825;    0.000
360.846; 2134.250;  277.825;    0.000
360.899; 2205.250;  292.825;    0.000
360.953; 2178.250;  266.825;    0.000
361.007; 2219.250;  240.825;    0.000
361.061; 2183.250;  247.825;    0.000
361.115; 2224.250;  276.825;    0.000
361.168; 2182.250;  288.825;    0.000
361.222; 2152.250;  271.825;    0.000
361.276; 2163.250;  270.825;    0.000
361.330; 2225.250;  295.825;    0.000
361.384; 2229.250;  276.825;    0.000
361.437; 2190.250;  280.825;    0.000
361.491; 2181.250;  261.825;    0.000
361.545; 2165.250;  273.825;    0.000
361.599; 2204.250;  269.825;    0.000
361.652; 2190.250;  258.825;    0.000
361.706; 2220.250;  270.825;    0.000
361.760; 2184.250;  294.825;    0.000
361.813; 2236.250;  244.825;    0.000
361.867; 2229.250;  294.825;    0.000
361.921; 2160.250;  285.825;    0.000
361.974; 2209.250;  269.825;    0.000
362.028; 2241.250;  275.825;    0.000
362.082; 2195.250;  270.825;    0.000
362.135; 2104.250;  259.825;    0.000
362.189; 2155.250;  302.825;    0.000
362.242; 2196.250;  296.825;    0.000
362.296; 2252.250;  285.825;    0.000
362.350; 2171.250;  303.825;    0.000
362.403; 2181.250;  271.825;    0.000
362.457; 2181.250;  285.825;    0.000
362.510; 2221.250;  288.825;    0.000
362.564; 2215.250;  268.825;    0.000
362.617; 2155.250;  285.825;    0.000
362.671; 2146.250;  277.825;    0.000
362.724; 2170.250;  242.825;    0.000
362.778; 2160.250;  274.825;    0.000
362.831; 2117.250;  280.825;    0.000
362.885; 2099.250;  284.825;    0.000
362.938; 2002.250;  276.825;    0.000
362.992;  320.250;  289.825;    0.000
363.045;  259.250;  247.825;    0.000
363.099;  286.250;  260.825;    0.000
363.152;  275.250;  258.825;    0.000
363.205;  282.250;  286.825;    0.000
363.259;  253.250;  236.825;    0.000
363.312;  295.250;  297.825;    0.000
363.366;  292.250;  266.825;    0.000
363.419;  285.250;  309.825;    0.000
363.472;  302.250;  293.825;    0.000
363.526;  274.250;  270.825;    0.000
363.579;  299.250;  276.825;    0.000
363.632;  283.250;  279.825;    0.000
363.686;  284.250;  292.825;    0.000
363.739;  288.250;  248.825;    0.000
363.792;  276.250;  287.825;    0.000

