
Integration time [ms]:   1.000
Averaging Nr. [scans]: 1
Smoothing Nr. [pixels]: 0
Data measured with spectrometer [name]: NIR
Wave   ;Sample   ;Dark     ;Reference
[nm]   ;[counts] ;[counts] ;[counts] 

691.496; -107.475;  163.125;    0.000
691.696;  -36.475;  208.125;    0.000
691.896; -115.475;  111.125;    0.000
692.096;  -58.475;  178.125;    0.000
692.296;  -99.475;   93.125;    0.000
692.496;  -35.475;  161.125;    0.000
692.695;  -79.475;  135.125;    0.000
692.895;  -69.475;  179.125;    0.000
693.095; -102.475;  158.125;    0.000
693.295;  -67.475;  168.125;    0.000
693.495;  -73.475;  170.125;    0.000
693.695;  -85.475;  155.125;    0.000
693.894;  -60.475;  151.125;    0.000
694.094;  -66.475;  164.125;    0.000
694.294;  -85.475;  129.125;    0.000
694.494;  125.525;  170.125;    0.000
694.693; 1845.525;  137.125;    0.000
694.893; 2104.525;  163.125;    0.000
695.093; 2063.525;  121.125;    0.000
695.293; 2087.525;  144.125;    0.000
695.492; 2057.525;   88.125;    0.000
695.692; 2061.525;  148.125;    0.000
695.891; 2052.525;  125.125;    0.000
696.091; 2150.525;  184.125;    0.000
696.291; 2080.525;  153.125;    0.000
696.490; 2141.525;  131.125;    0.000
696.690; 2251.525;  123.125;    0.000
696.889; 2236.525;  180.125;    0.000
697.089; 2161.525;  147.125;    0.000
697.288; 2242.525;  164.125;    0.000
697.488; 2133.525;  133.125;    0.000
697.687; 2196.525;  153.125;    0.000
697.887; 2176.525;  119.125;    0.000
698.086; 2259.525;  143.125;    0.000
698.286; 2227.525;  125.125;    0.000
698.485; 2231.525;  120.125;    0.000
698.684; 2144.525;  116.125;    0.000
698.884; 2170.525;  131.125;    0.000
699.083; 2068.525;  115.125;    0.000
699.282; 2158.525;  144.125;    0.000
699.482; 2246.525;  109.125;    0.000
699.681; 2234.525;  115.125;    0.000
699.880; 2237.525;  125.125;    0.000
700.080; 2246.525;  139.125;    0.000
700.279; 2163.525;  111.125;    0.000
700.478; 2231.525;  146.125;    0.000
700.677; 2209.525;  131.125;    0.000
700.877; 2345.525;  156.125;    0.000
701.076; 2269.525;  153.125;    0.000
701.275; 2156.525;  123.125;    0.000
701.474; 2208.525;  150.125;    0.000
701.673; 2193.525;   97.125;    0.000
701.872; 2185.525;  139.125;    0.000
702.071; 2225.525;  108.125;    0.000
702.271; 2230.525;  125.125;    0.000
702.470; 2306.525;  108.125;    0.000
702.669; 2235.525;  102.125;    0.000
702.868; 2323.525;  153.125;    0.000
703.067; 2247.525;  145.125;    0.000
703.266; 2281.525;   96.125;    0.000
703.465; 2323.525;  165.125;    0.000
703.664; 2270.525;  106.125;    0.000
703.863; 2244.525;  144.125;    0.000
704.062; 2222.525;   86.125;    0.000
704.260; 2335.525;   99.125;    0.000
704.459; 2288.525;  112.125;    0.000
704.658; 2257.525;  106.125;    0.000
704.857; 2238.525;  129.125;    0.000
705.056; 2291.525;   98.125;    0.000
705.255; 2246.525;   97.125;    0.000
705.454; 2298.525;  101.125;    0.000
705.652; 2301.525;  142.125;    0.000
705.851; 2289.525;  100.125;    0.000
706.050; 2264.525;  162.125;    0.000
706.249; 2341.525;  146.125;    0.000
706.447; 2325.525;  120.125;    0.000
706.646; 2271.525;  114.125;    0.000
706.845; 2311.525;  117.125;    0.000
707.043; 2314.525;  136.125;    0.000
707.242; 2281.525;   90.125;    0.000
707.441; 2425.525;  131.125;    0.000
707.639; 2314.525;  120.125;    0.000
707.838; 2288.525;  122.125;    0.000
708.037; 2265.525;  109.125;    0.000
708.235; 2341.525;  122.125;    0.000
708.434; 2317.525;  109.125;    0.000
708.632; 2253.525;   47.125;    0.000
708.831; 2380.525;  122.125;    0.000
709.029; 2331.525;  130.125;    0.000
709.228; 2321.525;  112.125;    0.000
709.426; 2375.525;  128.125;    0.000
709.625; 2411.525;  129.125;    0.000
709.823; 2324.525;  130.125;    0.000
710.022; 2310.525;   90.125;    0.000
710.220; 2403.525;  131.125;    0.000
710.418; 2378.525;  133.125;    0.000
710.617; 2396.525;   82.125;    0.000
710.815; 2388.525;   90.125;    0.000
711.013; 2371.525;   86.125;    0.000
711.212; 2394.525;  117.125;    0.000
711.410; 2443.525;  106.125;    0.000
711.608; 2434.525;  138.125;    0.000
711.807; 2402.525;  116.125;    0.000
712.005; 2440.525;   82.125;    0.000
712.203; 2497.525;   90.125;    0.000
712.401; 2520.525;  124.125;    0.000
712.599; 2527.525;   64.125;    0.000
712.798; 2505.525;  113.125;    0.000
712.996; 2424.525;  100.125;    0.000
713.194; 2497.525;  130.125;    0.000
713.392; 2446.525;   89.125;    0.000
713.590; 2480.525;  105.125;    0.000
713.788; 2475.525;  100.125;    0.000
713.986; 2552.525;  117.125;    0.000
714.184; 2501.525;   72.125;    0.000
714.382; 2533.525;   88.125;    0.000
714.580; 2636.525;   88.125;    0.000
714.778; 2554.525;  129.125;    0.000
714.976; 2558.525;   90.125;    0.000
715.174; 2623.525;  119.125;    0.000
715.372; 2653.525;  117.125;    0.000
715.570; 2850.525;  101.125;    0.000
715.768; 3103.525;  122.125;    0.000
715.966; 2965.525;  114.125;    0.000
716.164; 2984.525;  135.125;    0.000
716.362; 2951.525;  126.125;    0.000
716.560; 2907.525;  126.125;    0.000
716.758; 2818.525;   98.125;    0.000
716.955; 2783.525;   76.125;    0.000
717.153; 2776.525;   45.125;    0.000
717.351; 2808.525;  106.125;    0.000
717.549; 2674.525;  108.125;    0.000
717.746; 2747.525;   66.125;    0.000
717.944; 2788.525;  127.125;    0.000
718.142; 2710.525;  148.125;    0.000
718.340; 2706.525;   94.125;    0.000
718.537; 2681.525;  107.125;    0.000
718.735; 2770.525;  130.125;    0.000
718.933; 2728.525;  111.125;    0.000
719.130; 2699.525;  107.125;    0.000
719.328; 2695.525;  128.125;    0.000
719.525; 2679.525;  141.125;    0.000
719.723; 2743.525;  122.125;    0.000
719.920; 2640.525;   85.125;    0.000
720.118; 2728.525;  115.125;    0.000
720.316; 2700.525;  153.125;    0.000
720.513; 2658.525;  120.125;    0.000
720.711; 2748.525;  134.125;    0.000
720.908; 2650.525;  126.125;    0.000
721.105; 2734.525;  119.125;    0.000
721.303; 2712.525;  112.125;    0.000
721.500; 2715.525;  125.125;    0.000
721.698; 2666.525;   94.125;    0.000
721.895; 2741.525;  118.125;    0.000
722.092; 2675.525;   77.125;    0.000
722.290; 2724.525;  135.125;    0.000
722.487; 2772.525;  154.125;    0.000
722.684; 2713.525;  122.125;    0.000
722.882; 2753.525;   90.125;    0.000
723.079; 2768.525;  132.125;    0.000
723.276; 2646.525;   95.125;    0.000
723.473; 2762.525;  106.125;    0.000
723.671; 2737.525;   80.125;    0.000
723.868; 2783.525;  112.125;    0.000
724.065; 2876.525;  107.125;    0.000
724.262; 2799.525;  119.125;    0.000
724.459; 2651.525;   80.125;    0.000
724.656; 2747.525;  109.125;    0.000
724.854; 2834.525;  107.125;    0.000
725.051; 2764.525;  103.125;    0.000
725.248; 2806.525;  101.125;    0.000
725.445; 2856.525;   93.125;    0.000
725.642; 2692.525;   92.125;    0.000
725.839; 2797.525;  157.125;    0.000
726.036; 2744.525;   71.125;    0.000
726.233; 2713.525;   80.125;    0.000
726.430; 2780.525;  146.125;    0.000
726.627; 2786.525;  103.125;    0.000
726.824; 2817.525;   46.125;    0.000
727.021; 2850.525;  149.125;    0.000
727.218; 2853.525;   87.125;    0.000
727.414; 2852.525;  112.125;    0.000
727.611; 2671.525;  111.125;    0.000
727.808; 2823.525;  122.125;    0.000
728.005; 2733.525;   58.125;    0.000
728.202; 2813.525;  129.125;    0.000
728.399; 2858.525;  111.125;    0.000
728.595; 2790.525;   93.125;    0.000
728.792; 2844.525;   78.125;    0.000
728.989; 2871.525;  104.125;    0.000
729.186; 2821.525;  110.125;    0.000
729.382; 2763.525;   93.125;    0.000
729.579; 2901.525;  102.125;    0.000
729.776; 2866.525;  112.125;    0.000
729.972; 2852.525;  101.125;    0.000
730.169; 2959.525;  150.125;    0.000
730.366; 2872.525;   92.125;    0.000
730.562; 2857.525;   74.125;    0.000
730.759; 2765.525;   97.125;    0.000
730.955; 2846.525;   86.125;    0.000
731.152; 2760.525;   88.125;    0.000
731.348; 2842.525;  117.125;    0.000
731.545; 2987.525;   62.125;    0.000
731.741; 2877.525;   84.125;    0.000
731.938; 2817.525;  108.125;    0.000
732.134; 2890.525;  115.125;    0.000
732.331; 2873.525;   88.125;    0.000
732.527; 2894.525;   96.125;    0.000
732.724; 2901.525;  103.125;    0.000
732.920; 2927.525;   93.125;    0.000
733.116; 2917.525;  109.125;    0.000
733.313; 2905.525;   77.125;    0.000
733.509; 2899.525;   81.125;    0.000
733.705; 2855.525;  141.125;    0.000
733.902; 2818.525;   88.125;    0.000
734.098; 2863.525;   56.125;    0.000
734.294; 3015.525;  122.125;    0.000
734.490; 2986.525;  102.125;    0.000
734.687; 2970.525;   70.125;    0.000
734.883; 2893.525;   73.125;    0.000
735.079; 2846.525;   65.125;    0.000
735.275; 2978.525;  112.125;    0.000
735.471; 2913.525;  124.125;    0.000
735.667; 2879.525;   94.125;    0.000
735.863; 2921.525;  106.125;    0.000
736.060; 2917.525;  106.125;    0.000
736.256; 2883.525;   95.125;    0.000
736.452; 2953.525;  103.125;    0.000
736.648; 2936.525;  106.125;    0.000
736.844; 3031.525;   98.125;    0.000
737.040; 2999.525;  118.125;    0.000
737.236; 2942.525;   95.125;    0.000
737.432; 2967.525;   59.125;    0.000
737.628; 3016.525;  120.125;    0.000
737.824; 2972.525;   78.125;    0.000
738.019; 2954.525;   98.125;    0.000
738.215; 3063.525;  127.125;    0.000
738.411; 3048.525;  111.125;    0.000
738.607; 2992.525;   69.125;    0.000
738.803; 2988.525;   40.125;    0.000
738.999; 3013.525;  128.125;    0.000
739.195; 3194.525;   81.125;    0.000
739.390; 3164.525;   97.125;    0.000
739.586; 3052.525;  100.125;    0.000
739.782; 3124.525;  135.125;    0.000
739.978; 3101.525;  121.125;    0.000
740.173; 3115.525;   92.125;    0.000
740.369; 3084.525;   92.125;    0.000
740.565; 3064.525;  119.125;    0.000
740.760; 3196.525;  139.125;    0.000
740.956; 3317.525;  134.125;    0.000
741.152; 3200.525;  107.125;    0.000
741.347; 3174.525;   63.125;    0.000
741.543; 3182.525;   99.125;    0.000
741.738; 3284.525;  119.125;    0.000
741.934; 3403.525;  156.125;    0.000
742.129; 3582.525;   87.125;    0.000
742.325; 3893.525;  143.125;    0.000
742.520; 4215.525;  109.125;    0.000
742.716; 4104.525;  135.125;    0.000
742.911; 3874.525;   77.125;    0.000
743.107; 3783.525;  117.125;    0.000
743.302; 3725.525;   93.125;    0.000
743.498; 3810.525;  118.125;    0.000
743.693; 3904.525;   95.125;    0.000
743.888; 4041.525;  122.125;    0.000
744.084; 4562.525;  104.125;    0.000
744.279; 5397.525;   94.125;    0.000
744.474; 5375.525;  138.125;    0.000
744.670; 4984.525;  113.125;    0.000
744.865; 4609.525;  116.125;    0.000
745.060; 4295.525;   89.125;    0.000
745.255; 4349.525;  144.125;    0.000
745.451; 4180.525;   98.125;    0.000
745.646; 4106.525;  110.125;    0.000
745.841; 4155.525;   87.125;    0.000
746.036; 4140.525;   98.125;    0.000
746.231; 4177.525;  153.125;    0.000
746.426; 4288.525;   90.125;    0.000
746.622; 5057.525;  154.125;    0.000
746.817; 6196.525;  111.125;    0.000
747.012; 6858.525;  110.125;    0.000
747.207; 6335.525;   76.125;    0.000
747.402; 5592.525;   94.125;    0.000
747.597; 5237.525;   68.125;    0.000
747.792; 5064.525;  125.125;    0.000
747.987; 4887.525;   92.125;    0.000
748.182; 4752.525;  113.125;    0.000
748.377; 4524.525;   72.125;    0.000
748.572; 4381.525;  135.125;    0.000
748.767; 4142.525;   98.125;    0.000
748.961; 4138.525;  123.125;    0.000
749.156; 3988.525;   96.125;    0.000
749.351; 3972.525;  121.125;    0.000
749.546; 3869.525;   95.125;    0.000
749.741; 3929.525;  144.125;    0.000
749.936; 3737.525;  105.125;    0.000
750.130; 3690.525;  101.125;    0.000
750.325; 3700.525;  126.125;    0.000
750.520; 3759.525;  113.125;    0.000
750.715; 3655.525;  135.125;    0.000
750.909; 3573.525;  138.125;    0.000
751.104; 3537.525;   96.125;    0.000
751.299; 3666.525;  118.125;    0.000
751.493; 3566.525;  124.125;    0.000
751.688; 3608.525;  131.125;    0.000
751.882; 3531.525;   96.125;    0.000
752.077; 3455.525;  123.125;    0.000
752.272; 3503.525;  112.125;    0.000
752.466; 3521.525;  143.125;    0.000
752.661; 3392.525;  107.125;    0.000
752.855; 3298.525;   97.125;    0.000
753.050; 3518.525;  125.125;    0.000
753.244; 3382.525;  161.125;    0.000
753.439; 3309.525;  101.125;    0.000
753.633; 3378.525;  129.125;    0.000
753.828; 3331.525;  114.125;    0.000
754.022; 3333.525;  118.125;    0.000
754.216; 3281.525;  126.125;    0.000
754.411; 3379.525;  148.125;    0.000
754.605; 3261.525;  100.125;    0.000
754.799; 3330.525;  146.125;    0.000
754.994; 3309.525;  116.125;    0.000
755.188; 3321.525;  146.125;    0.000
755.382; 3318.525;  103.125;    0.000
755.576; 3317.525;  119.125;    0.000
755.771; 3215.525;  100.125;    0.000
755.965; 3265.525;  129.125;    0.000
756.159; 3253.525;  100.125;    0.000
756.353; 3329.525;  153.125;    0.000
756.547; 3239.525;  113.125;    0.000
756.742; 3246.525;  129.125;    0.000
756.936; 3263.525;   70.125;    0.000
757.130; 3313.525;   91.125;    0.000
757.324; 3255.525;   92.125;    0.000
757.518; 3206.525;  128.125;    0.000
757.712; 3255.525;  146.125;    0.000
757.906; 3336.525;  114.125;    0.000
758.100; 3337.525;  153.125;    0.000
758.294; 3360.525;  133.125;    0.000
758.488; 3267.525;  149.125;    0.000
758.682; 3240.525;  132.125;    0.000
758.876; 3232.525;  128.125;    0.000
759.070; 3291.525;  178.125;    0.000
759.264; 3262.525;   98.125;    0.000
759.458; 3200.525;  168.125;    0.000
759.651; 3276.525;  131.125;    0.000
759.845; 3296.525;  133.125;    0.000
760.039; 3254.525;  120.125;    0.000
760.233; 3231.525;  116.125;    0.000
760.427; 3208.525;  121.125;    0.000
760.620; 3254.525;  163.125;    0.000
760.814; 3294.525;  106.125;    0.000
761.008; 3187.525;  119.125;    0.000
761.202; 3154.525;  121.125;    0.000
761.395; 3234.525;  136.125;    0.000
761.589; 3305.525;  111.125;    0.000
761.783; 3193.525;  116.125;    0.000
761.976; 3270.525;  139.125;    0.000
762.170; 3243.525;  140.125;    0.000
762.363; 3215.525;  115.125;    0.000
762.557; 3315.525;  129.125;    0.000
762.750; 3335.525;   85.125;    0.000
762.944; 3349.525;  107.125;    0.000
763.138; 3268.525;   99.125;    0.000
763.331; 3236.525;   97.125;    0.000
763.524; 3442.525;  100.125;    0.000
763.718; 3380.525;  130.125;    0.000
763.911; 3331.525;  127.125;    0.000
764.105; 3286.525;   69.125;    0.000
764.298; 3322.525;   94.125;    0.000
764.492; 3395.525;  129.125;    0.000
764.685; 3332.525;  114.125;    0.000
764.878; 3416.525;  145.125;    0.000
765.072; 3381.525;  124.125;    0.000
765.265; 3303.525;  124.125;    0.000
765.458; 3304.525;  108.125;    0.000
765.651; 3416.525;  132.125;    0.000
765.845; 3466.525;  106.125;    0.000
766.038; 3379.525;  155.125;    0.000
766.231; 3848.525;  153.125;    0.000
766.424; 5990.525;  165.125;    0.000
766.617; 6198.525;   85.125;    0.000
766.811; 3689.525;  140.125;    0.000
767.004; 3416.525;  151.125;    0.000
767.197; 3578.525;  178.125;    0.000
767.390; 3383.525;  112.125;    0.000
767.583; 3323.525;  134.125;    0.000
767.776; 3419.525;  101.125;    0.000
767.969; 3480.525;   99.125;    0.000
768.162; 3519.525;  152.125;    0.000
768.355; 3460.525;  115.125;    0.000
768.548; 3530.525;  154.125;    0.000
768.741; 3504.525;  124.125;    0.000
768.934; 3470.525;  129.125;    0.000
769.127; 3610.525;  137.125;    0.000
769.320; 3518.525;  115.125;    0.000
769.513; 3563.525;  144.125;    0.000
769.706; 4068.525;  107.125;    0.000
769.898; 6069.525;  134.125;    0.000
770.091; 4521.525;  128.125;    0.000
770.284; 3683.525;   97.125;    0.000
770.477; 3720.525;  135.125;    0.000
770.670; 3684.525;  137.125;    0.000
770.862; 3649.525;  112.125;    0.000
771.055; 3785.525;  127.125;    0.000
771.248; 3686.525;  116.125;    0.000
771.441; 3668.525;  101.125;    0.000
771.633; 3706.525;  130.125;    0.000
771.826; 3831.525;  147.125;    0.000
772.018; 3761.525;  117.125;    0.000
772.211; 3779.525;  141.125;    0.000
772.404; 3872.525;  104.125;    0.000
772.596; 3899.525;  128.125;    0.000
772.789; 3982.525;  131.125;    0.000
772.981; 4039.525;  134.125;    0.000
773.174; 4094.525;  108.125;    0.000
773.366; 3932.525;  153.125;    0.000
773.559; 4074.525;  137.125;    0.000
773.751; 4041.525;  119.125;    0.000
773.944; 4270.525;  148.125;    0.000
774.136; 4339.525;  155.125;    0.000
774.329; 4366.525;  126.125;    0.000
774.521; 4439.525;  116.125;    0.000
774.713; 4601.525;  119.125;    0.000
774.906; 4685.525;  179.125;    0.000
775.098; 4954.525;  127.125;    0.000
775.290; 5201.525;  146.125;    0.000
775.483; 5214.525;  123.125;    0.000
775.675; 5637.525;  119.125;    0.000
775.867; 5967.525;  119.125;    0.000
776.059; 6493.525;  137.125;    0.000
776.251; 7009.525;  154.125;    0.000
776.444; 8005.525;  101.125;    0.000
776.636; 9111.525;  153.125;    0.000
776.828;11250.525;  127.125;    0.000
777.020;16013.525;  140.125;    0.000
777.212;23639.525;  160.125;    0.000
777.404;26593.525;  170.125;    0.000
777.596;24546.525;  136.125;    0.000
777.788;18057.525;  137.125;    0.000
777.980;13867.525;  129.125;    0.000
778.172;11490.525;  139.125;    0.000
778.364; 9793.525;  124.125;    0.000
778.556; 8679.525;  163.125;    0.000
778.748; 7821.525;  142.125;    0.000
778.940; 7154.525;  178.125;    0.000
779.132; 6683.525;  159.125;    0.000
779.324; 6285.525;  109.125;    0.000
779.516; 5888.525;  143.125;    0.000
779.708; 5715.525;  158.125;    0.000
779.900; 5355.525;  142.125;    0.000
780.091; 5146.525;  131.125;    0.000
780.283; 4931.525;  176.125;    0.000
780.475; 4692.525;  151.125;    0.000
780.667; 4634.525;  120.125;    0.000
780.859; 4446.525;  134.125;    0.000
781.050; 4335.525;  183.125;    0.000
781.242; 4216.525;   95.125;    0.000
781.434; 4232.525;  127.125;    0.000
781.625; 4083.525;  163.125;    0.000
781.817; 4023.525;  170.125;    0.000
782.008; 4074.525;  123.125;    0.000
782.200; 3922.525;  141.125;    0.000
782.392; 3892.525;  149.125;    0.000
782.583; 3724.525;  155.125;    0.000
782.775; 3780.525;  140.125;    0.000
782.966; 3691.525;  167.125;    0.000
783.158; 3667.525;  164.125;    0.000
783.349; 3740.525;  174.125;    0.000
783.541; 3732.525;  141.125;    0.000
783.732; 3658.525;  115.125;    0.000
783.924; 3680.525;  135.125;    0.000
784.115; 3574.525;  157.125;    0.000
784.306; 3578.525;  102.125;    0.000
784.498; 3604.525;  124.125;    0.000
784.689; 3623.525;  171.125;    0.000
784.880; 3548.525;  165.125;    0.000
785.072; 3493.525;  152.125;    0.000
785.263; 3623.525;  146.125;    0.000
785.454; 3494.525;  145.125;    0.000
785.645; 3386.525;  127.125;    0.000
785.837; 3532.525;  138.125;    0.000
786.028; 3491.525;  151.125;    0.000
786.219; 3486.525;  142.125;    0.000
786.410; 3333.525;  140.125;    0.000
786.601; 3383.525;  137.125;    0.000
786.792; 3478.525;  158.125;    0.000
786.984; 3342.525;  139.125;    0.000
787.175; 3403.525;  140.125;    0.000
787.366; 3367.525;  145.125;    0.000
787.557; 3396.525;  156.125;    0.000
787.748; 3423.525;  148.125;    0.000
787.939; 3337.525;  157.125;    0.000
788.130; 3496.525;  179.125;    0.000
788.321; 3330.525;  142.125;    0.000
788.512; 3452.525;  167.125;    0.000
788.703; 3520.525;  145.125;    0.000
788.894; 3449.525;  132.125;    0.000
789.084; 3458.525;  113.125;    0.000
789.275; 3433.525;  134.125;    0.000
789.466; 3564.525;  151.125;    0.000
789.657; 3498.525;  138.125;    0.000
789.848; 3635.525;  145.125;    0.000
790.039; 3523.525;  130.125;    0.000
790.229; 3585.525;  140.125;    0.000
790.420; 3548.525;  135.125;    0.000
790.611; 3481.525;  156.125;    0.000
790.801; 3412.525;   64.125;    0.000
790.992; 3436.525;  150.125;    0.000
791.183; 3383.525;  177.125;    0.000
791.373; 3496.525;   91.125;    0.000
791.564; 3485.525;   85.125;    0.000
791.755; 3370.525;  125.125;    0.000
791.945; 3460.525;   94.125;    0.000
792.136; 3482.525;   98.125;    0.000
792.326; 3424.525;  105.125;    0.000
792.517; 3545.525;  136.125;    0.000
792.707; 3533.525;  140.125;    0.000
792.898; 3400.525;  164.125;    0.000
793.088; 3559.525;  116.125;    0.000
793.279; 3514.525;  112.125;    0.000
793.469; 3609.525;  105.125;    0.000
793.660; 3601.525;  161.125;    0.000
793.850; 3656.525;  133.125;    0.000
794.040; 3762.525;  121.125;    0.000
794.231; 3971.525;  115.125;    0.000
794.421; 4127.525;  152.125;    0.000
794.611; 4551.525;  132.125;    0.000
794.802; 5206.525;  144.125;    0.000
794.992; 5497.525;  142.125;    0.000
795.182; 5752.525;  179.125;    0.000
795.372; 5258.525;  167.125;    0.000
795.563; 4864.525;  149.125;    0.000
795.753; 4437.525;  117.125;    0.000
795.943; 4317.525;  146.125;    0.000
796.133; 3988.525;  119.125;    0.000
796.323; 3887.525;  141.125;    0.000
796.513; 3810.525;  134.125;    0.000
796.703; 3725.525;  116.125;    0.000
796.893; 3647.525;  120.125;    0.000
797.083; 3632.525;  131.125;    0.000
797.273; 3578.525;  118.125;    0.000
797.463; 3555.525;  130.125;    0.000
797.653; 3369.525;   87.125;    0.000
797.843; 3314.525;  123.125;    0.000
798.033; 3290.525;  115.125;    0.000
798.223; 3247.525;  142.125;    0.000
798.413; 3258.525;  148.125;    0.000
798.603; 3279.525;  147.125;    0.000
798.793; 3197.525;  107.125;    0.000
798.983; 3185.525;  121.125;    0.000
799.172; 3130.525;  120.125;    0.000
799.362; 3127.525;  145.125;    0.000
799.552; 3024.525;  101.125;    0.000
799.742; 3125.525;  149.125;    0.000
799.932; 3077.525;  104.125;    0.000
800.121; 2927.525;  175.125;    0.000
800.311; 3020.525;  132.125;    0.000
800.501; 2998.525;  118.125;    0.000
800.690; 3051.525;  162.125;    0.000
800.880; 3021.525;  141.125;    0.000
801.070; 3020.525;  151.125;    0.000
801.259; 2918.525;  167.125;    0.000
801.449; 2947.525;  108.125;    0.000
801.638; 2932.525;  176.125;    0.000
801.828; 2917.525;  118.125;    0.000
802.017; 2764.525;  179.125;    0.000
802.207; 2901.525;  127.125;    0.000
802.396; 2882.525;  167.125;    0.000
802.586; 2832.525;  129.125;    0.000
802.775; 2849.525;  142.125;    0.000
802.965; 2898.525;  147.125;    0.000
803.154; 2911.525;  179.125;    0.000
803.343; 2805.525;  117.125;    0.000
803.533; 2778.525;  120.125;    0.000
803.722; 2761.525;  122.125;    0.000
803.911; 2703.525;  155.125;    0.000
804.101; 2798.525;  147.125;    0.000
804.290; 2755.525;  160.125;    0.000
804.479; 2793.525;  139.125;    0.000
804.668; 2747.525;  180.125;    0.000
804.857; 2792.525;  131.125;    0.000
805.047; 2793.525;  119.125;    0.000
805.236; 2770.525;  139.125;    0.000
805.425; 2773.525;  163.125;    0.000
805.614; 2750.525;  103.125;    0.000
805.803; 2792.525;  133.125;    0.000
805.992; 2707.525;  147.125;    0.000
806.181; 2739.525;  109.125;    0.000
806.370; 2685.525;  133.125;    0.000
806.559; 2771.525;  119.125;    0.000
806.748; 2708.525;  144.125;    0.000
806.937; 2608.525;  147.125;    0.000
807.126; 2784.525;  134.125;    0.000
807.315; 2619.525;  132.125;    0.000
807.504; 2760.525;  141.125;    0.000
807.693; 2684.525;  145.125;    0.000
807.882; 2582.525;   91.125;    0.000
808.071; 2698.525;  116.125;    0.000
808.260; 2632.525;  105.125;    0.000
808.448; 2722.525;  184.125;    0.000
808.637; 2698.525;  146.125;    0.000
808.826; 2689.525;  153.125;    0.000
809.015; 2695.525;  113.125;    0.000
809.203; 2748.525;  166.125;    0.000
809.392; 2733.525;  117.125;    0.000
809.581; 2725.525;  186.125;    0.000
809.770; 2587.525;  122.125;    0.000
809.958; 2626.525;  140.125;    0.000
810.147; 2710.525;  130.125;    0.000
810.335; 2733.525;  112.125;    0.000
810.524; 2769.525;  106.125;    0.000
810.713; 2756.525;  154.125;    0.000
810.901; 2671.525;  131.125;    0.000
811.090; 2837.525;  164.125;    0.000
811.278; 2743.525;  159.125;    0.000
811.467; 2787.525;  194.125;    0.000
811.655; 2828.525;  164.125;    0.000
811.844; 2824.525;  149.125;    0.000
812.032; 2777.525;  169.125;    0.000
812.220; 2842.525;  163.125;    0.000
812.409; 2736.525;  134.125;    0.000
812.597; 2884.525;  165.125;    0.000
812.785; 2876.525;  180.125;    0.000
812.974; 2765.525;  166.125;    0.000
813.162; 2801.525;  171.125;    0.000
813.350; 2822.525;  142.125;    0.000
813.539; 2804.525;  126.125;    0.000
813.727; 2758.525;  153.125;    0.000
813.915; 2863.525;  138.125;    0.000
814.103; 2787.525;  191.125;    0.000
814.291; 2831.525;  142.125;    0.000
814.479; 2834.525;  156.125;    0.000
814.668; 2855.525;  152.125;    0.000
814.856; 2914.525;  150.125;    0.000
815.044; 2934.525;  165.125;    0.000
815.232; 2988.525;  172.125;    0.000
815.420; 2967.525;  147.125;    0.000
815.608; 2812.525;  143.125;    0.000
815.796; 2921.525;  126.125;    0.000
815.984; 3043.525;  152.125;    0.000
816.172; 3034.525;  129.125;    0.000
816.360; 2998.525;  177.125;    0.000
816.548; 3048.525;  141.125;    0.000
816.736; 3237.525;  142.125;    0.000
816.924; 3194.525;  161.125;    0.000
817.111; 3193.525;  138.125;    0.000
817.299; 3377.525;  112.125;    0.000
817.487; 3642.525;  180.125;    0.000
817.675; 3773.525;  138.125;    0.000
817.863; 4031.525;  172.125;    0.000
818.050; 4945.525;  142.125;    0.000
818.238; 8439.525;  151.125;    0.000
818.426;12161.525;  129.125;    0.000
818.613; 8669.525;  124.125;    0.000
818.801; 7756.525;  209.125;    0.000
818.989; 7321.525;  178.125;    0.000
819.176; 7392.525;  155.125;    0.000
819.364;10463.525;  174.125;    0.000
819.552;16345.525;  131.125;    0.000
819.739;10082.525;  184.125;    0.000
819.927; 7097.525;  132.125;    0.000
820.114; 6224.525;  173.125;    0.000
820.302; 5646.525;  140.125;    0.000
820.489; 5459.525;  133.125;    0.000
820.677; 5155.525;  167.125;    0.000
820.864; 5131.525;  161.125;    0.000
821.052; 5636.525;  134.125;    0.000
821.239; 6049.525;  149.125;    0.000
821.426; 6660.525;  160.125;    0.000
821.614; 8452.525;  143.125;    0.000
821.801; 8988.525;  118.125;    0.000
821.988; 7890.525;  154.125;    0.000
822.176; 7607.525;  112.125;    0.000
822.363; 7974.525;  131.125;    0.000
822.550; 7310.525;  131.125;    0.000
822.737; 6532.525;  104.125;    0.000
822.924; 6011.525;  160.125;    0.000
823.112; 5744.525;  161.125;    0.000
823.299; 5337.525;  169.125;    0.000
823.486; 5187.525;  129.125;    0.000
823.673; 4964.525;  135.125;    0.000
823.860; 4754.525;  169.125;    0.000
824.047; 4850.525;  124.125;    0.000
824.234; 5401.525;  160.125;    0.000
824.421; 5528.525;  114.125;    0.000
824.608; 4886.525;  191.125;    0.000
824.795; 4503.525;  160.125;    0.000
824.982; 4233.525;  139.125;    0.000
825.169; 3971.525;  121.125;    0.000
825.356; 3710.525;  148.125;    0.000
825.543; 3655.525;  167.125;    0.000
825.730; 3524.525;  103.125;    0.000
825.917; 3385.525;  113.125;    0.000
826.104; 3370.525;  188.125;    0.000
826.290; 3239.525;  193.125;    0.000
826.477; 3222.525;  175.125;    0.000
826.664; 3176.525;  151.125;    0.000
826.851; 2983.525;  122.125;    0.000
827.038; 2905.525;  121.125;    0.000
827.224; 2954.525;  124.125;    0.000
827.411; 2881.525;  155.125;    0.000
827.598; 2716.525;  127.125;    0.000
827.784; 2888.525;  140.125;    0.000
827.971; 2831.525;  114.125;    0.000
828.157; 2761.525;  135.125;    0.000
828.344; 2657.525;  173.125;    0.000
828.531; 2690.525;  113.125;    0.000
828.717; 2680.525;  137.125;    0.000
828.904; 2602.525;  158.125;    0.000
829.090; 2629.525;  199.125;    0.000
829.277; 2505.525;  156.125;    0.000
829.463; 2529.525;  154.125;    0.000
829.650; 2586.525;  174.125;    0.000
829.836; 2507.525;  136.125;    0.000
830.022; 2543.525;  143.125;    0.000
830.209; 2481.525;  157.125;    0.000
830.395; 2339.525;  156.125;    0.000
830.581; 2431.525;  148.125;    0.000
830.768; 2390.525;  169.125;    0.000
830.954; 2404.525;  169.125;    0.000
831.140; 2403.525;  124.125;    0.000
831.327; 2470.525;  157.125;    0.000
831.513; 2318.525;  163.125;    0.000
831.699; 2357.525;  176.125;    0.000
831.885; 2434.525;  154.125;    0.000
832.071; 2394.525;  159.125;    0.000
832.257; 2349.525;  142.125;    0.000
832.444; 2353.525;  159.125;    0.000
832.630; 2273.525;  129.125;    0.000
832.816; 2361.525;  132.125;    0.000
833.002; 2299.525;  125.125;    0.000
833.188; 2239.525;  144.125;    0.000
833.374; 2297.525;  131.125;    0.000
833.560; 2311.525;  154.125;    0.000
833.746; 2215.525;  171.125;    0.000
833.932; 2178.525;  162.125;    0.000
834.118; 2194.525;  131.125;    0.000
834.303; 2227.525;  113.125;    0.000
834.489; 2240.525;  170.125;    0.000
834.675; 2264.525;  177.125;    0.000
834.861; 2159.525;  154.125;    0.000
835.047; 2235.525;  171.125;    0.000
835.233; 2164.525;   98.125;    0.000
835.418; 2188.525;  138.125;    0.000
835.604; 2158.525;  140.125;    0.000
835.790; 2170.525;  130.125;    0.000
835.976; 2120.525;  129.125;    0.000
836.161; 2256.525;  142.125;    0.000
836.347; 2160.525;  128.125;    0.000
836.533; 2111.525;  143.125;    0.000
836.718; 2191.525;  164.125;    0.000
836.904; 2124.525;  172.125;    0.000
837.089; 2138.525;  152.125;    0.000
837.275; 2182.525;  143.125;    0.000
837.460; 2092.525;  125.125;    0.000
837.646; 2176.525;  137.125;    0.000
837.831; 2156.525;  153.125;    0.000
838.017; 2231.525;  171.125;    0.000
838.202; 2169.525;  111.125;    0.000
838.388; 2124.525;  140.125;    0.000
838.573; 2134.525;  158.125;    0.000
838.759; 2210.525;  188.125;    0.000
838.944; 2088.525;  125.125;    0.000
839.129; 2139.525;  123.125;    0.000
839.315; 2248.525;  181.125;    0.000
839.500; 2199.525;  150.125;    0.000
839.685; 2149.525;  109.125;    0.000
839.870; 2190.525;  202.125;    0.000
840.056; 2200.525;  101.125;    0.000
840.241; 2258.525;  184.125;    0.000
840.426; 2178.525;  192.125;    0.000
840.611; 2247.525;  180.125;    0.000
840.796; 2355.525;  156.125;    0.000
840.981; 2272.525;  142.125;    0.000
841.166; 2257.525;  161.125;    0.000
841.352; 2293.525;  185.125;    0.000
841.537; 2276.525;  139.125;    0.000
841.722; 2342.525;  143.125;    0.000
841.907; 2350.525;  140.125;    0.000
842.092; 2387.525;  176.125;    0.000
842.277; 2365.525;  136.125;    0.000
842.461; 2432.525;  155.125;    0.000
842.646; 2601.525;  163.125;    0.000
842.831; 2591.525;  153.125;    0.000
843.016; 2612.525;  187.125;    0.000
843.201; 2637.525;  179.125;    0.000
843.386; 2778.525;  167.125;    0.000
843.571; 2911.525;  129.125;    0.000
843.755; 3022.525;  136.125;    0.000
843.940; 3178.525;  121.125;    0.000
844.125; 3627.525;  157.125;    0.000
844.310; 4267.525;  175.125;    0.000
844.494; 5316.525;  164.125;    0.000
844.679; 7403.525;  167.125;    0.000
844.864; 7161.525;  166.125;    0.000
845.048; 5790.525;  132.125;    0.000
845.233; 5038.525;  175.125;    0.000
845.418; 4466.525;  159.125;    0.000
845.602; 3944.525;  147.125;    0.000
845.787; 3559.525;  132.125;    0.000
845.971; 3299.525;  187.125;    0.000
846.156; 3055.525;  141.125;    0.000
846.340; 3043.525;  153.125;    0.000
846.525; 2910.525;  157.125;    0.000
846.709; 2802.525;  117.125;    0.000
846.893; 2726.525;  147.125;    0.000
847.078; 2684.525;  170.125;    0.000
847.262; 2588.525;  150.125;    0.000
847.447; 2401.525;  132.125;    0.000
847.631; 2467.525;  144.125;    0.000
847.815; 2383.525;  157.125;    0.000
848.000; 2316.525;  164.125;    0.000
848.184; 2380.525;  174.125;    0.000
848.368; 2265.525;  149.125;    0.000
848.552; 2298.525;  143.125;    0.000
848.736; 2248.525;  132.125;    0.000
848.921; 2190.525;  147.125;    0.000
849.105; 2190.525;  150.125;    0.000
849.289; 2141.525;  146.125;    0.000
849.473; 2203.525;  167.125;    0.000
849.657; 2106.525;  149.125;    0.000
849.841; 2133.525;  181.125;    0.000
850.025; 2097.525;  154.125;    0.000
850.209; 2067.525;  152.125;    0.000
850.393; 2056.525;  139.125;    0.000
850.577; 1969.525;  128.125;    0.000
850.761; 2049.525;  194.125;    0.000
850.945; 1957.525;  152.125;    0.000
851.129; 2070.525;  157.125;    0.000
851.313; 2046.525;  181.125;    0.000
851.497; 1979.525;  145.125;    0.000
851.680; 1971.525;  168.125;    0.000
851.864; 2063.525;  185.125;    0.000
852.048; 2041.525;  170.125;    0.000
852.232; 2055.525;  192.125;    0.000
852.416; 2066.525;  182.125;    0.000
852.599; 1950.525;  169.125;    0.000
852.783; 1968.525;  168.125;    0.000
852.967; 1999.525;  184.125;    0.000
853.150; 2012.525;  163.125;    0.000
853.334; 2005.525;  164.125;    0.000
853.518; 2025.525;  190.125;    0.000
853.701; 1948.525;  137.125;    0.000
853.885; 1980.525;  177.125;    0.000
854.068; 1990.525;  163.125;    0.000
854.252; 2025.525;  139.125;    0.000
854.435; 1921.525;  152.125;    0.000
854.619; 1884.525;  148.125;    0.000
854.802; 2018.525;  168.125;    0.000
854.986; 1949.525;  157.125;    0.000
855.169; 1991.525;  147.125;    0.000
855.353; 1975.525;  173.125;    0.000
855.536; 1906.525;  127.125;    0.000
855.719; 1989.525;  191.125;    0.000
855.903; 1941.525;  186.125;    0.000
856.086; 2022.525;  145.125;    0.000
856.269; 2024.525;  130.125;    0.000
856.452; 2057.525;  153.125;    0.000
856.636; 2091.525;  129.125;    0.000
856.819; 2231.525;  134.125;    0.000
857.002; 2189.525;  152.125;    0.000
857.185; 2174.525;  140.125;    0.000
857.368; 2001.525;  170.125;    0.000
857.552; 2098.525;  132.125;    0.000
857.735; 2176.525;  160.125;    0.000
857.918; 2093.525;  139.125;    0.000
858.101; 2047.525;  159.125;    0.000
858.284; 2145.525;  136.125;    0.000
858.467; 2101.525;  147.125;    0.000
858.650; 2202.525;  153.125;    0.000
858.833; 2147.525;  113.125;    0.000
859.016; 2184.525;  167.125;    0.000
859.199; 2319.525;  141.125;    0.000
859.382; 2421.525;  155.125;    0.000
859.564; 2575.525;  136.125;    0.000
859.747; 2582.525;  142.125;    0.000
859.930; 2442.525;  141.125;    0.000
860.113; 2412.525;  156.125;    0.000
860.296; 2381.525;  167.125;    0.000
860.478; 2316.525;  121.125;    0.000
860.661; 2281.525;  230.125;    0.000
860.844; 2295.525;  186.125;    0.000
861.027; 2196.525;  155.125;    0.000
861.209; 2273.525;  151.125;    0.000
861.392; 2246.525;  162.125;    0.000
861.575; 2243.525;  150.125;    0.000
861.757; 2254.525;  162.125;    0.000
861.940; 2384.525;  207.125;    0.000
862.122; 2349.525;  113.125;    0.000
862.305; 2373.525;  114.125;    0.000
862.487; 2500.525;  162.125;    0.000
862.670; 2509.525;  148.125;    0.000
862.852; 2990.525;  131.125;    0.000
863.035; 3465.525;  174.125;    0.000
863.217; 3445.525;  170.125;    0.000
863.400; 3158.525;  148.125;    0.000
863.582; 3007.525;  129.125;    0.000
863.764; 2957.525;  181.125;    0.000
863.947; 2663.525;  152.125;    0.000
864.129; 2755.525;  178.125;    0.000
864.311; 2675.525;  139.125;    0.000
864.493; 2654.525;  166.125;    0.000
864.676; 2617.525;  148.125;    0.000
864.858; 2594.525;  123.125;    0.000
865.040; 2556.525;  180.125;    0.000
865.222; 2584.525;  131.125;    0.000
865.404; 2697.525;  146.125;    0.000
865.587; 2739.525;  175.125;    0.000
865.769; 2811.525;  183.125;    0.000
865.951; 2814.525;  171.125;    0.000
866.133; 2862.525;  165.125;    0.000
866.315; 2843.525;  138.125;    0.000
866.497; 2948.525;  139.125;    0.000
866.679; 2988.525;  167.125;    0.000
866.861; 2983.525;  151.125;    0.000
867.043; 3125.525;  190.125;    0.000
867.225; 3320.525;  140.125;    0.000
867.407; 3520.525;  125.125;    0.000
867.589; 3934.525;  141.125;    0.000
867.770; 4768.525;  149.125;    0.000
867.952; 6401.525;  138.125;    0.000
868.134; 8128.525;  153.125;    0.000
868.316; 8174.525;  148.125;    0.000
868.498; 7749.525;  180.125;    0.000
868.679; 6954.525;  152.125;    0.000
868.861; 5929.525;  174.125;    0.000
869.043; 5062.525;  152.125;    0.000
869.224; 4433.525;  177.125;    0.000
869.406; 4063.525;  171.125;    0.000
869.588; 3895.525;  177.125;    0.000
869.769; 3719.525;  174.125;    0.000
869.951; 3615.525;  167.125;    0.000
870.132; 3645.525;  144.125;    0.000
870.314; 3936.525;  143.125;    0.000
870.495; 3894.525;  162.125;    0.000
870.677; 3722.525;  136.125;    0.000
870.858; 3576.525;  155.125;    0.000
871.040; 3761.525;  179.125;    0.000
871.221; 4044.525;  177.125;    0.000
871.403; 3975.525;  180.125;    0.000
871.584; 3731.525;  157.125;    0.000
871.765; 3916.525;  183.125;    0.000
871.947; 4041.525;  169.125;    0.000
872.128; 3626.525;  162.125;    0.000
872.309; 3234.525;  159.125;    0.000
872.491; 3064.525;  148.125;    0.000
872.672; 2822.525;  163.125;    0.000
872.853; 2835.525;  152.125;    0.000
873.034; 2775.525;  166.125;    0.000
873.215; 2583.525;  155.125;    0.000
873.396; 2510.525;  147.125;    0.000
873.578; 2401.525;  147.125;    0.000
873.759; 2414.525;  153.125;    0.000
873.940; 2352.525;  194.125;    0.000
874.121; 2174.525;  179.125;    0.000
874.302; 2199.525;  155.125;    0.000
874.483; 2141.525;  131.125;    0.000
874.664; 2239.525;  106.125;    0.000
874.845; 2148.525;  122.125;    0.000
875.026; 2131.525;  127.125;    0.000
875.207; 2146.525;  151.125;    0.000
875.388; 2131.525;  149.125;    0.000
875.568; 2066.525;  164.125;    0.000
875.749; 1992.525;  176.125;    0.000
875.930; 2042.525;  207.125;    0.000
876.111; 2025.525;  177.125;    0.000
876.292; 2010.525;  178.125;    0.000
876.472; 1909.525;  163.125;    0.000
876.653; 1928.525;  159.125;    0.000
876.834; 1913.525;  177.125;    0.000
877.015; 1875.525;  212.125;    0.000
877.195; 1897.525;  166.125;    0.000
877.376; 1897.525;  157.125;    0.000
877.556; 1846.525;  175.125;    0.000
877.737; 1817.525;  220.125;    0.000
877.918; 1790.525;  163.125;    0.000
878.098; 1803.525;  166.125;    0.000
878.279; 1845.525;  136.125;    0.000
878.459; 1809.525;  167.125;    0.000
878.640; 1845.525;  167.125;    0.000
878.820; 1787.525;  155.125;    0.000
879.000; 1798.525;  158.125;    0.000
879.181; 1813.525;  155.125;    0.000
879.361; 1803.525;  181.125;    0.000
879.542; 1813.525;  181.125;    0.000
879.722; 1750.525;  117.125;    0.000
879.902; 1817.525;  180.125;    0.000
880.083; 1891.525;  139.125;    0.000
880.263; 1814.525;  168.125;    0.000
880.443; 1959.525;  206.125;    0.000
880.623; 2277.525;  132.125;    0.000
880.803; 2651.525;  149.125;    0.000
880.984; 2166.525;  189.125;    0.000
881.164; 1973.525;  171.125;    0.000
881.344; 1964.525;  150.125;    0.000
881.524; 1985.525;  185.125;    0.000
881.704; 1976.525;  152.125;    0.000
881.884; 2039.525;  188.125;    0.000
882.064; 2033.525;  155.125;    0.000
882.244; 2120.525;  182.125;    0.000
882.424; 1971.525;  154.125;    0.000
882.604; 1994.525;  175.125;    0.000
882.784; 1898.525;  137.125;    0.000
882.964; 1843.525;  135.125;    0.000
883.144; 1776.525;  142.125;    0.000
883.324; 1860.525;  192.125;    0.000
883.504; 1819.525;  193.125;    0.000
883.683; 1803.525;  208.125;    0.000
883.863; 1718.525;  127.125;    0.000
884.043; 1706.525;  140.125;    0.000
884.223; 1748.525;  167.125;    0.000
884.402; 1810.525;  156.125;    0.000
884.582; 1746.525;  185.125;    0.000
884.762; 1745.525;  187.125;    0.000
884.941; 1653.525;  201.125;    0.000
885.121; 1712.525;  157.125;    0.000
885.301; 1727.525;  173.125;    0.000
885.480; 1675.525;  158.125;    0.000
885.660; 1653.525;  153.125;    0.000
885.839; 1695.525;  144.125;    0.000
886.019; 1712.525;  184.125;    0.000
886.198; 1672.525;  132.125;    0.000
886.378; 1676.525;  124.125;    0.000
886.557; 1647.525;  146.125;    0.000
886.737; 1658.525;  157.125;    0.000
886.916; 1672.525;  203.125;    0.000
887.095; 1626.525;  151.125;    0.000
887.275; 1670.525;  143.125;    0.000
887.454; 1672.525;  140.125;    0.000
887.633; 1659.525;  196.125;    0.000
887.813; 1674.525;  161.125;    0.000
887.992; 1689.525;  183.125;    0.000
888.171; 1659.525;  153.125;    0.000
888.350; 1680.525;  185.125;    0.000
888.530; 1656.525;  163.125;    0.000
888.709; 1661.525;  174.125;    0.000
888.888; 1591.525;  179.125;    0.000
889.067; 1722.525;  178.125;    0.000
889.246; 1698.525;  184.125;    0.000
889.425; 1690.525;  169.125;    0.000
889.604; 1665.525;  210.125;    0.000
889.783; 1688.525;  183.125;    0.000
889.962; 1639.525;  116.125;    0.000
890.141; 1621.525;  179.125;    0.000
890.320; 1639.525;  182.125;    0.000
890.499; 1675.525;  188.125;    0.000
890.678; 1614.525;  167.125;    0.000
890.857; 1612.525;  141.125;    0.000
891.036; 1605.525;  179.125;    0.000
891.214; 1644.525;  156.125;    0.000
891.393; 1620.525;  209.125;    0.000
891.572; 1665.525;  181.125;    0.000
891.751; 1616.525;  172.125;    0.000
891.930; 1549.525;  169.125;    0.000
892.108; 1676.525;  131.125;    0.000
892.287; 1714.525;  162.125;    0.000
892.466; 1669.525;  178.125;    0.000
892.644; 1626.525;  161.125;    0.000
892.823; 1615.525;  180.125;    0.000
893.001; 1674.525;  179.125;    0.000
893.180; 1583.525;  152.125;    0.000
893.359; 1609.525;  184.125;    0.000
893.537; 1667.525;  178.125;    0.000
893.716; 1658.525;  169.125;    0.000
893.894; 1681.525;  159.125;    0.000
894.073; 1672.525;  179.125;    0.000
894.251; 1623.525;  167.125;    0.000
894.429; 1648.525;  142.125;    0.000
894.608; 1675.525;  166.125;    0.000
894.786; 1587.525;  153.125;    0.000
894.964; 1710.525;  181.125;    0.000
895.143; 1630.525;  161.125;    0.000
895.321; 1656.525;  198.125;    0.000
895.499; 1628.525;  184.125;    0.000
895.677; 1712.525;  178.125;    0.000
895.856; 1745.525;  226.125;    0.000
896.034; 1625.525;  180.125;    0.000
896.212; 1682.525;  200.125;    0.000
896.390; 1676.525;  161.125;    0.000
896.568; 1694.525;  204.125;    0.000
896.746; 1769.525;  136.125;    0.000
896.924; 1687.525;  171.125;    0.000
897.102; 1717.525;  203.125;    0.000
897.280; 1630.525;  142.125;    0.000
897.458; 1677.525;  159.125;    0.000
897.636; 1613.525;  163.125;    0.000
897.814; 1724.525;  137.125;    0.000
897.992; 1727.525;  199.125;    0.000
898.170; 1693.525;  176.125;    0.000
898.348; 1765.525;  195.125;    0.000
898.526; 1715.525;  199.125;    0.000
898.704; 1756.525;  260.125;    0.000
898.882; 1698.525;  185.125;    0.000
899.059; 1653.525;  169.125;    0.000
899.237; 1719.525;  197.125;    0.000
899.415; 1698.525;  207.125;    0.000
899.593; 1774.525;  169.125;    0.000
899.770; 1785.525;  182.125;    0.000
899.948; 1757.525;  198.125;    0.000
900.125; 1806.525;  200.125;    0.000
900.303; 1757.525;  165.125;    0.000
900.481; 1719.525;  182.125;    0.000
900.658; 1823.525;  206.125;    0.000
900.836; 1683.525;  188.125;    0.000
901.013; 1759.525;  169.125;    0.000
901.191; 1803.525;  172.125;    0.000
901.368; 1730.525;  170.125;    0.000
901.546; 1812.525;  234.125;    0.000
901.723; 1774.525;  173.125;    0.000
901.901; 1826.525;  190.125;    0.000
902.078; 1920.525;  145.125;    0.000
902.255; 1897.525;  204.125;    0.000
902.433; 1900.525;  198.125;    0.000
902.610; 1985.525;  190.125;    0.000
902.787; 1903.525;  204.125;    0.000
902.964; 1962.525;  208.125;    0.000
903.142; 1895.525;  187.125;    0.000
903.319; 2052.525;  216.125;    0.000
903.496; 2103.525;  186.125;    0.000
903.673; 2078.525;  201.125;    0.000
903.850; 2071.525;  195.125;    0.000
904.027; 2140.525;  211.125;    0.000
904.204; 2272.525;  197.125;    0.000
904.381; 2278.525;  198.125;    0.000
904.558; 2581.525;  188.125;    0.000
904.735; 2782.525;  207.125;    0.000
904.912; 2868.525;  217.125;    0.000
905.089; 2904.525;  188.125;    0.000
905.266; 2789.525;  160.125;    0.000
905.443; 2623.525;  221.125;    0.000
905.620; 2433.525;  163.125;    0.000
905.797; 2344.525;  186.125;    0.000
905.974; 2396.525;  205.125;    0.000
906.151; 2215.525;  159.125;    0.000
906.327; 2322.525;  206.125;    0.000
906.504; 2269.525;  201.125;    0.000
906.681; 2122.525;  202.125;    0.000
906.858; 2190.525;  188.125;    0.000
907.034; 2174.525;  207.125;    0.000
907.211; 2119.525;  182.125;    0.000
907.388; 2085.525;  184.125;    0.000
907.564; 1937.525;  148.125;    0.000
907.741; 1999.525;  181.125;    0.000
907.917; 1963.525;  191.125;    0.000
908.094; 2002.525;  210.125;    0.000
908.271; 1881.525;  171.125;    0.000
908.447; 1937.525;  241.125;    0.000
908.623; 1906.525;  188.125;    0.000
908.800; 1858.525;  205.125;    0.000
908.976; 1873.525;  210.125;    0.000
909.153; 1883.525;  193.125;    0.000
909.329; 1887.525;  206.125;    0.000
909.505; 1805.525;  181.125;    0.000
909.682; 1793.525;  192.125;    0.000
909.858; 1731.525;  134.125;    0.000
910.034; 1806.525;  214.125;    0.000
910.211; 1838.525;  182.125;    0.000
910.387; 1873.525;  194.125;    0.000
910.563; 1789.525;  199.125;    0.000
910.739; 1852.525;  188.125;    0.000
910.915; 1823.525;  192.125;    0.000
911.091; 1765.525;  198.125;    0.000
911.268; 1815.525;  178.125;    0.000
911.444; 1811.525;  201.125;    0.000
911.620; 1764.525;  181.125;    0.000
911.796; 1786.525;  185.125;    0.000
911.972; 1823.525;  176.125;    0.000
912.148; 1794.525;  196.125;    0.000
912.324; 1822.525;  192.125;    0.000
912.500; 1776.525;  204.125;    0.000
912.676; 1751.525;  164.125;    0.000
912.851; 1668.525;  193.125;    0.000
913.027; 1765.525;  175.125;    0.000
913.203; 1817.525;  193.125;    0.000
913.379; 1792.525;  213.125;    0.000
913.555; 1806.525;  211.125;    0.000
913.730; 1744.525;  194.125;    0.000
913.906; 1763.525;  153.125;    0.000
914.082; 1775.525;  212.125;    0.000
914.258; 1758.525;  194.125;    0.000
914.433; 1727.525;  191.125;    0.000
914.609; 1770.525;  208.125;    0.000
914.784; 1778.525;  176.125;    0.000
914.960; 1772.525;  227.125;    0.000
915.136; 1723.525;  152.125;    0.000
915.311; 1804.525;  171.125;    0.000
915.487; 1749.525;  173.125;    0.000
915.662; 1761.525;  189.125;    0.000
915.838; 1808.525;  179.125;    0.000
916.013; 1818.525;  191.125;    0.000
916.189; 1856.525;  207.125;    0.000
916.364; 1747.525;  194.125;    0.000
916.539; 1725.525;  174.125;    0.000
916.715; 1814.525;  207.125;    0.000
916.890; 1809.525;  193.125;    0.000
917.065; 1774.525;  199.125;    0.000
917.240; 1824.525;  214.125;    0.000
917.416; 1867.525;  194.125;    0.000
917.591; 1801.525;  213.125;    0.000
917.766; 1799.525;  194.125;    0.000
917.941; 1781.525;  201.125;    0.000
918.116; 1818.525;  198.125;    0.000
918.292; 1780.525;  176.125;    0.000
918.467; 1797.525;  190.125;    0.000
918.642; 1804.525;  200.125;    0.000
918.817; 1839.525;  186.125;    0.000
918.992; 1769.525;  174.125;    0.000
919.167; 1854.525;  197.125;    0.000
919.342; 1837.525;  188.125;    0.000
919.517; 1802.525;  179.125;    0.000
919.692; 1844.525;  182.125;    0.000
919.867; 1859.525;  216.125;    0.000
920.041; 1901.525;  208.125;    0.000
920.216; 1947.525;  223.125;    0.000
920.391; 1939.525;  203.125;    0.000
920.566; 1850.525;  202.125;    0.000
920.741; 1950.525;  197.125;    0.000
920.915; 1959.525;  223.125;    0.000
921.090; 2070.525;  183.125;    0.000
921.265; 2274.525;  169.125;    0.000
921.439; 2459.525;  212.125;    0.000
921.614; 2255.525;  190.125;    0.000
921.789; 2150.525;  177.125;    0.000
921.963; 2195.525;  233.125;    0.000
922.138; 2039.525;  156.125;    0.000
922.312; 2084.525;  193.125;    0.000
922.487; 2038.525;  208.125;    0.000
922.661; 2071.525;  212.125;    0.000
922.836; 2276.525;  210.125;    0.000
923.010; 2218.525;  183.125;    0.000
923.185; 2170.525;  228.125;    0.000
923.359; 2071.525;  227.125;    0.000
923.534; 2006.525;  189.125;    0.000
923.708; 2158.525;  210.125;    0.000
923.882; 2243.525;  217.125;    0.000
924.057; 2103.525;  195.125;    0.000
924.231; 2076.525;  201.125;    0.000
924.405; 2163.525;  188.125;    0.000
924.579; 2001.525;  188.125;    0.000
924.753; 2008.525;  174.125;    0.000
924.928; 2084.525;  179.125;    0.000
925.102; 2028.525;  186.125;    0.000
925.276; 2060.525;  201.125;    0.000
925.450; 2049.525;  211.125;    0.000
925.624; 2136.525;  238.125;    0.000
925.798; 2156.525;  191.125;    0.000
925.972; 2228.525;  192.125;    0.000
926.146; 2258.525;  198.125;    0.000
926.320; 2477.525;  151.125;    0.000
926.494; 2608.525;  202.125;    0.000
926.668; 2708.525;  197.125;    0.000
926.842; 2764.525;  177.125;    0.000
927.016; 2797.525;  202.125;    0.000
927.190; 2695.525;  207.125;    0.000
927.363; 2652.525;  180.125;    0.000
927.537; 2584.525;  212.125;    0.000
927.711; 2532.525;  148.125;    0.000
927.885; 2469.525;  196.125;    0.000
928.058; 2402.525;  173.125;    0.000
928.232; 2356.525;  219.125;    0.000
928.406; 2254.525;  141.125;    0.000
928.579; 2256.525;  157.125;    0.000
928.753; 2215.525;  205.125;    0.000
928.927; 2277.525;  196.125;    0.000
929.100; 2220.525;  237.125;    0.000
929.274; 2097.525;  166.125;    0.000
929.447; 2100.525;  150.125;    0.000
929.621; 2100.525;  188.125;    0.000
929.794; 2217.525;  169.125;    0.000
929.968; 2186.525;  194.125;    0.000
930.141; 2077.525;  226.125;    0.000
930.315; 2060.525;  196.125;    0.000
930.488; 2070.525;  233.125;    0.000
930.661; 2061.525;  188.125;    0.000
930.835; 2033.525;  170.125;    0.000
931.008; 2015.525;  176.125;    0.000
931.181; 2028.525;  175.125;    0.000
931.354; 2069.525;  212.125;    0.000
931.528; 1931.525;  177.125;    0.000
931.701; 1929.525;  218.125;    0.000
931.874; 1898.525;  175.125;    0.000
932.047; 1876.525;  157.125;    0.000
932.220; 1919.525;  187.125;    0.000
932.393; 1930.525;  166.125;    0.000
932.566; 1843.525;  168.125;    0.000
932.739; 1899.525;  203.125;    0.000
932.912; 1876.525;  202.125;    0.000
933.085; 1906.525;  209.125;    0.000
933.258; 1881.525;  196.125;    0.000
933.431; 1800.525;  207.125;    0.000
933.604; 1856.525;  201.125;    0.000
933.777; 1866.525;  202.125;    0.000
933.950; 1861.525;  184.125;    0.000
934.123; 1893.525;  167.125;    0.000
934.296; 1848.525;  209.125;    0.000
934.468; 1780.525;  216.125;    0.000
934.641; 1781.525;  156.125;    0.000
934.814; 1809.525;  215.125;    0.000
934.987; 1801.525;  201.125;    0.000
935.159; 1892.525;  176.125;    0.000
935.332; 1840.525;  203.125;    0.000
935.505; 1857.525;  163.125;    0.000
935.677; 1811.525;  169.125;    0.000
935.850; 1839.525;  178.125;    0.000
936.022; 1830.525;  187.125;    0.000
936.195; 1856.525;  207.125;    0.000
936.367; 1779.525;  191.125;    0.000
936.540; 1880.525;  214.125;    0.000
936.712; 1870.525;  202.125;    0.000
936.885; 1817.525;  195.125;    0.000
937.057; 1834.525;  173.125;    0.000
937.229; 1908.525;  179.125;    0.000
937.402; 1890.525;  174.125;    0.000
937.574; 1883.525;  140.125;    0.000
937.746; 1937.525;  153.125;    0.000
937.919; 2029.525;  196.125;    0.000
938.091; 2078.525;  173.125;    0.000
938.263; 2169.525;  206.125;    0.000
938.435; 2232.525;  213.125;    0.000
938.608; 2593.525;  204.125;    0.000
938.780; 2825.525;  199.125;    0.000
938.952; 2941.525;  190.125;    0.000
939.124; 2897.525;  182.125;    0.000
939.296; 3268.525;  188.125;    0.000
939.468; 3323.525;  119.125;    0.000
939.640; 2879.525;  171.125;    0.000
939.812; 2803.525;  222.125;    0.000
939.984; 2575.525;  172.125;    0.000
940.156; 2448.525;  171.125;    0.000
940.328; 2358.525;  215.125;    0.000
940.500; 2262.525;  179.125;    0.000
940.672; 2218.525;  178.125;    0.000
940.843; 2170.525;  193.125;    0.000
941.015; 2038.525;  207.125;    0.000
941.187; 2043.525;  179.125;    0.000
941.359; 2041.525;  191.125;    0.000
941.531; 1937.525;  160.125;    0.000
941.702; 1987.525;  208.125;    0.000
941.874; 1917.525;  143.125;    0.000
942.046; 1936.525;  189.125;    0.000
942.217; 1901.525;  167.125;    0.000
942.389; 1923.525;  199.125;    0.000
942.560; 1900.525;  179.125;    0.000
942.732; 1857.525;  209.125;    0.000
942.904; 1832.525;  180.125;    0.000
943.075; 1773.525;  197.125;    0.000
943.247; 1690.525;  207.125;    0.000
943.418; 1842.525;  183.125;    0.000
943.589; 1771.525;  176.125;    0.000
943.761; 1728.525;  165.125;    0.000
943.932; 1819.525;  170.125;    0.000
944.104; 1781.525;  147.125;    0.000
944.275; 1729.525;  149.125;    0.000
944.446; 1770.525;  191.125;    0.000
944.617; 1712.525;  128.125;    0.000
944.789; 1748.525;  166.125;    0.000
944.960; 1713.525;  195.125;    0.000
945.131; 1695.525;  164.125;    0.000
945.302; 1731.525;  229.125;    0.000
945.473; 1652.525;  153.125;    0.000
945.645; 1744.525;  166.125;    0.000
945.816; 1757.525;  187.125;    0.000
945.987; 1790.525;  193.125;    0.000
946.158; 1810.525;  166.125;    0.000
946.329; 1764.525;  196.125;    0.000
946.500; 1728.525;  152.125;    0.000
946.671; 1735.525;  161.125;    0.000
946.842; 1733.525;  176.125;    0.000
947.013; 1723.525;  188.125;    0.000
947.183; 1718.525;  213.125;    0.000
947.354; 1678.525;  163.125;    0.000
947.525; 1690.525;  204.125;    0.000
947.696; 1649.525;  159.125;    0.000
947.867; 1698.525;  197.125;    0.000
948.037; 1621.525;  174.125;    0.000
948.208; 1713.525;  163.125;    0.000
948.379; 1669.525;  189.125;    0.000
948.550; 1673.525;  173.125;    0.000
948.720; 1675.525;  186.125;    0.000
948.891; 1707.525;  166.125;    0.000
949.061; 1639.525;  197.125;    0.000
949.232; 1593.525;  168.125;    0.000
949.403; 1599.525;  188.125;    0.000
949.573; 1650.525;  164.125;    0.000
949.744; 1646.525;  194.125;    0.000
949.914; 1634.525;  154.125;    0.000
950.085; 1685.525;  197.125;    0.000
950.255; 1658.525;  187.125;    0.000
950.425; 1589.525;  193.125;    0.000
950.596; 1661.525;  182.125;    0.000
950.766; 1639.525;  202.125;    0.000
950.936; 1713.525;  230.125;    0.000
951.107; 1699.525;  133.125;    0.000
951.277; 1677.525;  234.125;    0.000
951.447; 1599.525;  200.125;    0.000
951.617; 1696.525;  212.125;    0.000
951.788; 1599.525;  176.125;    0.000
951.958; 1628.525;  218.125;    0.000
952.128; 1667.525;  198.125;    0.000
952.298; 1640.525;  185.125;    0.000
952.468; 1650.525;  231.125;    0.000
952.638; 1674.525;  213.125;    0.000
952.808; 1578.525;  218.125;    0.000
952.978; 1722.525;  252.125;    0.000
953.148; 1644.525;  200.125;    0.000
953.318; 1669.525;  243.125;    0.000
953.488; 1531.525;  140.125;    0.000
953.658; 1613.525;  208.125;    0.000
953.828; 1607.525;  179.125;    0.000
953.998; 1636.525;  211.125;    0.000
954.167; 1587.525;  197.125;    0.000
954.337; 1596.525;  217.125;    0.000
954.507; 1609.525;  219.125;    0.000
954.677; 1608.525;  201.125;    0.000
954.846; 1650.525;  241.125;    0.000
955.016; 1658.525;  222.125;    0.000
955.186; 1574.525;  200.125;    0.000
955.355; 1623.525;  247.125;    0.000
955.525; 1606.525;  212.125;    0.000
955.695; 1647.525;  200.125;    0.000
955.864; 1623.525;  196.125;    0.000
956.034; 1607.525;  195.125;    0.000
956.203; 1554.525;  243.125;    0.000
956.373; 1513.525;  197.125;    0.000
956.542; 1622.525;  237.125;    0.000
956.711; 1624.525;  249.125;    0.000
956.881; 1594.525;  235.125;    0.000
957.050; 1539.525;  259.125;    0.000
957.220; 1637.525;  234.125;    0.000
957.389; 1569.525;  250.125;    0.000
957.558; 1658.525;  214.125;    0.000
957.727; 1543.525;  225.125;    0.000
957.897; 1582.525;  211.125;    0.000
958.066; 1543.525;  200.125;    0.000
958.235; 1557.525;  202.125;    0.000
958.404; 1491.525;  242.125;    0.000
958.573; 1590.525;  222.125;    0.000
958.743; 1491.525;  191.125;    0.000
958.912; 1526.525;  183.125;    0.000
959.081; 1509.525;  212.125;    0.000
959.250; 1520.525;  192.125;    0.000
959.419; 1557.525;  238.125;    0.000
959.588; 1556.525;  205.125;    0.000
959.757; 1553.525;  213.125;    0.000
959.926; 1557.525;  217.125;    0.000
960.094; 1522.525;  215.125;    0.000
960.263; 1645.525;  220.125;    0.000
960.432; 1478.525;  164.125;    0.000
960.601; 1491.525;  228.125;    0.000
960.770; 1525.525;  176.125;    0.000
960.939; 1617.525;  201.125;    0.000
961.107; 1535.525;  183.125;    0.000
961.276; 1501.525;  199.125;    0.000
961.445; 1546.525;  205.125;    0.000
961.613; 1527.525;  183.125;    0.000
961.782; 1513.525;  216.125;    0.000
961.951; 1554.525;  169.125;    0.000
962.119; 1537.525;  211.125;    0.000
962.288; 1509.525;  204.125;    0.000
962.456; 1466.525;  187.125;    0.000
962.625; 1529.525;  223.125;    0.000
962.793; 1531.525;  200.125;    0.000
962.962; 1559.525;  185.125;    0.000
963.130; 1447.525;  195.125;    0.000
963.298; 1529.525;  187.125;    0.000
963.467; 1613.525;  247.125;    0.000
963.635; 1492.525;  165.125;    0.000
963.803; 1522.525;  192.125;    0.000
963.972; 1588.525;  191.125;    0.000
964.140; 1559.525;  163.125;    0.000
964.308; 1485.525;  161.125;    0.000
964.477; 1528.525;  182.125;    0.000
964.645; 1507.525;  195.125;    0.000
964.813; 1456.525;  165.125;    0.000
964.981; 1548.525;  193.125;    0.000
965.149; 1515.525;  174.125;    0.000
965.317; 1548.525;  194.125;    0.000
965.485; 1528.525;  209.125;    0.000
965.653; 1552.525;  210.125;    0.000
965.821; 1486.525;  194.125;    0.000
965.989; 1460.525;  182.125;    0.000
966.157; 1508.525;  180.125;    0.000
966.325; 1508.525;  198.125;    0.000
966.493; 1534.525;  182.125;    0.000
966.661; 1485.525;  200.125;    0.000
966.829; 1510.525;  190.125;    0.000
966.996; 1586.525;  221.125;    0.000
967.164; 1566.525;  176.125;    0.000
967.332; 1567.525;  228.125;    0.000
967.500; 1539.525;  177.125;    0.000
967.667; 1609.525;  202.125;    0.000
967.835; 1595.525;  220.125;    0.000
968.003; 1555.525;  183.125;    0.000
968.170; 1512.525;  163.125;    0.000
968.338; 1520.525;  162.125;    0.000
968.505; 1605.525;  198.125;    0.000
968.673; 1524.525;  213.125;    0.000
968.841; 1488.525;  131.125;    0.000
969.008; 1536.525;  225.125;    0.000
969.175; 1508.525;  202.125;    0.000
969.343; 1515.525;  222.125;    0.000
969.510; 1554.525;  230.125;    0.000
969.678; 1548.525;  161.125;    0.000
969.845; 1596.525;  208.125;    0.000
970.012; 1538.525;  186.125;    0.000
970.180; 1606.525;  226.125;    0.000
970.347; 1493.525;  222.125;    0.000
970.514; 1554.525;  206.125;    0.000
970.681; 1500.525;  173.125;    0.000
970.849; 1611.525;  190.125;    0.000
971.016; 1585.525;  220.125;    0.000
971.183; 1609.525;  202.125;    0.000
971.350; 1587.525;  196.125;    0.000
971.517; 1564.525;  218.125;    0.000
971.684; 1588.525;  228.125;    0.000
971.851; 1581.525;  235.125;    0.000
972.018; 1603.525;  200.125;    0.000
972.185; 1586.525;  183.125;    0.000
972.352; 1668.525;  216.125;    0.000
972.519; 1608.525;  227.125;    0.000
972.686; 1629.525;  209.125;    0.000
972.853; 1532.525;  157.125;    0.000
973.020; 1567.525;  179.125;    0.000
973.186; 1534.525;  173.125;    0.000
973.353; 1592.525;  189.125;    0.000
973.520; 1563.525;  228.125;    0.000
973.687; 1620.525;  190.125;    0.000
973.853; 1582.525;  197.125;    0.000
974.020; 1561.525;  208.125;    0.000
974.187; 1588.525;  158.125;    0.000
974.353; 1610.525;  201.125;    0.000
974.520; 1574.525;  158.125;    0.000
974.687; 1563.525;  192.125;    0.000
974.853; 1577.525;  177.125;    0.000
975.020; 1464.525;  212.125;    0.000
975.186; 1581.525;  200.125;    0.000
975.353; 1565.525;  208.125;    0.000
975.519; 1594.525;  169.125;    0.000
975.685; 1543.525;  176.125;    0.000
975.852; 1562.525;  201.125;    0.000
976.018; 1465.525;  209.125;    0.000
976.184; 1587.525;  197.125;    0.000
976.351; 1559.525;  196.125;    0.000
976.517; 1524.525;  243.125;    0.000
976.683; 1571.525;  210.125;    0.000
976.849; 1507.525;  226.125;    0.000
977.016; 1512.525;  218.125;    0.000
977.182; 1476.525;  213.125;    0.000
977.348; 1522.525;  205.125;    0.000
977.514; 1554.525;  210.125;    0.000
977.680; 1470.525;  226.125;    0.000
977.846; 1512.525;  206.125;    0.000
978.012; 1464.525;  222.125;    0.000
978.178; 1551.525;  216.125;    0.000
978.344; 1491.525;  172.125;    0.000
978.510; 1495.525;  210.125;    0.000
978.676; 1482.525;  184.125;    0.000
978.842; 1518.525;  190.125;    0.000
979.008; 1520.525;  203.125;    0.000
979.174; 1478.525;  211.125;    0.000
979.340; 1538.525;  190.125;    0.000
979.505; 1535.525;  235.125;    0.000
979.671; 1539.525;  182.125;    0.000
979.837; 1512.525;  235.125;    0.000
980.003; 1477.525;  183.125;    0.000
980.168; 1533.525;  220.125;    0.000
980.334; 1524.525;  161.125;    0.000
980.499; 1560.525;  212.125;    0.000
980.665; 1556.525;  219.125;    0.000
980.831; 1519.525;  201.125;    0.000
980.996; 1509.525;  189.125;    0.000
981.162; 1578.525;  222.125;    0.000
981.327; 1562.525;  173.125;    0.000
981.493; 1590.525;  197.125;    0.000
981.658; 1534.525;  178.125;    0.000
981.823; 1541.525;  196.125;    0.000
981.989; 1607.525;  248.125;    0.000
982.154; 1599.525;  222.125;    0.000
982.319; 1561.525;  226.125;    0.000
982.485; 1601.525;  188.125;    0.000
982.650; 1555.525;  203.125;    0.000
982.815; 1568.525;  237.125;    0.000
982.980; 1544.525;  210.125;    0.000
983.146; 1563.525;  202.125;    0.000
983.311; 1561.525;  195.125;    0.000
983.476; 1554.525;  207.125;    0.000
983.641; 1590.525;  198.125;    0.000
983.806; 1578.525;  136.125;    0.000
983.971; 1552.525;  248.125;    0.000
984.136; 1521.525;  213.125;    0.000
984.301; 1541.525;  181.125;    0.000
984.466; 1547.525;  210.125;    0.000
984.631; 1609.525;  219.125;    0.000
984.796; 1562.525;  207.125;    0.000
984.961; 1541.525;  214.125;    0.000
985.126; 1631.525;  218.125;    0.000
985.291; 1504.525;  214.125;    0.000
985.455; 1531.525;  187.125;    0.000
985.620; 1557.525;  191.125;    0.000
985.785; 1545.525;  190.125;    0.000
985.950; 1532.525;  184.125;    0.000
986.114; 1602.525;  242.125;    0.000
986.279; 1536.525;  251.125;    0.000
986.444; 1597.525;  177.125;    0.000
986.608; 1537.525;  216.125;    0.000
986.773; 1572.525;  211.125;    0.000
986.937; 1609.525;  244.125;    0.000
987.102; 1570.525;  187.125;    0.000
987.266; 1521.525;  178.125;    0.000
987.431; 1639.525;  205.125;    0.000
987.595; 1570.525;  221.125;    0.000
987.760; 1575.525;  205.125;    0.000
987.924; 1635.525;  195.125;    0.000
988.088; 1579.525;  184.125;    0.000
988.253; 1628.525;  188.125;    0.000
988.417; 1559.525;  196.125;    0.000
988.581; 1574.525;  218.125;    0.000
988.746; 1542.525;  203.125;    0.000
988.910; 1622.525;  195.125;    0.000
989.074; 1530.525;  187.125;    0.000
989.238; 1566.525;  243.125;    0.000
989.402; 1565.525;  242.125;    0.000
989.566; 1607.525;  205.125;    0.000
989.731; 1503.525;  195.125;    0.000
989.895; 1509.525;  211.125;    0.000
990.059; 1577.525;  175.125;    0.000
990.223; 1507.525;  176.125;    0.000
990.387; 1624.525;  234.125;    0.000
990.551; 1556.525;  231.125;    0.000
990.714; 1495.525;  209.125;    0.000
990.878; 1581.525;  187.125;    0.000
991.042; 1498.525;  183.125;    0.000
991.206; 1604.525;  216.125;    0.000
991.370; 1566.525;  257.125;    0.000
991.534; 1516.525;  188.125;    0.000
991.697; 1601.525;  203.125;    0.000
991.861; 1579.525;  219.125;    0.000
992.025; 1544.525;  221.125;    0.000
992.188; 1533.525;  188.125;    0.000
992.352; 1534.525;  205.125;    0.000
992.516; 1497.525;  189.125;    0.000
992.679; 1572.525;  207.125;    0.000
992.843; 1588.525;  210.125;    0.000
993.006; 1515.525;  191.125;    0.000
993.170; 1653.525;  228.125;    0.000
993.333; 1481.525;  142.125;    0.000
993.497; 1572.525;  175.125;    0.000
993.660; 1574.525;  220.125;    0.000
993.824; 1512.525;  193.125;    0.000
993.987; 1613.525;  219.125;    0.000
994.150; 1609.525;  166.125;    0.000
994.314; 1596.525;  207.125;    0.000
994.477; 1641.525;  227.125;    0.000
994.640; 1614.525;  210.125;    0.000
994.803; 1623.525;  219.125;    0.000
994.967; 1555.525;  192.125;    0.000
995.130; 1582.525;  197.125;    0.000
995.293; 1601.525;  189.125;    0.000
995.456; 1557.525;  180.125;    0.000
995.619; 1540.525;  239.125;    0.000
995.782; 1492.525;  209.125;    0.000
995.945; 1589.525;  216.125;    0.000
996.108; 1629.525;  198.125;    0.000
996.271; 1481.525;  205.125;    0.000
996.434; 1582.525;  205.125;    0.000
996.597; 1526.525;  208.125;    0.000
996.760; 1589.525;  205.125;    0.000
996.923; 1545.525;  174.125;    0.000
997.086; 1499.525;  198.125;    0.000
997.248; 1563.525;  214.125;    0.000
997.411; 1601.525;  237.125;    0.000
997.574; 1589.525;  182.125;    0.000
997.737; 1531.525;  188.125;    0.000
997.899; 1568.525;  216.125;    0.000
998.062; 1600.525;  210.125;    0.000
998.225; 1591.525;  202.125;    0.000
998.387; 1515.525;  202.125;    0.000
998.550; 1494.525;  193.125;    0.000
998.712; 1560.525;  225.125;    0.000
998.875; 1606.525;  228.125;    0.000
999.037; 1510.525;  186.125;    0.000
999.200; 1542.525;  212.125;    0.000
999.362; 1557.525;  234.125;    0.000
999.525; 1544.525;  170.125;    0.000
999.687; 1541.525;  191.125;    0.000
999.849; 1469.525;  218.125;    0.000
1000.012; 1539.525;  187.125;    0.000
1000.174; 1523.525;  216.125;    0.000
1000.336; 1480.525;  194.125;    0.000
1000.499; 1555.525;  209.125;    0.000
1000.661; 1549.525;  208.125;    0.000
1000.823; 1590.525;  197.125;    0.000
1000.985; 1672.525;  201.125;    0.000
1001.147; 1658.525;  234.125;    0.000
1001.309; 1656.525;  180.125;    0.000
1001.471; 1649.525;  223.125;    0.000
1001.633; 1649.525;  198.125;    0.000
1001.796; 1664.525;  200.125;    0.000
1001.958; 1659.525;  204.125;    0.000
1002.119; 1758.525;  193.125;    0.000
1002.281; 1707.525;  205.125;    0.000
1002.443; 1885.525;  236.125;    0.000
1002.605; 1900.525;  197.125;    0.000
1002.767; 1990.525;  223.125;    0.000
1002.929; 2055.525;  220.125;    0.000
1003.091; 2170.525;  214.125;    0.000
1003.252; 2303.525;  233.125;    0.000
1003.414; 2428.525;  230.125;    0.000
1003.576; 2555.525;  203.125;    0.000
1003.738; 2594.525;  201.125;    0.000
1003.899; 2853.525;  222.125;    0.000
1004.061; 2848.525;  208.125;    0.000
1004.222; 3098.525;  194.125;    0.000
1004.384; 3170.525;  205.125;    0.000
1004.546; 3271.525;  162.125;    0.000
1004.707; 3351.525;  232.125;    0.000
1004.869; 3362.525;  223.125;    0.000
1005.030; 3253.525;  204.125;    0.000
1005.191; 3103.525;  214.125;    0.000
1005.353; 3024.525;  226.125;    0.000
1005.514; 2994.525;  201.125;    0.000
1005.675; 2659.525;  205.125;    0.000
1005.837; 2731.525;  235.125;    0.000
1005.998; 2638.525;  210.125;    0.000
1006.159; 2618.525;  214.125;    0.000
1006.321; 2673.525;  236.125;    0.000
1006.482; 2718.525;  214.125;    0.000
1006.643; 2834.525;  213.125;    0.000
1006.804; 2829.525;  204.125;    0.000
1006.965; 3023.525;  212.125;    0.000
1007.126; 2989.525;  251.125;    0.000
1007.287; 2985.525;  238.125;    0.000
1007.448; 2973.525;  198.125;    0.000
1007.609; 2947.525;  241.125;    0.000
1007.770; 2844.525;  213.125;    0.000
1007.931; 2855.525;  225.125;    0.000
1008.092; 2903.525;  204.125;    0.000
1008.253; 2933.525;  220.125;    0.000
1008.414; 2888.525;  180.125;    0.000
1008.575; 3002.525;  224.125;    0.000
1008.736; 3036.525;  164.125;    0.000
1008.896; 3066.525;  247.125;    0.000
1009.057; 3027.525;  263.125;    0.000
1009.218; 2988.525;  233.125;    0.000
1009.379; 2979.525;  207.125;    0.000
1009.539; 2972.525;  221.125;    0.000
1009.700; 3125.525;  209.125;    0.000
1009.860; 3106.525;  217.125;    0.000
1010.021; 2960.525;  182.125;    0.000
1010.182; 3044.525;  233.125;    0.000
1010.342; 2976.525;  210.125;    0.000
1010.503; 2977.525;  232.125;    0.000
1010.663; 3231.525;  228.125;    0.000
1010.823; 3260.525;  212.125;    0.000
1010.984; 3322.525;  244.125;    0.000
1011.144; 3134.525;  200.125;    0.000
1011.305; 3277.525;  237.125;    0.000
1011.465; 3374.525;  225.125;    0.000
1011.625; 3444.525;  215.125;    0.000
1011.785; 3525.525;  235.125;    0.000
1011.946; 3411.525;  231.125;    0.000
1012.106; 3401.525;  206.125;    0.000
1012.266; 3349.525;  218.125;    0.000
1012.426; 3526.525;  249.125;    0.000
1012.586; 3577.525;  217.125;    0.000
1012.746; 3336.525;  231.125;    0.000
1012.906; 3229.525;  230.125;    0.000
1013.066; 3339.525;  260.125;    0.000
1013.226; 3369.525;  206.125;    0.000
1013.386; 3465.525;  220.125;    0.000
1013.546; 3420.525;  233.125;    0.000
1013.706; 3253.525;  194.125;    0.000
1013.866; 3330.525;  209.125;    0.000
1014.026; 3473.525;  204.125;    0.000
1014.186; 3395.525;  203.125;    0.000
1014.346; 3440.525;  244.125;    0.000
1014.505; 3487.525;  206.125;    0.000
1014.665; 3593.525;  210.125;    0.000
1014.825; 3565.525;  235.125;    0.000
1014.985; 3500.525;  227.125;    0.000
1015.144; 3706.525;  237.125;    0.000
1015.304; 3964.525;  196.125;    0.000
1015.464; 3829.525;  228.125;    0.000
1015.623; 3673.525;  235.125;    0.000
1015.783; 4012.525;  187.125;    0.000
1015.942; 4409.525;  184.125;    0.000
1016.102; 4316.525;  245.125;    0.000
1016.261; 4117.525;  203.125;    0.000
1016.420; 4591.525;  209.125;    0.000
1016.580; 5162.525;  235.125;    0.000
1016.739; 5077.525;  175.125;    0.000
1016.899; 4868.525;  220.125;    0.000
1017.058; 5187.525;  219.125;    0.000
1017.217; 5564.525;  238.125;    0.000
1017.376; 5203.525;  235.125;    0.000
1017.536; 4769.525;  195.125;    0.000
1017.695; 4806.525;  215.125;    0.000
1017.854; 5026.525;  231.125;    0.000
1018.013; 4854.525;  184.125;    0.000
1018.172; 4374.525;  179.125;    0.000
1018.331; 4369.525;  205.125;    0.000
1018.490; 4751.525;  203.125;    0.000
1018.649; 4927.525;  261.125;    0.000
1018.808; 5089.525;  253.125;    0.000
1018.967; 5165.525;  201.125;    0.000
1019.126; 5211.525;  216.125;    0.000
1019.285; 5348.525;  169.125;    0.000
1019.444; 5220.525;  226.125;    0.000
1019.603; 5037.525;  252.125;    0.000
1019.762; 4765.525;  206.125;    0.000
1019.921; 4926.525;  235.125;    0.000
1020.079; 5138.525;  192.125;    0.000
1020.238; 5496.525;  226.125;    0.000
1020.397; 5407.525;  231.125;    0.000
1020.555; 4965.525;  218.125;    0.000
1020.714; 5189.525;  235.125;    0.000
1020.873; 5467.525;  229.125;    0.000
1021.031; 5446.525;  234.125;    0.000
1021.190; 5218.525;  223.125;    0.000
1021.348; 5169.525;  186.125;    0.000
1021.507; 5747.525;  201.125;    0.000
1021.665; 5996.525;  222.125;    0.000
1021.824; 5591.525;  208.125;    0.000
1021.982; 5357.525;  209.125;    0.000
1022.141; 5333.525;  224.125;    0.000
1022.299; 6048.525;  214.125;    0.000
1022.457; 6182.525;  176.125;    0.000
1022.616; 5624.525;  211.125;    0.000
1022.774; 5101.525;  218.125;    0.000
1022.932; 5309.525;  205.125;    0.000
1023.090; 6042.525;  246.125;    0.000
1023.249; 6129.525;  249.125;    0.000
1023.407; 5590.525;  235.125;    0.000
1023.565; 5235.525;  202.125;    0.000
1023.723; 5525.525;  210.125;    0.000
1023.881; 6209.525;  206.125;    0.000
1024.039; 6155.525;  240.125;    0.000
1024.197; 5749.525;  275.125;    0.000
1024.355; 5348.525;  228.125;    0.000
1024.513; 5711.525;  234.125;    0.000
1024.671; 6287.525;  222.125;    0.000
1024.829; 6210.525;  241.125;    0.000
1024.987; 5917.525;  209.125;    0.000
1025.145; 5430.525;  227.125;    0.000
1025.302; 5566.525;  208.125;    0.000
1025.460; 6262.525;  210.125;    0.000
1025.618; 6701.525;  192.125;    0.000
1025.776; 5891.525;  220.125;    0.000
1025.933; 5551.525;  223.125;    0.000
1026.091; 5789.525;  189.125;    0.000
1026.249; 6421.525;  210.125;    0.000
1026.406; 6795.525;  231.125;    0.000
1026.564; 6338.525;  247.125;    0.000
1026.721; 5708.525;  213.125;    0.000
1026.879; 5763.525;  208.125;    0.000
1027.036; 6349.525;  222.125;    0.000
1027.194; 6768.525;  253.125;    0.000
1027.351; 6823.525;  239.125;    0.000
1027.509; 6172.525;  232.125;    0.000
1027.666; 5768.525;  251.125;    0.000
1027.823; 6233.525;  212.125;    0.000
1027.981; 6772.525;  260.125;    0.000
1028.138; 7202.525;  263.125;    0.000
1028.295; 6398.525;  251.125;    0.000
1028.452; 6046.525;  249.125;    0.000
1028.609; 6025.525;  259.125;    0.000
1028.767; 6792.525;  255.125;    0.000
1028.924; 7227.525;  201.125;    0.000
1029.081; 7039.525;  217.125;    0.000
1029.238; 6729.525;  230.125;    0.000
1029.395; 6165.525;  263.125;    0.000
1029.552; 6336.525;  207.125;    0.000
1029.709; 7130.525;  220.125;    0.000
1029.866; 7264.525;  214.125;    0.000
1030.023; 7063.525;  224.125;    0.000
1030.180; 6341.525;  209.125;    0.000
1030.337; 6208.525;  269.125;    0.000
1030.494; 6555.525;  207.125;    0.000
1030.650; 7072.525;  230.125;    0.000
1030.807; 7644.525;  217.125;    0.000
1030.964; 6993.525;  212.125;    0.000
1031.121; 6736.525;  220.125;    0.000
1031.277; 6318.525;  233.125;    0.000
1031.434; 6760.525;  266.125;    0.000
1031.591; 7242.525;  270.125;    0.000
1031.747; 7559.525;  229.125;    0.000
1031.904; 7598.525;  227.125;    0.000
1032.060; 7095.525;  210.125;    0.000
1032.217; 6950.525;  218.125;    0.000
1032.373; 7457.525;  190.125;    0.000
1032.530; 7630.525;  236.125;    0.000
1032.686; 8405.525;  199.125;    0.000
1032.843; 8482.525;  216.125;    0.000
1032.999; 8079.525;  204.125;    0.000
1033.155; 8423.525;  208.125;    0.000
1033.312; 8357.525;  231.125;    0.000
1033.468; 9391.525;  213.125;    0.000
1033.624;10519.525;  235.125;    0.000
1033.780;10844.525;  233.125;    0.000
1033.937;11268.525;  201.125;    0.000
1034.093;10149.525;  233.125;    0.000
1034.249;10428.525;  214.125;    0.000
1034.405;10270.525;  245.125;    0.000
1034.561;11228.525;  228.125;    0.000
1034.717;11810.525;  234.125;    0.000
1034.873;11653.525;  248.125;    0.000
1035.029;12062.525;  220.125;    0.000
1035.185;11349.525;  294.125;    0.000
1035.341;10990.525;  231.125;    0.000
1035.497;11957.525;  254.125;    0.000
1035.653;12061.525;  225.125;    0.000
1035.809;12915.525;  243.125;    0.000
1035.964;13749.525;  216.125;    0.000
1036.120;13087.525;  199.125;    0.000
1036.276;13123.525;  220.125;    0.000
1036.432;13233.525;  210.125;    0.000
1036.587;12466.525;  225.125;    0.000
1036.743;13403.525;  245.125;    0.000
1036.899;14368.525;  219.125;    0.000
1037.054;14272.525;  157.125;    0.000
1037.210;15629.525;  208.125;    0.000
1037.365;15991.525;  230.125;    0.000
1037.521;14602.525;  236.125;    0.000
1037.676;14900.525;  193.125;    0.000
1037.832;13374.525;  246.125;    0.000
1037.987;13901.525;  231.125;    0.000
1038.143;13658.525;  234.125;    0.000
1038.298;15291.525;  219.125;    0.000
1038.453;15406.525;  230.125;    0.000
1038.609;16915.525;  254.125;    0.000
1038.764;17943.525;  249.125;    0.000
1038.919;16475.525;  224.125;    0.000
1039.074;16780.525;  209.125;    0.000
1039.229;15881.525;  214.125;    0.000
1039.385;15124.525;  268.125;    0.000
1039.540;15754.525;  268.125;    0.000
1039.695;16688.525;  229.125;    0.000
1039.850;18332.525;  252.125;    0.000
1040.005;18569.525;  248.125;    0.000
1040.160;20080.525;  215.125;    0.000
1040.315;19737.525;  239.125;    0.000
1040.470;19506.525;  210.125;    0.000
1040.625;18618.525;  239.125;    0.000
1040.780;17419.525;  251.125;    0.000
1040.935;17838.525;  247.125;    0.000
1041.089;18197.525;  215.125;    0.000
1041.244;20553.525;  210.125;    0.000
1041.399;21815.525;  237.125;    0.000
1041.554;23042.525;  253.125;    0.000
1041.708;25033.525;  227.125;    0.000
1041.863;25067.525;  219.125;    0.000
1042.018;23961.525;  246.125;    0.000
1042.172;24148.525;  236.125;    0.000
1042.327;22309.525;  272.125;    0.000
1042.481;22203.525;  197.125;    0.000
1042.636;22754.525;  213.125;    0.000
1042.791;23059.525;  250.125;    0.000
1042.945;26494.525;  267.125;    0.000
1043.099;29429.525;  257.125;    0.000
1043.254;28336.525;  206.125;    0.000
1043.408;29883.525;  266.125;    0.000
1043.563;31940.525;  232.125;    0.000
1043.717;31905.525;  241.125;    0.000
1043.871;29911.525;  248.125;    0.000
1044.025;29062.525;  234.125;    0.000
1044.180;27482.525;  222.125;    0.000
1044.334;28220.525;  235.125;    0.000
1044.488;28395.525;  270.125;    0.000
1044.642;29434.525;  215.125;    0.000
1044.796;33029.523;  212.125;    0.000
1044.950;37275.523;  228.125;    0.000
1045.104;38612.523;  223.125;    0.000
1045.258;40732.523;  236.125;    0.000
1045.412;42063.523;  225.125;    0.000
1045.566;38697.523;  245.125;    0.000
1045.720;36762.523;  201.125;    0.000
1045.874;35138.523;  229.125;    0.000
1046.028;32246.525;  243.125;    0.000
1046.182;31050.525;  212.125;    0.000
1046.336;34041.523;  256.125;    0.000
1046.489;35851.523;  234.125;    0.000
1046.643;35815.523;  246.125;    0.000
1046.797;38353.523;  219.125;    0.000
1046.951;41445.523;  231.125;    0.000
1047.104;40965.523;  285.125;    0.000
1047.258;42620.523;  256.125;    0.000
1047.411;45634.523;  232.125;    0.000
1047.565;45243.523;  269.125;    0.000
1047.719;42167.523;  213.125;    0.000
1047.872;41181.523;  210.125;    0.000
1048.026;39944.523;  251.125;    0.000
1048.179;38537.523;  213.125;    0.000
1048.332;37952.523;  212.125;    0.000
1048.486;38250.523;  218.125;    0.000
1048.639;38353.523;  218.125;    0.000
1048.792;40540.523;  247.125;    0.000
1048.946;43881.523;  208.125;    0.000
1049.099;47130.523;  247.125;    0.000
1049.252;48677.523;  274.125;    0.000
1049.406;44487.523;  232.125;    0.000
1049.559;46556.523;  251.125;    0.000
1049.712;50523.523;  243.125;    0.000
1049.865;54113.523;  219.125;    0.000
1050.018;54193.523;  216.125;    0.000
1050.171;46908.523;  237.125;    0.000
1050.324;43974.523;  291.125;    0.000
1050.477;47274.523;  241.125;    0.000
1050.630;49269.523;  245.125;    0.000
1050.783;51463.523;  213.125;    0.000
1050.936;48834.523;  246.125;    0.000
1051.089;45875.523;  255.125;    0.000
1051.242;48203.523;  228.125;    0.000
1051.394;54067.523;  276.125;    0.000
1051.547;56226.523;  246.125;    0.000
1051.700;54161.523;  252.125;    0.000
1051.853;51250.523;  267.125;    0.000
1052.005;54040.523;  261.125;    0.000
1052.158;59772.523;  313.125;    0.000
1052.311;63735.523;  264.125;    0.000
1052.463;62943.523;  271.125;    0.000
1052.616;58777.523;  291.125;    0.000
1052.768;54570.523;  298.125;    0.000
1052.921;50934.523;  262.125;    0.000
1053.073;53034.523;  307.125;    0.000
1053.226;59634.523;  301.125;    0.000
1053.378;65072.523;  309.125;    0.000
1053.531;65072.523;  280.125;    0.000
1053.683;65072.523;  258.125;    0.000
1053.835;59187.523;  267.125;    0.000
1053.988;46805.523;  294.125;    0.000
1054.140; 8173.525;  292.125;    0.000
1054.292; 1956.525;  249.125;    0.000
1054.444; 1550.525;  288.125;    0.000
1054.596; 1432.525;  275.125;    0.000
1054.749; 1337.525;  284.125;    0.000
1054.901; 1225.525;  291.125;    0.000
1055.053; 1126.525;  274.125;    0.000
1055.205; 1069.525;  313.125;    0.000
1055.357; 1062.525;  309.125;    0.000
1055.509;  965.525;  283.125;    0.000
1055.661; 1045.525;  341.125;    0.000
1055.813;  931.525;  288.125;    0.000
1055.965;  957.525;  300.125;    0.000
1056.116;  953.525;  296.125;    0.000
1056.268;  965.525;  319.125;    0.000
1056.420;  943.525;  298.125;    0.000

