
Integration time [ms]:   1.000
Averaging Nr. [scans]: 1
Smoothing Nr. [pixels]: 0
Data measured with spectrometer [name]: VIS
Wave   ;Sample   ;Dark     ;Reference
[nm]   ;[counts] ;[counts] ;[counts] 

450.961;  182.900;  200.375;    0.000
451.100;  223.900;  241.375;    0.000
451.239;  226.900;  201.375;    0.000
451.377;  254.900;  262.375;    0.000
451.516;  224.900;  229.375;    0.000
451.655;  220.900;  211.375;    0.000
451.794;  233.900;  225.375;    0.000
451.932;  228.900;  247.375;    0.000
452.071;  178.900;  260.375;    0.000
452.210;  181.900;  235.375;    0.000
452.348;  205.900;  276.375;    0.000
452.487;  208.900;  259.375;    0.000
452.626;  205.900;  254.375;    0.000
452.764;  224.900;  233.375;    0.000
452.903;  230.900;  202.375;    0.000
453.042;  260.900;  211.375;    0.000
453.180; 2513.900;  240.375;    0.000
453.319; 2686.900;  238.375;    0.000
453.458; 2665.900;  215.375;    0.000
453.596; 2716.900;  252.375;    0.000
453.735; 2705.900;  240.375;    0.000
453.873; 2792.900;  257.375;    0.000
454.012; 2770.900;  228.375;    0.000
454.150; 2816.900;  270.375;    0.000
454.289; 2805.900;  233.375;    0.000
454.427; 2858.900;  243.375;    0.000
454.566; 2837.900;  257.375;    0.000
454.704; 2904.900;  243.375;    0.000
454.843; 2941.900;  190.375;    0.000
454.981; 2954.900;  271.375;    0.000
455.120; 2992.900;  210.375;    0.000
455.258; 3054.900;  235.375;    0.000
455.397; 2999.900;  214.375;    0.000
455.535; 3008.900;  214.375;    0.000
455.674; 3062.900;  184.375;    0.000
455.812; 3111.900;  228.375;    0.000
455.951; 3116.900;  204.375;    0.000
456.089; 3135.900;  220.375;    0.000
456.227; 3103.900;  196.375;    0.000
456.366; 3262.900;  261.375;    0.000
456.504; 3167.900;  249.375;    0.000
456.642; 3283.900;  245.375;    0.000
456.781; 3229.900;  183.375;    0.000
456.919; 3351.900;  203.375;    0.000
457.057; 3332.900;  177.375;    0.000
457.196; 3419.900;  191.375;    0.000
457.334; 3479.900;  233.375;    0.000
457.472; 3458.900;  214.375;    0.000
457.610; 3539.900;  230.375;    0.000
457.749; 3663.900;  247.375;    0.000
457.887; 3513.900;  220.375;    0.000
458.025; 3629.900;  195.375;    0.000
458.163; 3702.900;  224.375;    0.000
458.301; 3749.900;  228.375;    0.000
458.440; 3719.900;  200.375;    0.000
458.578; 3962.900;  233.375;    0.000
458.716; 3942.900;  182.375;    0.000
458.854; 3986.900;  251.375;    0.000
458.992; 4074.900;  187.375;    0.000
459.130; 4079.900;  229.375;    0.000
459.269; 4182.900;  237.375;    0.000
459.407; 4084.900;  228.375;    0.000
459.545; 4186.900;  216.375;    0.000
459.683; 4154.900;  204.375;    0.000
459.821; 4349.900;  191.375;    0.000
459.959; 4414.900;  227.375;    0.000
460.097; 4465.900;  221.375;    0.000
460.235; 4496.900;  241.375;    0.000
460.373; 4454.900;  231.375;    0.000
460.511; 4528.900;  214.375;    0.000
460.649; 4586.900;  172.375;    0.000
460.787; 4594.900;  275.375;    0.000
460.925; 4513.900;  175.375;    0.000
461.063; 4640.900;  252.375;    0.000
461.201; 4615.900;  210.375;    0.000
461.339; 4690.900;  237.375;    0.000
461.477; 4724.900;  210.375;    0.000
461.615; 4866.900;  236.375;    0.000
461.753; 4781.900;  215.375;    0.000
461.891; 4863.900;  222.375;    0.000
462.029; 4962.900;  227.375;    0.000
462.166; 5023.900;  202.375;    0.000
462.304; 5118.900;  191.375;    0.000
462.442; 5200.900;  210.375;    0.000
462.580; 5307.900;  184.375;    0.000
462.718; 5266.900;  220.375;    0.000
462.856; 5315.900;  226.375;    0.000
462.993; 5398.900;  254.375;    0.000
463.131; 5281.900;  200.375;    0.000
463.269; 5387.900;  215.375;    0.000
463.407; 5174.900;  213.375;    0.000
463.545; 4951.900;  242.375;    0.000
463.682; 5088.900;  212.375;    0.000
463.820; 5306.900;  185.375;    0.000
463.958; 5551.900;  212.375;    0.000
464.095; 5568.900;  181.375;    0.000
464.233; 5627.900;  192.375;    0.000
464.371; 5553.900;  247.375;    0.000
464.509; 5462.900;  151.375;    0.000
464.646; 5599.900;  207.375;    0.000
464.784; 5577.900;  199.375;    0.000
464.921; 5393.900;  253.375;    0.000
465.059; 5246.900;  214.375;    0.000
465.197; 5136.900;  200.375;    0.000
465.334; 5067.900;  180.375;    0.000
465.472; 4972.900;  204.375;    0.000
465.609; 5010.900;  203.375;    0.000
465.747; 4894.900;  214.375;    0.000
465.885; 4837.900;  233.375;    0.000
466.022; 4871.900;  215.375;    0.000
466.160; 4845.900;  201.375;    0.000
466.297; 4858.900;  196.375;    0.000
466.435; 4666.900;  230.375;    0.000
466.572; 4788.900;  227.375;    0.000
466.710; 4761.900;  218.375;    0.000
466.847; 4794.900;  245.375;    0.000
466.985; 4670.900;  223.375;    0.000
467.122; 4690.900;  168.375;    0.000
467.260; 4691.900;  196.375;    0.000
467.397; 4684.900;  198.375;    0.000
467.534; 4736.900;  219.375;    0.000
467.672; 4618.900;  214.375;    0.000
467.809; 4582.900;  185.375;    0.000
467.947; 4637.900;  247.375;    0.000
468.084; 4647.900;  196.375;    0.000
468.221; 4679.900;  238.375;    0.000
468.359; 4628.900;  236.375;    0.000
468.496; 4572.900;  235.375;    0.000
468.633; 4632.900;  218.375;    0.000
468.771; 4671.900;  223.375;    0.000
468.908; 4675.900;  208.375;    0.000
469.045; 4783.900;  249.375;    0.000
469.183; 4737.900;  222.375;    0.000
469.320; 4945.900;  216.375;    0.000
469.457; 4863.900;  224.375;    0.000
469.594; 4975.900;  259.375;    0.000
469.732; 4961.900;  223.375;    0.000
469.869; 4938.900;  234.375;    0.000
470.006; 5036.900;  225.375;    0.000
470.143; 5005.900;  243.375;    0.000
470.280; 5087.900;  208.375;    0.000
470.417; 5224.900;  232.375;    0.000
470.555; 5256.900;  218.375;    0.000
470.692; 5119.900;  223.375;    0.000
470.829; 5132.900;  238.375;    0.000
470.966; 5059.900;  205.375;    0.000
471.103; 4963.900;  259.375;    0.000
471.240; 5123.900;  214.375;    0.000
471.377; 4991.900;  226.375;    0.000
471.514; 4997.900;  250.375;    0.000
471.651; 4849.900;  221.375;    0.000
471.789; 4901.900;  242.375;    0.000
471.926; 4885.900;  190.375;    0.000
472.063; 4869.900;  234.375;    0.000
472.200; 4864.900;  252.375;    0.000
472.337; 4876.900;  241.375;    0.000
472.474; 4878.900;  244.375;    0.000
472.611; 4916.900;  268.375;    0.000
472.748; 4806.900;  222.375;    0.000
472.884; 4871.900;  271.375;    0.000
473.021; 4729.900;  195.375;    0.000
473.158; 4754.900;  205.375;    0.000
473.295; 4771.900;  223.375;    0.000
473.432; 4778.900;  216.375;    0.000
473.569; 4671.900;  196.375;    0.000
473.706; 4670.900;  190.375;    0.000
473.843; 4686.900;  211.375;    0.000
473.980; 4657.900;  254.375;    0.000
474.117; 4774.900;  185.375;    0.000
474.253; 4889.900;  229.375;    0.000
474.390; 4666.900;  238.375;    0.000
474.527; 4668.900;  220.375;    0.000
474.664; 4808.900;  242.375;    0.000
474.801; 4824.900;  229.375;    0.000
474.937; 4802.900;  229.375;    0.000
475.074; 4758.900;  210.375;    0.000
475.211; 4819.900;  219.375;    0.000
475.348; 4855.900;  226.375;    0.000
475.484; 4957.900;  207.375;    0.000
475.621; 4914.900;  233.375;    0.000
475.758; 4992.900;  230.375;    0.000
475.894; 4883.900;  234.375;    0.000
476.031; 4919.900;  202.375;    0.000
476.168; 4910.900;  222.375;    0.000
476.304; 4958.900;  237.375;    0.000
476.441; 4997.900;  238.375;    0.000
476.578; 5059.900;  216.375;    0.000
476.714; 5019.900;  212.375;    0.000
476.851; 5026.900;  210.375;    0.000
476.987; 5064.900;  239.375;    0.000
477.124; 4946.900;  250.375;    0.000
477.261; 5137.900;  227.375;    0.000
477.397; 5237.900;  189.375;    0.000
477.534; 5152.900;  204.375;    0.000
477.670; 5171.900;  190.375;    0.000
477.807; 5168.900;  198.375;    0.000
477.943; 5360.900;  216.375;    0.000
478.080; 5368.900;  213.375;    0.000
478.216; 5353.900;  239.375;    0.000
478.353; 5427.900;  218.375;    0.000
478.489; 5357.900;  184.375;    0.000
478.626; 5459.900;  223.375;    0.000
478.762; 5361.900;  213.375;    0.000
478.898; 5560.900;  216.375;    0.000
479.035; 5527.900;  250.375;    0.000
479.171; 5488.900;  201.375;    0.000
479.308; 5543.900;  242.375;    0.000
479.444; 5516.900;  205.375;    0.000
479.580; 5523.900;  203.375;    0.000
479.717; 5563.900;  260.375;    0.000
479.853; 5613.900;  225.375;    0.000
479.989; 5633.900;  226.375;    0.000
480.126; 5719.900;  211.375;    0.000
480.262; 5745.900;  220.375;    0.000
480.398; 5711.900;  207.375;    0.000
480.535; 5748.900;  179.375;    0.000
480.671; 5724.900;  200.375;    0.000
480.807; 5563.900;  190.375;    0.000
480.943; 5686.900;  165.375;    0.000
481.080; 5613.900;  210.375;    0.000
481.216; 5623.900;  232.375;    0.000
481.352; 5541.900;  235.375;    0.000
481.488; 5659.900;  208.375;    0.000
481.624; 5616.900;  245.375;    0.000
481.760; 5484.900;  210.375;    0.000
481.897; 5383.900;  189.375;    0.000
482.033; 5506.900;  256.375;    0.000
482.169; 5599.900;  257.375;    0.000
482.305; 5449.900;  199.375;    0.000
482.441; 5385.900;  182.375;    0.000
482.577; 5585.900;  223.375;    0.000
482.713; 5526.900;  243.375;    0.000
482.849; 5411.900;  197.375;    0.000
482.985; 5432.900;  240.375;    0.000
483.121; 5430.900;  210.375;    0.000
483.258; 5482.900;  248.375;    0.000
483.394; 5560.900;  224.375;    0.000
483.530; 5533.900;  209.375;    0.000
483.665; 5503.900;  225.375;    0.000
483.801; 5514.900;  216.375;    0.000
483.937; 5616.900;  211.375;    0.000
484.073; 5591.900;  259.375;    0.000
484.209; 5738.900;  191.375;    0.000
484.345; 5593.900;  239.375;    0.000
484.481; 5692.900;  231.375;    0.000
484.617; 5737.900;  216.375;    0.000
484.753; 5663.900;  180.375;    0.000
484.889; 5698.900;  252.375;    0.000
485.025; 5696.900;  244.375;    0.000
485.161; 5677.900;  242.375;    0.000
485.296; 5772.900;  235.375;    0.000
485.432; 5773.900;  247.375;    0.000
485.568; 5736.900;  203.375;    0.000
485.704; 5869.900;  229.375;    0.000
485.840; 5648.900;  230.375;    0.000
485.975; 5803.900;  266.375;    0.000
486.111; 5682.900;  220.375;    0.000
486.247; 5719.900;  264.375;    0.000
486.383; 5778.900;  213.375;    0.000
486.518; 5697.900;  222.375;    0.000
486.654; 5771.900;  244.375;    0.000
486.790; 5756.900;  273.375;    0.000
486.926; 5787.900;  203.375;    0.000
487.061; 5730.900;  227.375;    0.000
487.197; 5774.900;  210.375;    0.000
487.333; 5739.900;  209.375;    0.000
487.468; 5685.900;  197.375;    0.000
487.604; 5645.900;  230.375;    0.000
487.740; 5764.900;  254.375;    0.000
487.875; 5800.900;  286.375;    0.000
488.011; 5703.900;  225.375;    0.000
488.146; 5608.900;  251.375;    0.000
488.282; 5716.900;  242.375;    0.000
488.417; 5639.900;  230.375;    0.000
488.553; 5635.900;  260.375;    0.000
488.688; 5691.900;  207.375;    0.000
488.824; 5643.900;  204.375;    0.000
488.960; 5637.900;  248.375;    0.000
489.095; 5697.900;  204.375;    0.000
489.230; 5697.900;  227.375;    0.000
489.366; 5591.900;  226.375;    0.000
489.501; 5633.900;  199.375;    0.000
489.637; 5670.900;  233.375;    0.000
489.772; 5672.900;  249.375;    0.000
489.908; 5780.900;  200.375;    0.000
490.043; 5823.900;  246.375;    0.000
490.178; 5836.900;  222.375;    0.000
490.314; 5786.900;  219.375;    0.000
490.449; 5789.900;  227.375;    0.000
490.585; 5713.900;  209.375;    0.000
490.720; 5713.900;  238.375;    0.000
490.855; 5739.900;  222.375;    0.000
490.991; 5740.900;  202.375;    0.000
491.126; 5590.900;  272.375;    0.000
491.261; 5670.900;  261.375;    0.000
491.396; 5706.900;  190.375;    0.000
491.532; 5721.900;  202.375;    0.000
491.667; 5665.900;  208.375;    0.000
491.802; 5706.900;  203.375;    0.000
491.937; 5596.900;  253.375;    0.000
492.073; 5800.900;  242.375;    0.000
492.208; 5708.900;  230.375;    0.000
492.343; 5700.900;  183.375;    0.000
492.478; 5726.900;  246.375;    0.000
492.613; 5861.900;  223.375;    0.000
492.749; 5873.900;  230.375;    0.000
492.884; 5607.900;  190.375;    0.000
493.019; 5727.900;  234.375;    0.000
493.154; 5662.900;  218.375;    0.000
493.289; 5692.900;  222.375;    0.000
493.424; 5744.900;  196.375;    0.000
493.559; 5775.900;  202.375;    0.000
493.694; 5897.900;  180.375;    0.000
493.829; 5708.900;  224.375;    0.000
493.964; 5667.900;  218.375;    0.000
494.099; 5877.900;  275.375;    0.000
494.234; 5731.900;  226.375;    0.000
494.369; 5732.900;  225.375;    0.000
494.504; 5717.900;  219.375;    0.000
494.639; 5769.900;  296.375;    0.000
494.774; 5738.900;  228.375;    0.000
494.909; 5707.900;  222.375;    0.000
495.044; 5599.900;  215.375;    0.000
495.179; 5668.900;  200.375;    0.000
495.314; 5614.900;  235.375;    0.000
495.449; 5732.900;  249.375;    0.000
495.584; 5607.900;  228.375;    0.000
495.719; 5699.900;  212.375;    0.000
495.854; 5523.900;  201.375;    0.000
495.988; 5632.900;  248.375;    0.000
496.123; 5689.900;  209.375;    0.000
496.258; 5853.900;  249.375;    0.000
496.393; 5901.900;  223.375;    0.000
496.528; 5819.900;  209.375;    0.000
496.663; 5851.900;  207.375;    0.000
496.797; 5874.900;  229.375;    0.000
496.932; 5958.900;  225.375;    0.000
497.067; 5930.900;  218.375;    0.000
497.202; 6005.900;  163.375;    0.000
497.336; 6141.900;  246.375;    0.000
497.471; 6230.900;  229.375;    0.000
497.606; 6200.900;  251.375;    0.000
497.740; 6408.900;  220.375;    0.000
497.875; 6380.900;  216.375;    0.000
498.010; 6580.900;  226.375;    0.000
498.144; 6712.900;  237.375;    0.000
498.279; 6563.900;  196.375;    0.000
498.414; 6909.900;  219.375;    0.000
498.548; 7101.900;  205.375;    0.000
498.683; 7155.900;  206.375;    0.000
498.817; 7265.900;  225.375;    0.000
498.952; 7369.900;  221.375;    0.000
499.087; 7664.900;  220.375;    0.000
499.221; 8084.900;  233.375;    0.000
499.356; 8135.900;  230.375;    0.000
499.490; 8392.900;  229.375;    0.000
499.625; 8764.900;  231.375;    0.000
499.759; 8889.900;  243.375;    0.000
499.894; 9507.900;  241.375;    0.000
500.028; 9819.900;  264.375;    0.000
500.162;10077.900;  287.375;    0.000
500.297;10377.900;  234.375;    0.000
500.431;10418.900;  230.375;    0.000
500.566;10327.900;  213.375;    0.000
500.700;10311.900;  243.375;    0.000
500.835;10048.900;  272.375;    0.000
500.969; 9458.900;  188.375;    0.000
501.103; 9294.900;  200.375;    0.000
501.238; 9001.900;  257.375;    0.000
501.372; 8615.900;  224.375;    0.000
501.506; 8187.900;  225.375;    0.000
501.641; 7922.900;  271.375;    0.000
501.775; 7622.900;  199.375;    0.000
501.909; 7286.900;  249.375;    0.000
502.043; 7193.900;  211.375;    0.000
502.178; 7107.900;  269.375;    0.000
502.312; 7000.900;  198.375;    0.000
502.446; 6830.900;  256.375;    0.000
502.580; 6766.900;  195.375;    0.000
502.715; 6688.900;  224.375;    0.000
502.849; 6541.900;  245.375;    0.000
502.983; 6285.900;  250.375;    0.000
503.117; 6206.900;  193.375;    0.000
503.251; 6192.900;  242.375;    0.000
503.385; 6091.900;  227.375;    0.000
503.520; 6028.900;  235.375;    0.000
503.654; 5812.900;  220.375;    0.000
503.788; 5876.900;  267.375;    0.000
503.922; 5863.900;  220.375;    0.000
504.056; 5715.900;  238.375;    0.000
504.190; 5771.900;  212.375;    0.000
504.324; 5695.900;  265.375;    0.000
504.458; 5791.900;  228.375;    0.000
504.592; 5745.900;  231.375;    0.000
504.726; 5607.900;  218.375;    0.000
504.860; 5575.900;  253.375;    0.000
504.994; 5453.900;  217.375;    0.000
505.128; 5355.900;  243.375;    0.000
505.262; 5236.900;  194.375;    0.000
505.396; 5033.900;  210.375;    0.000
505.530; 5139.900;  211.375;    0.000
505.664; 5014.900;  219.375;    0.000
505.798; 4945.900;  240.375;    0.000
505.932; 4901.900;  240.375;    0.000
506.066; 4892.900;  252.375;    0.000
506.199; 4807.900;  242.375;    0.000
506.333; 4660.900;  244.375;    0.000
506.467; 4728.900;  223.375;    0.000
506.601; 4666.900;  183.375;    0.000
506.735; 4601.900;  249.375;    0.000
506.869; 4781.900;  270.375;    0.000
507.002; 4645.900;  207.375;    0.000
507.136; 4597.900;  242.375;    0.000
507.270; 4562.900;  232.375;    0.000
507.404; 4586.900;  195.375;    0.000
507.537; 4532.900;  218.375;    0.000
507.671; 4506.900;  246.375;    0.000
507.805; 4466.900;  244.375;    0.000
507.939; 4494.900;  251.375;    0.000
508.072; 4478.900;  212.375;    0.000
508.206; 4389.900;  198.375;    0.000
508.340; 4370.900;  234.375;    0.000
508.473; 4314.900;  217.375;    0.000
508.607; 4416.900;  224.375;    0.000
508.740; 4326.900;  207.375;    0.000
508.874; 4280.900;  230.375;    0.000
509.008; 4356.900;  246.375;    0.000
509.141; 4300.900;  239.375;    0.000
509.275; 4371.900;  229.375;    0.000
509.408; 4386.900;  234.375;    0.000
509.542; 4247.900;  212.375;    0.000
509.675; 4367.900;  256.375;    0.000
509.809; 4259.900;  232.375;    0.000
509.942; 4285.900;  237.375;    0.000
510.076; 4262.900;  226.375;    0.000
510.209; 4341.900;  251.375;    0.000
510.343; 4141.900;  229.375;    0.000
510.476; 4155.900;  285.375;    0.000
510.610; 4186.900;  211.375;    0.000
510.743; 4258.900;  258.375;    0.000
510.877; 4212.900;  244.375;    0.000
511.010; 4166.900;  235.375;    0.000
511.143; 4153.900;  251.375;    0.000
511.277; 4078.900;  228.375;    0.000
511.410; 4102.900;  216.375;    0.000
511.543; 4199.900;  231.375;    0.000
511.677; 4082.900;  244.375;    0.000
511.810; 4112.900;  186.375;    0.000
511.943; 4158.900;  211.375;    0.000
512.077; 4196.900;  201.375;    0.000
512.210; 4121.900;  194.375;    0.000
512.343; 4156.900;  233.375;    0.000
512.476; 4049.900;  234.375;    0.000
512.610; 4046.900;  224.375;    0.000
512.743; 4067.900;  255.375;    0.000
512.876; 4128.900;  264.375;    0.000
513.009; 4159.900;  283.375;    0.000
513.142; 4120.900;  246.375;    0.000
513.276; 4046.900;  217.375;    0.000
513.409; 4099.900;  222.375;    0.000
513.542; 4081.900;  237.375;    0.000
513.675; 4097.900;  238.375;    0.000
513.808; 4021.900;  220.375;    0.000
513.941; 4110.900;  233.375;    0.000
514.074; 4061.900;  248.375;    0.000
514.207; 4020.900;  233.375;    0.000
514.340; 4038.900;  190.375;    0.000
514.474; 4120.900;  221.375;    0.000
514.607; 4054.900;  213.375;    0.000
514.740; 4100.900;  251.375;    0.000
514.873; 4131.900;  257.375;    0.000
515.006; 4196.900;  268.375;    0.000
515.139; 4231.900;  257.375;    0.000
515.272; 4204.900;  227.375;    0.000
515.404; 4187.900;  238.375;    0.000
515.537; 4381.900;  275.375;    0.000
515.670; 4209.900;  239.375;    0.000
515.803; 4267.900;  223.375;    0.000
515.936; 4339.900;  202.375;    0.000
516.069; 4273.900;  188.375;    0.000
516.202; 4432.900;  240.375;    0.000
516.335; 4450.900;  252.375;    0.000
516.468; 4691.900;  254.375;    0.000
516.600; 5705.900;  254.375;    0.000
516.733; 7212.900;  255.375;    0.000
516.866; 6949.900;  265.375;    0.000
516.999; 6182.900;  251.375;    0.000
517.132; 7787.900;  256.375;    0.000
517.264;10914.900;  202.375;    0.000
517.397;10411.900;  248.375;    0.000
517.530; 7600.900;  221.375;    0.000
517.663; 6420.900;  244.375;    0.000
517.795; 5917.900;  245.375;    0.000
517.928; 5772.900;  236.375;    0.000
518.061; 5929.900;  219.375;    0.000
518.193; 7753.900;  251.375;    0.000
518.326;12721.900;  271.375;    0.000
518.459;13024.900;  207.375;    0.000
518.591; 9435.900;  217.375;    0.000
518.724; 6830.900;  200.375;    0.000
518.857; 6004.900;  204.375;    0.000
518.989; 5478.900;  242.375;    0.000
519.122; 5229.900;  254.375;    0.000
519.254; 4947.900;  239.375;    0.000
519.387; 4728.900;  235.375;    0.000
519.519; 4683.900;  227.375;    0.000
519.652; 4356.900;  178.375;    0.000
519.784; 4468.900;  226.375;    0.000
519.917; 4265.900;  256.375;    0.000
520.049; 4349.900;  234.375;    0.000
520.182; 4209.900;  258.375;    0.000
520.314; 4175.900;  298.375;    0.000
520.447; 4189.900;  204.375;    0.000
520.579; 4088.900;  235.375;    0.000
520.712; 4064.900;  208.375;    0.000
520.844; 3970.900;  272.375;    0.000
520.976; 4019.900;  234.375;    0.000
521.109; 3950.900;  235.375;    0.000
521.241; 4003.900;  250.375;    0.000
521.373; 3851.900;  233.375;    0.000
521.506; 3784.900;  231.375;    0.000
521.638; 3845.900;  258.375;    0.000
521.770; 3870.900;  226.375;    0.000
521.903; 3771.900;  258.375;    0.000
522.035; 3805.900;  263.375;    0.000
522.167; 3733.900;  214.375;    0.000
522.300; 3656.900;  212.375;    0.000
522.432; 3684.900;  220.375;    0.000
522.564; 3689.900;  228.375;    0.000
522.696; 3694.900;  272.375;    0.000
522.828; 3680.900;  222.375;    0.000
522.961; 3631.900;  205.375;    0.000
523.093; 3615.900;  253.375;    0.000
523.225; 3696.900;  239.375;    0.000
523.357; 3686.900;  263.375;    0.000
523.489; 3583.900;  264.375;    0.000
523.621; 3605.900;  259.375;    0.000
523.753; 3561.900;  233.375;    0.000
523.885; 3601.900;  232.375;    0.000
524.018; 3480.900;  214.375;    0.000
524.150; 3523.900;  235.375;    0.000
524.282; 3530.900;  242.375;    0.000
524.414; 3452.900;  261.375;    0.000
524.546; 3524.900;  233.375;    0.000
524.678; 3367.900;  242.375;    0.000
524.810; 3417.900;  216.375;    0.000
524.942; 3426.900;  220.375;    0.000
525.074; 3453.900;  249.375;    0.000
525.206; 3453.900;  227.375;    0.000
525.338; 3411.900;  250.375;    0.000
525.469; 3490.900;  231.375;    0.000
525.601; 3404.900;  245.375;    0.000
525.733; 3306.900;  187.375;    0.000
525.865; 3396.900;  280.375;    0.000
525.997; 3363.900;  216.375;    0.000
526.129; 3294.900;  228.375;    0.000
526.261; 3335.900;  187.375;    0.000
526.393; 3350.900;  228.375;    0.000
526.524; 3355.900;  201.375;    0.000
526.656; 3373.900;  199.375;    0.000
526.788; 3352.900;  233.375;    0.000
526.920; 3323.900;  256.375;    0.000
527.052; 3252.900;  219.375;    0.000
527.183; 3265.900;  227.375;    0.000
527.315; 3298.900;  266.375;    0.000
527.447; 3233.900;  239.375;    0.000
527.578; 3315.900;  213.375;    0.000
527.710; 3343.900;  216.375;    0.000
527.842; 3276.900;  240.375;    0.000
527.973; 3264.900;  286.375;    0.000
528.105; 3258.900;  222.375;    0.000
528.237; 3255.900;  223.375;    0.000
528.368; 3217.900;  211.375;    0.000
528.500; 3187.900;  215.375;    0.000
528.632; 3175.900;  216.375;    0.000
528.763; 3232.900;  234.375;    0.000
528.895; 3281.900;  196.375;    0.000
529.026; 3226.900;  202.375;    0.000
529.158; 3173.900;  226.375;    0.000
529.289; 3303.900;  229.375;    0.000
529.421; 3251.900;  264.375;    0.000
529.552; 3244.900;  265.375;    0.000
529.684; 3296.900;  260.375;    0.000
529.815; 3294.900;  284.375;    0.000
529.947; 3143.900;  237.375;    0.000
530.078; 3243.900;  223.375;    0.000
530.210; 3231.900;  223.375;    0.000
530.341; 3167.900;  209.375;    0.000
530.472; 3144.900;  203.375;    0.000
530.604; 3219.900;  223.375;    0.000
530.735; 3219.900;  218.375;    0.000
530.867; 3197.900;  222.375;    0.000
530.998; 3283.900;  239.375;    0.000
531.129; 3309.900;  250.375;    0.000
531.260; 3191.900;  224.375;    0.000
531.392; 3235.900;  216.375;    0.000
531.523; 3246.900;  234.375;    0.000
531.654; 3319.900;  256.375;    0.000
531.786; 3296.900;  226.375;    0.000
531.917; 3239.900;  239.375;    0.000
532.048; 3223.900;  205.375;    0.000
532.179; 3288.900;  244.375;    0.000
532.311; 3339.900;  235.375;    0.000
532.442; 3367.900;  258.375;    0.000
532.573; 3285.900;  220.375;    0.000
532.704; 3311.900;  213.375;    0.000
532.835; 3213.900;  249.375;    0.000
532.966; 3269.900;  226.375;    0.000
533.097; 3263.900;  246.375;    0.000
533.229; 3150.900;  237.375;    0.000
533.360; 3281.900;  225.375;    0.000
533.491; 3222.900;  241.375;    0.000
533.622; 3326.900;  242.375;    0.000
533.753; 3239.900;  264.375;    0.000
533.884; 3262.900;  245.375;    0.000
534.015; 3288.900;  269.375;    0.000
534.146; 3368.900;  267.375;    0.000
534.277; 3310.900;  282.375;    0.000
534.408; 3253.900;  229.375;    0.000
534.539; 3338.900;  269.375;    0.000
534.670; 3357.900;  231.375;    0.000
534.801; 3239.900;  260.375;    0.000
534.932; 3178.900;  232.375;    0.000
535.063; 3142.900;  227.375;    0.000
535.194; 3198.900;  281.375;    0.000
535.324; 3158.900;  206.375;    0.000
535.455; 3103.900;  257.375;    0.000
535.586; 3178.900;  275.375;    0.000
535.717; 3152.900;  206.375;    0.000
535.848; 3186.900;  271.375;    0.000
535.979; 3226.900;  250.375;    0.000
536.109; 3125.900;  253.375;    0.000
536.240; 3182.900;  234.375;    0.000
536.371; 3191.900;  230.375;    0.000
536.502; 3242.900;  270.375;    0.000
536.632; 3124.900;  228.375;    0.000
536.763; 3134.900;  249.375;    0.000
536.894; 3152.900;  262.375;    0.000
537.025; 3081.900;  258.375;    0.000
537.155; 3218.900;  278.375;    0.000
537.286; 3095.900;  209.375;    0.000
537.417; 3060.900;  255.375;    0.000
537.547; 3093.900;  208.375;    0.000
537.678; 3108.900;  224.375;    0.000
537.808; 3166.900;  224.375;    0.000
537.939; 3053.900;  257.375;    0.000
538.070; 3107.900;  240.375;    0.000
538.200; 3162.900;  259.375;    0.000
538.331; 3087.900;  235.375;    0.000
538.461; 3110.900;  251.375;    0.000
538.592; 3248.900;  245.375;    0.000
538.722; 3191.900;  239.375;    0.000
538.853; 3138.900;  216.375;    0.000
538.983; 3087.900;  226.375;    0.000
539.114; 3078.900;  240.375;    0.000
539.244; 3055.900;  237.375;    0.000
539.375; 3129.900;  198.375;    0.000
539.505; 3224.900;  263.375;    0.000
539.636; 3003.900;  226.375;    0.000
539.766; 3240.900;  229.375;    0.000
539.896; 2995.900;  219.375;    0.000
540.027; 3178.900;  246.375;    0.000
540.157; 2969.900;  218.375;    0.000
540.287; 3131.900;  216.375;    0.000
540.418; 3125.900;  267.375;    0.000
540.548; 3057.900;  260.375;    0.000
540.678; 3056.900;  242.375;    0.000
540.809; 3070.900;  260.375;    0.000
540.939; 3041.900;  257.375;    0.000
541.069; 3130.900;  226.375;    0.000
541.200; 3120.900;  227.375;    0.000
541.330; 3115.900;  218.375;    0.000
541.460; 3164.900;  223.375;    0.000
541.590; 3138.900;  237.375;    0.000
541.720; 2982.900;  222.375;    0.000
541.851; 3097.900;  250.375;    0.000
541.981; 3059.900;  222.375;    0.000
542.111; 3139.900;  212.375;    0.000
542.241; 3060.900;  205.375;    0.000
542.371; 3212.900;  202.375;    0.000
542.501; 3162.900;  218.375;    0.000
542.631; 3295.900;  222.375;    0.000
542.761; 3205.900;  249.375;    0.000
542.891; 3271.900;  173.375;    0.000
543.021; 3263.900;  218.375;    0.000
543.151; 3210.900;  222.375;    0.000
543.281; 3249.900;  188.375;    0.000
543.411; 3198.900;  239.375;    0.000
543.542; 3173.900;  215.375;    0.000
543.671; 3245.900;  250.375;    0.000
543.801; 3222.900;  212.375;    0.000
543.931; 3252.900;  233.375;    0.000
544.061; 3252.900;  194.375;    0.000
544.191; 3240.900;  218.375;    0.000
544.321; 3216.900;  220.375;    0.000
544.451; 3224.900;  183.375;    0.000
544.581; 3243.900;  221.375;    0.000
544.711; 3351.900;  224.375;    0.000
544.841; 3219.900;  214.375;    0.000
544.970; 3355.900;  227.375;    0.000
545.100; 3331.900;  186.375;    0.000
545.230; 3461.900;  205.375;    0.000
545.360; 3419.900;  211.375;    0.000
545.490; 3341.900;  202.375;    0.000
545.619; 3419.900;  182.375;    0.000
545.749; 3247.900;  174.375;    0.000
545.879; 3250.900;  169.375;    0.000
546.009; 3269.900;  182.375;    0.000
546.138; 3236.900;  200.375;    0.000
546.268; 3251.900;  204.375;    0.000
546.398; 3209.900;  200.375;    0.000
546.527; 3250.900;  179.375;    0.000
546.657; 3218.900;  162.375;    0.000
546.786; 3115.900;  179.375;    0.000
546.916; 3219.900;  221.375;    0.000
547.046; 3296.900;  179.375;    0.000
547.175; 3146.900;  168.375;    0.000
547.305; 3166.900;  200.375;    0.000
547.434; 3269.900;  166.375;    0.000
547.564; 3117.900;  177.375;    0.000
547.693; 3249.900;  152.375;    0.000
547.823; 3290.900;  171.375;    0.000
547.953; 3202.900;  195.375;    0.000
548.082; 3256.900;  214.375;    0.000
548.211; 3194.900;  177.375;    0.000
548.341; 3240.900;  189.375;    0.000
548.470; 3156.900;  194.375;    0.000
548.600; 3218.900;  172.375;    0.000
548.729; 3177.900;  158.375;    0.000
548.859; 3152.900;  193.375;    0.000
548.988; 3293.900;  131.375;    0.000
549.117; 3203.900;  204.375;    0.000
549.247; 3234.900;  191.375;    0.000
549.376; 3240.900;  202.375;    0.000
549.505; 3275.900;  187.375;    0.000
549.635; 3376.900;  198.375;    0.000
549.764; 3291.900;  155.375;    0.000
549.893; 3380.900;  176.375;    0.000
550.023; 3291.900;  202.375;    0.000
550.152; 3367.900;  168.375;    0.000
550.281; 3151.900;  180.375;    0.000
550.410; 3305.900;  180.375;    0.000
550.539; 3357.900;  181.375;    0.000
550.669; 3305.900;  168.375;    0.000
550.798; 3317.900;  223.375;    0.000
550.927; 3351.900;  179.375;    0.000
551.056; 3302.900;  159.375;    0.000
551.185; 3392.900;  199.375;    0.000
551.314; 3302.900;  185.375;    0.000
551.443; 3414.900;  172.375;    0.000
551.573; 3295.900;  158.375;    0.000
551.702; 3354.900;  210.375;    0.000
551.831; 3437.900;  238.375;    0.000
551.960; 3340.900;  191.375;    0.000
552.089; 3388.900;  195.375;    0.000
552.218; 3303.900;  196.375;    0.000
552.347; 3498.900;  194.375;    0.000
552.476; 3528.900;  192.375;    0.000
552.605; 3453.900;  172.375;    0.000
552.734; 3693.900;  214.375;    0.000
552.863; 3749.900;  177.375;    0.000
552.992; 3658.900;  190.375;    0.000
553.121; 3661.900;  185.375;    0.000
553.249; 3660.900;  175.375;    0.000
553.378; 3564.900;  192.375;    0.000
553.507; 3544.900;  193.375;    0.000
553.636; 3534.900;  182.375;    0.000
553.765; 3556.900;  187.375;    0.000
553.894; 3477.900;  214.375;    0.000
554.023; 3451.900;  217.375;    0.000
554.151; 3479.900;  223.375;    0.000
554.280; 3366.900;  170.375;    0.000
554.409; 3449.900;  172.375;    0.000
554.538; 3370.900;  182.375;    0.000
554.666; 3357.900;  195.375;    0.000
554.795; 3377.900;  176.375;    0.000
554.924; 3272.900;  164.375;    0.000
555.052; 3320.900;  171.375;    0.000
555.181; 3312.900;  208.375;    0.000
555.310; 3302.900;  214.375;    0.000
555.439; 3440.900;  193.375;    0.000
555.567; 3213.900;  189.375;    0.000
555.696; 3275.900;  196.375;    0.000
555.824; 3249.900;  183.375;    0.000
555.953; 3290.900;  234.375;    0.000
556.082; 3199.900;  183.375;    0.000
556.210; 3320.900;  199.375;    0.000
556.339; 3283.900;  201.375;    0.000
556.467; 3152.900;  208.375;    0.000
556.596; 3326.900;  194.375;    0.000
556.724; 3159.900;  170.375;    0.000
556.853; 3203.900;  166.375;    0.000
556.981; 3153.900;  185.375;    0.000
557.110; 3141.900;  213.375;    0.000
557.238; 3224.900;  188.375;    0.000
557.367; 3171.900;  176.375;    0.000
557.495; 3189.900;  180.375;    0.000
557.623; 3158.900;  193.375;    0.000
557.752; 3180.900;  207.375;    0.000
557.880; 3199.900;  189.375;    0.000
558.008; 3183.900;  169.375;    0.000
558.137; 3156.900;  203.375;    0.000
558.265; 3158.900;  167.375;    0.000
558.393; 3247.900;  204.375;    0.000
558.522; 3143.900;  203.375;    0.000
558.650; 3151.900;  215.375;    0.000
558.778; 3285.900;  190.375;    0.000
558.906; 3214.900;  186.375;    0.000
559.035; 3191.900;  193.375;    0.000
559.163; 3243.900;  198.375;    0.000
559.291; 3093.900;  222.375;    0.000
559.419; 3232.900;  192.375;    0.000
559.548; 3194.900;  186.375;    0.000
559.676; 3245.900;  199.375;    0.000
559.804; 3193.900;  186.375;    0.000
559.932; 3304.900;  202.375;    0.000
560.060; 3285.900;  183.375;    0.000
560.188; 3300.900;  212.375;    0.000
560.316; 3242.900;  192.375;    0.000
560.444; 3176.900;  180.375;    0.000
560.572; 3325.900;  206.375;    0.000
560.700; 3276.900;  184.375;    0.000
560.828; 3319.900;  177.375;    0.000
560.956; 3314.900;  221.375;    0.000
561.085; 3371.900;  227.375;    0.000
561.212; 3254.900;  208.375;    0.000
561.340; 3269.900;  189.375;    0.000
561.468; 3403.900;  189.375;    0.000
561.596; 3360.900;  183.375;    0.000
561.724; 3307.900;  188.375;    0.000
561.852; 3194.900;  183.375;    0.000
561.980; 3360.900;  209.375;    0.000
562.108; 3301.900;  165.375;    0.000
562.236; 3549.900;  188.375;    0.000
562.364; 3403.900;  177.375;    0.000
562.492; 3414.900;  192.375;    0.000
562.619; 3515.900;  187.375;    0.000
562.747; 3416.900;  217.375;    0.000
562.875; 3370.900;  221.375;    0.000
563.003; 3447.900;  199.375;    0.000
563.130; 3436.900;  191.375;    0.000
563.258; 3467.900;  186.375;    0.000
563.386; 3535.900;  191.375;    0.000
563.514; 3528.900;  217.375;    0.000
563.641; 3537.900;  220.375;    0.000
563.769; 3649.900;  186.375;    0.000
563.897; 3585.900;  158.375;    0.000
564.024; 3619.900;  192.375;    0.000
564.152; 3701.900;  217.375;    0.000
564.280; 3714.900;  203.375;    0.000
564.407; 3752.900;  190.375;    0.000
564.535; 3804.900;  188.375;    0.000
564.662; 3703.900;  199.375;    0.000
564.790; 3858.900;  227.375;    0.000
564.917; 3776.900;  160.375;    0.000
565.045; 3889.900;  222.375;    0.000
565.173; 3909.900;  169.375;    0.000
565.300; 3873.900;  208.375;    0.000
565.428; 3992.900;  174.375;    0.000
565.555; 4005.900;  201.375;    0.000
565.682; 4030.900;  180.375;    0.000
565.810; 4098.900;  165.375;    0.000
565.937; 4174.900;  167.375;    0.000
566.065; 4211.900;  190.375;    0.000
566.192; 4394.900;  169.375;    0.000
566.320; 4610.900;  167.375;    0.000
566.447; 4536.900;  151.375;    0.000
566.574; 4576.900;  176.375;    0.000
566.702; 4803.900;  198.375;    0.000
566.829; 4816.900;  209.375;    0.000
566.956; 4826.900;  186.375;    0.000
567.083; 4857.900;  188.375;    0.000
567.211; 4937.900;  159.375;    0.000
567.338; 4955.900;  204.375;    0.000
567.465; 5087.900;  141.375;    0.000
567.593; 5044.900;  168.375;    0.000
567.720; 5098.900;  177.375;    0.000
567.847; 5108.900;  160.375;    0.000
567.974; 5073.900;  139.375;    0.000
568.101; 4975.900;  153.375;    0.000
568.228; 5031.900;  173.375;    0.000
568.356; 4846.900;  149.375;    0.000
568.483; 4745.900;  185.375;    0.000
568.610; 4608.900;  170.375;    0.000
568.737; 4721.900;  223.375;    0.000
568.864; 4779.900;  167.375;    0.000
568.991; 4506.900;  177.375;    0.000
569.118; 4346.900;  169.375;    0.000
569.245; 4205.900;  128.375;    0.000
569.372; 4032.900;  160.375;    0.000
569.499; 3891.900;  156.375;    0.000
569.626; 3930.900;  191.375;    0.000
569.753; 3816.900;  163.375;    0.000
569.880; 3924.900;  167.375;    0.000
570.007; 3775.900;  143.375;    0.000
570.134; 3687.900;  191.375;    0.000
570.261; 3692.900;  164.375;    0.000
570.388; 3735.900;  162.375;    0.000
570.515; 3779.900;  220.375;    0.000
570.642; 3701.900;  184.375;    0.000
570.768; 3703.900;  174.375;    0.000
570.895; 3711.900;  177.375;    0.000
571.022; 3641.900;  152.375;    0.000
571.149; 3721.900;  183.375;    0.000
571.276; 3484.900;  153.375;    0.000
571.402; 3561.900;  190.375;    0.000
571.529; 3581.900;  187.375;    0.000
571.656; 3532.900;  167.375;    0.000
571.783; 3368.900;  186.375;    0.000
571.909; 3601.900;  183.375;    0.000
572.036; 3436.900;  162.375;    0.000
572.163; 3464.900;  196.375;    0.000
572.289; 3431.900;  180.375;    0.000
572.416; 3369.900;  190.375;    0.000
572.543; 3470.900;  174.375;    0.000
572.669; 3409.900;  186.375;    0.000
572.796; 3307.900;  205.375;    0.000
572.922; 3373.900;  185.375;    0.000
573.049; 3258.900;  178.375;    0.000
573.176; 3338.900;  196.375;    0.000
573.302; 3362.900;  202.375;    0.000
573.429; 3351.900;  189.375;    0.000
573.555; 3266.900;  145.375;    0.000
573.682; 3282.900;  228.375;    0.000
573.808; 3370.900;  197.375;    0.000
573.935; 3284.900;  216.375;    0.000
574.061; 3273.900;  173.375;    0.000
574.188; 3270.900;  151.375;    0.000
574.314; 3334.900;  181.375;    0.000
574.440; 3278.900;  167.375;    0.000
574.567; 3327.900;  185.375;    0.000
574.693; 3282.900;  173.375;    0.000
574.820; 3310.900;  164.375;    0.000
574.946; 3226.900;  199.375;    0.000
575.072; 3196.900;  162.375;    0.000
575.198; 3363.900;  225.375;    0.000
575.325; 3256.900;  171.375;    0.000
575.451; 3236.900;  183.375;    0.000
575.577; 3296.900;  190.375;    0.000
575.704; 3197.900;  210.375;    0.000
575.830; 3201.900;  185.375;    0.000
575.956; 3179.900;  168.375;    0.000
576.082; 3277.900;  158.375;    0.000
576.208; 3091.900;  158.375;    0.000
576.335; 3170.900;  196.375;    0.000
576.461; 3206.900;  187.375;    0.000
576.587; 3139.900;  157.375;    0.000
576.713; 3224.900;  156.375;    0.000
576.839; 3133.900;  196.375;    0.000
576.965; 3050.900;  187.375;    0.000
577.091; 3236.900;  204.375;    0.000
577.217; 3165.900;  207.375;    0.000
577.343; 3143.900;  175.375;    0.000
577.469; 3122.900;  197.375;    0.000
577.596; 3170.900;  182.375;    0.000
577.722; 3103.900;  159.375;    0.000
577.848; 3160.900;  162.375;    0.000
577.974; 3135.900;  180.375;    0.000
578.099; 3100.900;  161.375;    0.000
578.225; 3114.900;  180.375;    0.000
578.351; 3129.900;  190.375;    0.000
578.477; 3131.900;  212.375;    0.000
578.603; 3171.900;  179.375;    0.000
578.729; 3105.900;  195.375;    0.000
578.855; 3142.900;  153.375;    0.000
578.981; 3168.900;  162.375;    0.000
579.107; 3155.900;  149.375;    0.000
579.232; 3181.900;  164.375;    0.000
579.358; 3106.900;  162.375;    0.000
579.484; 3092.900;  181.375;    0.000
579.610; 3153.900;  190.375;    0.000
579.735; 3099.900;  191.375;    0.000
579.861; 3118.900;  189.375;    0.000
579.987; 3082.900;  202.375;    0.000
580.113; 3091.900;  197.375;    0.000
580.238; 3196.900;  228.375;    0.000
580.364; 3177.900;  212.375;    0.000
580.490; 3118.900;  225.375;    0.000
580.615; 3100.900;  218.375;    0.000
580.741; 3039.900;  167.375;    0.000
580.867; 3121.900;  215.375;    0.000
580.992; 3140.900;  191.375;    0.000
581.118; 3116.900;  171.375;    0.000
581.243; 3193.900;  204.375;    0.000
581.369; 3107.900;  186.375;    0.000
581.494; 3106.900;  184.375;    0.000
581.620; 3163.900;  212.375;    0.000
581.745; 3177.900;  192.375;    0.000
581.871; 3092.900;  195.375;    0.000
581.996; 3153.900;  160.375;    0.000
582.122; 3164.900;  217.375;    0.000
582.247; 3109.900;  213.375;    0.000
582.373; 3186.900;  187.375;    0.000
582.498; 3195.900;  208.375;    0.000
582.624; 3172.900;  189.375;    0.000
582.749; 3173.900;  185.375;    0.000
582.874; 3222.900;  195.375;    0.000
583.000; 3268.900;  208.375;    0.000
583.125; 3149.900;  147.375;    0.000
583.250; 3215.900;  201.375;    0.000
583.376; 3162.900;  191.375;    0.000
583.501; 3156.900;  206.375;    0.000
583.626; 3265.900;  167.375;    0.000
583.751; 3174.900;  180.375;    0.000
583.877; 3209.900;  185.375;    0.000
584.002; 3262.900;  186.375;    0.000
584.127; 3157.900;  176.375;    0.000
584.252; 3216.900;  214.375;    0.000
584.377; 3232.900;  225.375;    0.000
584.503; 3144.900;  195.375;    0.000
584.628; 3300.900;  206.375;    0.000
584.753; 3264.900;  181.375;    0.000
584.878; 3235.900;  136.375;    0.000
585.003; 3243.900;  215.375;    0.000
585.128; 3369.900;  206.375;    0.000
585.253; 3357.900;  200.375;    0.000
585.378; 3303.900;  169.375;    0.000
585.503; 3257.900;  191.375;    0.000
585.628; 3211.900;  182.375;    0.000
585.753; 3298.900;  164.375;    0.000
585.878; 3230.900;  123.375;    0.000
586.003; 3351.900;  187.375;    0.000
586.128; 3360.900;  198.375;    0.000
586.253; 3335.900;  172.375;    0.000
586.378; 3324.900;  191.375;    0.000
586.503; 3354.900;  190.375;    0.000
586.628; 3467.900;  178.375;    0.000
586.753; 3465.900;  184.375;    0.000
586.878; 3445.900;  169.375;    0.000
587.003; 3631.900;  186.375;    0.000
587.127; 3552.900;  170.375;    0.000
587.252; 3639.900;  170.375;    0.000
587.377; 3694.900;  181.375;    0.000
587.502; 3702.900;  209.375;    0.000
587.627; 3881.900;  210.375;    0.000
587.751; 3921.900;  212.375;    0.000
587.876; 4071.900;  198.375;    0.000
588.001; 4108.900;  161.375;    0.000
588.125; 4330.900;  191.375;    0.000
588.250; 4702.900;  132.375;    0.000
588.375; 5148.900;  183.375;    0.000
588.499; 5839.900;  176.375;    0.000
588.624; 7353.900;  173.375;    0.000
588.749;10506.900;  204.375;    0.000
588.873;20216.900;  179.375;    0.000
588.998;29855.900;  182.375;    0.000
589.122;25497.900;  165.375;    0.000
589.247;15980.900;  185.375;    0.000
589.372;13022.900;  199.375;    0.000
589.496;19519.900;  182.375;    0.000
589.621;24341.900;  158.375;    0.000
589.745;18182.900;  213.375;    0.000
589.870;10459.900;  175.375;    0.000
589.994; 7568.900;  194.375;    0.000
590.118; 6283.900;  218.375;    0.000
590.243; 5592.900;  170.375;    0.000
590.367; 5144.900;  189.375;    0.000
590.492; 4913.900;  196.375;    0.000
590.616; 4535.900;  182.375;    0.000
590.740; 4347.900;  210.375;    0.000
590.865; 4385.900;  242.375;    0.000
590.989; 4283.900;  191.375;    0.000
591.114; 4058.900;  167.375;    0.000
591.238; 4043.900;  194.375;    0.000
591.362; 3905.900;  236.375;    0.000
591.486; 3948.900;  194.375;    0.000
591.611; 4041.900;  154.375;    0.000
591.735; 3852.900;  186.375;    0.000
591.859; 3813.900;  148.375;    0.000
591.983; 3970.900;  211.375;    0.000
592.107; 3859.900;  204.375;    0.000
592.232; 3820.900;  194.375;    0.000
592.356; 3859.900;  238.375;    0.000
592.480; 3850.900;  179.375;    0.000
592.604; 3842.900;  192.375;    0.000
592.728; 3831.900;  201.375;    0.000
592.852; 3823.900;  158.375;    0.000
592.976; 3869.900;  152.375;    0.000
593.100; 3974.900;  194.375;    0.000
593.224; 3784.900;  235.375;    0.000
593.349; 3937.900;  233.375;    0.000
593.473; 3885.900;  194.375;    0.000
593.597; 3818.900;  215.375;    0.000
593.721; 3826.900;  212.375;    0.000
593.844; 3851.900;  220.375;    0.000
593.968; 3872.900;  221.375;    0.000
594.092; 3752.900;  150.375;    0.000
594.216; 3764.900;  212.375;    0.000
594.340; 3916.900;  209.375;    0.000
594.464; 3803.900;  207.375;    0.000
594.588; 3835.900;  195.375;    0.000
594.712; 3729.900;  176.375;    0.000
594.836; 3657.900;  219.375;    0.000
594.959; 3619.900;  215.375;    0.000
595.083; 3595.900;  200.375;    0.000
595.207; 3523.900;  206.375;    0.000
595.331; 3408.900;  207.375;    0.000
595.455; 3458.900;  206.375;    0.000
595.578; 3423.900;  204.375;    0.000
595.702; 3361.900;  225.375;    0.000
595.826; 3451.900;  186.375;    0.000
595.949; 3313.900;  196.375;    0.000
596.073; 3322.900;  188.375;    0.000
596.197; 3357.900;  217.375;    0.000
596.320; 3396.900;  225.375;    0.000
596.444; 3301.900;  220.375;    0.000
596.568; 3264.900;  155.375;    0.000
596.691; 3304.900;  195.375;    0.000
596.815; 3276.900;  163.375;    0.000
596.938; 3305.900;  181.375;    0.000
597.062; 3134.900;  201.375;    0.000
597.186; 3185.900;  200.375;    0.000
597.309; 3233.900;  214.375;    0.000
597.433; 3267.900;  176.375;    0.000
597.556; 3132.900;  193.375;    0.000
597.680; 3202.900;  241.375;    0.000
597.803; 3144.900;  185.375;    0.000
597.926; 3140.900;  200.375;    0.000
598.050; 3033.900;  193.375;    0.000
598.173; 3091.900;  219.375;    0.000
598.297; 3078.900;  223.375;    0.000
598.420; 3007.900;  187.375;    0.000
598.543; 3115.900;  205.375;    0.000
598.667; 3084.900;  177.375;    0.000
598.790; 3009.900;  208.375;    0.000
598.913; 3092.900;  170.375;    0.000
599.037; 2983.900;  212.375;    0.000
599.160; 3065.900;  165.375;    0.000
599.283; 3155.900;  211.375;    0.000
599.406; 2998.900;  207.375;    0.000
599.530; 3143.900;  182.375;    0.000
599.653; 3095.900;  215.375;    0.000
599.776; 3108.900;  167.375;    0.000
599.899; 2987.900;  190.375;    0.000
600.022; 3042.900;  182.375;    0.000
600.145; 2975.900;  180.375;    0.000
600.269; 3159.900;  208.375;    0.000
600.392; 3037.900;  214.375;    0.000
600.515; 2973.900;  196.375;    0.000
600.638; 2990.900;  204.375;    0.000
600.761; 2993.900;  209.375;    0.000
600.884; 2989.900;  207.375;    0.000
601.007; 2936.900;  234.375;    0.000
601.130; 3024.900;  183.375;    0.000
601.253; 2990.900;  211.375;    0.000
601.376; 2884.900;  199.375;    0.000
601.499; 2992.900;  190.375;    0.000
601.622; 2965.900;  210.375;    0.000
601.745; 2969.900;  180.375;    0.000
601.868; 3026.900;  204.375;    0.000
601.991; 2877.900;  188.375;    0.000
602.113; 3023.900;  210.375;    0.000
602.236; 2992.900;  194.375;    0.000
602.359; 2934.900;  213.375;    0.000
602.482; 2952.900;  169.375;    0.000
602.605; 2870.900;  189.375;    0.000
602.728; 2967.900;  236.375;    0.000
602.850; 2969.900;  230.375;    0.000
602.973; 2986.900;  187.375;    0.000
603.096; 2897.900;  201.375;    0.000
603.219; 2956.900;  209.375;    0.000
603.341; 2963.900;  209.375;    0.000
603.464; 2926.900;  194.375;    0.000
603.587; 2934.900;  166.375;    0.000
603.709; 2960.900;  175.375;    0.000
603.832; 2963.900;  239.375;    0.000
603.955; 2953.900;  205.375;    0.000
604.077; 2986.900;  196.375;    0.000
604.200; 2870.900;  188.375;    0.000
604.323; 2845.900;  224.375;    0.000
604.445; 2835.900;  182.375;    0.000
604.568; 2840.900;  199.375;    0.000
604.690; 2898.900;  175.375;    0.000
604.813; 2968.900;  211.375;    0.000
604.935; 2888.900;  171.375;    0.000
605.058; 2821.900;  196.375;    0.000
605.180; 2873.900;  194.375;    0.000
605.303; 2940.900;  198.375;    0.000
605.425; 2843.900;  212.375;    0.000
605.547; 2971.900;  238.375;    0.000
605.670; 2830.900;  207.375;    0.000
605.792; 2900.900;  204.375;    0.000
605.915; 2895.900;  198.375;    0.000
606.037; 2767.900;  215.375;    0.000
606.159; 2841.900;  170.375;    0.000
606.282; 2876.900;  194.375;    0.000
606.404; 2813.900;  207.375;    0.000
606.526; 2959.900;  208.375;    0.000
606.648; 2849.900;  174.375;    0.000
606.771; 2864.900;  170.375;    0.000
606.893; 2907.900;  182.375;    0.000
607.015; 2918.900;  180.375;    0.000
607.137; 2819.900;  187.375;    0.000
607.260; 2908.900;  202.375;    0.000
607.382; 2933.900;  226.375;    0.000
607.504; 2805.900;  208.375;    0.000
607.626; 2786.900;  229.375;    0.000
607.748; 2901.900;  170.375;    0.000
607.870; 2811.900;  208.375;    0.000
607.992; 2870.900;  184.375;    0.000
608.114; 2864.900;  213.375;    0.000
608.237; 2856.900;  237.375;    0.000
608.359; 2808.900;  176.375;    0.000
608.481; 2757.900;  173.375;    0.000
608.603; 2746.900;  189.375;    0.000
608.725; 2891.900;  185.375;    0.000
608.847; 2819.900;  239.375;    0.000
608.969; 2817.900;  237.375;    0.000
609.090; 2876.900;  189.375;    0.000
609.212; 2804.900;  147.375;    0.000
609.334; 2851.900;  177.375;    0.000
609.456; 2835.900;  196.375;    0.000
609.578; 2770.900;  199.375;    0.000
609.700; 2797.900;  167.375;    0.000
609.822; 2805.900;  140.375;    0.000
609.944; 2841.900;  225.375;    0.000
610.065; 2869.900;  183.375;    0.000
610.187; 2804.900;  170.375;    0.000
610.309; 2728.900;  210.375;    0.000
610.431; 2838.900;  185.375;    0.000
610.552; 2804.900;  197.375;    0.000
610.674; 2730.900;  188.375;    0.000
610.796; 2811.900;  162.375;    0.000
610.918; 2865.900;  200.375;    0.000
611.039; 2768.900;  209.375;    0.000
611.161; 2863.900;  201.375;    0.000
611.282; 2756.900;  197.375;    0.000
611.404; 2753.900;  220.375;    0.000
611.526; 2780.900;  159.375;    0.000
611.647; 2849.900;  205.375;    0.000
611.769; 2809.900;  161.375;    0.000
611.890; 2765.900;  173.375;    0.000
612.012; 2792.900;  225.375;    0.000
612.133; 2805.900;  188.375;    0.000
612.255; 2744.900;  217.375;    0.000
612.377; 2808.900;  219.375;    0.000
612.498; 2760.900;  177.375;    0.000
612.619; 2809.900;  211.375;    0.000
612.741; 2798.900;  185.375;    0.000
612.862; 2723.900;  191.375;    0.000
612.984; 2815.900;  190.375;    0.000
613.105; 2797.900;  211.375;    0.000
613.226; 2782.900;  174.375;    0.000
613.348; 2840.900;  235.375;    0.000
613.469; 2763.900;  230.375;    0.000
613.590; 2815.900;  208.375;    0.000
613.712; 2824.900;  244.375;    0.000
613.833; 2754.900;  202.375;    0.000
613.954; 2739.900;  228.375;    0.000
614.076; 2807.900;  220.375;    0.000
614.197; 2737.900;  191.375;    0.000
614.318; 2791.900;  201.375;    0.000
614.439; 2706.900;  212.375;    0.000
614.560; 2779.900;  219.375;    0.000
614.682; 2775.900;  189.375;    0.000
614.803; 2742.900;  188.375;    0.000
614.924; 2791.900;  225.375;    0.000
615.045; 2734.900;  227.375;    0.000
615.166; 2827.900;  200.375;    0.000
615.287; 2699.900;  195.375;    0.000
615.408; 2768.900;  199.375;    0.000
615.529; 2837.900;  227.375;    0.000
615.650; 2844.900;  176.375;    0.000
615.771; 2785.900;  211.375;    0.000
615.892; 2795.900;  212.375;    0.000
616.013; 2965.900;  172.375;    0.000
616.134; 2960.900;  220.375;    0.000
616.255; 3007.900;  251.375;    0.000
616.376; 2850.900;  186.375;    0.000
616.497; 2831.900;  201.375;    0.000
616.618; 2838.900;  149.375;    0.000
616.739; 2849.900;  213.375;    0.000
616.860; 2849.900;  224.375;    0.000
616.981; 2798.900;  224.375;    0.000
617.102; 2803.900;  217.375;    0.000
617.222; 2768.900;  237.375;    0.000
617.343; 2790.900;  205.375;    0.000
617.464; 2786.900;  229.375;    0.000
617.585; 2814.900;  227.375;    0.000
617.705; 2895.900;  191.375;    0.000
617.826; 2755.900;  237.375;    0.000
617.947; 2878.900;  223.375;    0.000
618.068; 2776.900;  189.375;    0.000
618.188; 2780.900;  194.375;    0.000
618.309; 2785.900;  206.375;    0.000
618.430; 2839.900;  229.375;    0.000
618.550; 2796.900;  250.375;    0.000
618.671; 2767.900;  201.375;    0.000
618.791; 2779.900;  226.375;    0.000
618.912; 2718.900;  246.375;    0.000
619.033; 2793.900;  243.375;    0.000
619.153; 2765.900;  208.375;    0.000
619.274; 2731.900;  223.375;    0.000
619.394; 2801.900;  226.375;    0.000
619.515; 2760.900;  188.375;    0.000
619.635; 2754.900;  216.375;    0.000
619.756; 2692.900;  229.375;    0.000
619.876; 2751.900;  216.375;    0.000
619.996; 2734.900;  244.375;    0.000
620.117; 2731.900;  225.375;    0.000
620.237; 2720.900;  207.375;    0.000
620.358; 2803.900;  239.375;    0.000
620.478; 2751.900;  237.375;    0.000
620.598; 2734.900;  237.375;    0.000
620.719; 2709.900;  223.375;    0.000
620.839; 2721.900;  254.375;    0.000
620.959; 2709.900;  244.375;    0.000
621.079; 2705.900;  193.375;    0.000
621.200; 2726.900;  233.375;    0.000
621.320; 2676.900;  270.375;    0.000
621.440; 2678.900;  206.375;    0.000
621.560; 2724.900;  241.375;    0.000
621.681; 2692.900;  231.375;    0.000
621.801; 2664.900;  235.375;    0.000
621.921; 2823.900;  240.375;    0.000
622.041; 2674.900;  244.375;    0.000
622.161; 2735.900;  225.375;    0.000
622.281; 2731.900;  222.375;    0.000
622.401; 2755.900;  238.375;    0.000
622.521; 2669.900;  233.375;    0.000
622.641; 2722.900;  241.375;    0.000
622.761; 2605.900;  233.375;    0.000
622.882; 2717.900;  230.375;    0.000
623.002; 2635.900;  206.375;    0.000
623.121; 2566.900;  217.375;    0.000
623.241; 2668.900;  263.375;    0.000
623.361; 2588.900;  245.375;    0.000
623.481; 2608.900;  194.375;    0.000
623.601; 2745.900;  228.375;    0.000
623.721; 2686.900;  219.375;    0.000
623.841; 2777.900;  234.375;    0.000
623.961; 2667.900;  235.375;    0.000
624.081; 2657.900;  166.375;    0.000
624.201; 2604.900;  229.375;    0.000
624.320; 2566.900;  224.375;    0.000
624.440; 2656.900;  200.375;    0.000
624.560; 2593.900;  220.375;    0.000
624.680; 2560.900;  214.375;    0.000
624.799; 2573.900;  179.375;    0.000
624.919; 2542.900;  199.375;    0.000
625.039; 2631.900;  211.375;    0.000
625.159; 2680.900;  213.375;    0.000
625.278; 2583.900;  178.375;    0.000
625.398; 2604.900;  206.375;    0.000
625.518; 2622.900;  182.375;    0.000
625.637; 2667.900;  206.375;    0.000
625.757; 2581.900;  197.375;    0.000
625.876; 2539.900;  204.375;    0.000
625.996; 2621.900;  222.375;    0.000
626.115; 2556.900;  222.375;    0.000
626.235; 2651.900;  222.375;    0.000
626.354; 2528.900;  211.375;    0.000
626.474; 2595.900;  217.375;    0.000
626.594; 2592.900;  190.375;    0.000
626.713; 2585.900;  200.375;    0.000
626.832; 2595.900;  234.375;    0.000
626.952; 2559.900;  214.375;    0.000
627.071; 2647.900;  243.375;    0.000
627.191; 2523.900;  192.375;    0.000
627.310; 2556.900;  211.375;    0.000
627.429; 2527.900;  218.375;    0.000
627.549; 2645.900;  214.375;    0.000
627.668; 2501.900;  208.375;    0.000
627.787; 2575.900;  199.375;    0.000
627.907; 2599.900;  208.375;    0.000
628.026; 2577.900;  216.375;    0.000
628.145; 2540.900;  170.375;    0.000
628.264; 2606.900;  217.375;    0.000
628.384; 2511.900;  190.375;    0.000
628.503; 2475.900;  203.375;    0.000
628.622; 2616.900;  197.375;    0.000
628.741; 2543.900;  186.375;    0.000
628.860; 2566.900;  191.375;    0.000
628.980; 2499.900;  196.375;    0.000
629.099; 2673.900;  190.375;    0.000
629.218; 2533.900;  165.375;    0.000
629.337; 2647.900;  190.375;    0.000
629.456; 2474.900;  222.375;    0.000
629.575; 2549.900;  197.375;    0.000
629.694; 2548.900;  210.375;    0.000
629.813; 2538.900;  187.375;    0.000
629.932; 2649.900;  224.375;    0.000
630.051; 2554.900;  216.375;    0.000
630.170; 2580.900;  203.375;    0.000
630.289; 2511.900;  178.375;    0.000
630.408; 2522.900;  192.375;    0.000
630.527; 2556.900;  223.375;    0.000
630.646; 2518.900;  177.375;    0.000
630.764; 2505.900;  224.375;    0.000
630.883; 2539.900;  220.375;    0.000
631.002; 2608.900;  187.375;    0.000
631.121; 2433.900;  208.375;    0.000
631.240; 2624.900;  217.375;    0.000
631.359; 2598.900;  241.375;    0.000
631.477; 2507.900;  189.375;    0.000
631.596; 2445.900;  244.375;    0.000
631.715; 2480.900;  241.375;    0.000
631.834; 2597.900;  219.375;    0.000
631.952; 2510.900;  231.375;    0.000
632.071; 2505.900;  197.375;    0.000
632.190; 2530.900;  193.375;    0.000
632.308; 2557.900;  185.375;    0.000
632.427; 2514.900;  188.375;    0.000
632.546; 2502.900;  208.375;    0.000
632.664; 2504.900;  191.375;    0.000
632.783; 2524.900;  201.375;    0.000
632.901; 2460.900;  239.375;    0.000
633.020; 2526.900;  197.375;    0.000
633.138; 2514.900;  189.375;    0.000
633.257; 2523.900;  210.375;    0.000
633.375; 2445.900;  213.375;    0.000
633.494; 2433.900;  206.375;    0.000
633.612; 2524.900;  231.375;    0.000
633.731; 2554.900;  213.375;    0.000
633.849; 2541.900;  244.375;    0.000
633.968; 2492.900;  251.375;    0.000
634.086; 2480.900;  224.375;    0.000
634.204; 2503.900;  212.375;    0.000
634.323; 2420.900;  213.375;    0.000
634.441; 2516.900;  219.375;    0.000
634.559; 2453.900;  198.375;    0.000
634.678; 2479.900;  201.375;    0.000
634.796; 2481.900;  179.375;    0.000
634.914; 2513.900;  255.375;    0.000
635.032; 2497.900;  264.375;    0.000
635.151; 2402.900;  228.375;    0.000
635.269; 2459.900;  223.375;    0.000
635.387; 2484.900;  228.375;    0.000
635.505; 2500.900;  214.375;    0.000
635.623; 2572.900;  279.375;    0.000
635.742; 2512.900;  237.375;    0.000
635.860; 2477.900;  244.375;    0.000
635.978; 2469.900;  213.375;    0.000
636.096; 2493.900;  230.375;    0.000
636.214; 2437.900;  252.375;    0.000
636.332; 2425.900;  221.375;    0.000
636.450; 2422.900;  227.375;    0.000
636.568; 2506.900;  193.375;    0.000
636.686; 2480.900;  208.375;    0.000
636.804; 2476.900;  213.375;    0.000
636.922; 2510.900;  199.375;    0.000
637.040; 2462.900;  202.375;    0.000
637.158; 2472.900;  239.375;    0.000
637.276; 2505.900;  225.375;    0.000
637.394; 2467.900;  217.375;    0.000
637.512; 2438.900;  192.375;    0.000
637.629; 2496.900;  216.375;    0.000
637.747; 2449.900;  198.375;    0.000
637.865; 2504.900;  265.375;    0.000
637.983; 2491.900;  245.375;    0.000
638.101; 2480.900;  199.375;    0.000
638.218; 2445.900;  197.375;    0.000
638.336; 2510.900;  212.375;    0.000
638.454; 2491.900;  227.375;    0.000
638.572; 2487.900;  215.375;    0.000
638.689; 2511.900;  214.375;    0.000
638.807; 2482.900;  233.375;    0.000
638.925; 2546.900;  217.375;    0.000
639.042; 2481.900;  180.375;    0.000
639.160; 2401.900;  220.375;    0.000
639.278; 2459.900;  180.375;    0.000
639.395; 2500.900;  243.375;    0.000
639.513; 2422.900;  207.375;    0.000
639.630; 2448.900;  183.375;    0.000
639.748; 2446.900;  231.375;    0.000
639.865; 2505.900;  215.375;    0.000
639.983; 2447.900;  182.375;    0.000
640.100; 2472.900;  190.375;    0.000
640.218; 2455.900;  224.375;    0.000
640.335; 2432.900;  214.375;    0.000
640.453; 2476.900;  212.375;    0.000
640.570; 2497.900;  224.375;    0.000
640.688; 2507.900;  220.375;    0.000
640.805; 2447.900;  189.375;    0.000
640.922; 2423.900;  256.375;    0.000
641.040; 2473.900;  209.375;    0.000
641.157; 2476.900;  195.375;    0.000
641.274; 2463.900;  195.375;    0.000
641.391; 2527.900;  231.375;    0.000
641.509; 2431.900;  207.375;    0.000
641.626; 2612.900;  227.375;    0.000
641.743; 2505.900;  188.375;    0.000
641.860; 2459.900;  208.375;    0.000
641.978; 2495.900;  222.375;    0.000
642.095; 2465.900;  194.375;    0.000
642.212; 2469.900;  202.375;    0.000
642.329; 2448.900;  241.375;    0.000
642.446; 2489.900;  261.375;    0.000
642.563; 2477.900;  236.375;    0.000
642.681; 2432.900;  228.375;    0.000
642.798; 2528.900;  242.375;    0.000
642.915; 2485.900;  197.375;    0.000
643.032; 2490.900;  239.375;    0.000
643.149; 2524.900;  241.375;    0.000
643.266; 2421.900;  199.375;    0.000
643.383; 2477.900;  200.375;    0.000
643.500; 2544.900;  221.375;    0.000
643.617; 2540.900;  196.375;    0.000
643.734; 2477.900;  207.375;    0.000
643.850; 2530.900;  222.375;    0.000
643.967; 2520.900;  235.375;    0.000
644.084; 2573.900;  233.375;    0.000
644.201; 2593.900;  229.375;    0.000
644.318; 2568.900;  210.375;    0.000
644.435; 2626.900;  234.375;    0.000
644.552; 2489.900;  220.375;    0.000
644.668; 2598.900;  231.375;    0.000
644.785; 2540.900;  231.375;    0.000
644.902; 2569.900;  238.375;    0.000
645.019; 2570.900;  226.375;    0.000
645.135; 2598.900;  179.375;    0.000
645.252; 2574.900;  224.375;    0.000
645.369; 2599.900;  206.375;    0.000
645.485; 2614.900;  200.375;    0.000
645.602; 2608.900;  210.375;    0.000
645.719; 2654.900;  206.375;    0.000
645.835; 2634.900;  247.375;    0.000
645.952; 2773.900;  222.375;    0.000
646.068; 2622.900;  205.375;    0.000
646.185; 2739.900;  230.375;    0.000
646.302; 2754.900;  254.375;    0.000
646.418; 2656.900;  230.375;    0.000
646.535; 2690.900;  214.375;    0.000
646.651; 2706.900;  179.375;    0.000
646.768; 2685.900;  190.375;    0.000
646.884; 2762.900;  208.375;    0.000
647.000; 2765.900;  262.375;    0.000
647.117; 2834.900;  212.375;    0.000
647.233; 2812.900;  228.375;    0.000
647.350; 2808.900;  208.375;    0.000
647.466; 2814.900;  211.375;    0.000
647.582; 2818.900;  196.375;    0.000
647.699; 2700.900;  217.375;    0.000
647.815; 2813.900;  203.375;    0.000
647.931; 2823.900;  201.375;    0.000
648.047; 2798.900;  182.375;    0.000
648.164; 2908.900;  219.375;    0.000
648.280; 2875.900;  213.375;    0.000
648.396; 2814.900;  202.375;    0.000
648.512; 2891.900;  233.375;    0.000
648.629; 2898.900;  206.375;    0.000
648.745; 2995.900;  188.375;    0.000
648.861; 2861.900;  209.375;    0.000
648.977; 2908.900;  218.375;    0.000
649.093; 2987.900;  225.375;    0.000
649.209; 2918.900;  240.375;    0.000
649.325; 2959.900;  253.375;    0.000
649.441; 3006.900;  263.375;    0.000
649.557; 2929.900;  256.375;    0.000
649.673; 2957.900;  211.375;    0.000
649.789; 3024.900;  237.375;    0.000
649.905; 3019.900;  183.375;    0.000
650.021; 3134.900;  238.375;    0.000
650.137; 2972.900;  241.375;    0.000
650.253; 3034.900;  228.375;    0.000
650.369; 3001.900;  221.375;    0.000
650.485; 3075.900;  240.375;    0.000
650.601; 3132.900;  254.375;    0.000
650.717; 3059.900;  201.375;    0.000
650.833; 3118.900;  257.375;    0.000
650.948; 3094.900;  213.375;    0.000
651.064; 3113.900;  223.375;    0.000
651.180; 3259.900;  230.375;    0.000
651.296; 3163.900;  235.375;    0.000
651.411; 3120.900;  221.375;    0.000
651.527; 3324.900;  233.375;    0.000
651.643; 3326.900;  236.375;    0.000
651.759; 3241.900;  268.375;    0.000
651.874; 3393.900;  214.375;    0.000
651.990; 3463.900;  251.375;    0.000
652.105; 3393.900;  217.375;    0.000
652.221; 3424.900;  243.375;    0.000
652.337; 3448.900;  231.375;    0.000
652.452; 3564.900;  238.375;    0.000
652.568; 3517.900;  188.375;    0.000
652.683; 3638.900;  197.375;    0.000
652.799; 3639.900;  194.375;    0.000
652.914; 3553.900;  222.375;    0.000
653.030; 3637.900;  200.375;    0.000
653.145; 3684.900;  235.375;    0.000
653.261; 3736.900;  261.375;    0.000
653.376; 3751.900;  228.375;    0.000
653.492; 4040.900;  222.375;    0.000
653.607; 3960.900;  227.375;    0.000
653.722; 3995.900;  250.375;    0.000
653.838; 4095.900;  255.375;    0.000
653.953; 4155.900;  235.375;    0.000
654.068; 4281.900;  266.375;    0.000
654.184; 4395.900;  210.375;    0.000
654.299; 4483.900;  240.375;    0.000
654.414; 4647.900;  222.375;    0.000
654.530; 4655.900;  222.375;    0.000
654.645; 4870.900;  256.375;    0.000
654.760; 4891.900;  244.375;    0.000
654.875; 5069.900;  229.375;    0.000
654.990; 5287.900;  226.375;    0.000
655.106; 5487.900;  254.375;    0.000
655.221; 5644.900;  251.375;    0.000
655.336; 5785.900;  245.375;    0.000
655.451; 6030.900;  199.375;    0.000
655.566; 6193.900;  228.375;    0.000
655.681; 6533.900;  208.375;    0.000
655.796; 6935.900;  218.375;    0.000
655.911; 7308.900;  233.375;    0.000
656.026; 7686.900;  232.375;    0.000
656.141; 8226.900;  223.375;    0.000
656.256; 8618.900;  247.375;    0.000
656.371; 8693.900;  220.375;    0.000
656.486; 8597.900;  225.375;    0.000
656.601; 8216.900;  257.375;    0.000
656.716; 7946.900;  248.375;    0.000
656.831; 7682.900;  262.375;    0.000
656.946; 7468.900;  249.375;    0.000
657.060; 7078.900;  245.375;    0.000
657.175; 6751.900;  245.375;    0.000
657.290; 6614.900;  219.375;    0.000
657.405; 6544.900;  286.375;    0.000
657.520; 6207.900;  259.375;    0.000
657.634; 6066.900;  239.375;    0.000
657.749; 5907.900;  227.375;    0.000
657.864; 5820.900;  210.375;    0.000
657.979; 5507.900;  236.375;    0.000
658.093; 5387.900;  210.375;    0.000
658.208; 5178.900;  248.375;    0.000
658.323; 5247.900;  216.375;    0.000
658.437; 4935.900;  248.375;    0.000
658.552; 4901.900;  249.375;    0.000
658.666; 4895.900;  256.375;    0.000
658.781; 4752.900;  247.375;    0.000
658.895; 4589.900;  209.375;    0.000
659.010; 4473.900;  219.375;    0.000
659.125; 4488.900;  215.375;    0.000
659.239; 4305.900;  205.375;    0.000
659.353; 4261.900;  246.375;    0.000
659.468; 4254.900;  245.375;    0.000
659.582; 4166.900;  244.375;    0.000
659.697; 4151.900;  242.375;    0.000
659.811; 4116.900;  239.375;    0.000
659.926; 4000.900;  226.375;    0.000
660.040; 3938.900;  255.375;    0.000
660.154; 3930.900;  225.375;    0.000
660.269; 3925.900;  200.375;    0.000
660.383; 3825.900;  192.375;    0.000
660.497; 3723.900;  218.375;    0.000
660.612; 3730.900;  236.375;    0.000
660.726; 3604.900;  263.375;    0.000
660.840; 3618.900;  205.375;    0.000
660.954; 3578.900;  219.375;    0.000
661.068; 3509.900;  240.375;    0.000
661.183; 3574.900;  221.375;    0.000
661.297; 3365.900;  194.375;    0.000
661.411; 3454.900;  253.375;    0.000
661.525; 3424.900;  246.375;    0.000
661.639; 3342.900;  217.375;    0.000
661.753; 3274.900;  241.375;    0.000
661.867; 3194.900;  276.375;    0.000
661.981; 3196.900;  203.375;    0.000
662.095; 3229.900;  224.375;    0.000
662.209; 3100.900;  217.375;    0.000
662.323; 3048.900;  251.375;    0.000
662.437; 2952.900;  243.375;    0.000
662.551; 3019.900;  244.375;    0.000
662.665; 3012.900;  247.375;    0.000
662.779; 2943.900;  251.375;    0.000
662.893; 3029.900;  254.375;    0.000
663.007; 2919.900;  222.375;    0.000
663.121; 2985.900;  253.375;    0.000
663.235; 2835.900;  270.375;    0.000
663.349; 2851.900;  242.375;    0.000
663.462; 2922.900;  230.375;    0.000
663.576; 2795.900;  230.375;    0.000
663.690; 2806.900;  249.375;    0.000
663.804; 2765.900;  200.375;    0.000
663.917; 2757.900;  204.375;    0.000
664.031; 2732.900;  206.375;    0.000
664.145; 2725.900;  202.375;    0.000
664.258; 2686.900;  221.375;    0.000
664.372; 2596.900;  215.375;    0.000
664.486; 2660.900;  179.375;    0.000
664.599; 2717.900;  208.375;    0.000
664.713; 2700.900;  268.375;    0.000
664.827; 2606.900;  225.375;    0.000
664.940; 2627.900;  222.375;    0.000
665.054; 2629.900;  208.375;    0.000
665.167; 2614.900;  253.375;    0.000
665.281; 2545.900;  237.375;    0.000
665.394; 2516.900;  227.375;    0.000
665.508; 2493.900;  192.375;    0.000
665.621; 2512.900;  175.375;    0.000
665.735; 2464.900;  249.375;    0.000
665.848; 2498.900;  197.375;    0.000
665.961; 2485.900;  206.375;    0.000
666.075; 2458.900;  245.375;    0.000
666.188; 2407.900;  230.375;    0.000
666.301; 2405.900;  219.375;    0.000
666.415; 2452.900;  231.375;    0.000
666.528; 2388.900;  258.375;    0.000
666.641; 2346.900;  243.375;    0.000
666.755; 2345.900;  208.375;    0.000
666.868; 2434.900;  228.375;    0.000
666.981; 2447.900;  244.375;    0.000
667.094; 2357.900;  244.375;    0.000
667.207; 2310.900;  226.375;    0.000
667.321; 2284.900;  175.375;    0.000
667.434; 2232.900;  211.375;    0.000
667.547; 2343.900;  249.375;    0.000
667.660; 2262.900;  225.375;    0.000
667.773; 2300.900;  242.375;    0.000
667.886; 2235.900;  246.375;    0.000
667.999; 2217.900;  244.375;    0.000
668.112; 2215.900;  227.375;    0.000
668.225; 2266.900;  231.375;    0.000
668.338; 2237.900;  256.375;    0.000
668.451; 2271.900;  216.375;    0.000
668.564; 2248.900;  261.375;    0.000
668.677; 2143.900;  230.375;    0.000
668.790; 2226.900;  192.375;    0.000
668.903; 2188.900;  243.375;    0.000
669.016; 2197.900;  201.375;    0.000
669.129; 2153.900;  249.375;    0.000
669.242; 2171.900;  190.375;    0.000
669.354; 2160.900;  219.375;    0.000
669.467; 2167.900;  242.375;    0.000
669.580; 2206.900;  237.375;    0.000
669.693; 2078.900;  243.375;    0.000
669.806; 2121.900;  234.375;    0.000
669.918; 2067.900;  206.375;    0.000
670.031; 2159.900;  258.375;    0.000
670.144; 2184.900;  231.375;    0.000
670.256; 2050.900;  244.375;    0.000
670.369; 2070.900;  262.375;    0.000
670.482; 2133.900;  264.375;    0.000
670.594; 2101.900;  256.375;    0.000
670.707; 2055.900;  224.375;    0.000
670.820; 2062.900;  261.375;    0.000
670.932; 2062.900;  226.375;    0.000
671.045; 2036.900;  243.375;    0.000
671.157; 2088.900;  235.375;    0.000
671.270; 2019.900;  217.375;    0.000
671.382; 2066.900;  267.375;    0.000
671.495; 2028.900;  258.375;    0.000
671.607; 2013.900;  236.375;    0.000
671.720; 2029.900;  200.375;    0.000
671.832; 2003.900;  219.375;    0.000
671.944; 2000.900;  234.375;    0.000
672.057; 2031.900;  226.375;    0.000
672.169; 2000.900;  225.375;    0.000
672.281; 2056.900;  253.375;    0.000
672.394; 2019.900;  238.375;    0.000
672.506; 1975.900;  244.375;    0.000
672.618; 2047.900;  272.375;    0.000
672.731; 2015.900;  247.375;    0.000
672.843; 2023.900;  261.375;    0.000
672.955; 2047.900;  262.375;    0.000
673.067; 2005.900;  253.375;    0.000
673.180; 2007.900;  239.375;    0.000
673.292; 1973.900;  240.375;    0.000
673.404; 2009.900;  243.375;    0.000
673.516; 2001.900;  258.375;    0.000
673.628; 1976.900;  263.375;    0.000
673.740; 1951.900;  250.375;    0.000
673.852; 2016.900;  285.375;    0.000
673.964; 1958.900;  264.375;    0.000
674.076; 1908.900;  260.375;    0.000
674.188; 1885.900;  226.375;    0.000
674.300; 1905.900;  272.375;    0.000
674.412; 1983.900;  259.375;    0.000
674.524; 1896.900;  283.375;    0.000
674.636; 1909.900;  259.375;    0.000
674.748; 1886.900;  238.375;    0.000
674.860; 1910.900;  277.375;    0.000
674.972; 1969.900;  272.375;    0.000
675.084; 1889.900;  244.375;    0.000
675.196; 1954.900;  272.375;    0.000
675.307; 1954.900;  244.375;    0.000
675.419; 1850.900;  219.375;    0.000
675.531; 1992.900;  275.375;    0.000
675.643; 1994.900;  215.375;    0.000
675.755; 1920.900;  243.375;    0.000
675.866; 1846.900;  223.375;    0.000
675.978; 1936.900;  216.375;    0.000
676.090; 1823.900;  242.375;    0.000
676.201; 1852.900;  276.375;    0.000
676.313; 1839.900;  226.375;    0.000
676.425; 1844.900;  234.375;    0.000
676.536; 1837.900;  231.375;    0.000
676.648; 1827.900;  254.375;    0.000
676.759; 1857.900;  273.375;    0.000
676.871; 1801.900;  250.375;    0.000
676.983; 1895.900;  256.375;    0.000
677.094; 1830.900;  210.375;    0.000
677.206; 1815.900;  248.375;    0.000
677.317; 1860.900;  263.375;    0.000
677.429; 1794.900;  238.375;    0.000
677.540; 1777.900;  247.375;    0.000
677.651; 1758.900;  224.375;    0.000
677.763; 1825.900;  217.375;    0.000
677.874; 1761.900;  234.375;    0.000
677.986; 1764.900;  238.375;    0.000
678.097; 1758.900;  226.375;    0.000
678.208; 1800.900;  253.375;    0.000
678.320; 1860.900;  217.375;    0.000
678.431; 1772.900;  238.375;    0.000
678.542; 1777.900;  236.375;    0.000
678.653; 1728.900;  218.375;    0.000
678.765; 1745.900;  275.375;    0.000
678.876; 1793.900;  213.375;    0.000
678.987; 1727.900;  182.375;    0.000
679.098; 1786.900;  221.375;    0.000
679.209; 1723.900;  238.375;    0.000
679.320; 1746.900;  212.375;    0.000
679.432; 1782.900;  231.375;    0.000
679.543; 1797.900;  198.375;    0.000
679.654; 1760.900;  191.375;    0.000
679.765; 1777.900;  214.375;    0.000
679.876; 1778.900;  221.375;    0.000
679.987; 1736.900;  162.375;    0.000
680.098; 1804.900;  230.375;    0.000
680.209; 1761.900;  206.375;    0.000
680.320; 1726.900;  196.375;    0.000
680.431; 1728.900;  191.375;    0.000
680.542; 1777.900;  214.375;    0.000
680.653; 1675.900;  238.375;    0.000
680.763; 1674.900;  182.375;    0.000
680.874; 1720.900;  213.375;    0.000
680.985; 1699.900;  224.375;    0.000
681.096; 1730.900;  222.375;    0.000
681.207; 1711.900;  220.375;    0.000
681.318; 1738.900;  216.375;    0.000
681.428; 1721.900;  229.375;    0.000
681.539; 1685.900;  183.375;    0.000
681.650; 1720.900;  202.375;    0.000
681.760; 1707.900;  223.375;    0.000
681.871; 1718.900;  211.375;    0.000
681.982; 1696.900;  189.375;    0.000
682.093; 1688.900;  222.375;    0.000
682.203; 1713.900;  220.375;    0.000
682.314; 1681.900;  214.375;    0.000
682.424; 1738.900;  208.375;    0.000
682.535; 1647.900;  213.375;    0.000
682.646; 1733.900;  302.375;    0.000
682.756; 1652.900;  255.375;    0.000
682.867; 1710.900;  244.375;    0.000
682.977; 1690.900;  221.375;    0.000
683.088; 1675.900;  259.375;    0.000
683.198; 1720.900;  212.375;    0.000
683.308; 1655.900;  202.375;    0.000
683.419; 1662.900;  255.375;    0.000
683.529; 1690.900;  217.375;    0.000
683.640; 1709.900;  240.375;    0.000
683.750; 1699.900;  181.375;    0.000
683.860; 1681.900;  246.375;    0.000
683.971; 1692.900;  254.375;    0.000
684.081; 1668.900;  235.375;    0.000
684.191; 1672.900;  251.375;    0.000
684.301; 1697.900;  233.375;    0.000
684.412; 1726.900;  202.375;    0.000
684.522; 1729.900;  232.375;    0.000
684.632; 1613.900;  202.375;    0.000
684.742; 1655.900;  254.375;    0.000
684.852; 1620.900;  219.375;    0.000
684.963; 1616.900;  256.375;    0.000
685.073; 1666.900;  253.375;    0.000
685.183; 1712.900;  254.375;    0.000
685.293; 1663.900;  232.375;    0.000
685.403; 1701.900;  242.375;    0.000
685.513; 1689.900;  261.375;    0.000
685.623; 1684.900;  245.375;    0.000
685.733; 1595.900;  254.375;    0.000
685.843; 1627.900;  249.375;    0.000
685.953; 1708.900;  252.375;    0.000
686.063; 1660.900;  227.375;    0.000
686.173; 1635.900;  223.375;    0.000
686.283; 1657.900;  234.375;    0.000
686.393; 1599.900;  239.375;    0.000
686.503; 1605.900;  231.375;    0.000
686.612; 1675.900;  232.375;    0.000
686.722; 1675.900;  258.375;    0.000
686.832; 1668.900;  256.375;    0.000
686.942; 1655.900;  230.375;    0.000
687.052; 1602.900;  274.375;    0.000
687.161; 1667.900;  269.375;    0.000
687.271; 1667.900;  218.375;    0.000
687.381; 1639.900;  235.375;    0.000
687.491; 1671.900;  262.375;    0.000
687.600; 1610.900;  256.375;    0.000
687.710; 1697.900;  225.375;    0.000
687.820; 1617.900;  230.375;    0.000
687.929; 1643.900;  226.375;    0.000
688.039; 1673.900;  228.375;    0.000
688.148; 1628.900;  249.375;    0.000
688.258; 1660.900;  237.375;    0.000
688.367; 1578.900;  260.375;    0.000
688.477; 1605.900;  200.375;    0.000
688.586; 1570.900;  223.375;    0.000
688.696; 1627.900;  223.375;    0.000
688.805; 1593.900;  257.375;    0.000
688.915; 1612.900;  185.375;    0.000
689.024; 1648.900;  227.375;    0.000
689.134; 1642.900;  224.375;    0.000
689.243; 1567.900;  206.375;    0.000
689.352; 1590.900;  275.375;    0.000
689.462; 1619.900;  233.375;    0.000
689.571; 1597.900;  244.375;    0.000
689.680; 1622.900;  261.375;    0.000
689.790; 1547.900;  192.375;    0.000
689.899; 1598.900;  214.375;    0.000
690.008; 1631.900;  255.375;    0.000
690.117; 1584.900;  219.375;    0.000
690.227; 1624.900;  241.375;    0.000
690.336; 1647.900;  231.375;    0.000
690.445; 1534.900;  212.375;    0.000
690.554; 1655.900;  234.375;    0.000
690.663; 1601.900;  210.375;    0.000
690.772; 1625.900;  221.375;    0.000
690.881; 1519.900;  244.375;    0.000
690.990; 1636.900;  247.375;    0.000
691.099; 1531.900;  222.375;    0.000
691.209; 1622.900;  240.375;    0.000
691.318; 1620.900;  223.375;    0.000
691.427; 1569.900;  217.375;    0.000
691.536; 1601.900;  216.375;    0.000
691.644; 1581.900;  194.375;    0.000
691.753; 1652.900;  221.375;    0.000
691.862; 1559.900;  224.375;    0.000
691.971; 1584.900;  191.375;    0.000
692.080; 1610.900;  247.375;    0.000
692.189; 1598.900;  208.375;    0.000
692.298; 1585.900;  203.375;    0.000
692.406; 1619.900;  239.375;    0.000
692.515; 1673.900;  250.375;    0.000
692.624; 1500.900;  226.375;    0.000
692.733; 1630.900;  229.375;    0.000
692.842; 1596.900;  254.375;    0.000
692.950; 1525.900;  242.375;    0.000
693.059; 1600.900;  204.375;    0.000
693.168; 1609.900;  252.375;    0.000
693.276; 1566.900;  195.375;    0.000
693.385; 1615.900;  228.375;    0.000
693.494; 1624.900;  282.375;    0.000
693.602; 1627.900;  221.375;    0.000
693.711; 1562.900;  225.375;    0.000
693.819; 1648.900;  234.375;    0.000
693.928; 1545.900;  229.375;    0.000
694.036; 1595.900;  192.375;    0.000
694.145; 1591.900;  233.375;    0.000
694.253; 1588.900;  277.375;    0.000
694.362; 1519.900;  188.375;    0.000
694.470; 1564.900;  263.375;    0.000
694.579; 1507.900;  253.375;    0.000
694.687; 1619.900;  281.375;    0.000
694.795; 1499.900;  233.375;    0.000
694.904; 1569.900;  223.375;    0.000
695.012; 1575.900;  296.375;    0.000
695.120; 1579.900;  227.375;    0.000
695.229; 1623.900;  269.375;    0.000
695.337; 1511.900;  229.375;    0.000
695.445; 1552.900;  244.375;    0.000
695.553; 1623.900;  259.375;    0.000
695.662; 1557.900;  208.375;    0.000
695.770; 1593.900;  241.375;    0.000
695.878; 1567.900;  239.375;    0.000
695.986; 1571.900;  247.375;    0.000
696.094; 1595.900;  224.375;    0.000
696.202; 1526.900;  205.375;    0.000
696.310; 1672.900;  217.375;    0.000
696.419; 1583.900;  228.375;    0.000
696.527; 1565.900;  246.375;    0.000
696.635; 1631.900;  245.375;    0.000
696.743; 1614.900;  233.375;    0.000
696.851; 1609.900;  251.375;    0.000
696.959; 1593.900;  257.375;    0.000
697.067; 1550.900;  260.375;    0.000
697.174; 1557.900;  223.375;    0.000
697.282; 1600.900;  239.375;    0.000
697.390; 1538.900;  264.375;    0.000
697.498; 1538.900;  227.375;    0.000
697.606; 1484.900;  243.375;    0.000
697.714; 1482.900;  256.375;    0.000
697.822; 1553.900;  278.375;    0.000
697.929; 1462.900;  227.375;    0.000
698.037; 1508.900;  232.375;    0.000
698.145; 1555.900;  256.375;    0.000
698.253; 1494.900;  245.375;    0.000
698.360; 1604.900;  282.375;    0.000
698.468; 1584.900;  244.375;    0.000
698.576; 1571.900;  279.375;    0.000
698.683; 1553.900;  259.375;    0.000
698.791; 1570.900;  265.375;    0.000
698.899; 1561.900;  250.375;    0.000
699.006; 1605.900;  245.375;    0.000
699.114; 1595.900;  280.375;    0.000
699.221; 1558.900;  240.375;    0.000
699.329; 1576.900;  293.375;    0.000
699.436; 1530.900;  216.375;    0.000
699.544; 1542.900;  269.375;    0.000
699.651; 1519.900;  219.375;    0.000
699.759; 1530.900;  245.375;    0.000
699.866; 1553.900;  261.375;    0.000
699.974; 1506.900;  245.375;    0.000
700.081; 1474.900;  257.375;    0.000
700.188; 1617.900;  268.375;    0.000
700.296; 1556.900;  225.375;    0.000
700.403; 1508.900;  257.375;    0.000
700.510; 1528.900;  267.375;    0.000
700.618; 1542.900;  299.375;    0.000
700.725; 1494.900;  223.375;    0.000
700.832; 1549.900;  233.375;    0.000
700.940; 1531.900;  255.375;    0.000
701.047; 1519.900;  244.375;    0.000
701.154; 1528.900;  248.375;    0.000
701.261; 1544.900;  264.375;    0.000
701.368; 1522.900;  299.375;    0.000
701.475; 1543.900;  264.375;    0.000
701.582; 1533.900;  275.375;    0.000
701.690; 1531.900;  261.375;    0.000
701.797; 1555.900;  273.375;    0.000
701.904; 1602.900;  320.375;    0.000
702.011; 1569.900;  299.375;    0.000
702.118; 1554.900;  292.375;    0.000
702.225; 1617.900;  317.375;    0.000
702.332; 1579.900;  307.375;    0.000
702.439; 1486.900;  313.375;    0.000
702.546; 1594.900;  312.375;    0.000
702.652; 1620.900;  297.375;    0.000
702.759; 1668.900;  345.375;    0.000
702.866; 1523.900;  330.375;    0.000
702.973; 1632.900;  303.375;    0.000
703.080; 1560.900;  303.375;    0.000
703.187; 1575.900;  327.375;    0.000
703.294; 1527.900;  325.375;    0.000
703.400; 1423.900;  302.375;    0.000
703.507;  483.900;  344.375;    0.000
703.614;  313.900;  294.375;    0.000
703.720;  347.900;  322.375;    0.000
703.827;  345.900;  329.375;    0.000
703.934;  327.900;  318.375;    0.000
704.040;  283.900;  299.375;    0.000
704.147;  322.900;  352.375;    0.000
704.254;  329.900;  350.375;    0.000
704.360;  288.900;  347.375;    0.000
704.467;  347.900;  336.375;    0.000
704.573;  317.900;  344.375;    0.000
704.680;  332.900;  365.375;    0.000
704.786;  334.900;  332.375;    0.000
704.893;  349.900;  304.375;    0.000
704.999;  333.900;  299.375;    0.000
705.106;  324.900;  365.375;    0.000

