
Integration time [ms]:   1.000
Averaging Nr. [scans]: 1
Smoothing Nr. [pixels]: 0
Data measured with spectrometer [name]: VIS
Wave   ;Sample   ;Dark     ;Reference
[nm]   ;[counts] ;[counts] ;[counts] 

450.961;  187.125;  200.375;    0.000
451.100;  236.125;  241.375;    0.000
451.239;  194.125;  201.375;    0.000
451.377;  211.125;  262.375;    0.000
451.516;  189.125;  229.375;    0.000
451.655;  182.125;  211.375;    0.000
451.794;  194.125;  225.375;    0.000
451.932;  233.125;  247.375;    0.000
452.071;  236.125;  260.375;    0.000
452.210;  229.125;  235.375;    0.000
452.348;  241.125;  276.375;    0.000
452.487;  249.125;  259.375;    0.000
452.626;  225.125;  254.375;    0.000
452.764;  230.125;  233.375;    0.000
452.903;  239.125;  202.375;    0.000
453.042;  237.125;  211.375;    0.000
453.180; 1985.125;  240.375;    0.000
453.319; 2071.125;  238.375;    0.000
453.458; 2025.125;  215.375;    0.000
453.596; 2030.125;  252.375;    0.000
453.735; 2035.125;  240.375;    0.000
453.873; 2101.125;  257.375;    0.000
454.012; 2064.125;  228.375;    0.000
454.150; 2165.125;  270.375;    0.000
454.289; 2155.125;  233.375;    0.000
454.427; 2104.125;  243.375;    0.000
454.566; 2185.125;  257.375;    0.000
454.704; 2124.125;  243.375;    0.000
454.843; 2137.125;  190.375;    0.000
454.981; 2212.125;  271.375;    0.000
455.120; 2138.125;  210.375;    0.000
455.258; 2279.125;  235.375;    0.000
455.397; 2236.125;  214.375;    0.000
455.535; 2201.125;  214.375;    0.000
455.674; 2268.125;  184.375;    0.000
455.812; 2347.125;  228.375;    0.000
455.951; 2322.125;  204.375;    0.000
456.089; 2328.125;  220.375;    0.000
456.227; 2291.125;  196.375;    0.000
456.366; 2404.125;  261.375;    0.000
456.504; 2408.125;  249.375;    0.000
456.642; 2447.125;  245.375;    0.000
456.781; 2348.125;  183.375;    0.000
456.919; 2468.125;  203.375;    0.000
457.057; 2450.125;  177.375;    0.000
457.196; 2614.125;  191.375;    0.000
457.334; 2606.125;  233.375;    0.000
457.472; 2616.125;  214.375;    0.000
457.610; 2736.125;  230.375;    0.000
457.749; 2675.125;  247.375;    0.000
457.887; 2681.125;  220.375;    0.000
458.025; 2765.125;  195.375;    0.000
458.163; 2762.125;  224.375;    0.000
458.301; 2910.125;  228.375;    0.000
458.440; 2832.125;  200.375;    0.000
458.578; 2907.125;  233.375;    0.000
458.716; 2955.125;  182.375;    0.000
458.854; 2979.125;  251.375;    0.000
458.992; 2943.125;  187.375;    0.000
459.130; 2984.125;  229.375;    0.000
459.269; 3172.125;  237.375;    0.000
459.407; 3170.125;  228.375;    0.000
459.545; 3172.125;  216.375;    0.000
459.683; 3168.125;  204.375;    0.000
459.821; 3224.125;  191.375;    0.000
459.959; 3216.125;  227.375;    0.000
460.097; 3277.125;  221.375;    0.000
460.235; 3298.125;  241.375;    0.000
460.373; 3322.125;  231.375;    0.000
460.511; 3330.125;  214.375;    0.000
460.649; 3410.125;  172.375;    0.000
460.787; 3341.125;  275.375;    0.000
460.925; 3441.125;  175.375;    0.000
461.063; 3581.125;  252.375;    0.000
461.201; 3421.125;  210.375;    0.000
461.339; 3411.125;  237.375;    0.000
461.477; 3465.125;  210.375;    0.000
461.615; 3573.125;  236.375;    0.000
461.753; 3625.125;  215.375;    0.000
461.891; 3635.125;  222.375;    0.000
462.029; 3704.125;  227.375;    0.000
462.166; 3855.125;  202.375;    0.000
462.304; 3735.125;  191.375;    0.000
462.442; 3789.125;  210.375;    0.000
462.580; 3848.125;  184.375;    0.000
462.718; 3932.125;  220.375;    0.000
462.856; 3842.125;  226.375;    0.000
462.993; 3960.125;  254.375;    0.000
463.131; 3969.125;  200.375;    0.000
463.269; 3914.125;  215.375;    0.000
463.407; 3770.125;  213.375;    0.000
463.545; 3627.125;  242.375;    0.000
463.682; 3740.125;  212.375;    0.000
463.820; 3983.125;  185.375;    0.000
463.958; 4191.125;  212.375;    0.000
464.095; 4071.125;  181.375;    0.000
464.233; 4132.125;  192.375;    0.000
464.371; 4082.125;  247.375;    0.000
464.509; 4144.125;  151.375;    0.000
464.646; 4084.125;  207.375;    0.000
464.784; 4062.125;  199.375;    0.000
464.921; 4050.125;  253.375;    0.000
465.059; 3973.125;  214.375;    0.000
465.197; 3978.125;  200.375;    0.000
465.334; 3720.125;  180.375;    0.000
465.472; 3729.125;  204.375;    0.000
465.609; 3775.125;  203.375;    0.000
465.747; 3595.125;  214.375;    0.000
465.885; 3623.125;  233.375;    0.000
466.022; 3612.125;  215.375;    0.000
466.160; 3557.125;  201.375;    0.000
466.297; 3572.125;  196.375;    0.000
466.435; 3554.125;  230.375;    0.000
466.572; 3602.125;  227.375;    0.000
466.710; 3554.125;  218.375;    0.000
466.847; 3533.125;  245.375;    0.000
466.985; 3524.125;  223.375;    0.000
467.122; 3495.125;  168.375;    0.000
467.260; 3531.125;  196.375;    0.000
467.397; 3529.125;  198.375;    0.000
467.534; 3531.125;  219.375;    0.000
467.672; 3548.125;  214.375;    0.000
467.809; 3416.125;  185.375;    0.000
467.947; 3542.125;  247.375;    0.000
468.084; 3429.125;  196.375;    0.000
468.221; 3500.125;  238.375;    0.000
468.359; 3466.125;  236.375;    0.000
468.496; 3484.125;  235.375;    0.000
468.633; 3457.125;  218.375;    0.000
468.771; 3475.125;  223.375;    0.000
468.908; 3494.125;  208.375;    0.000
469.045; 3511.125;  249.375;    0.000
469.183; 3614.125;  222.375;    0.000
469.320; 3611.125;  216.375;    0.000
469.457; 3722.125;  224.375;    0.000
469.594; 3699.125;  259.375;    0.000
469.732; 3658.125;  223.375;    0.000
469.869; 3799.125;  234.375;    0.000
470.006; 3702.125;  225.375;    0.000
470.143; 3721.125;  243.375;    0.000
470.280; 3846.125;  208.375;    0.000
470.417; 3873.125;  232.375;    0.000
470.555; 3808.125;  218.375;    0.000
470.692; 3759.125;  223.375;    0.000
470.829; 3777.125;  238.375;    0.000
470.966; 3725.125;  205.375;    0.000
471.103; 3749.125;  259.375;    0.000
471.240; 3716.125;  214.375;    0.000
471.377; 3796.125;  226.375;    0.000
471.514; 3677.125;  250.375;    0.000
471.651; 3733.125;  221.375;    0.000
471.789; 3665.125;  242.375;    0.000
471.926; 3602.125;  190.375;    0.000
472.063; 3610.125;  234.375;    0.000
472.200; 3693.125;  252.375;    0.000
472.337; 3677.125;  241.375;    0.000
472.474; 3697.125;  244.375;    0.000
472.611; 3641.125;  268.375;    0.000
472.748; 3569.125;  222.375;    0.000
472.884; 3597.125;  271.375;    0.000
473.021; 3625.125;  195.375;    0.000
473.158; 3535.125;  205.375;    0.000
473.295; 3533.125;  223.375;    0.000
473.432; 3583.125;  216.375;    0.000
473.569; 3549.125;  196.375;    0.000
473.706; 3577.125;  190.375;    0.000
473.843; 3568.125;  211.375;    0.000
473.980; 3517.125;  254.375;    0.000
474.117; 3586.125;  185.375;    0.000
474.253; 3597.125;  229.375;    0.000
474.390; 3493.125;  238.375;    0.000
474.527; 3652.125;  220.375;    0.000
474.664; 3593.125;  242.375;    0.000
474.801; 3569.125;  229.375;    0.000
474.937; 3595.125;  229.375;    0.000
475.074; 3567.125;  210.375;    0.000
475.211; 3632.125;  219.375;    0.000
475.348; 3675.125;  226.375;    0.000
475.484; 3687.125;  207.375;    0.000
475.621; 3588.125;  233.375;    0.000
475.758; 3688.125;  230.375;    0.000
475.894; 3676.125;  234.375;    0.000
476.031; 3712.125;  202.375;    0.000
476.168; 3698.125;  222.375;    0.000
476.304; 3676.125;  237.375;    0.000
476.441; 3698.125;  238.375;    0.000
476.578; 3662.125;  216.375;    0.000
476.714; 3740.125;  212.375;    0.000
476.851; 3727.125;  210.375;    0.000
476.987; 3764.125;  239.375;    0.000
477.124; 3839.125;  250.375;    0.000
477.261; 3885.125;  227.375;    0.000
477.397; 3852.125;  189.375;    0.000
477.534; 3786.125;  204.375;    0.000
477.670; 3884.125;  190.375;    0.000
477.807; 3956.125;  198.375;    0.000
477.943; 4019.125;  216.375;    0.000
478.080; 3914.125;  213.375;    0.000
478.216; 4001.125;  239.375;    0.000
478.353; 4012.125;  218.375;    0.000
478.489; 4020.125;  184.375;    0.000
478.626; 3992.125;  223.375;    0.000
478.762; 4115.125;  213.375;    0.000
478.898; 4163.125;  216.375;    0.000
479.035; 4216.125;  250.375;    0.000
479.171; 4042.125;  201.375;    0.000
479.308; 4016.125;  242.375;    0.000
479.444; 4186.125;  205.375;    0.000
479.580; 4056.125;  203.375;    0.000
479.717; 4200.125;  260.375;    0.000
479.853; 4045.125;  225.375;    0.000
479.989; 4234.125;  226.375;    0.000
480.126; 4247.125;  211.375;    0.000
480.262; 4182.125;  220.375;    0.000
480.398; 4196.125;  207.375;    0.000
480.535; 4321.125;  179.375;    0.000
480.671; 4197.125;  200.375;    0.000
480.807; 4204.125;  190.375;    0.000
480.943; 4245.125;  165.375;    0.000
481.080; 4218.125;  210.375;    0.000
481.216; 4145.125;  232.375;    0.000
481.352; 4011.125;  235.375;    0.000
481.488; 4098.125;  208.375;    0.000
481.624; 4037.125;  245.375;    0.000
481.760; 3979.125;  210.375;    0.000
481.897; 3939.125;  189.375;    0.000
482.033; 4084.125;  256.375;    0.000
482.169; 4117.125;  257.375;    0.000
482.305; 3995.125;  199.375;    0.000
482.441; 4046.125;  182.375;    0.000
482.577; 4074.125;  223.375;    0.000
482.713; 4196.125;  243.375;    0.000
482.849; 4051.125;  197.375;    0.000
482.985; 4138.125;  240.375;    0.000
483.121; 4147.125;  210.375;    0.000
483.258; 4115.125;  248.375;    0.000
483.394; 4030.125;  224.375;    0.000
483.530; 4142.125;  209.375;    0.000
483.665; 4119.125;  225.375;    0.000
483.801; 4040.125;  216.375;    0.000
483.937; 4092.125;  211.375;    0.000
484.073; 4183.125;  259.375;    0.000
484.209; 4105.125;  191.375;    0.000
484.345; 4138.125;  239.375;    0.000
484.481; 4192.125;  231.375;    0.000
484.617; 4216.125;  216.375;    0.000
484.753; 4268.125;  180.375;    0.000
484.889; 4361.125;  252.375;    0.000
485.025; 4245.125;  244.375;    0.000
485.161; 4194.125;  242.375;    0.000
485.296; 4308.125;  235.375;    0.000
485.432; 4246.125;  247.375;    0.000
485.568; 4291.125;  203.375;    0.000
485.704; 4279.125;  229.375;    0.000
485.840; 4373.125;  230.375;    0.000
485.975; 4268.125;  266.375;    0.000
486.111; 4255.125;  220.375;    0.000
486.247; 4344.125;  264.375;    0.000
486.383; 4408.125;  213.375;    0.000
486.518; 4341.125;  222.375;    0.000
486.654; 4244.125;  244.375;    0.000
486.790; 4310.125;  273.375;    0.000
486.926; 4286.125;  203.375;    0.000
487.061; 4172.125;  227.375;    0.000
487.197; 4277.125;  210.375;    0.000
487.333; 4230.125;  209.375;    0.000
487.468; 4199.125;  197.375;    0.000
487.604; 4253.125;  230.375;    0.000
487.740; 4170.125;  254.375;    0.000
487.875; 4305.125;  286.375;    0.000
488.011; 4241.125;  225.375;    0.000
488.146; 4246.125;  251.375;    0.000
488.282; 4237.125;  242.375;    0.000
488.417; 4211.125;  230.375;    0.000
488.553; 4213.125;  260.375;    0.000
488.688; 4187.125;  207.375;    0.000
488.824; 4195.125;  204.375;    0.000
488.960; 4355.125;  248.375;    0.000
489.095; 4240.125;  204.375;    0.000
489.230; 4245.125;  227.375;    0.000
489.366; 4256.125;  226.375;    0.000
489.501; 4234.125;  199.375;    0.000
489.637; 4296.125;  233.375;    0.000
489.772; 4314.125;  249.375;    0.000
489.908; 4227.125;  200.375;    0.000
490.043; 4208.125;  246.375;    0.000
490.178; 4247.125;  222.375;    0.000
490.314; 4196.125;  219.375;    0.000
490.449; 4211.125;  227.375;    0.000
490.585; 4220.125;  209.375;    0.000
490.720; 4228.125;  238.375;    0.000
490.855; 4230.125;  222.375;    0.000
490.991; 4144.125;  202.375;    0.000
491.126; 4304.125;  272.375;    0.000
491.261; 4256.125;  261.375;    0.000
491.396; 4226.125;  190.375;    0.000
491.532; 4083.125;  202.375;    0.000
491.667; 4146.125;  208.375;    0.000
491.802; 4156.125;  203.375;    0.000
491.937; 4126.125;  253.375;    0.000
492.073; 4331.125;  242.375;    0.000
492.208; 4206.125;  230.375;    0.000
492.343; 4235.125;  183.375;    0.000
492.478; 4162.125;  246.375;    0.000
492.613; 4229.125;  223.375;    0.000
492.749; 4226.125;  230.375;    0.000
492.884; 4253.125;  190.375;    0.000
493.019; 4244.125;  234.375;    0.000
493.154; 4341.125;  218.375;    0.000
493.289; 4315.125;  222.375;    0.000
493.424; 4231.125;  196.375;    0.000
493.559; 4155.125;  202.375;    0.000
493.694; 4176.125;  180.375;    0.000
493.829; 4337.125;  224.375;    0.000
493.964; 4344.125;  218.375;    0.000
494.099; 4404.125;  275.375;    0.000
494.234; 4222.125;  226.375;    0.000
494.369; 4242.125;  225.375;    0.000
494.504; 4291.125;  219.375;    0.000
494.639; 4114.125;  296.375;    0.000
494.774; 4302.125;  228.375;    0.000
494.909; 4189.125;  222.375;    0.000
495.044; 4233.125;  215.375;    0.000
495.179; 4174.125;  200.375;    0.000
495.314; 4241.125;  235.375;    0.000
495.449; 4313.125;  249.375;    0.000
495.584; 4163.125;  228.375;    0.000
495.719; 4233.125;  212.375;    0.000
495.854; 4195.125;  201.375;    0.000
495.988; 4197.125;  248.375;    0.000
496.123; 4283.125;  209.375;    0.000
496.258; 4334.125;  249.375;    0.000
496.393; 4403.125;  223.375;    0.000
496.528; 4474.125;  209.375;    0.000
496.663; 4387.125;  207.375;    0.000
496.797; 4434.125;  229.375;    0.000
496.932; 4399.125;  225.375;    0.000
497.067; 4532.125;  218.375;    0.000
497.202; 4439.125;  163.375;    0.000
497.336; 4506.125;  246.375;    0.000
497.471; 4659.125;  229.375;    0.000
497.606; 4656.125;  251.375;    0.000
497.740; 4760.125;  220.375;    0.000
497.875; 4762.125;  216.375;    0.000
498.010; 4935.125;  226.375;    0.000
498.144; 4948.125;  237.375;    0.000
498.279; 5088.125;  196.375;    0.000
498.414; 5044.125;  219.375;    0.000
498.548; 5053.125;  205.375;    0.000
498.683; 5292.125;  206.375;    0.000
498.817; 5422.125;  225.375;    0.000
498.952; 5538.125;  221.375;    0.000
499.087; 5618.125;  220.375;    0.000
499.221; 5813.125;  233.375;    0.000
499.356; 5986.125;  230.375;    0.000
499.490; 6193.125;  229.375;    0.000
499.625; 6489.125;  231.375;    0.000
499.759; 6553.125;  243.375;    0.000
499.894; 6817.125;  241.375;    0.000
500.028; 7215.125;  264.375;    0.000
500.162; 7373.125;  287.375;    0.000
500.297; 7465.125;  234.375;    0.000
500.431; 7511.125;  230.375;    0.000
500.566; 7535.125;  213.375;    0.000
500.700; 7466.125;  243.375;    0.000
500.835; 7241.125;  272.375;    0.000
500.969; 6895.125;  188.375;    0.000
501.103; 6684.125;  200.375;    0.000
501.238; 6538.125;  257.375;    0.000
501.372; 6379.125;  224.375;    0.000
501.506; 6117.125;  225.375;    0.000
501.641; 5704.125;  271.375;    0.000
501.775; 5626.125;  199.375;    0.000
501.909; 5471.125;  249.375;    0.000
502.043; 5442.125;  211.375;    0.000
502.178; 5207.125;  269.375;    0.000
502.312; 5164.125;  198.375;    0.000
502.446; 5063.125;  256.375;    0.000
502.580; 5004.125;  195.375;    0.000
502.715; 4867.125;  224.375;    0.000
502.849; 4732.125;  245.375;    0.000
502.983; 4790.125;  250.375;    0.000
503.117; 4612.125;  193.375;    0.000
503.251; 4692.125;  242.375;    0.000
503.385; 4484.125;  227.375;    0.000
503.520; 4310.125;  235.375;    0.000
503.654; 4411.125;  220.375;    0.000
503.788; 4358.125;  267.375;    0.000
503.922; 4308.125;  220.375;    0.000
504.056; 4334.125;  238.375;    0.000
504.190; 4227.125;  212.375;    0.000
504.324; 4340.125;  265.375;    0.000
504.458; 4237.125;  228.375;    0.000
504.592; 4190.125;  231.375;    0.000
504.726; 4201.125;  218.375;    0.000
504.860; 4086.125;  253.375;    0.000
504.994; 4118.125;  217.375;    0.000
505.128; 4037.125;  243.375;    0.000
505.262; 3907.125;  194.375;    0.000
505.396; 3805.125;  210.375;    0.000
505.530; 3787.125;  211.375;    0.000
505.664; 3851.125;  219.375;    0.000
505.798; 3735.125;  240.375;    0.000
505.932; 3786.125;  240.375;    0.000
506.066; 3687.125;  252.375;    0.000
506.199; 3652.125;  242.375;    0.000
506.333; 3578.125;  244.375;    0.000
506.467; 3642.125;  223.375;    0.000
506.601; 3571.125;  183.375;    0.000
506.735; 3490.125;  249.375;    0.000
506.869; 3538.125;  270.375;    0.000
507.002; 3445.125;  207.375;    0.000
507.136; 3505.125;  242.375;    0.000
507.270; 3560.125;  232.375;    0.000
507.404; 3391.125;  195.375;    0.000
507.537; 3397.125;  218.375;    0.000
507.671; 3365.125;  246.375;    0.000
507.805; 3343.125;  244.375;    0.000
507.939; 3432.125;  251.375;    0.000
508.072; 3404.125;  212.375;    0.000
508.206; 3265.125;  198.375;    0.000
508.340; 3251.125;  234.375;    0.000
508.473; 3326.125;  217.375;    0.000
508.607; 3348.125;  224.375;    0.000
508.740; 3278.125;  207.375;    0.000
508.874; 3257.125;  230.375;    0.000
509.008; 3188.125;  246.375;    0.000
509.141; 3287.125;  239.375;    0.000
509.275; 3228.125;  229.375;    0.000
509.408; 3225.125;  234.375;    0.000
509.542; 3143.125;  212.375;    0.000
509.675; 3268.125;  256.375;    0.000
509.809; 3152.125;  232.375;    0.000
509.942; 3094.125;  237.375;    0.000
510.076; 3103.125;  226.375;    0.000
510.209; 3214.125;  251.375;    0.000
510.343; 3222.125;  229.375;    0.000
510.476; 3256.125;  285.375;    0.000
510.610; 3081.125;  211.375;    0.000
510.743; 3136.125;  258.375;    0.000
510.877; 3153.125;  244.375;    0.000
511.010; 3129.125;  235.375;    0.000
511.143; 3078.125;  251.375;    0.000
511.277; 3131.125;  228.375;    0.000
511.410; 3130.125;  216.375;    0.000
511.543; 3209.125;  231.375;    0.000
511.677; 3049.125;  244.375;    0.000
511.810; 3075.125;  186.375;    0.000
511.943; 3132.125;  211.375;    0.000
512.077; 3009.125;  201.375;    0.000
512.210; 3109.125;  194.375;    0.000
512.343; 3121.125;  233.375;    0.000
512.476; 3004.125;  234.375;    0.000
512.610; 3072.125;  224.375;    0.000
512.743; 3057.125;  255.375;    0.000
512.876; 3129.125;  264.375;    0.000
513.009; 3035.125;  283.375;    0.000
513.142; 3082.125;  246.375;    0.000
513.276; 3004.125;  217.375;    0.000
513.409; 3087.125;  222.375;    0.000
513.542; 3079.125;  237.375;    0.000
513.675; 3058.125;  238.375;    0.000
513.808; 3013.125;  220.375;    0.000
513.941; 2972.125;  233.375;    0.000
514.074; 3094.125;  248.375;    0.000
514.207; 3094.125;  233.375;    0.000
514.340; 3095.125;  190.375;    0.000
514.474; 3067.125;  221.375;    0.000
514.607; 3062.125;  213.375;    0.000
514.740; 3089.125;  251.375;    0.000
514.873; 3085.125;  257.375;    0.000
515.006; 3228.125;  268.375;    0.000
515.139; 3146.125;  257.375;    0.000
515.272; 3101.125;  227.375;    0.000
515.404; 3153.125;  238.375;    0.000
515.537; 3217.125;  275.375;    0.000
515.670; 3184.125;  239.375;    0.000
515.803; 3197.125;  223.375;    0.000
515.936; 3195.125;  202.375;    0.000
516.069; 3183.125;  188.375;    0.000
516.202; 3285.125;  240.375;    0.000
516.335; 3416.125;  252.375;    0.000
516.468; 3505.125;  254.375;    0.000
516.600; 4162.125;  254.375;    0.000
516.733; 5106.125;  255.375;    0.000
516.866; 4975.125;  265.375;    0.000
516.999; 4508.125;  251.375;    0.000
517.132; 5523.125;  256.375;    0.000
517.264; 7687.125;  202.375;    0.000
517.397; 7493.125;  248.375;    0.000
517.530; 5524.125;  221.375;    0.000
517.663; 4618.125;  244.375;    0.000
517.795; 4378.125;  245.375;    0.000
517.928; 4294.125;  236.375;    0.000
518.061; 4331.125;  219.375;    0.000
518.193; 5648.125;  251.375;    0.000
518.326; 9041.125;  271.375;    0.000
518.459; 9287.125;  207.375;    0.000
518.591; 6773.125;  217.375;    0.000
518.724; 5056.125;  200.375;    0.000
518.857; 4490.125;  204.375;    0.000
518.989; 4111.125;  242.375;    0.000
519.122; 3840.125;  254.375;    0.000
519.254; 3651.125;  239.375;    0.000
519.387; 3598.125;  235.375;    0.000
519.519; 3431.125;  227.375;    0.000
519.652; 3418.125;  178.375;    0.000
519.784; 3374.125;  226.375;    0.000
519.917; 3202.125;  256.375;    0.000
520.049; 3177.125;  234.375;    0.000
520.182; 3176.125;  258.375;    0.000
520.314; 3153.125;  298.375;    0.000
520.447; 3191.125;  204.375;    0.000
520.579; 3053.125;  235.375;    0.000
520.712; 3023.125;  208.375;    0.000
520.844; 3166.125;  272.375;    0.000
520.976; 3065.125;  234.375;    0.000
521.109; 2982.125;  235.375;    0.000
521.241; 2959.125;  250.375;    0.000
521.373; 2880.125;  233.375;    0.000
521.506; 2933.125;  231.375;    0.000
521.638; 2941.125;  258.375;    0.000
521.770; 2817.125;  226.375;    0.000
521.903; 2918.125;  258.375;    0.000
522.035; 2748.125;  263.375;    0.000
522.167; 2797.125;  214.375;    0.000
522.300; 2805.125;  212.375;    0.000
522.432; 2891.125;  220.375;    0.000
522.564; 2789.125;  228.375;    0.000
522.696; 2772.125;  272.375;    0.000
522.828; 2697.125;  222.375;    0.000
522.961; 2695.125;  205.375;    0.000
523.093; 2774.125;  253.375;    0.000
523.225; 2711.125;  239.375;    0.000
523.357; 2694.125;  263.375;    0.000
523.489; 2773.125;  264.375;    0.000
523.621; 2758.125;  259.375;    0.000
523.753; 2665.125;  233.375;    0.000
523.885; 2680.125;  232.375;    0.000
524.018; 2685.125;  214.375;    0.000
524.150; 2597.125;  235.375;    0.000
524.282; 2753.125;  242.375;    0.000
524.414; 2731.125;  261.375;    0.000
524.546; 2574.125;  233.375;    0.000
524.678; 2605.125;  242.375;    0.000
524.810; 2535.125;  216.375;    0.000
524.942; 2613.125;  220.375;    0.000
525.074; 2676.125;  249.375;    0.000
525.206; 2575.125;  227.375;    0.000
525.338; 2507.125;  250.375;    0.000
525.469; 2552.125;  231.375;    0.000
525.601; 2581.125;  245.375;    0.000
525.733; 2578.125;  187.375;    0.000
525.865; 2530.125;  280.375;    0.000
525.997; 2514.125;  216.375;    0.000
526.129; 2538.125;  228.375;    0.000
526.261; 2525.125;  187.375;    0.000
526.393; 2555.125;  228.375;    0.000
526.524; 2573.125;  201.375;    0.000
526.656; 2595.125;  199.375;    0.000
526.788; 2473.125;  233.375;    0.000
526.920; 2483.125;  256.375;    0.000
527.052; 2444.125;  219.375;    0.000
527.183; 2505.125;  227.375;    0.000
527.315; 2538.125;  266.375;    0.000
527.447; 2519.125;  239.375;    0.000
527.578; 2472.125;  213.375;    0.000
527.710; 2492.125;  216.375;    0.000
527.842; 2431.125;  240.375;    0.000
527.973; 2509.125;  286.375;    0.000
528.105; 2416.125;  222.375;    0.000
528.237; 2450.125;  223.375;    0.000
528.368; 2408.125;  211.375;    0.000
528.500; 2426.125;  215.375;    0.000
528.632; 2409.125;  216.375;    0.000
528.763; 2462.125;  234.375;    0.000
528.895; 2543.125;  196.375;    0.000
529.026; 2440.125;  202.375;    0.000
529.158; 2451.125;  226.375;    0.000
529.289; 2497.125;  229.375;    0.000
529.421; 2563.125;  264.375;    0.000
529.552; 2490.125;  265.375;    0.000
529.684; 2518.125;  260.375;    0.000
529.815; 2530.125;  284.375;    0.000
529.947; 2367.125;  237.375;    0.000
530.078; 2432.125;  223.375;    0.000
530.210; 2473.125;  223.375;    0.000
530.341; 2403.125;  209.375;    0.000
530.472; 2425.125;  203.375;    0.000
530.604; 2414.125;  223.375;    0.000
530.735; 2456.125;  218.375;    0.000
530.867; 2505.125;  222.375;    0.000
530.998; 2432.125;  239.375;    0.000
531.129; 2497.125;  250.375;    0.000
531.260; 2545.125;  224.375;    0.000
531.392; 2490.125;  216.375;    0.000
531.523; 2523.125;  234.375;    0.000
531.654; 2470.125;  256.375;    0.000
531.786; 2509.125;  226.375;    0.000
531.917; 2597.125;  239.375;    0.000
532.048; 2509.125;  205.375;    0.000
532.179; 2498.125;  244.375;    0.000
532.311; 2547.125;  235.375;    0.000
532.442; 2577.125;  258.375;    0.000
532.573; 2443.125;  220.375;    0.000
532.704; 2445.125;  213.375;    0.000
532.835; 2453.125;  249.375;    0.000
532.966; 2470.125;  226.375;    0.000
533.097; 2443.125;  246.375;    0.000
533.229; 2448.125;  237.375;    0.000
533.360; 2433.125;  225.375;    0.000
533.491; 2435.125;  241.375;    0.000
533.622; 2439.125;  242.375;    0.000
533.753; 2408.125;  264.375;    0.000
533.884; 2498.125;  245.375;    0.000
534.015; 2485.125;  269.375;    0.000
534.146; 2464.125;  267.375;    0.000
534.277; 2574.125;  282.375;    0.000
534.408; 2526.125;  229.375;    0.000
534.539; 2519.125;  269.375;    0.000
534.670; 2407.125;  231.375;    0.000
534.801; 2418.125;  260.375;    0.000
534.932; 2423.125;  232.375;    0.000
535.063; 2371.125;  227.375;    0.000
535.194; 2482.125;  281.375;    0.000
535.324; 2356.125;  206.375;    0.000
535.455; 2453.125;  257.375;    0.000
535.586; 2490.125;  275.375;    0.000
535.717; 2416.125;  206.375;    0.000
535.848; 2461.125;  271.375;    0.000
535.979; 2486.125;  250.375;    0.000
536.109; 2405.125;  253.375;    0.000
536.240; 2355.125;  234.375;    0.000
536.371; 2416.125;  230.375;    0.000
536.502; 2403.125;  270.375;    0.000
536.632; 2473.125;  228.375;    0.000
536.763; 2457.125;  249.375;    0.000
536.894; 2494.125;  262.375;    0.000
537.025; 2324.125;  258.375;    0.000
537.155; 2460.125;  278.375;    0.000
537.286; 2355.125;  209.375;    0.000
537.417; 2419.125;  255.375;    0.000
537.547; 2349.125;  208.375;    0.000
537.678; 2324.125;  224.375;    0.000
537.808; 2384.125;  224.375;    0.000
537.939; 2404.125;  257.375;    0.000
538.070; 2360.125;  240.375;    0.000
538.200; 2367.125;  259.375;    0.000
538.331; 2342.125;  235.375;    0.000
538.461; 2332.125;  251.375;    0.000
538.592; 2400.125;  245.375;    0.000
538.722; 2316.125;  239.375;    0.000
538.853; 2352.125;  216.375;    0.000
538.983; 2337.125;  226.375;    0.000
539.114; 2426.125;  240.375;    0.000
539.244; 2318.125;  237.375;    0.000
539.375; 2366.125;  198.375;    0.000
539.505; 2326.125;  263.375;    0.000
539.636; 2265.125;  226.375;    0.000
539.766; 2325.125;  229.375;    0.000
539.896; 2349.125;  219.375;    0.000
540.027; 2333.125;  246.375;    0.000
540.157; 2321.125;  218.375;    0.000
540.287; 2263.125;  216.375;    0.000
540.418; 2421.125;  267.375;    0.000
540.548; 2411.125;  260.375;    0.000
540.678; 2387.125;  242.375;    0.000
540.809; 2361.125;  260.375;    0.000
540.939; 2372.125;  257.375;    0.000
541.069; 2407.125;  226.375;    0.000
541.200; 2330.125;  227.375;    0.000
541.330; 2356.125;  218.375;    0.000
541.460; 2351.125;  223.375;    0.000
541.590; 2334.125;  237.375;    0.000
541.720; 2388.125;  222.375;    0.000
541.851; 2309.125;  250.375;    0.000
541.981; 2410.125;  222.375;    0.000
542.111; 2446.125;  212.375;    0.000
542.241; 2395.125;  205.375;    0.000
542.371; 2380.125;  202.375;    0.000
542.501; 2407.125;  218.375;    0.000
542.631; 2451.125;  222.375;    0.000
542.761; 2543.125;  249.375;    0.000
542.891; 2536.125;  173.375;    0.000
543.021; 2432.125;  218.375;    0.000
543.151; 2486.125;  222.375;    0.000
543.281; 2424.125;  188.375;    0.000
543.411; 2414.125;  239.375;    0.000
543.542; 2460.125;  215.375;    0.000
543.671; 2380.125;  250.375;    0.000
543.801; 2419.125;  212.375;    0.000
543.931; 2464.125;  233.375;    0.000
544.061; 2383.125;  194.375;    0.000
544.191; 2328.125;  218.375;    0.000
544.321; 2476.125;  220.375;    0.000
544.451; 2448.125;  183.375;    0.000
544.581; 2392.125;  221.375;    0.000
544.711; 2514.125;  224.375;    0.000
544.841; 2484.125;  214.375;    0.000
544.970; 2462.125;  227.375;    0.000
545.100; 2462.125;  186.375;    0.000
545.230; 2554.125;  205.375;    0.000
545.360; 2541.125;  211.375;    0.000
545.490; 2568.125;  202.375;    0.000
545.619; 2427.125;  182.375;    0.000
545.749; 2447.125;  174.375;    0.000
545.879; 2411.125;  169.375;    0.000
546.009; 2517.125;  182.375;    0.000
546.138; 2440.125;  200.375;    0.000
546.268; 2390.125;  204.375;    0.000
546.398; 2426.125;  200.375;    0.000
546.527; 2436.125;  179.375;    0.000
546.657; 2509.125;  162.375;    0.000
546.786; 2496.125;  179.375;    0.000
546.916; 2475.125;  221.375;    0.000
547.046; 2471.125;  179.375;    0.000
547.175; 2456.125;  168.375;    0.000
547.305; 2335.125;  200.375;    0.000
547.434; 2388.125;  166.375;    0.000
547.564; 2454.125;  177.375;    0.000
547.693; 2416.125;  152.375;    0.000
547.823; 2486.125;  171.375;    0.000
547.953; 2452.125;  195.375;    0.000
548.082; 2534.125;  214.375;    0.000
548.211; 2399.125;  177.375;    0.000
548.341; 2406.125;  189.375;    0.000
548.470; 2501.125;  194.375;    0.000
548.600; 2458.125;  172.375;    0.000
548.729; 2387.125;  158.375;    0.000
548.859; 2438.125;  193.375;    0.000
548.988; 2407.125;  131.375;    0.000
549.117; 2425.125;  204.375;    0.000
549.247; 2423.125;  191.375;    0.000
549.376; 2500.125;  202.375;    0.000
549.505; 2451.125;  187.375;    0.000
549.635; 2578.125;  198.375;    0.000
549.764; 2427.125;  155.375;    0.000
549.893; 2514.125;  176.375;    0.000
550.023; 2472.125;  202.375;    0.000
550.152; 2508.125;  168.375;    0.000
550.281; 2459.125;  180.375;    0.000
550.410; 2502.125;  180.375;    0.000
550.539; 2539.125;  181.375;    0.000
550.669; 2458.125;  168.375;    0.000
550.798; 2458.125;  223.375;    0.000
550.927; 2478.125;  179.375;    0.000
551.056; 2457.125;  159.375;    0.000
551.185; 2538.125;  199.375;    0.000
551.314; 2431.125;  185.375;    0.000
551.443; 2533.125;  172.375;    0.000
551.573; 2577.125;  158.375;    0.000
551.702; 2583.125;  210.375;    0.000
551.831; 2537.125;  238.375;    0.000
551.960; 2530.125;  191.375;    0.000
552.089; 2565.125;  195.375;    0.000
552.218; 2571.125;  196.375;    0.000
552.347; 2550.125;  194.375;    0.000
552.476; 2581.125;  192.375;    0.000
552.605; 2639.125;  172.375;    0.000
552.734; 2785.125;  214.375;    0.000
552.863; 2742.125;  177.375;    0.000
552.992; 2775.125;  190.375;    0.000
553.121; 2757.125;  185.375;    0.000
553.249; 2746.125;  175.375;    0.000
553.378; 2735.125;  192.375;    0.000
553.507; 2721.125;  193.375;    0.000
553.636; 2600.125;  182.375;    0.000
553.765; 2621.125;  187.375;    0.000
553.894; 2579.125;  214.375;    0.000
554.023; 2672.125;  217.375;    0.000
554.151; 2581.125;  223.375;    0.000
554.280; 2520.125;  170.375;    0.000
554.409; 2607.125;  172.375;    0.000
554.538; 2476.125;  182.375;    0.000
554.666; 2516.125;  195.375;    0.000
554.795; 2527.125;  176.375;    0.000
554.924; 2498.125;  164.375;    0.000
555.052; 2546.125;  171.375;    0.000
555.181; 2464.125;  208.375;    0.000
555.310; 2560.125;  214.375;    0.000
555.439; 2544.125;  193.375;    0.000
555.567; 2547.125;  189.375;    0.000
555.696; 2495.125;  196.375;    0.000
555.824; 2476.125;  183.375;    0.000
555.953; 2460.125;  234.375;    0.000
556.082; 2436.125;  183.375;    0.000
556.210; 2432.125;  199.375;    0.000
556.339; 2496.125;  201.375;    0.000
556.467; 2422.125;  208.375;    0.000
556.596; 2370.125;  194.375;    0.000
556.724; 2414.125;  170.375;    0.000
556.853; 2388.125;  166.375;    0.000
556.981; 2408.125;  185.375;    0.000
557.110; 2503.125;  213.375;    0.000
557.238; 2431.125;  188.375;    0.000
557.367; 2433.125;  176.375;    0.000
557.495; 2388.125;  180.375;    0.000
557.623; 2420.125;  193.375;    0.000
557.752; 2402.125;  207.375;    0.000
557.880; 2434.125;  189.375;    0.000
558.008; 2383.125;  169.375;    0.000
558.137; 2342.125;  203.375;    0.000
558.265; 2478.125;  167.375;    0.000
558.393; 2423.125;  204.375;    0.000
558.522; 2427.125;  203.375;    0.000
558.650; 2468.125;  215.375;    0.000
558.778; 2419.125;  190.375;    0.000
558.906; 2459.125;  186.375;    0.000
559.035; 2440.125;  193.375;    0.000
559.163; 2400.125;  198.375;    0.000
559.291; 2326.125;  222.375;    0.000
559.419; 2414.125;  192.375;    0.000
559.548; 2426.125;  186.375;    0.000
559.676; 2410.125;  199.375;    0.000
559.804; 2506.125;  186.375;    0.000
559.932; 2445.125;  202.375;    0.000
560.060; 2447.125;  183.375;    0.000
560.188; 2529.125;  212.375;    0.000
560.316; 2443.125;  192.375;    0.000
560.444; 2447.125;  180.375;    0.000
560.572; 2491.125;  206.375;    0.000
560.700; 2486.125;  184.375;    0.000
560.828; 2503.125;  177.375;    0.000
560.956; 2580.125;  221.375;    0.000
561.085; 2536.125;  227.375;    0.000
561.212; 2560.125;  208.375;    0.000
561.340; 2493.125;  189.375;    0.000
561.468; 2558.125;  189.375;    0.000
561.596; 2484.125;  183.375;    0.000
561.724; 2544.125;  188.375;    0.000
561.852; 2516.125;  183.375;    0.000
561.980; 2459.125;  209.375;    0.000
562.108; 2585.125;  165.375;    0.000
562.236; 2586.125;  188.375;    0.000
562.364; 2558.125;  177.375;    0.000
562.492; 2588.125;  192.375;    0.000
562.619; 2548.125;  187.375;    0.000
562.747; 2579.125;  217.375;    0.000
562.875; 2621.125;  221.375;    0.000
563.003; 2559.125;  199.375;    0.000
563.130; 2574.125;  191.375;    0.000
563.258; 2596.125;  186.375;    0.000
563.386; 2694.125;  191.375;    0.000
563.514; 2617.125;  217.375;    0.000
563.641; 2772.125;  220.375;    0.000
563.769; 2727.125;  186.375;    0.000
563.897; 2694.125;  158.375;    0.000
564.024; 2775.125;  192.375;    0.000
564.152; 2817.125;  217.375;    0.000
564.280; 2818.125;  203.375;    0.000
564.407; 2768.125;  190.375;    0.000
564.535; 2797.125;  188.375;    0.000
564.662; 2870.125;  199.375;    0.000
564.790; 2863.125;  227.375;    0.000
564.917; 2785.125;  160.375;    0.000
565.045; 2938.125;  222.375;    0.000
565.173; 2965.125;  169.375;    0.000
565.300; 2929.125;  208.375;    0.000
565.428; 2974.125;  174.375;    0.000
565.555; 2985.125;  201.375;    0.000
565.682; 3013.125;  180.375;    0.000
565.810; 3119.125;  165.375;    0.000
565.937; 3213.125;  167.375;    0.000
566.065; 3297.125;  190.375;    0.000
566.192; 3293.125;  169.375;    0.000
566.320; 3407.125;  167.375;    0.000
566.447; 3424.125;  151.375;    0.000
566.574; 3461.125;  176.375;    0.000
566.702; 3499.125;  198.375;    0.000
566.829; 3483.125;  209.375;    0.000
566.956; 3538.125;  186.375;    0.000
567.083; 3572.125;  188.375;    0.000
567.211; 3587.125;  159.375;    0.000
567.338; 3764.125;  204.375;    0.000
567.465; 3764.125;  141.375;    0.000
567.593; 3899.125;  168.375;    0.000
567.720; 3760.125;  177.375;    0.000
567.847; 3788.125;  160.375;    0.000
567.974; 3674.125;  139.375;    0.000
568.101; 3676.125;  153.375;    0.000
568.228; 3800.125;  173.375;    0.000
568.356; 3800.125;  149.375;    0.000
568.483; 3612.125;  185.375;    0.000
568.610; 3493.125;  170.375;    0.000
568.737; 3552.125;  223.375;    0.000
568.864; 3800.125;  167.375;    0.000
568.991; 3430.125;  177.375;    0.000
569.118; 3266.125;  169.375;    0.000
569.245; 3161.125;  128.375;    0.000
569.372; 3092.125;  160.375;    0.000
569.499; 3112.125;  156.375;    0.000
569.626; 2943.125;  191.375;    0.000
569.753; 2927.125;  163.375;    0.000
569.880; 2939.125;  167.375;    0.000
570.007; 2908.125;  143.375;    0.000
570.134; 2790.125;  191.375;    0.000
570.261; 2844.125;  164.375;    0.000
570.388; 2800.125;  162.375;    0.000
570.515; 2916.125;  220.375;    0.000
570.642; 2784.125;  184.375;    0.000
570.768; 2805.125;  174.375;    0.000
570.895; 2848.125;  177.375;    0.000
571.022; 2768.125;  152.375;    0.000
571.149; 2818.125;  183.375;    0.000
571.276; 2724.125;  153.375;    0.000
571.402; 2641.125;  190.375;    0.000
571.529; 2748.125;  187.375;    0.000
571.656; 2656.125;  167.375;    0.000
571.783; 2607.125;  186.375;    0.000
571.909; 2634.125;  183.375;    0.000
572.036; 2681.125;  162.375;    0.000
572.163; 2582.125;  196.375;    0.000
572.289; 2634.125;  180.375;    0.000
572.416; 2538.125;  190.375;    0.000
572.543; 2543.125;  174.375;    0.000
572.669; 2579.125;  186.375;    0.000
572.796; 2475.125;  205.375;    0.000
572.922; 2553.125;  185.375;    0.000
573.049; 2535.125;  178.375;    0.000
573.176; 2552.125;  196.375;    0.000
573.302; 2458.125;  202.375;    0.000
573.429; 2540.125;  189.375;    0.000
573.555; 2517.125;  145.375;    0.000
573.682; 2520.125;  228.375;    0.000
573.808; 2412.125;  197.375;    0.000
573.935; 2479.125;  216.375;    0.000
574.061; 2480.125;  173.375;    0.000
574.188; 2477.125;  151.375;    0.000
574.314; 2490.125;  181.375;    0.000
574.440; 2520.125;  167.375;    0.000
574.567; 2530.125;  185.375;    0.000
574.693; 2486.125;  173.375;    0.000
574.820; 2533.125;  164.375;    0.000
574.946; 2457.125;  199.375;    0.000
575.072; 2552.125;  162.375;    0.000
575.198; 2547.125;  225.375;    0.000
575.325; 2405.125;  171.375;    0.000
575.451; 2465.125;  183.375;    0.000
575.577; 2473.125;  190.375;    0.000
575.704; 2506.125;  210.375;    0.000
575.830; 2504.125;  185.375;    0.000
575.956; 2455.125;  168.375;    0.000
576.082; 2463.125;  158.375;    0.000
576.208; 2459.125;  158.375;    0.000
576.335; 2421.125;  196.375;    0.000
576.461; 2490.125;  187.375;    0.000
576.587; 2428.125;  157.375;    0.000
576.713; 2422.125;  156.375;    0.000
576.839; 2424.125;  196.375;    0.000
576.965; 2429.125;  187.375;    0.000
577.091; 2381.125;  204.375;    0.000
577.217; 2436.125;  207.375;    0.000
577.343; 2447.125;  175.375;    0.000
577.469; 2432.125;  197.375;    0.000
577.596; 2373.125;  182.375;    0.000
577.722; 2371.125;  159.375;    0.000
577.848; 2446.125;  162.375;    0.000
577.974; 2450.125;  180.375;    0.000
578.099; 2460.125;  161.375;    0.000
578.225; 2377.125;  180.375;    0.000
578.351; 2386.125;  190.375;    0.000
578.477; 2415.125;  212.375;    0.000
578.603; 2353.125;  179.375;    0.000
578.729; 2442.125;  195.375;    0.000
578.855; 2485.125;  153.375;    0.000
578.981; 2391.125;  162.375;    0.000
579.107; 2410.125;  149.375;    0.000
579.232; 2509.125;  164.375;    0.000
579.358; 2371.125;  162.375;    0.000
579.484; 2383.125;  181.375;    0.000
579.610; 2406.125;  190.375;    0.000
579.735; 2433.125;  191.375;    0.000
579.861; 2383.125;  189.375;    0.000
579.987; 2404.125;  202.375;    0.000
580.113; 2398.125;  197.375;    0.000
580.238; 2405.125;  228.375;    0.000
580.364; 2497.125;  212.375;    0.000
580.490; 2452.125;  225.375;    0.000
580.615; 2414.125;  218.375;    0.000
580.741; 2411.125;  167.375;    0.000
580.867; 2439.125;  215.375;    0.000
580.992; 2411.125;  191.375;    0.000
581.118; 2436.125;  171.375;    0.000
581.243; 2507.125;  204.375;    0.000
581.369; 2380.125;  186.375;    0.000
581.494; 2328.125;  184.375;    0.000
581.620; 2410.125;  212.375;    0.000
581.745; 2478.125;  192.375;    0.000
581.871; 2388.125;  195.375;    0.000
581.996; 2408.125;  160.375;    0.000
582.122; 2464.125;  217.375;    0.000
582.247; 2401.125;  213.375;    0.000
582.373; 2435.125;  187.375;    0.000
582.498; 2538.125;  208.375;    0.000
582.624; 2516.125;  189.375;    0.000
582.749; 2470.125;  185.375;    0.000
582.874; 2535.125;  195.375;    0.000
583.000; 2534.125;  208.375;    0.000
583.125; 2425.125;  147.375;    0.000
583.250; 2510.125;  201.375;    0.000
583.376; 2379.125;  191.375;    0.000
583.501; 2414.125;  206.375;    0.000
583.626; 2499.125;  167.375;    0.000
583.751; 2525.125;  180.375;    0.000
583.877; 2523.125;  185.375;    0.000
584.002; 2420.125;  186.375;    0.000
584.127; 2475.125;  176.375;    0.000
584.252; 2476.125;  214.375;    0.000
584.377; 2505.125;  225.375;    0.000
584.503; 2458.125;  195.375;    0.000
584.628; 2596.125;  206.375;    0.000
584.753; 2470.125;  181.375;    0.000
584.878; 2526.125;  136.375;    0.000
585.003; 2557.125;  215.375;    0.000
585.128; 2559.125;  206.375;    0.000
585.253; 2658.125;  200.375;    0.000
585.378; 2609.125;  169.375;    0.000
585.503; 2517.125;  191.375;    0.000
585.628; 2625.125;  182.375;    0.000
585.753; 2598.125;  164.375;    0.000
585.878; 2567.125;  123.375;    0.000
586.003; 2673.125;  187.375;    0.000
586.128; 2589.125;  198.375;    0.000
586.253; 2635.125;  172.375;    0.000
586.378; 2509.125;  191.375;    0.000
586.503; 2682.125;  190.375;    0.000
586.628; 2717.125;  178.375;    0.000
586.753; 2795.125;  184.375;    0.000
586.878; 2818.125;  169.375;    0.000
587.003; 2843.125;  186.375;    0.000
587.127; 2809.125;  170.375;    0.000
587.252; 2941.125;  170.375;    0.000
587.377; 2920.125;  181.375;    0.000
587.502; 3043.125;  209.375;    0.000
587.627; 3216.125;  210.375;    0.000
587.751; 3213.125;  212.375;    0.000
587.876; 3353.125;  198.375;    0.000
588.001; 3472.125;  161.375;    0.000
588.125; 3600.125;  191.375;    0.000
588.250; 3994.125;  132.375;    0.000
588.375; 4555.125;  183.375;    0.000
588.499; 5127.125;  176.375;    0.000
588.624; 6562.125;  173.375;    0.000
588.749; 9220.125;  204.375;    0.000
588.873;15299.125;  179.375;    0.000
588.998;21104.125;  182.375;    0.000
589.122;18880.125;  165.375;    0.000
589.247;12923.125;  185.375;    0.000
589.372;10906.125;  199.375;    0.000
589.496;15134.125;  182.375;    0.000
589.621;17988.125;  158.375;    0.000
589.745;14334.125;  213.375;    0.000
589.870; 8854.125;  175.375;    0.000
589.994; 6679.125;  194.375;    0.000
590.118; 5403.125;  218.375;    0.000
590.243; 4722.125;  170.375;    0.000
590.367; 4385.125;  189.375;    0.000
590.492; 4113.125;  196.375;    0.000
590.616; 3874.125;  182.375;    0.000
590.740; 3612.125;  210.375;    0.000
590.865; 3441.125;  242.375;    0.000
590.989; 3435.125;  191.375;    0.000
591.114; 3307.125;  167.375;    0.000
591.238; 3231.125;  194.375;    0.000
591.362; 3220.125;  236.375;    0.000
591.486; 3203.125;  194.375;    0.000
591.611; 3216.125;  154.375;    0.000
591.735; 3026.125;  186.375;    0.000
591.859; 3048.125;  148.375;    0.000
591.983; 3116.125;  211.375;    0.000
592.107; 3062.125;  204.375;    0.000
592.232; 2986.125;  194.375;    0.000
592.356; 3091.125;  238.375;    0.000
592.480; 2948.125;  179.375;    0.000
592.604; 3004.125;  192.375;    0.000
592.728; 2995.125;  201.375;    0.000
592.852; 3009.125;  158.375;    0.000
592.976; 3048.125;  152.375;    0.000
593.100; 3026.125;  194.375;    0.000
593.224; 3002.125;  235.375;    0.000
593.349; 3032.125;  233.375;    0.000
593.473; 2933.125;  194.375;    0.000
593.597; 3012.125;  215.375;    0.000
593.721; 3033.125;  212.375;    0.000
593.844; 2987.125;  220.375;    0.000
593.968; 2938.125;  221.375;    0.000
594.092; 2951.125;  150.375;    0.000
594.216; 2928.125;  212.375;    0.000
594.340; 2959.125;  209.375;    0.000
594.464; 2930.125;  207.375;    0.000
594.588; 2855.125;  195.375;    0.000
594.712; 2856.125;  176.375;    0.000
594.836; 2828.125;  219.375;    0.000
594.959; 2774.125;  215.375;    0.000
595.083; 2763.125;  200.375;    0.000
595.207; 2694.125;  206.375;    0.000
595.331; 2738.125;  207.375;    0.000
595.455; 2620.125;  206.375;    0.000
595.578; 2669.125;  204.375;    0.000
595.702; 2708.125;  225.375;    0.000
595.826; 2589.125;  186.375;    0.000
595.949; 2559.125;  196.375;    0.000
596.073; 2516.125;  188.375;    0.000
596.197; 2659.125;  217.375;    0.000
596.320; 2542.125;  225.375;    0.000
596.444; 2501.125;  220.375;    0.000
596.568; 2542.125;  155.375;    0.000
596.691; 2506.125;  195.375;    0.000
596.815; 2494.125;  163.375;    0.000
596.938; 2567.125;  181.375;    0.000
597.062; 2525.125;  201.375;    0.000
597.186; 2501.125;  200.375;    0.000
597.309; 2467.125;  214.375;    0.000
597.433; 2499.125;  176.375;    0.000
597.556; 2406.125;  193.375;    0.000
597.680; 2417.125;  241.375;    0.000
597.803; 2399.125;  185.375;    0.000
597.926; 2470.125;  200.375;    0.000
598.050; 2428.125;  193.375;    0.000
598.173; 2371.125;  219.375;    0.000
598.297; 2431.125;  223.375;    0.000
598.420; 2438.125;  187.375;    0.000
598.543; 2381.125;  205.375;    0.000
598.667; 2302.125;  177.375;    0.000
598.790; 2412.125;  208.375;    0.000
598.913; 2338.125;  170.375;    0.000
599.037; 2365.125;  212.375;    0.000
599.160; 2413.125;  165.375;    0.000
599.283; 2361.125;  211.375;    0.000
599.406; 2348.125;  207.375;    0.000
599.530; 2363.125;  182.375;    0.000
599.653; 2337.125;  215.375;    0.000
599.776; 2355.125;  167.375;    0.000
599.899; 2275.125;  190.375;    0.000
600.022; 2404.125;  182.375;    0.000
600.145; 2398.125;  180.375;    0.000
600.269; 2367.125;  208.375;    0.000
600.392; 2290.125;  214.375;    0.000
600.515; 2356.125;  196.375;    0.000
600.638; 2312.125;  204.375;    0.000
600.761; 2345.125;  209.375;    0.000
600.884; 2276.125;  207.375;    0.000
601.007; 2333.125;  234.375;    0.000
601.130; 2342.125;  183.375;    0.000
601.253; 2310.125;  211.375;    0.000
601.376; 2281.125;  199.375;    0.000
601.499; 2350.125;  190.375;    0.000
601.622; 2287.125;  210.375;    0.000
601.745; 2251.125;  180.375;    0.000
601.868; 2237.125;  204.375;    0.000
601.991; 2243.125;  188.375;    0.000
602.113; 2277.125;  210.375;    0.000
602.236; 2302.125;  194.375;    0.000
602.359; 2300.125;  213.375;    0.000
602.482; 2283.125;  169.375;    0.000
602.605; 2308.125;  189.375;    0.000
602.728; 2365.125;  236.375;    0.000
602.850; 2177.125;  230.375;    0.000
602.973; 2300.125;  187.375;    0.000
603.096; 2306.125;  201.375;    0.000
603.219; 2326.125;  209.375;    0.000
603.341; 2287.125;  209.375;    0.000
603.464; 2255.125;  194.375;    0.000
603.587; 2276.125;  166.375;    0.000
603.709; 2241.125;  175.375;    0.000
603.832; 2183.125;  239.375;    0.000
603.955; 2258.125;  205.375;    0.000
604.077; 2164.125;  196.375;    0.000
604.200; 2276.125;  188.375;    0.000
604.323; 2237.125;  224.375;    0.000
604.445; 2194.125;  182.375;    0.000
604.568; 2183.125;  199.375;    0.000
604.690; 2280.125;  175.375;    0.000
604.813; 2230.125;  211.375;    0.000
604.935; 2183.125;  171.375;    0.000
605.058; 2191.125;  196.375;    0.000
605.180; 2202.125;  194.375;    0.000
605.303; 2242.125;  198.375;    0.000
605.425; 2293.125;  212.375;    0.000
605.547; 2170.125;  238.375;    0.000
605.670; 2164.125;  207.375;    0.000
605.792; 2199.125;  204.375;    0.000
605.915; 2171.125;  198.375;    0.000
606.037; 2195.125;  215.375;    0.000
606.159; 2157.125;  170.375;    0.000
606.282; 2222.125;  194.375;    0.000
606.404; 2210.125;  207.375;    0.000
606.526; 2248.125;  208.375;    0.000
606.648; 2166.125;  174.375;    0.000
606.771; 2229.125;  170.375;    0.000
606.893; 2195.125;  182.375;    0.000
607.015; 2203.125;  180.375;    0.000
607.137; 2210.125;  187.375;    0.000
607.260; 2219.125;  202.375;    0.000
607.382; 2169.125;  226.375;    0.000
607.504; 2184.125;  208.375;    0.000
607.626; 2184.125;  229.375;    0.000
607.748; 2223.125;  170.375;    0.000
607.870; 2188.125;  208.375;    0.000
607.992; 2181.125;  184.375;    0.000
608.114; 2146.125;  213.375;    0.000
608.237; 2284.125;  237.375;    0.000
608.359; 2162.125;  176.375;    0.000
608.481; 2178.125;  173.375;    0.000
608.603; 2177.125;  189.375;    0.000
608.725; 2207.125;  185.375;    0.000
608.847; 2166.125;  239.375;    0.000
608.969; 2185.125;  237.375;    0.000
609.090; 2125.125;  189.375;    0.000
609.212; 2097.125;  147.375;    0.000
609.334; 2136.125;  177.375;    0.000
609.456; 2231.125;  196.375;    0.000
609.578; 2191.125;  199.375;    0.000
609.700; 2061.125;  167.375;    0.000
609.822; 2103.125;  140.375;    0.000
609.944; 2204.125;  225.375;    0.000
610.065; 2158.125;  183.375;    0.000
610.187; 2150.125;  170.375;    0.000
610.309; 2227.125;  210.375;    0.000
610.431; 2174.125;  185.375;    0.000
610.552; 2132.125;  197.375;    0.000
610.674; 2185.125;  188.375;    0.000
610.796; 2141.125;  162.375;    0.000
610.918; 2180.125;  200.375;    0.000
611.039; 2147.125;  209.375;    0.000
611.161; 2116.125;  201.375;    0.000
611.282; 2161.125;  197.375;    0.000
611.404; 2161.125;  220.375;    0.000
611.526; 2172.125;  159.375;    0.000
611.647; 2168.125;  205.375;    0.000
611.769; 2126.125;  161.375;    0.000
611.890; 2131.125;  173.375;    0.000
612.012; 2185.125;  225.375;    0.000
612.133; 2090.125;  188.375;    0.000
612.255; 2162.125;  217.375;    0.000
612.377; 2233.125;  219.375;    0.000
612.498; 2148.125;  177.375;    0.000
612.619; 2167.125;  211.375;    0.000
612.741; 2171.125;  185.375;    0.000
612.862; 2145.125;  191.375;    0.000
612.984; 2095.125;  190.375;    0.000
613.105; 2128.125;  211.375;    0.000
613.226; 2106.125;  174.375;    0.000
613.348; 2222.125;  235.375;    0.000
613.469; 2199.125;  230.375;    0.000
613.590; 2096.125;  208.375;    0.000
613.712; 2146.125;  244.375;    0.000
613.833; 2149.125;  202.375;    0.000
613.954; 2177.125;  228.375;    0.000
614.076; 2122.125;  220.375;    0.000
614.197; 2072.125;  191.375;    0.000
614.318; 2073.125;  201.375;    0.000
614.439; 2135.125;  212.375;    0.000
614.560; 2183.125;  219.375;    0.000
614.682; 2105.125;  189.375;    0.000
614.803; 2076.125;  188.375;    0.000
614.924; 2133.125;  225.375;    0.000
615.045; 2156.125;  227.375;    0.000
615.166; 2214.125;  200.375;    0.000
615.287; 2129.125;  195.375;    0.000
615.408; 2238.125;  199.375;    0.000
615.529; 2269.125;  227.375;    0.000
615.650; 2084.125;  176.375;    0.000
615.771; 2143.125;  211.375;    0.000
615.892; 2179.125;  212.375;    0.000
616.013; 2297.125;  172.375;    0.000
616.134; 2327.125;  220.375;    0.000
616.255; 2334.125;  251.375;    0.000
616.376; 2196.125;  186.375;    0.000
616.497; 2150.125;  201.375;    0.000
616.618; 2177.125;  149.375;    0.000
616.739; 2120.125;  213.375;    0.000
616.860; 2241.125;  224.375;    0.000
616.981; 2116.125;  224.375;    0.000
617.102; 2153.125;  217.375;    0.000
617.222; 2163.125;  237.375;    0.000
617.343; 2156.125;  205.375;    0.000
617.464; 2147.125;  229.375;    0.000
617.585; 2102.125;  227.375;    0.000
617.705; 2133.125;  191.375;    0.000
617.826; 2206.125;  237.375;    0.000
617.947; 2084.125;  223.375;    0.000
618.068; 2094.125;  189.375;    0.000
618.188; 2035.125;  194.375;    0.000
618.309; 2193.125;  206.375;    0.000
618.430; 2217.125;  229.375;    0.000
618.550; 2146.125;  250.375;    0.000
618.671; 2101.125;  201.375;    0.000
618.791; 2116.125;  226.375;    0.000
618.912; 2121.125;  246.375;    0.000
619.033; 2077.125;  243.375;    0.000
619.153; 2105.125;  208.375;    0.000
619.274; 2115.125;  223.375;    0.000
619.394; 2112.125;  226.375;    0.000
619.515; 2067.125;  188.375;    0.000
619.635; 2193.125;  216.375;    0.000
619.756; 2089.125;  229.375;    0.000
619.876; 2062.125;  216.375;    0.000
619.996; 2064.125;  244.375;    0.000
620.117; 2038.125;  225.375;    0.000
620.237; 2053.125;  207.375;    0.000
620.358; 2169.125;  239.375;    0.000
620.478; 2065.125;  237.375;    0.000
620.598; 2118.125;  237.375;    0.000
620.719; 2143.125;  223.375;    0.000
620.839; 2121.125;  254.375;    0.000
620.959; 2093.125;  244.375;    0.000
621.079; 2091.125;  193.375;    0.000
621.200; 2105.125;  233.375;    0.000
621.320; 2056.125;  270.375;    0.000
621.440; 2085.125;  206.375;    0.000
621.560; 2079.125;  241.375;    0.000
621.681; 2052.125;  231.375;    0.000
621.801; 2081.125;  235.375;    0.000
621.921; 2078.125;  240.375;    0.000
622.041; 2121.125;  244.375;    0.000
622.161; 2030.125;  225.375;    0.000
622.281; 2034.125;  222.375;    0.000
622.401; 2049.125;  238.375;    0.000
622.521; 2097.125;  233.375;    0.000
622.641; 2033.125;  241.375;    0.000
622.761; 2087.125;  233.375;    0.000
622.882; 1987.125;  230.375;    0.000
623.002; 1985.125;  206.375;    0.000
623.121; 2039.125;  217.375;    0.000
623.241; 2075.125;  263.375;    0.000
623.361; 1966.125;  245.375;    0.000
623.481; 1928.125;  194.375;    0.000
623.601; 2055.125;  228.375;    0.000
623.721; 2068.125;  219.375;    0.000
623.841; 2060.125;  234.375;    0.000
623.961; 2017.125;  235.375;    0.000
624.081; 2058.125;  166.375;    0.000
624.201; 2018.125;  229.375;    0.000
624.320; 2048.125;  224.375;    0.000
624.440; 2088.125;  200.375;    0.000
624.560; 1993.125;  220.375;    0.000
624.680; 2033.125;  214.375;    0.000
624.799; 1963.125;  179.375;    0.000
624.919; 2036.125;  199.375;    0.000
625.039; 2028.125;  211.375;    0.000
625.159; 1955.125;  213.375;    0.000
625.278; 1967.125;  178.375;    0.000
625.398; 2034.125;  206.375;    0.000
625.518; 2070.125;  182.375;    0.000
625.637; 2020.125;  206.375;    0.000
625.757; 2016.125;  197.375;    0.000
625.876; 1992.125;  204.375;    0.000
625.996; 2047.125;  222.375;    0.000
626.115; 1971.125;  222.375;    0.000
626.235; 1944.125;  222.375;    0.000
626.354; 2030.125;  211.375;    0.000
626.474; 1972.125;  217.375;    0.000
626.594; 2006.125;  190.375;    0.000
626.713; 2014.125;  200.375;    0.000
626.832; 2050.125;  234.375;    0.000
626.952; 1973.125;  214.375;    0.000
627.071; 2006.125;  243.375;    0.000
627.191; 1951.125;  192.375;    0.000
627.310; 1997.125;  211.375;    0.000
627.429; 1971.125;  218.375;    0.000
627.549; 1917.125;  214.375;    0.000
627.668; 1945.125;  208.375;    0.000
627.787; 1980.125;  199.375;    0.000
627.907; 1895.125;  208.375;    0.000
628.026; 1922.125;  216.375;    0.000
628.145; 1973.125;  170.375;    0.000
628.264; 1935.125;  217.375;    0.000
628.384; 1918.125;  190.375;    0.000
628.503; 1898.125;  203.375;    0.000
628.622; 1987.125;  197.375;    0.000
628.741; 1963.125;  186.375;    0.000
628.860; 1948.125;  191.375;    0.000
628.980; 1993.125;  196.375;    0.000
629.099; 2019.125;  190.375;    0.000
629.218; 1962.125;  165.375;    0.000
629.337; 1908.125;  190.375;    0.000
629.456; 1946.125;  222.375;    0.000
629.575; 1979.125;  197.375;    0.000
629.694; 1964.125;  210.375;    0.000
629.813; 1977.125;  187.375;    0.000
629.932; 1912.125;  224.375;    0.000
630.051; 1941.125;  216.375;    0.000
630.170; 1954.125;  203.375;    0.000
630.289; 2036.125;  178.375;    0.000
630.408; 1879.125;  192.375;    0.000
630.527; 1986.125;  223.375;    0.000
630.646; 1859.125;  177.375;    0.000
630.764; 1945.125;  224.375;    0.000
630.883; 1936.125;  220.375;    0.000
631.002; 1896.125;  187.375;    0.000
631.121; 1927.125;  208.375;    0.000
631.240; 1936.125;  217.375;    0.000
631.359; 1949.125;  241.375;    0.000
631.477; 1946.125;  189.375;    0.000
631.596; 1934.125;  244.375;    0.000
631.715; 1936.125;  241.375;    0.000
631.834; 1978.125;  219.375;    0.000
631.952; 1917.125;  231.375;    0.000
632.071; 1885.125;  197.375;    0.000
632.190; 1925.125;  193.375;    0.000
632.308; 1928.125;  185.375;    0.000
632.427; 1935.125;  188.375;    0.000
632.546; 1903.125;  208.375;    0.000
632.664; 1937.125;  191.375;    0.000
632.783; 1963.125;  201.375;    0.000
632.901; 1972.125;  239.375;    0.000
633.020; 1934.125;  197.375;    0.000
633.138; 1880.125;  189.375;    0.000
633.257; 1991.125;  210.375;    0.000
633.375; 1874.125;  213.375;    0.000
633.494; 1902.125;  206.375;    0.000
633.612; 1975.125;  231.375;    0.000
633.731; 1990.125;  213.375;    0.000
633.849; 1896.125;  244.375;    0.000
633.968; 1865.125;  251.375;    0.000
634.086; 2013.125;  224.375;    0.000
634.204; 1946.125;  212.375;    0.000
634.323; 1937.125;  213.375;    0.000
634.441; 1960.125;  219.375;    0.000
634.559; 1963.125;  198.375;    0.000
634.678; 1857.125;  201.375;    0.000
634.796; 1859.125;  179.375;    0.000
634.914; 1893.125;  255.375;    0.000
635.032; 1846.125;  264.375;    0.000
635.151; 1910.125;  228.375;    0.000
635.269; 1829.125;  223.375;    0.000
635.387; 1940.125;  228.375;    0.000
635.505; 1923.125;  214.375;    0.000
635.623; 1979.125;  279.375;    0.000
635.742; 1915.125;  237.375;    0.000
635.860; 1919.125;  244.375;    0.000
635.978; 1956.125;  213.375;    0.000
636.096; 1874.125;  230.375;    0.000
636.214; 1904.125;  252.375;    0.000
636.332; 1896.125;  221.375;    0.000
636.450; 1950.125;  227.375;    0.000
636.568; 1918.125;  193.375;    0.000
636.686; 1819.125;  208.375;    0.000
636.804; 1842.125;  213.375;    0.000
636.922; 1848.125;  199.375;    0.000
637.040; 1921.125;  202.375;    0.000
637.158; 1953.125;  239.375;    0.000
637.276; 1880.125;  225.375;    0.000
637.394; 1907.125;  217.375;    0.000
637.512; 1934.125;  192.375;    0.000
637.629; 1911.125;  216.375;    0.000
637.747; 1877.125;  198.375;    0.000
637.865; 1924.125;  265.375;    0.000
637.983; 1894.125;  245.375;    0.000
638.101; 1893.125;  199.375;    0.000
638.218; 1878.125;  197.375;    0.000
638.336; 1891.125;  212.375;    0.000
638.454; 1868.125;  227.375;    0.000
638.572; 1891.125;  215.375;    0.000
638.689; 1985.125;  214.375;    0.000
638.807; 1883.125;  233.375;    0.000
638.925; 1880.125;  217.375;    0.000
639.042; 1884.125;  180.375;    0.000
639.160; 1930.125;  220.375;    0.000
639.278; 1855.125;  180.375;    0.000
639.395; 1968.125;  243.375;    0.000
639.513; 1838.125;  207.375;    0.000
639.630; 1946.125;  183.375;    0.000
639.748; 1863.125;  231.375;    0.000
639.865; 1904.125;  215.375;    0.000
639.983; 1882.125;  182.375;    0.000
640.100; 1875.125;  190.375;    0.000
640.218; 1887.125;  224.375;    0.000
640.335; 1894.125;  214.375;    0.000
640.453; 1954.125;  212.375;    0.000
640.570; 1861.125;  224.375;    0.000
640.688; 1856.125;  220.375;    0.000
640.805; 1818.125;  189.375;    0.000
640.922; 1937.125;  256.375;    0.000
641.040; 1853.125;  209.375;    0.000
641.157; 1849.125;  195.375;    0.000
641.274; 1854.125;  195.375;    0.000
641.391; 1955.125;  231.375;    0.000
641.509; 1891.125;  207.375;    0.000
641.626; 1925.125;  227.375;    0.000
641.743; 1889.125;  188.375;    0.000
641.860; 1991.125;  208.375;    0.000
641.978; 1936.125;  222.375;    0.000
642.095; 1888.125;  194.375;    0.000
642.212; 1925.125;  202.375;    0.000
642.329; 1887.125;  241.375;    0.000
642.446; 1906.125;  261.375;    0.000
642.563; 1920.125;  236.375;    0.000
642.681; 1968.125;  228.375;    0.000
642.798; 1883.125;  242.375;    0.000
642.915; 1940.125;  197.375;    0.000
643.032; 1917.125;  239.375;    0.000
643.149; 1954.125;  241.375;    0.000
643.266; 1910.125;  199.375;    0.000
643.383; 1924.125;  200.375;    0.000
643.500; 1896.125;  221.375;    0.000
643.617; 1889.125;  196.375;    0.000
643.734; 1947.125;  207.375;    0.000
643.850; 1951.125;  222.375;    0.000
643.967; 1922.125;  235.375;    0.000
644.084; 1994.125;  233.375;    0.000
644.201; 1919.125;  229.375;    0.000
644.318; 1930.125;  210.375;    0.000
644.435; 1952.125;  234.375;    0.000
644.552; 1929.125;  220.375;    0.000
644.668; 2009.125;  231.375;    0.000
644.785; 1958.125;  231.375;    0.000
644.902; 1995.125;  238.375;    0.000
645.019; 1970.125;  226.375;    0.000
645.135; 1957.125;  179.375;    0.000
645.252; 1975.125;  224.375;    0.000
645.369; 1961.125;  206.375;    0.000
645.485; 2016.125;  200.375;    0.000
645.602; 1937.125;  210.375;    0.000
645.719; 1997.125;  206.375;    0.000
645.835; 2054.125;  247.375;    0.000
645.952; 2053.125;  222.375;    0.000
646.068; 2042.125;  205.375;    0.000
646.185; 2035.125;  230.375;    0.000
646.302; 2059.125;  254.375;    0.000
646.418; 2071.125;  230.375;    0.000
646.535; 2103.125;  214.375;    0.000
646.651; 2021.125;  179.375;    0.000
646.768; 2088.125;  190.375;    0.000
646.884; 2036.125;  208.375;    0.000
647.000; 2058.125;  262.375;    0.000
647.117; 2006.125;  212.375;    0.000
647.233; 2127.125;  228.375;    0.000
647.350; 2106.125;  208.375;    0.000
647.466; 2102.125;  211.375;    0.000
647.582; 2127.125;  196.375;    0.000
647.699; 2079.125;  217.375;    0.000
647.815; 2172.125;  203.375;    0.000
647.931; 2095.125;  201.375;    0.000
648.047; 2169.125;  182.375;    0.000
648.164; 2154.125;  219.375;    0.000
648.280; 2216.125;  213.375;    0.000
648.396; 2190.125;  202.375;    0.000
648.512; 2168.125;  233.375;    0.000
648.629; 2203.125;  206.375;    0.000
648.745; 2209.125;  188.375;    0.000
648.861; 2186.125;  209.375;    0.000
648.977; 2229.125;  218.375;    0.000
649.093; 2208.125;  225.375;    0.000
649.209; 2238.125;  240.375;    0.000
649.325; 2203.125;  253.375;    0.000
649.441; 2211.125;  263.375;    0.000
649.557; 2271.125;  256.375;    0.000
649.673; 2258.125;  211.375;    0.000
649.789; 2271.125;  237.375;    0.000
649.905; 2244.125;  183.375;    0.000
650.021; 2316.125;  238.375;    0.000
650.137; 2352.125;  241.375;    0.000
650.253; 2325.125;  228.375;    0.000
650.369; 2238.125;  221.375;    0.000
650.485; 2188.125;  240.375;    0.000
650.601; 2366.125;  254.375;    0.000
650.717; 2318.125;  201.375;    0.000
650.833; 2387.125;  257.375;    0.000
650.948; 2307.125;  213.375;    0.000
651.064; 2310.125;  223.375;    0.000
651.180; 2423.125;  230.375;    0.000
651.296; 2383.125;  235.375;    0.000
651.411; 2418.125;  221.375;    0.000
651.527; 2438.125;  233.375;    0.000
651.643; 2489.125;  236.375;    0.000
651.759; 2532.125;  268.375;    0.000
651.874; 2498.125;  214.375;    0.000
651.990; 2511.125;  251.375;    0.000
652.105; 2513.125;  217.375;    0.000
652.221; 2613.125;  243.375;    0.000
652.337; 2576.125;  231.375;    0.000
652.452; 2735.125;  238.375;    0.000
652.568; 2590.125;  188.375;    0.000
652.683; 2667.125;  197.375;    0.000
652.799; 2637.125;  194.375;    0.000
652.914; 2618.125;  222.375;    0.000
653.030; 2712.125;  200.375;    0.000
653.145; 2819.125;  235.375;    0.000
653.261; 2796.125;  261.375;    0.000
653.376; 2795.125;  228.375;    0.000
653.492; 2825.125;  222.375;    0.000
653.607; 2948.125;  227.375;    0.000
653.722; 2980.125;  250.375;    0.000
653.838; 3056.125;  255.375;    0.000
653.953; 3024.125;  235.375;    0.000
654.068; 3149.125;  266.375;    0.000
654.184; 3218.125;  210.375;    0.000
654.299; 3274.125;  240.375;    0.000
654.414; 3360.125;  222.375;    0.000
654.530; 3522.125;  222.375;    0.000
654.645; 3541.125;  256.375;    0.000
654.760; 3559.125;  244.375;    0.000
654.875; 3691.125;  229.375;    0.000
654.990; 3770.125;  226.375;    0.000
655.106; 3863.125;  254.375;    0.000
655.221; 4019.125;  251.375;    0.000
655.336; 4098.125;  245.375;    0.000
655.451; 4288.125;  199.375;    0.000
655.566; 4403.125;  228.375;    0.000
655.681; 4570.125;  208.375;    0.000
655.796; 4818.125;  218.375;    0.000
655.911; 5139.125;  233.375;    0.000
656.026; 5554.125;  232.375;    0.000
656.141; 5720.125;  223.375;    0.000
656.256; 6043.125;  247.375;    0.000
656.371; 5937.125;  220.375;    0.000
656.486; 5952.125;  225.375;    0.000
656.601; 5825.125;  257.375;    0.000
656.716; 5654.125;  248.375;    0.000
656.831; 5362.125;  262.375;    0.000
656.946; 5301.125;  249.375;    0.000
657.060; 5144.125;  245.375;    0.000
657.175; 4775.125;  245.375;    0.000
657.290; 4659.125;  219.375;    0.000
657.405; 4665.125;  286.375;    0.000
657.520; 4399.125;  259.375;    0.000
657.634; 4384.125;  239.375;    0.000
657.749; 4296.125;  227.375;    0.000
657.864; 4064.125;  210.375;    0.000
657.979; 3959.125;  236.375;    0.000
658.093; 3868.125;  210.375;    0.000
658.208; 3856.125;  248.375;    0.000
658.323; 3714.125;  216.375;    0.000
658.437; 3796.125;  248.375;    0.000
658.552; 3592.125;  249.375;    0.000
658.666; 3522.125;  256.375;    0.000
658.781; 3440.125;  247.375;    0.000
658.895; 3403.125;  209.375;    0.000
659.010; 3264.125;  219.375;    0.000
659.125; 3254.125;  215.375;    0.000
659.239; 3167.125;  205.375;    0.000
659.353; 3238.125;  246.375;    0.000
659.468; 3076.125;  245.375;    0.000
659.582; 3098.125;  244.375;    0.000
659.697; 3065.125;  242.375;    0.000
659.811; 3062.125;  239.375;    0.000
659.926; 2913.125;  226.375;    0.000
660.040; 2924.125;  255.375;    0.000
660.154; 2843.125;  225.375;    0.000
660.269; 2913.125;  200.375;    0.000
660.383; 2815.125;  192.375;    0.000
660.497; 2803.125;  218.375;    0.000
660.612; 2792.125;  236.375;    0.000
660.726; 2692.125;  263.375;    0.000
660.840; 2697.125;  205.375;    0.000
660.954; 2732.125;  219.375;    0.000
661.068; 2664.125;  240.375;    0.000
661.183; 2608.125;  221.375;    0.000
661.297; 2488.125;  194.375;    0.000
661.411; 2551.125;  253.375;    0.000
661.525; 2598.125;  246.375;    0.000
661.639; 2450.125;  217.375;    0.000
661.753; 2460.125;  241.375;    0.000
661.867; 2506.125;  276.375;    0.000
661.981; 2366.125;  203.375;    0.000
662.095; 2425.125;  224.375;    0.000
662.209; 2331.125;  217.375;    0.000
662.323; 2330.125;  251.375;    0.000
662.437; 2307.125;  243.375;    0.000
662.551; 2309.125;  244.375;    0.000
662.665; 2289.125;  247.375;    0.000
662.779; 2288.125;  251.375;    0.000
662.893; 2347.125;  254.375;    0.000
663.007; 2224.125;  222.375;    0.000
663.121; 2253.125;  253.375;    0.000
663.235; 2195.125;  270.375;    0.000
663.349; 2142.125;  242.375;    0.000
663.462; 2144.125;  230.375;    0.000
663.576; 2116.125;  230.375;    0.000
663.690; 2149.125;  249.375;    0.000
663.804; 2068.125;  200.375;    0.000
663.917; 1963.125;  204.375;    0.000
664.031; 2058.125;  206.375;    0.000
664.145; 2042.125;  202.375;    0.000
664.258; 2115.125;  221.375;    0.000
664.372; 2024.125;  215.375;    0.000
664.486; 1948.125;  179.375;    0.000
664.599; 1997.125;  208.375;    0.000
664.713; 2061.125;  268.375;    0.000
664.827; 1964.125;  225.375;    0.000
664.940; 1962.125;  222.375;    0.000
665.054; 1962.125;  208.375;    0.000
665.167; 1967.125;  253.375;    0.000
665.281; 1931.125;  237.375;    0.000
665.394; 1874.125;  227.375;    0.000
665.508; 1829.125;  192.375;    0.000
665.621; 1881.125;  175.375;    0.000
665.735; 1912.125;  249.375;    0.000
665.848; 1914.125;  197.375;    0.000
665.961; 1921.125;  206.375;    0.000
666.075; 1867.125;  245.375;    0.000
666.188; 1887.125;  230.375;    0.000
666.301; 1852.125;  219.375;    0.000
666.415; 1787.125;  231.375;    0.000
666.528; 1903.125;  258.375;    0.000
666.641; 1790.125;  243.375;    0.000
666.755; 1908.125;  208.375;    0.000
666.868; 1822.125;  228.375;    0.000
666.981; 1850.125;  244.375;    0.000
667.094; 1762.125;  244.375;    0.000
667.207; 1845.125;  226.375;    0.000
667.321; 1744.125;  175.375;    0.000
667.434; 1743.125;  211.375;    0.000
667.547; 1871.125;  249.375;    0.000
667.660; 1763.125;  225.375;    0.000
667.773; 1797.125;  242.375;    0.000
667.886; 1728.125;  246.375;    0.000
667.999; 1758.125;  244.375;    0.000
668.112; 1714.125;  227.375;    0.000
668.225; 1730.125;  231.375;    0.000
668.338; 1787.125;  256.375;    0.000
668.451; 1672.125;  216.375;    0.000
668.564; 1687.125;  261.375;    0.000
668.677; 1693.125;  230.375;    0.000
668.790; 1693.125;  192.375;    0.000
668.903; 1740.125;  243.375;    0.000
669.016; 1656.125;  201.375;    0.000
669.129; 1666.125;  249.375;    0.000
669.242; 1583.125;  190.375;    0.000
669.354; 1669.125;  219.375;    0.000
669.467; 1712.125;  242.375;    0.000
669.580; 1710.125;  237.375;    0.000
669.693; 1699.125;  243.375;    0.000
669.806; 1574.125;  234.375;    0.000
669.918; 1649.125;  206.375;    0.000
670.031; 1702.125;  258.375;    0.000
670.144; 1711.125;  231.375;    0.000
670.256; 1634.125;  244.375;    0.000
670.369; 1647.125;  262.375;    0.000
670.482; 1637.125;  264.375;    0.000
670.594; 1635.125;  256.375;    0.000
670.707; 1630.125;  224.375;    0.000
670.820; 1629.125;  261.375;    0.000
670.932; 1582.125;  226.375;    0.000
671.045; 1581.125;  243.375;    0.000
671.157; 1682.125;  235.375;    0.000
671.270; 1573.125;  217.375;    0.000
671.382; 1559.125;  267.375;    0.000
671.495; 1537.125;  258.375;    0.000
671.607; 1599.125;  236.375;    0.000
671.720; 1571.125;  200.375;    0.000
671.832; 1581.125;  219.375;    0.000
671.944; 1570.125;  234.375;    0.000
672.057; 1573.125;  226.375;    0.000
672.169; 1526.125;  225.375;    0.000
672.281; 1558.125;  253.375;    0.000
672.394; 1559.125;  238.375;    0.000
672.506; 1585.125;  244.375;    0.000
672.618; 1485.125;  272.375;    0.000
672.731; 1595.125;  247.375;    0.000
672.843; 1637.125;  261.375;    0.000
672.955; 1498.125;  262.375;    0.000
673.067; 1565.125;  253.375;    0.000
673.180; 1609.125;  239.375;    0.000
673.292; 1516.125;  240.375;    0.000
673.404; 1569.125;  243.375;    0.000
673.516; 1539.125;  258.375;    0.000
673.628; 1559.125;  263.375;    0.000
673.740; 1563.125;  250.375;    0.000
673.852; 1598.125;  285.375;    0.000
673.964; 1547.125;  264.375;    0.000
674.076; 1538.125;  260.375;    0.000
674.188; 1508.125;  226.375;    0.000
674.300; 1544.125;  272.375;    0.000
674.412; 1505.125;  259.375;    0.000
674.524; 1570.125;  283.375;    0.000
674.636; 1507.125;  259.375;    0.000
674.748; 1492.125;  238.375;    0.000
674.860; 1458.125;  277.375;    0.000
674.972; 1567.125;  272.375;    0.000
675.084; 1495.125;  244.375;    0.000
675.196; 1536.125;  272.375;    0.000
675.307; 1468.125;  244.375;    0.000
675.419; 1459.125;  219.375;    0.000
675.531; 1570.125;  275.375;    0.000
675.643; 1468.125;  215.375;    0.000
675.755; 1446.125;  243.375;    0.000
675.866; 1468.125;  223.375;    0.000
675.978; 1438.125;  216.375;    0.000
676.090; 1543.125;  242.375;    0.000
676.201; 1518.125;  276.375;    0.000
676.313; 1453.125;  226.375;    0.000
676.425; 1404.125;  234.375;    0.000
676.536; 1493.125;  231.375;    0.000
676.648; 1474.125;  254.375;    0.000
676.759; 1487.125;  273.375;    0.000
676.871; 1403.125;  250.375;    0.000
676.983; 1462.125;  256.375;    0.000
677.094; 1431.125;  210.375;    0.000
677.206; 1357.125;  248.375;    0.000
677.317; 1500.125;  263.375;    0.000
677.429; 1408.125;  238.375;    0.000
677.540; 1387.125;  247.375;    0.000
677.651; 1450.125;  224.375;    0.000
677.763; 1463.125;  217.375;    0.000
677.874; 1460.125;  234.375;    0.000
677.986; 1426.125;  238.375;    0.000
678.097; 1404.125;  226.375;    0.000
678.208; 1473.125;  253.375;    0.000
678.320; 1446.125;  217.375;    0.000
678.431; 1362.125;  238.375;    0.000
678.542; 1345.125;  236.375;    0.000
678.653; 1350.125;  218.375;    0.000
678.765; 1379.125;  275.375;    0.000
678.876; 1383.125;  213.375;    0.000
678.987; 1323.125;  182.375;    0.000
679.098; 1423.125;  221.375;    0.000
679.209; 1375.125;  238.375;    0.000
679.320; 1382.125;  212.375;    0.000
679.432; 1292.125;  231.375;    0.000
679.543; 1332.125;  198.375;    0.000
679.654; 1402.125;  191.375;    0.000
679.765; 1354.125;  214.375;    0.000
679.876; 1379.125;  221.375;    0.000
679.987; 1330.125;  162.375;    0.000
680.098; 1354.125;  230.375;    0.000
680.209; 1367.125;  206.375;    0.000
680.320; 1295.125;  196.375;    0.000
680.431; 1368.125;  191.375;    0.000
680.542; 1347.125;  214.375;    0.000
680.653; 1385.125;  238.375;    0.000
680.763; 1316.125;  182.375;    0.000
680.874; 1322.125;  213.375;    0.000
680.985; 1304.125;  224.375;    0.000
681.096; 1328.125;  222.375;    0.000
681.207; 1293.125;  220.375;    0.000
681.318; 1354.125;  216.375;    0.000
681.428; 1301.125;  229.375;    0.000
681.539; 1312.125;  183.375;    0.000
681.650; 1284.125;  202.375;    0.000
681.760; 1405.125;  223.375;    0.000
681.871; 1351.125;  211.375;    0.000
681.982; 1315.125;  189.375;    0.000
682.093; 1316.125;  222.375;    0.000
682.203; 1354.125;  220.375;    0.000
682.314; 1315.125;  214.375;    0.000
682.424; 1396.125;  208.375;    0.000
682.535; 1292.125;  213.375;    0.000
682.646; 1356.125;  302.375;    0.000
682.756; 1325.125;  255.375;    0.000
682.867; 1398.125;  244.375;    0.000
682.977; 1344.125;  221.375;    0.000
683.088; 1310.125;  259.375;    0.000
683.198; 1332.125;  212.375;    0.000
683.308; 1329.125;  202.375;    0.000
683.419; 1385.125;  255.375;    0.000
683.529; 1320.125;  217.375;    0.000
683.640; 1303.125;  240.375;    0.000
683.750; 1242.125;  181.375;    0.000
683.860; 1341.125;  246.375;    0.000
683.971; 1357.125;  254.375;    0.000
684.081; 1350.125;  235.375;    0.000
684.191; 1344.125;  251.375;    0.000
684.301; 1339.125;  233.375;    0.000
684.412; 1295.125;  202.375;    0.000
684.522; 1261.125;  232.375;    0.000
684.632; 1333.125;  202.375;    0.000
684.742; 1348.125;  254.375;    0.000
684.852; 1316.125;  219.375;    0.000
684.963; 1290.125;  256.375;    0.000
685.073; 1267.125;  253.375;    0.000
685.183; 1321.125;  254.375;    0.000
685.293; 1318.125;  232.375;    0.000
685.403; 1316.125;  242.375;    0.000
685.513; 1335.125;  261.375;    0.000
685.623; 1314.125;  245.375;    0.000
685.733; 1289.125;  254.375;    0.000
685.843; 1299.125;  249.375;    0.000
685.953; 1280.125;  252.375;    0.000
686.063; 1254.125;  227.375;    0.000
686.173; 1327.125;  223.375;    0.000
686.283; 1333.125;  234.375;    0.000
686.393; 1266.125;  239.375;    0.000
686.503; 1292.125;  231.375;    0.000
686.612; 1317.125;  232.375;    0.000
686.722; 1334.125;  258.375;    0.000
686.832; 1333.125;  256.375;    0.000
686.942; 1265.125;  230.375;    0.000
687.052; 1242.125;  274.375;    0.000
687.161; 1299.125;  269.375;    0.000
687.271; 1265.125;  218.375;    0.000
687.381; 1323.125;  235.375;    0.000
687.491; 1335.125;  262.375;    0.000
687.600; 1313.125;  256.375;    0.000
687.710; 1252.125;  225.375;    0.000
687.820; 1235.125;  230.375;    0.000
687.929; 1230.125;  226.375;    0.000
688.039; 1292.125;  228.375;    0.000
688.148; 1317.125;  249.375;    0.000
688.258; 1260.125;  237.375;    0.000
688.367; 1302.125;  260.375;    0.000
688.477; 1291.125;  200.375;    0.000
688.586; 1240.125;  223.375;    0.000
688.696; 1305.125;  223.375;    0.000
688.805; 1224.125;  257.375;    0.000
688.915; 1215.125;  185.375;    0.000
689.024; 1276.125;  227.375;    0.000
689.134; 1240.125;  224.375;    0.000
689.243; 1289.125;  206.375;    0.000
689.352; 1352.125;  275.375;    0.000
689.462; 1228.125;  233.375;    0.000
689.571; 1234.125;  244.375;    0.000
689.680; 1220.125;  261.375;    0.000
689.790; 1273.125;  192.375;    0.000
689.899; 1236.125;  214.375;    0.000
690.008; 1240.125;  255.375;    0.000
690.117; 1239.125;  219.375;    0.000
690.227; 1272.125;  241.375;    0.000
690.336; 1175.125;  231.375;    0.000
690.445; 1188.125;  212.375;    0.000
690.554; 1262.125;  234.375;    0.000
690.663; 1234.125;  210.375;    0.000
690.772; 1222.125;  221.375;    0.000
690.881; 1294.125;  244.375;    0.000
690.990; 1180.125;  247.375;    0.000
691.099; 1247.125;  222.375;    0.000
691.209; 1263.125;  240.375;    0.000
691.318; 1255.125;  223.375;    0.000
691.427; 1209.125;  217.375;    0.000
691.536; 1256.125;  216.375;    0.000
691.644; 1298.125;  194.375;    0.000
691.753; 1280.125;  221.375;    0.000
691.862; 1260.125;  224.375;    0.000
691.971; 1227.125;  191.375;    0.000
692.080; 1340.125;  247.375;    0.000
692.189; 1225.125;  208.375;    0.000
692.298; 1286.125;  203.375;    0.000
692.406; 1244.125;  239.375;    0.000
692.515; 1314.125;  250.375;    0.000
692.624; 1200.125;  226.375;    0.000
692.733; 1239.125;  229.375;    0.000
692.842; 1259.125;  254.375;    0.000
692.950; 1302.125;  242.375;    0.000
693.059; 1229.125;  204.375;    0.000
693.168; 1302.125;  252.375;    0.000
693.276; 1240.125;  195.375;    0.000
693.385; 1242.125;  228.375;    0.000
693.494; 1253.125;  282.375;    0.000
693.602; 1257.125;  221.375;    0.000
693.711; 1287.125;  225.375;    0.000
693.819; 1262.125;  234.375;    0.000
693.928; 1239.125;  229.375;    0.000
694.036; 1261.125;  192.375;    0.000
694.145; 1233.125;  233.375;    0.000
694.253; 1304.125;  277.375;    0.000
694.362; 1177.125;  188.375;    0.000
694.470; 1216.125;  263.375;    0.000
694.579; 1237.125;  253.375;    0.000
694.687; 1245.125;  281.375;    0.000
694.795; 1204.125;  233.375;    0.000
694.904; 1275.125;  223.375;    0.000
695.012; 1278.125;  296.375;    0.000
695.120; 1223.125;  227.375;    0.000
695.229; 1289.125;  269.375;    0.000
695.337; 1242.125;  229.375;    0.000
695.445; 1266.125;  244.375;    0.000
695.553; 1257.125;  259.375;    0.000
695.662; 1242.125;  208.375;    0.000
695.770; 1211.125;  241.375;    0.000
695.878; 1203.125;  239.375;    0.000
695.986; 1229.125;  247.375;    0.000
696.094; 1221.125;  224.375;    0.000
696.202; 1211.125;  205.375;    0.000
696.310; 1250.125;  217.375;    0.000
696.419; 1194.125;  228.375;    0.000
696.527; 1231.125;  246.375;    0.000
696.635; 1203.125;  245.375;    0.000
696.743; 1220.125;  233.375;    0.000
696.851; 1209.125;  251.375;    0.000
696.959; 1245.125;  257.375;    0.000
697.067; 1212.125;  260.375;    0.000
697.174; 1224.125;  223.375;    0.000
697.282; 1214.125;  239.375;    0.000
697.390; 1339.125;  264.375;    0.000
697.498; 1259.125;  227.375;    0.000
697.606; 1226.125;  243.375;    0.000
697.714; 1176.125;  256.375;    0.000
697.822; 1245.125;  278.375;    0.000
697.929; 1200.125;  227.375;    0.000
698.037; 1240.125;  232.375;    0.000
698.145; 1245.125;  256.375;    0.000
698.253; 1230.125;  245.375;    0.000
698.360; 1235.125;  282.375;    0.000
698.468; 1206.125;  244.375;    0.000
698.576; 1216.125;  279.375;    0.000
698.683; 1263.125;  259.375;    0.000
698.791; 1163.125;  265.375;    0.000
698.899; 1268.125;  250.375;    0.000
699.006; 1229.125;  245.375;    0.000
699.114; 1214.125;  280.375;    0.000
699.221; 1210.125;  240.375;    0.000
699.329; 1238.125;  293.375;    0.000
699.436; 1288.125;  216.375;    0.000
699.544; 1217.125;  269.375;    0.000
699.651; 1219.125;  219.375;    0.000
699.759; 1207.125;  245.375;    0.000
699.866; 1223.125;  261.375;    0.000
699.974; 1128.125;  245.375;    0.000
700.081; 1243.125;  257.375;    0.000
700.188; 1198.125;  268.375;    0.000
700.296; 1194.125;  225.375;    0.000
700.403; 1160.125;  257.375;    0.000
700.510; 1232.125;  267.375;    0.000
700.618; 1246.125;  299.375;    0.000
700.725; 1231.125;  223.375;    0.000
700.832; 1215.125;  233.375;    0.000
700.940; 1270.125;  255.375;    0.000
701.047; 1212.125;  244.375;    0.000
701.154; 1173.125;  248.375;    0.000
701.261; 1180.125;  264.375;    0.000
701.368; 1198.125;  299.375;    0.000
701.475; 1173.125;  264.375;    0.000
701.582; 1214.125;  275.375;    0.000
701.690; 1259.125;  261.375;    0.000
701.797; 1258.125;  273.375;    0.000
701.904; 1211.125;  320.375;    0.000
702.011; 1261.125;  299.375;    0.000
702.118; 1255.125;  292.375;    0.000
702.225; 1262.125;  317.375;    0.000
702.332; 1247.125;  307.375;    0.000
702.439; 1280.125;  313.375;    0.000
702.546; 1329.125;  312.375;    0.000
702.652; 1254.125;  297.375;    0.000
702.759; 1259.125;  345.375;    0.000
702.866; 1238.125;  330.375;    0.000
702.973; 1320.125;  303.375;    0.000
703.080; 1279.125;  303.375;    0.000
703.187; 1255.125;  327.375;    0.000
703.294; 1280.125;  325.375;    0.000
703.400; 1191.125;  302.375;    0.000
703.507;  442.125;  344.375;    0.000
703.614;  286.125;  294.375;    0.000
703.720;  326.125;  322.375;    0.000
703.827;  288.125;  329.375;    0.000
703.934;  330.125;  318.375;    0.000
704.040;  321.125;  299.375;    0.000
704.147;  315.125;  352.375;    0.000
704.254;  361.125;  350.375;    0.000
704.360;  326.125;  347.375;    0.000
704.467;  333.125;  336.375;    0.000
704.573;  333.125;  344.375;    0.000
704.680;  322.125;  365.375;    0.000
704.786;  323.125;  332.375;    0.000
704.893;  331.125;  304.375;    0.000
704.999;  325.125;  299.375;    0.000
705.106;  355.125;  365.375;    0.000

