
Integration time [ms]:   1.000
Averaging Nr. [scans]: 1
Smoothing Nr. [pixels]: 0
Data measured with spectrometer [name]: UV2
Wave   ;Sample   ;Dark     ;Reference
[nm]   ;[counts] ;[counts] ;[counts] 

353.533;  230.575;  216.475;    0.000
353.597;  220.575;  244.475;    0.000
353.660;  245.575;  181.475;    0.000
353.723;  163.575;  203.475;    0.000
353.786;  164.575;  180.475;    0.000
353.850;  221.575;  213.475;    0.000
353.913;  180.575;  191.475;    0.000
353.976;  201.575;  195.475;    0.000
354.039;  220.575;  158.475;    0.000
354.102;  186.575;  199.475;    0.000
354.166;  209.575;  185.475;    0.000
354.229;  168.575;  188.475;    0.000
354.292;  167.575;  188.475;    0.000
354.355;  190.575;  226.475;    0.000
354.418;  177.575;  158.475;    0.000
354.481;  189.575;  185.475;    0.000
354.545;  470.575;  191.475;    0.000
354.608;  540.575;  247.475;    0.000
354.671;  469.575;  176.475;    0.000
354.734;  553.575;  198.475;    0.000
354.797;  521.575;  195.475;    0.000
354.860;  523.575;  212.475;    0.000
354.923;  520.575;  184.475;    0.000
354.986;  517.575;  169.475;    0.000
355.050;  505.575;  206.475;    0.000
355.113;  557.575;  210.475;    0.000
355.176;  572.575;  217.475;    0.000
355.239;  580.575;  201.475;    0.000
355.302;  571.575;  193.475;    0.000
355.365;  589.575;  234.475;    0.000
355.428;  585.575;  182.475;    0.000
355.491;  598.575;  233.475;    0.000
355.554;  620.575;  167.475;    0.000
355.617;  572.575;  195.475;    0.000
355.680;  565.575;  198.475;    0.000
355.743;  615.575;  186.475;    0.000
355.806;  553.575;  171.475;    0.000
355.869;  662.575;  244.475;    0.000
355.932;  588.575;  164.475;    0.000
355.995;  613.575;  220.475;    0.000
356.058;  644.575;  172.475;    0.000
356.121;  599.575;  228.475;    0.000
356.184;  681.575;  225.475;    0.000
356.247;  622.575;  161.475;    0.000
356.310;  601.575;  195.475;    0.000
356.373;  676.575;  191.475;    0.000
356.436;  654.575;  147.475;    0.000
356.498;  665.575;  183.475;    0.000
356.561;  645.575;  137.475;    0.000
356.624;  649.575;  186.475;    0.000
356.687;  670.575;  158.475;    0.000
356.750;  733.575;  194.475;    0.000
356.813;  637.575;  186.475;    0.000
356.876;  693.575;  161.475;    0.000
356.939;  609.575;  188.475;    0.000
357.001;  641.575;  200.475;    0.000
357.064;  643.575;  182.475;    0.000
357.127;  679.575;  168.475;    0.000
357.190;  657.575;  157.475;    0.000
357.253;  675.575;  199.475;    0.000
357.316;  715.575;  187.475;    0.000
357.378;  680.575;  174.475;    0.000
357.441;  630.575;  165.475;    0.000
357.504;  667.575;  189.475;    0.000
357.567;  596.575;  116.475;    0.000
357.629;  614.575;  176.475;    0.000
357.692;  606.575;  134.475;    0.000
357.755;  693.575;  175.475;    0.000
357.818;  612.575;  159.475;    0.000
357.880;  680.575;  185.475;    0.000
357.943;  617.575;  159.475;    0.000
358.006;  671.575;  176.475;    0.000
358.069;  719.575;  156.475;    0.000
358.131;  672.575;  170.475;    0.000
358.194;  600.575;  125.475;    0.000
358.257;  667.575;  186.475;    0.000
358.319;  668.575;  139.475;    0.000
358.382;  688.575;  175.475;    0.000
358.445;  694.575;  170.475;    0.000
358.507;  698.575;  129.475;    0.000
358.570;  684.575;  168.475;    0.000
358.633;  700.575;  152.475;    0.000
358.695;  712.575;  194.475;    0.000
358.758;  729.575;  154.475;    0.000
358.821;  653.575;  147.475;    0.000
358.883;  656.575;  163.475;    0.000
358.946;  716.575;  155.475;    0.000
359.008;  696.575;  208.475;    0.000
359.071;  717.575;  182.475;    0.000
359.134;  633.575;  126.475;    0.000
359.196;  646.575;  142.475;    0.000
359.259;  722.575;  138.475;    0.000
359.321;  704.575;  153.475;    0.000
359.384;  719.575;  186.475;    0.000
359.446;  707.575;  152.475;    0.000
359.509;  677.575;  144.475;    0.000
359.571;  703.575;  164.475;    0.000
359.634;  688.575;  171.475;    0.000
359.696;  672.575;  144.475;    0.000
359.759;  696.575;  171.475;    0.000
359.821;  721.575;  161.475;    0.000
359.884;  698.575;  159.475;    0.000
359.946;  732.575;  186.475;    0.000
360.009;  714.575;  171.475;    0.000
360.071;  714.575;  166.475;    0.000
360.134;  725.575;  215.475;    0.000
360.196;  685.575;  138.475;    0.000
360.259;  724.575;  196.475;    0.000
360.321;  773.575;  148.475;    0.000
360.384;  733.575;  150.475;    0.000
360.446;  713.575;  148.475;    0.000
360.508;  745.575;  172.475;    0.000
360.571;  758.575;  155.475;    0.000
360.633;  687.575;  153.475;    0.000
360.696;  713.575;  142.475;    0.000
360.758;  745.575;  165.475;    0.000
360.820;  713.575;  155.475;    0.000
360.883;  713.575;  156.475;    0.000
360.945;  776.575;  171.475;    0.000
361.007;  743.575;  138.475;    0.000
361.070;  773.575;  129.475;    0.000
361.132;  771.575;  166.475;    0.000
361.194;  721.575;  143.475;    0.000
361.257;  710.575;  154.475;    0.000
361.319;  760.575;  176.475;    0.000
361.381;  775.575;  143.475;    0.000
361.443;  672.575;  136.475;    0.000
361.506;  749.575;  160.475;    0.000
361.568;  695.575;  140.475;    0.000
361.630;  790.575;  159.475;    0.000
361.693;  728.575;  162.475;    0.000
361.755;  800.575;  185.475;    0.000
361.817;  789.575;  209.475;    0.000
361.879;  752.575;  161.475;    0.000
361.941;  787.575;  152.475;    0.000
362.004;  790.575;  132.475;    0.000
362.066;  708.575;  159.475;    0.000
362.128;  743.575;  143.475;    0.000
362.190;  742.575;  131.475;    0.000
362.252;  772.575;  131.475;    0.000
362.315;  801.575;  175.475;    0.000
362.377;  770.575;  140.475;    0.000
362.439;  756.575;  140.475;    0.000
362.501;  723.575;  140.475;    0.000
362.563;  810.575;  152.475;    0.000
362.625;  795.575;  174.475;    0.000
362.688;  807.575;  195.475;    0.000
362.750;  794.575;  221.475;    0.000
362.812;  746.575;  171.475;    0.000
362.874;  833.575;  117.475;    0.000
362.936;  776.575;  162.475;    0.000
362.998;  794.575;  142.475;    0.000
363.060;  813.575;  143.475;    0.000
363.122;  795.575;  148.475;    0.000
363.184;  791.575;  179.475;    0.000
363.246;  764.575;  186.475;    0.000
363.308;  779.575;  180.475;    0.000
363.370;  795.575;  200.475;    0.000
363.432;  744.575;  139.475;    0.000
363.494;  804.575;  138.475;    0.000
363.556;  756.575;  114.475;    0.000
363.618;  744.575;  153.475;    0.000
363.680;  754.575;  153.475;    0.000
363.742;  756.575;  178.475;    0.000
363.804;  760.575;  214.475;    0.000
363.866;  766.575;  170.475;    0.000
363.928;  720.575;  145.475;    0.000
363.990;  807.575;  215.475;    0.000
364.052;  756.575;  166.475;    0.000
364.114;  692.575;  168.475;    0.000
364.176;  825.575;  176.475;    0.000
364.238;  806.575;  203.475;    0.000
364.300;  854.575;  158.475;    0.000
364.362;  780.575;  152.475;    0.000
364.424;  756.575;  119.475;    0.000
364.486;  819.575;  187.475;    0.000
364.548;  825.575;  180.475;    0.000
364.609;  793.575;  212.475;    0.000
364.671;  812.575;  165.475;    0.000
364.733;  816.575;  190.475;    0.000
364.795;  884.575;  148.475;    0.000
364.857;  739.575;  159.475;    0.000
364.919;  787.575;  159.475;    0.000
364.981;  820.575;  191.475;    0.000
365.042;  858.575;  170.475;    0.000
365.104;  804.575;  145.475;    0.000
365.166;  780.575;  134.475;    0.000
365.228;  792.575;  150.475;    0.000
365.290;  820.575;  158.475;    0.000
365.351;  771.575;  168.475;    0.000
365.413;  846.575;  173.475;    0.000
365.475;  792.575;  172.475;    0.000
365.537;  786.575;  126.475;    0.000
365.598;  826.575;  160.475;    0.000
365.660;  766.575;  127.475;    0.000
365.722;  845.575;  189.475;    0.000
365.784;  830.575;  161.475;    0.000
365.845;  805.575;  152.475;    0.000
365.907;  753.575;  117.475;    0.000
365.969;  869.575;  146.475;    0.000
366.030;  839.575;  171.475;    0.000
366.092;  817.575;  155.475;    0.000
366.154;  857.575;  137.475;    0.000
366.215;  811.575;  147.475;    0.000
366.277;  803.575;  148.475;    0.000
366.339;  816.575;  158.475;    0.000
366.400;  785.575;  140.475;    0.000
366.462;  795.575;  159.475;    0.000
366.524;  840.575;  160.475;    0.000
366.585;  778.575;  157.475;    0.000
366.647;  832.575;  170.475;    0.000
366.708;  767.575;  123.475;    0.000
366.770;  846.575;  194.475;    0.000
366.832;  888.575;  191.475;    0.000
366.893;  881.575;  155.475;    0.000
366.955;  804.575;  132.475;    0.000
367.016;  858.575;  126.475;    0.000
367.078;  859.575;  202.475;    0.000
367.139;  792.575;  116.475;    0.000
367.201;  799.575;  134.475;    0.000
367.262;  868.575;  157.475;    0.000
367.324;  867.575;  202.475;    0.000
367.385;  870.575;  118.475;    0.000
367.447;  844.575;  155.475;    0.000
367.508;  888.575;  134.475;    0.000
367.570;  792.575;  165.475;    0.000
367.631;  826.575;  118.475;    0.000
367.693;  801.575;  170.475;    0.000
367.754;  874.575;  154.475;    0.000
367.816;  828.575;  146.475;    0.000
367.877;  848.575;  175.475;    0.000
367.939;  871.575;  200.475;    0.000
368.000;  799.575;  168.475;    0.000
368.062;  859.575;  138.475;    0.000
368.123;  860.575;  170.475;    0.000
368.184;  832.575;  188.475;    0.000
368.246;  886.575;  145.475;    0.000
368.307;  802.575;  163.475;    0.000
368.369;  838.575;  144.475;    0.000
368.430;  846.575;  140.475;    0.000
368.491;  892.575;  133.475;    0.000
368.553;  889.575;  145.475;    0.000
368.614;  879.575;  158.475;    0.000
368.675;  899.575;  147.475;    0.000
368.737;  817.575;  157.475;    0.000
368.798;  872.575;  163.475;    0.000
368.859;  883.575;  173.475;    0.000
368.921;  870.575;  122.475;    0.000
368.982;  910.575;  184.475;    0.000
369.043;  845.575;  169.475;    0.000
369.104;  866.575;  142.475;    0.000
369.166;  910.575;  169.475;    0.000
369.227;  953.575;  156.475;    0.000
369.288;  861.575;  151.475;    0.000
369.349;  855.575;  191.475;    0.000
369.411;  895.575;  168.475;    0.000
369.472;  843.575;  155.475;    0.000
369.533;  895.575;  149.475;    0.000
369.594;  861.575;  174.475;    0.000
369.656;  850.575;  188.475;    0.000
369.717;  834.575;  113.475;    0.000
369.778;  936.575;  184.475;    0.000
369.839;  862.575;  151.475;    0.000
369.900;  847.575;  180.475;    0.000
369.961;  873.575;  171.475;    0.000
370.023;  919.575;  143.475;    0.000
370.084;  856.575;  137.475;    0.000
370.145;  867.575;  152.475;    0.000
370.206;  852.575;  151.475;    0.000
370.267;  843.575;  134.475;    0.000
370.328;  878.575;  178.475;    0.000
370.389;  946.575;  181.475;    0.000
370.451;  896.575;  169.475;    0.000
370.512;  880.575;  172.475;    0.000
370.573;  864.575;  148.475;    0.000
370.634;  887.575;  156.475;    0.000
370.695;  893.575;  151.475;    0.000
370.756;  902.575;  185.475;    0.000
370.817;  950.575;  185.475;    0.000
370.878;  928.575;  191.475;    0.000
370.939;  862.575;  147.475;    0.000
371.000;  897.575;  162.475;    0.000
371.061;  901.575;  145.475;    0.000
371.122;  925.575;  179.475;    0.000
371.183;  888.575;  114.475;    0.000
371.244;  937.575;  180.475;    0.000
371.305;  929.575;  138.475;    0.000
371.366;  921.575;  157.475;    0.000
371.427;  919.575;  148.475;    0.000
371.488;  886.575;  138.475;    0.000
371.549;  895.575;  193.475;    0.000
371.610;  919.575;  158.475;    0.000
371.671;  869.575;  119.475;    0.000
371.732;  966.575;  159.475;    0.000
371.793;  911.575;  178.475;    0.000
371.853;  858.575;  155.475;    0.000
371.914;  950.575;  148.475;    0.000
371.975;  855.575;  124.475;    0.000
372.036;  865.575;  158.475;    0.000
372.097;  922.575;  136.475;    0.000
372.158;  897.575;  116.475;    0.000
372.219;  921.575;  157.475;    0.000
372.280;  912.575;  151.475;    0.000
372.340;  919.575;  190.475;    0.000
372.401;  953.575;  151.475;    0.000
372.462;  931.575;  129.475;    0.000
372.523;  881.575;  121.475;    0.000
372.584;  904.575;  152.475;    0.000
372.645;  944.575;  132.475;    0.000
372.705;  925.575;  190.475;    0.000
372.766;  918.575;  153.475;    0.000
372.827;  971.575;  133.475;    0.000
372.888;  886.575;  161.475;    0.000
372.948;  948.575;  159.475;    0.000
373.009;  931.575;  164.475;    0.000
373.070;  933.575;  139.475;    0.000
373.131;  916.575;  137.475;    0.000
373.191;  903.575;  181.475;    0.000
373.252;  936.575;  154.475;    0.000
373.313;  924.575;  179.475;    0.000
373.373;  895.575;  136.475;    0.000
373.434;  972.575;  169.475;    0.000
373.495;  946.575;   97.475;    0.000
373.555;  932.575;  142.475;    0.000
373.616;  850.575;  178.475;    0.000
373.677;  946.575;  167.475;    0.000
373.737;  908.575;  139.475;    0.000
373.798;  891.575;  155.475;    0.000
373.859;  950.575;  162.475;    0.000
373.919;  909.575;  174.475;    0.000
373.980;  955.575;  172.475;    0.000
374.041;  944.575;  166.475;    0.000
374.101;  922.575;  172.475;    0.000
374.162;  963.575;  188.475;    0.000
374.222;  959.575;  186.475;    0.000
374.283;  946.575;  195.475;    0.000
374.343;  996.575;  204.475;    0.000
374.404;  971.575;  187.475;    0.000
374.465;  940.575;  183.475;    0.000
374.525;  936.575;  136.475;    0.000
374.586;  957.575;  140.475;    0.000
374.646; 1020.575;  191.475;    0.000
374.707;  980.575;  208.475;    0.000
374.767; 1064.575;  178.475;    0.000
374.828;  926.575;  159.475;    0.000
374.888;  943.575;  143.475;    0.000
374.949; 1014.575;  202.475;    0.000
375.009;  996.575;  151.475;    0.000
375.070; 1040.575;  160.475;    0.000
375.130; 1041.575;  160.475;    0.000
375.190;  980.575;  164.475;    0.000
375.251; 1065.575;  196.475;    0.000
375.311;  960.575;  154.475;    0.000
375.372;  998.575;  197.475;    0.000
375.432; 1023.575;  159.475;    0.000
375.493;  996.575;  197.475;    0.000
375.553;  975.575;  165.475;    0.000
375.613;  904.575;  174.475;    0.000
375.674;  983.575;  165.475;    0.000
375.734;  972.575;  128.475;    0.000
375.794;  966.575;  169.475;    0.000
375.855; 1092.575;  193.475;    0.000
375.915;  906.575;  162.475;    0.000
375.975;  940.575;  181.475;    0.000
376.036;  980.575;  161.475;    0.000
376.096;  953.575;  131.475;    0.000
376.156;  970.575;  165.475;    0.000
376.217;  987.575;  182.475;    0.000
376.277; 1002.575;  185.475;    0.000
376.337;  966.575;  177.475;    0.000
376.398;  943.575;  162.475;    0.000
376.458; 1003.575;  179.475;    0.000
376.518; 1016.575;  150.475;    0.000
376.578;  981.575;  165.475;    0.000
376.639; 1021.575;  159.475;    0.000
376.699; 1002.575;  180.475;    0.000
376.759; 1006.575;  206.475;    0.000
376.819; 1040.575;  146.475;    0.000
376.880;  993.575;  177.475;    0.000
376.940; 1011.575;  160.475;    0.000
377.000;  979.575;  149.475;    0.000
377.060;  967.575;  180.475;    0.000
377.120;  974.575;  146.475;    0.000
377.180; 1019.575;  137.475;    0.000
377.241;  994.575;  163.475;    0.000
377.301; 1006.575;  169.475;    0.000
377.361; 1016.575;  137.475;    0.000
377.421;  979.575;  184.475;    0.000
377.481; 1038.575;  185.475;    0.000
377.541; 1035.575;  146.475;    0.000
377.601; 1027.575;  179.475;    0.000
377.661; 1092.575;  181.475;    0.000
377.722; 1068.575;  185.475;    0.000
377.782; 1025.575;  147.475;    0.000
377.842; 1082.575;  190.475;    0.000
377.902; 1018.575;  166.475;    0.000
377.962;  970.575;  153.475;    0.000
378.022;  994.575;  163.475;    0.000
378.082; 1083.575;  146.475;    0.000
378.142; 1053.575;  152.475;    0.000
378.202; 1023.575;  164.475;    0.000
378.262; 1085.575;  195.475;    0.000
378.322; 1075.575;  190.475;    0.000
378.382; 1014.575;  152.475;    0.000
378.442; 1097.575;  175.475;    0.000
378.502;  984.575;  153.475;    0.000
378.562; 1017.575;  142.475;    0.000
378.622; 1088.575;  166.475;    0.000
378.682; 1107.575;  173.475;    0.000
378.742; 1021.575;  182.475;    0.000
378.802; 1000.575;  145.475;    0.000
378.862; 1151.575;  210.475;    0.000
378.921; 1144.575;  182.475;    0.000
378.981; 1078.575;  185.475;    0.000
379.041; 1035.575;  130.475;    0.000
379.101; 1090.575;  177.475;    0.000
379.161;  994.575;  166.475;    0.000
379.221; 1082.575;  162.475;    0.000
379.281; 1087.575;  167.475;    0.000
379.341; 1088.575;  136.475;    0.000
379.401; 1057.575;  145.475;    0.000
379.460; 1135.575;  176.475;    0.000
379.520; 1129.575;  162.475;    0.000
379.580; 1170.575;  144.475;    0.000
379.640; 1150.575;  163.475;    0.000
379.700; 1149.575;  157.475;    0.000
379.759; 1156.575;  165.475;    0.000
379.819; 1083.575;  190.475;    0.000
379.879; 1159.575;  143.475;    0.000
379.939; 1233.575;  188.475;    0.000
379.999; 1203.575;  141.475;    0.000
380.058; 1176.575;  169.475;    0.000
380.118; 1164.575;  158.475;    0.000
380.178; 1112.575;  114.475;    0.000
380.237; 1145.575;  157.475;    0.000
380.297; 1222.575;  177.475;    0.000
380.357; 1224.575;  189.475;    0.000
380.417; 1190.575;  182.475;    0.000
380.476; 1208.575;  178.475;    0.000
380.536; 1201.575;  189.475;    0.000
380.596; 1209.575;  183.475;    0.000
380.655; 1190.575;  195.475;    0.000
380.715; 1151.575;  170.475;    0.000
380.775; 1204.575;  170.475;    0.000
380.834; 1189.575;  179.475;    0.000
380.894; 1171.575;  188.475;    0.000
380.954; 1125.575;  142.475;    0.000
381.013; 1268.575;  178.475;    0.000
381.073; 1222.575;  164.475;    0.000
381.132; 1201.575;  192.475;    0.000
381.192; 1202.575;  187.475;    0.000
381.252; 1241.575;  176.475;    0.000
381.311; 1304.575;  206.475;    0.000
381.371; 1247.575;  167.475;    0.000
381.430; 1197.575;  131.475;    0.000
381.490; 1271.575;  150.475;    0.000
381.549; 1197.575;  129.475;    0.000
381.609; 1298.575;  178.475;    0.000
381.668; 1300.575;  194.475;    0.000
381.728; 1243.575;  210.475;    0.000
381.787; 1342.575;  190.475;    0.000
381.847; 1321.575;  181.475;    0.000
381.906; 1279.575;  156.475;    0.000
381.966; 1250.575;  176.475;    0.000
382.025; 1306.575;  186.475;    0.000
382.085; 1349.575;  192.475;    0.000
382.144; 1355.575;  173.475;    0.000
382.204; 1380.575;  207.475;    0.000
382.263; 1401.575;  193.475;    0.000
382.323; 1401.575;  164.475;    0.000
382.382; 1417.575;  161.475;    0.000
382.441; 1488.575;  199.475;    0.000
382.501; 1454.575;  208.475;    0.000
382.560; 1571.575;  173.475;    0.000
382.619; 1513.575;  179.475;    0.000
382.679; 1617.575;  177.475;    0.000
382.738; 1612.575;  190.475;    0.000
382.798; 1891.575;  213.475;    0.000
382.857; 1982.575;  195.475;    0.000
382.916; 2259.575;  184.475;    0.000
382.976; 2355.575;  169.475;    0.000
383.035; 2098.575;  194.475;    0.000
383.094; 2284.575;  185.475;    0.000
383.154; 2469.575;  198.475;    0.000
383.213; 2992.575;  147.475;    0.000
383.272; 2936.575;  175.475;    0.000
383.331; 2199.575;  122.475;    0.000
383.391; 2018.575;  185.475;    0.000
383.450; 1965.575;  160.475;    0.000
383.509; 1978.575;  168.475;    0.000
383.568; 2072.575;  196.475;    0.000
383.628; 2118.575;  156.475;    0.000
383.687; 2373.575;  171.475;    0.000
383.746; 2829.575;  155.475;    0.000
383.805; 3383.575;  201.475;    0.000
383.864; 3326.575;  125.475;    0.000
383.924; 2529.575;  213.475;    0.000
383.983; 2003.575;  188.475;    0.000
384.042; 1839.575;  162.475;    0.000
384.101; 1786.575;  183.475;    0.000
384.160; 1603.575;  155.475;    0.000
384.219; 1583.575;  155.475;    0.000
384.279; 1504.575;  189.475;    0.000
384.338; 1524.575;  156.475;    0.000
384.397; 1459.575;  148.475;    0.000
384.456; 1462.575;  154.475;    0.000
384.515; 1422.575;  160.475;    0.000
384.574; 1452.575;  223.475;    0.000
384.633; 1458.575;  133.475;    0.000
384.692; 1406.575;  163.475;    0.000
384.751; 1421.575;  186.475;    0.000
384.810; 1401.575;  187.475;    0.000
384.869; 1326.575;  172.475;    0.000
384.929; 1415.575;  153.475;    0.000
384.988; 1395.575;  174.475;    0.000
385.047; 1337.575;  154.475;    0.000
385.106; 1369.575;  164.475;    0.000
385.165; 1427.575;  151.475;    0.000
385.224; 1412.575;  147.475;    0.000
385.283; 1336.575;  176.475;    0.000
385.342; 1321.575;  142.475;    0.000
385.401; 1367.575;  175.475;    0.000
385.459; 1320.575;  150.475;    0.000
385.518; 1396.575;  124.475;    0.000
385.577; 1318.575;  115.475;    0.000
385.636; 1375.575;  174.475;    0.000
385.695; 1416.575;  158.475;    0.000
385.754; 1338.575;  150.475;    0.000
385.813; 1374.575;  129.475;    0.000
385.872; 1367.575;  146.475;    0.000
385.931; 1404.575;  194.475;    0.000
385.990; 1304.575;  174.475;    0.000
386.049; 1357.575;  176.475;    0.000
386.107; 1395.575;  151.475;    0.000
386.166; 1372.575;  178.475;    0.000
386.225; 1374.575;  162.475;    0.000
386.284; 1322.575;  180.475;    0.000
386.343; 1367.575;  171.475;    0.000
386.402; 1346.575;  176.475;    0.000
386.460; 1296.575;  144.475;    0.000
386.519; 1265.575;  140.475;    0.000
386.578; 1317.575;  145.475;    0.000
386.637; 1422.575;  164.475;    0.000
386.696; 1295.575;  189.475;    0.000
386.754; 1316.575;  135.475;    0.000
386.813; 1341.575;  139.475;    0.000
386.872; 1349.575;  121.475;    0.000
386.931; 1343.575;  153.475;    0.000
386.989; 1360.575;  211.475;    0.000
387.048; 1300.575;  156.475;    0.000
387.107; 1361.575;  210.475;    0.000
387.165; 1311.575;  129.475;    0.000
387.224; 1326.575;  205.475;    0.000
387.283; 1354.575;  130.475;    0.000
387.342; 1314.575;  171.475;    0.000
387.400; 1283.575;  156.475;    0.000
387.459; 1308.575;  141.475;    0.000
387.517; 1363.575;  219.475;    0.000
387.576; 1317.575;  166.475;    0.000
387.635; 1343.575;  136.475;    0.000
387.693; 1332.575;  191.475;    0.000
387.752; 1398.575;  165.475;    0.000
387.811; 1358.575;  158.475;    0.000
387.869; 1283.575;  204.475;    0.000
387.928; 1282.575;  149.475;    0.000
387.986; 1330.575;  156.475;    0.000
388.045; 1305.575;  123.475;    0.000
388.103; 1319.575;  150.475;    0.000
388.162; 1286.575;  173.475;    0.000
388.221; 1359.575;  143.475;    0.000
388.279; 1321.575;  129.475;    0.000
388.338; 1373.575;  212.475;    0.000
388.396; 1250.575;  150.475;    0.000
388.455; 1391.575;  167.475;    0.000
388.513; 1302.575;  116.475;    0.000
388.572; 1243.575;  181.475;    0.000
388.630; 1365.575;  187.475;    0.000
388.689; 1261.575;  180.475;    0.000
388.747; 1294.575;  154.475;    0.000
388.806; 1329.575;  161.475;    0.000
388.864; 1274.575;  167.475;    0.000
388.922; 1343.575;  184.475;    0.000
388.981; 1259.575;  169.475;    0.000
389.039; 1243.575;  102.475;    0.000
389.098; 1305.575;  183.475;    0.000
389.156; 1367.575;  182.475;    0.000
389.214; 1288.575;  173.475;    0.000
389.273; 1300.575;  167.475;    0.000
389.331; 1334.575;  170.475;    0.000
389.390; 1337.575;  150.475;    0.000
389.448; 1380.575;  156.475;    0.000
389.506; 1358.575;  149.475;    0.000
389.565; 1298.575;  162.475;    0.000
389.623; 1359.575;  188.475;    0.000
389.681; 1293.575;  204.475;    0.000
389.740; 1314.575;  187.475;    0.000
389.798; 1311.575;  153.475;    0.000
389.856; 1337.575;  214.475;    0.000
389.914; 1318.575;  177.475;    0.000
389.973; 1279.575;  189.475;    0.000
390.031; 1297.575;  178.475;    0.000
390.089; 1308.575;  163.475;    0.000
390.147; 1319.575;  170.475;    0.000
390.206; 1289.575;  183.475;    0.000
390.264; 1326.575;  161.475;    0.000
390.322; 1345.575;  148.475;    0.000
390.380; 1314.575;  138.475;    0.000
390.439; 1276.575;  194.475;    0.000
390.497; 1343.575;  170.475;    0.000
390.555; 1253.575;  165.475;    0.000
390.613; 1325.575;  177.475;    0.000
390.671; 1345.575;  170.475;    0.000
390.729; 1284.575;  158.475;    0.000
390.788; 1388.575;  162.475;    0.000
390.846; 1315.575;  161.475;    0.000
390.904; 1347.575;  197.475;    0.000
390.962; 1335.575;  212.475;    0.000
391.020; 1304.575;  224.475;    0.000
391.078; 1352.575;  184.475;    0.000
391.136; 1308.575;  191.475;    0.000
391.194; 1364.575;  187.475;    0.000
391.253; 1404.575;  197.475;    0.000
391.311; 1368.575;  185.475;    0.000
391.369; 1306.575;  207.475;    0.000
391.427; 1424.575;  222.475;    0.000
391.485; 1368.575;  184.475;    0.000
391.543; 1378.575;  203.475;    0.000
391.601; 1370.575;  151.475;    0.000
391.659; 1319.575;  176.475;    0.000
391.717; 1282.575;  190.475;    0.000
391.775; 1318.575;  159.475;    0.000
391.833; 1335.575;  186.475;    0.000
391.891; 1401.575;  154.475;    0.000
391.949; 1306.575;  181.475;    0.000
392.007; 1361.575;  190.475;    0.000
392.065; 1329.575;  182.475;    0.000
392.123; 1370.575;  158.475;    0.000
392.180; 1383.575;  198.475;    0.000
392.238; 1331.575;  191.475;    0.000
392.296; 1399.575;  164.475;    0.000
392.354; 1283.575;  172.475;    0.000
392.412; 1363.575;  194.475;    0.000
392.470; 1368.575;  154.475;    0.000
392.528; 1400.575;  172.475;    0.000
392.586; 1352.575;  179.475;    0.000
392.644; 1362.575;  173.475;    0.000
392.701; 1400.575;  202.475;    0.000
392.759; 1380.575;  180.475;    0.000
392.817; 1400.575;  181.475;    0.000
392.875; 1374.575;  168.475;    0.000
392.933; 1307.575;  161.475;    0.000
392.991; 1380.575;  216.475;    0.000
393.048; 1380.575;  197.475;    0.000
393.106; 1356.575;  199.475;    0.000
393.164; 1391.575;  173.475;    0.000
393.222; 1380.575;  179.475;    0.000
393.279; 1498.575;  209.475;    0.000
393.337; 1456.575;  185.475;    0.000
393.395; 1484.575;  174.475;    0.000
393.453; 1374.575;  181.475;    0.000
393.510; 1382.575;  188.475;    0.000
393.568; 1421.575;  191.475;    0.000
393.626; 1424.575;  151.475;    0.000
393.684; 1392.575;  208.475;    0.000
393.741; 1419.575;  179.475;    0.000
393.799; 1383.575;  149.475;    0.000
393.857; 1355.575;  136.475;    0.000
393.914; 1382.575;  190.475;    0.000
393.972; 1368.575;  155.475;    0.000
394.030; 1336.575;  170.475;    0.000
394.087; 1454.575;  213.475;    0.000
394.145; 1418.575;  191.475;    0.000
394.202; 1363.575;  188.475;    0.000
394.260; 1372.575;  168.475;    0.000
394.318; 1434.575;  176.475;    0.000
394.375; 1359.575;  159.475;    0.000
394.433; 1435.575;  168.475;    0.000
394.490; 1456.575;  163.475;    0.000
394.548; 1402.575;  163.475;    0.000
394.605; 1431.575;  181.475;    0.000
394.663; 1432.575;  180.475;    0.000
394.720; 1400.575;  193.475;    0.000
394.778; 1422.575;  168.475;    0.000
394.836; 1365.575;  128.475;    0.000
394.893; 1394.575;  151.475;    0.000
394.951; 1454.575;  173.475;    0.000
395.008; 1486.575;  201.475;    0.000
395.065; 1431.575;  139.475;    0.000
395.123; 1419.575;  173.475;    0.000
395.180; 1437.575;  144.475;    0.000
395.238; 1523.575;  135.475;    0.000
395.295; 1495.575;  167.475;    0.000
395.353; 1484.575;  150.475;    0.000
395.410; 1406.575;  165.475;    0.000
395.468; 1507.575;  223.475;    0.000
395.525; 1482.575;  156.475;    0.000
395.582; 1428.575;  178.475;    0.000
395.640; 1432.575;  178.475;    0.000
395.697; 1503.575;  173.475;    0.000
395.754; 1426.575;  154.475;    0.000
395.812; 1437.575;  169.475;    0.000
395.869; 1548.575;  196.475;    0.000
395.927; 1496.575;  190.475;    0.000
395.984; 1466.575;  195.475;    0.000
396.041; 1461.575;  160.475;    0.000
396.098; 1465.575;  161.475;    0.000
396.156; 1514.575;  187.475;    0.000
396.213; 1480.575;  200.475;    0.000
396.270; 1519.575;  160.475;    0.000
396.328; 1529.575;  113.475;    0.000
396.385; 1541.575;  165.475;    0.000
396.442; 1559.575;  168.475;    0.000
396.499; 1464.575;  117.475;    0.000
396.557; 1496.575;  203.475;    0.000
396.614; 1529.575;  155.475;    0.000
396.671; 1541.575;  187.475;    0.000
396.728; 1520.575;  169.475;    0.000
396.785; 1518.575;  167.475;    0.000
396.843; 1522.575;  154.475;    0.000
396.900; 1543.575;  172.475;    0.000
396.957; 1537.575;  176.475;    0.000
397.014; 1538.575;  193.475;    0.000
397.071; 1505.575;  170.475;    0.000
397.128; 1571.575;  172.475;    0.000
397.186; 1550.575;  205.475;    0.000
397.243; 1531.575;  163.475;    0.000
397.300; 1445.575;  193.475;    0.000
397.357; 1517.575;  166.475;    0.000
397.414; 1516.575;  149.475;    0.000
397.471; 1509.575;  157.475;    0.000
397.528; 1530.575;  180.475;    0.000
397.585; 1543.575;  203.475;    0.000
397.642; 1585.575;  156.475;    0.000
397.699; 1556.575;  229.475;    0.000
397.756; 1513.575;  185.475;    0.000
397.814; 1629.575;  191.475;    0.000
397.871; 1554.575;  170.475;    0.000
397.928; 1637.575;  191.475;    0.000
397.985; 1636.575;  183.475;    0.000
398.042; 1587.575;  161.475;    0.000
398.099; 1579.575;  192.475;    0.000
398.156; 1587.575;  176.475;    0.000
398.212; 1619.575;  170.475;    0.000
398.269; 1552.575;  158.475;    0.000
398.326; 1562.575;  175.475;    0.000
398.383; 1558.575;  177.475;    0.000
398.440; 1568.575;  169.475;    0.000
398.497; 1578.575;  184.475;    0.000
398.554; 1614.575;  196.475;    0.000
398.611; 1583.575;  198.475;    0.000
398.668; 1595.575;  135.475;    0.000
398.725; 1612.575;  181.475;    0.000
398.782; 1631.575;  195.475;    0.000
398.839; 1611.575;  179.475;    0.000
398.895; 1564.575;  188.475;    0.000
398.952; 1638.575;  176.475;    0.000
399.009; 1646.575;  183.475;    0.000
399.066; 1668.575;  190.475;    0.000
399.123; 1662.575;  174.475;    0.000
399.180; 1716.575;  191.475;    0.000
399.236; 1745.575;  217.475;    0.000
399.293; 1749.575;  154.475;    0.000
399.350; 1770.575;  210.475;    0.000
399.407; 1763.575;  202.475;    0.000
399.463; 1760.575;  162.475;    0.000
399.520; 1819.575;  207.475;    0.000
399.577; 1813.575;  174.475;    0.000
399.634; 1869.575;  170.475;    0.000
399.690; 1836.575;  186.475;    0.000
399.747; 1832.575;  218.475;    0.000
399.804; 1816.575;  200.475;    0.000
399.861; 1875.575;  190.475;    0.000
399.917; 1873.575;  218.475;    0.000
399.974; 1802.575;  200.475;    0.000
400.031; 1828.575;  200.475;    0.000
400.087; 1748.575;  153.475;    0.000
400.144; 1780.575;  188.475;    0.000
400.201; 1829.575;  198.475;    0.000
400.257; 1805.575;  205.475;    0.000
400.314; 1756.575;  183.475;    0.000
400.370; 1828.575;  227.475;    0.000
400.427; 1686.575;  177.475;    0.000
400.484; 1649.575;  202.475;    0.000
400.540; 1747.575;  173.475;    0.000
400.597; 1722.575;  212.475;    0.000
400.653; 1642.575;  182.475;    0.000
400.710; 1733.575;  201.475;    0.000
400.766; 1813.575;  188.475;    0.000
400.823; 1758.575;  205.475;    0.000
400.879; 1749.575;  165.475;    0.000
400.936; 1699.575;  180.475;    0.000
400.993; 1717.575;  181.475;    0.000
401.049; 1745.575;  147.475;    0.000
401.105; 1779.575;  205.475;    0.000
401.162; 1709.575;  197.475;    0.000
401.218; 1714.575;  177.475;    0.000
401.275; 1703.575;  183.475;    0.000
401.331; 1713.575;  198.475;    0.000
401.388; 1770.575;  209.475;    0.000
401.444; 1761.575;  211.475;    0.000
401.501; 1697.575;  185.475;    0.000
401.557; 1608.575;  190.475;    0.000
401.614; 1749.575;  172.475;    0.000
401.670; 1659.575;  185.475;    0.000
401.726; 1721.575;  196.475;    0.000
401.783; 1655.575;  187.475;    0.000
401.839; 1776.575;  192.475;    0.000
401.895; 1687.575;  173.475;    0.000
401.952; 1778.575;  145.475;    0.000
402.008; 1703.575;  197.475;    0.000
402.064; 1660.575;  146.475;    0.000
402.121; 1716.575;  197.475;    0.000
402.177; 1710.575;  173.475;    0.000
402.233; 1723.575;  185.475;    0.000
402.290; 1680.575;  175.475;    0.000
402.346; 1628.575;  164.475;    0.000
402.402; 1768.575;  173.475;    0.000
402.458; 1739.575;  183.475;    0.000
402.515; 1708.575;  147.475;    0.000
402.571; 1728.575;  210.475;    0.000
402.627; 1724.575;  181.475;    0.000
402.683; 1706.575;  177.475;    0.000
402.740; 1712.575;  162.475;    0.000
402.796; 1766.575;  178.475;    0.000
402.852; 1740.575;  138.475;    0.000
402.908; 1762.575;  181.475;    0.000
402.964; 1733.575;  151.475;    0.000
403.021; 1834.575;  170.475;    0.000
403.077; 1783.575;  204.475;    0.000
403.133; 1754.575;  144.475;    0.000
403.189; 1805.575;  207.475;    0.000
403.245; 1807.575;  184.475;    0.000
403.301; 1803.575;  170.475;    0.000
403.357; 1782.575;  201.475;    0.000
403.414; 1817.575;  205.475;    0.000
403.470; 1767.575;  170.475;    0.000
403.526; 1776.575;  135.475;    0.000
403.582; 1802.575;  180.475;    0.000
403.638; 1835.575;  185.475;    0.000
403.694; 1807.575;  169.475;    0.000
403.750; 1836.575;  210.475;    0.000
403.806; 1812.575;  210.475;    0.000
403.862; 1839.575;  219.475;    0.000
403.918; 1818.575;  191.475;    0.000
403.974; 1808.575;  193.475;    0.000
404.030; 1762.575;  154.475;    0.000
404.086; 1842.575;  170.475;    0.000
404.142; 1826.575;  194.475;    0.000
404.198; 1839.575;  224.475;    0.000
404.254; 1842.575;  177.475;    0.000
404.310; 1737.575;  204.475;    0.000
404.366; 1803.575;  170.475;    0.000
404.422; 1855.575;  172.475;    0.000
404.478; 1860.575;  153.475;    0.000
404.534; 1809.575;  159.475;    0.000
404.590; 1803.575;  203.475;    0.000
404.646; 1890.575;  164.475;    0.000
404.701; 1796.575;  141.475;    0.000
404.757; 1798.575;  195.475;    0.000
404.813; 1879.575;  152.475;    0.000
404.869; 1840.575;  174.475;    0.000
404.925; 1791.575;  167.475;    0.000
404.981; 1870.575;  175.475;    0.000
405.037; 1867.575;  170.475;    0.000
405.092; 1820.575;  155.475;    0.000
405.148; 1842.575;  160.475;    0.000
405.204; 1824.575;  158.475;    0.000
405.260; 1881.575;  128.475;    0.000
405.316; 1904.575;  168.475;    0.000
405.371; 1890.575;  162.475;    0.000
405.427; 1877.575;  187.475;    0.000
405.483; 1900.575;  214.475;    0.000
405.539; 1839.575;  163.475;    0.000
405.594; 1884.575;  191.475;    0.000
405.650; 1901.575;  124.475;    0.000
405.706; 1885.575;  188.475;    0.000
405.761; 1826.575;  204.475;    0.000
405.817; 1868.575;  150.475;    0.000
405.873; 1902.575;  152.475;    0.000
405.928; 1841.575;  135.475;    0.000
405.984; 1881.575;  209.475;    0.000
406.040; 1825.575;  165.475;    0.000
406.095; 1892.575;  146.475;    0.000
406.151; 1809.575;  169.475;    0.000
406.207; 1985.575;  174.475;    0.000
406.262; 1883.575;  189.475;    0.000
406.318; 1911.575;  141.475;    0.000
406.374; 1880.575;  178.475;    0.000
406.429; 1915.575;  197.475;    0.000
406.485; 1997.575;  194.475;    0.000
406.540; 1930.575;  149.475;    0.000
406.596; 1970.575;  173.475;    0.000
406.651; 1928.575;  154.475;    0.000
406.707; 1928.575;  183.475;    0.000
406.763; 1969.575;  156.475;    0.000
406.818; 2033.575;  181.475;    0.000
406.874; 1985.575;  135.475;    0.000
406.929; 2054.575;  194.475;    0.000
406.985; 1994.575;  166.475;    0.000
407.040; 2041.575;  207.475;    0.000
407.095; 2035.575;  213.475;    0.000
407.151; 2071.575;  198.475;    0.000
407.206; 2081.575;  186.475;    0.000
407.262; 2115.575;  148.475;    0.000
407.317; 2121.575;  212.475;    0.000
407.373; 2060.575;  209.475;    0.000
407.428; 2032.575;  218.475;    0.000
407.484; 2123.575;  158.475;    0.000
407.539; 2122.575;  165.475;    0.000
407.594; 2149.575;  197.475;    0.000
407.650; 2036.575;  177.475;    0.000
407.705; 2154.575;  154.475;    0.000
407.760; 2082.575;  198.475;    0.000
407.816; 2085.575;  181.475;    0.000
407.871; 2181.575;  185.475;    0.000
407.926; 2186.575;  167.475;    0.000
407.982; 2127.575;  172.475;    0.000
408.037; 2061.575;  202.475;    0.000
408.092; 2101.575;  201.475;    0.000
408.148; 2035.575;  199.475;    0.000
408.203; 2099.575;  174.475;    0.000
408.258; 2052.575;  157.475;    0.000
408.314; 2101.575;  194.475;    0.000
408.369; 2137.575;  189.475;    0.000
408.424; 2176.575;  204.475;    0.000
408.479; 2080.575;  192.475;    0.000
408.534; 2118.575;  215.475;    0.000
408.590; 2141.575;  190.475;    0.000
408.645; 1987.575;  159.475;    0.000
408.700; 2066.575;  191.475;    0.000
408.755; 2114.575;  217.475;    0.000
408.810; 2065.575;  158.475;    0.000
408.866; 1959.575;  166.475;    0.000
408.921; 2124.575;  214.475;    0.000
408.976; 2007.575;  158.475;    0.000
409.031; 2097.575;  185.475;    0.000
409.086; 2047.575;  158.475;    0.000
409.141; 2096.575;  180.475;    0.000
409.196; 2122.575;  188.475;    0.000
409.252; 2068.575;  186.475;    0.000
409.307; 1979.575;  135.475;    0.000
409.362; 2028.575;  162.475;    0.000
409.417; 1994.575;  149.475;    0.000
409.472; 1989.575;  205.475;    0.000
409.527; 2094.575;  184.475;    0.000
409.582; 2086.575;  174.475;    0.000
409.637; 2024.575;  188.475;    0.000
409.692; 2057.575;  211.475;    0.000
409.747; 1943.575;  159.475;    0.000
409.802; 2113.575;  199.475;    0.000
409.857; 1983.575;  118.475;    0.000
409.912; 2076.575;  177.475;    0.000
409.967; 2055.575;  182.475;    0.000
410.022; 2046.575;  188.475;    0.000
410.077; 2049.575;  204.475;    0.000
410.132; 2074.575;  174.475;    0.000
410.187; 2070.575;  169.475;    0.000
410.242; 2046.575;  178.475;    0.000
410.297; 2079.575;  185.475;    0.000
410.351; 2003.575;  203.475;    0.000
410.406; 2075.575;  180.475;    0.000
410.461; 1971.575;  213.475;    0.000
410.516; 1971.575;  198.475;    0.000
410.571; 2046.575;  171.475;    0.000
410.626; 2098.575;  186.475;    0.000
410.681; 2074.575;  187.475;    0.000
410.736; 2070.575;  147.475;    0.000
410.790; 2040.575;  186.475;    0.000
410.845; 2021.575;  152.475;    0.000
410.900; 2051.575;  202.475;    0.000
410.955; 2057.575;  196.475;    0.000
411.010; 2065.575;  150.475;    0.000
411.064; 2114.575;  200.475;    0.000
411.119; 2043.575;  203.475;    0.000
411.174; 2054.575;  176.475;    0.000
411.229; 2069.575;  203.475;    0.000
411.283; 2041.575;  176.475;    0.000
411.338; 2045.575;  153.475;    0.000
411.393; 2052.575;  168.475;    0.000
411.447; 2127.575;  223.475;    0.000
411.502; 2069.575;  238.475;    0.000
411.557; 2009.575;  179.475;    0.000
411.612; 2017.575;  159.475;    0.000
411.666; 2112.575;  189.475;    0.000
411.721; 2024.575;  212.475;    0.000
411.776; 2105.575;  242.475;    0.000
411.830; 2129.575;  194.475;    0.000
411.885; 2061.575;  188.475;    0.000
411.939; 2080.575;  245.475;    0.000
411.994; 2094.575;  177.475;    0.000
412.049; 2091.575;  170.475;    0.000
412.103; 2185.575;  196.475;    0.000
412.158; 2093.575;  215.475;    0.000
412.212; 2060.575;  199.475;    0.000
412.267; 2057.575;  191.475;    0.000
412.322; 2026.575;  238.475;    0.000
412.376; 2067.575;  243.475;    0.000
412.431; 2107.575;  214.475;    0.000
412.485; 2182.575;  210.475;    0.000
412.540; 2047.575;  200.475;    0.000
412.594; 1921.575;  174.475;    0.000
412.649; 2098.575;  246.475;    0.000
412.703; 2088.575;  182.475;    0.000
412.758; 2053.575;  222.475;    0.000
412.812; 2054.575;  201.475;    0.000
412.866; 2017.575;  162.475;    0.000
412.921; 2041.575;  202.475;    0.000
412.975; 2104.575;  212.475;    0.000
413.030; 2013.575;  238.475;    0.000
413.084; 2037.575;  201.475;    0.000
413.139; 2097.575;  210.475;    0.000
413.193; 2087.575;  218.475;    0.000
413.247; 2118.575;  203.475;    0.000
413.302; 2101.575;  176.475;    0.000
413.356; 2027.575;  215.475;    0.000
413.410; 2059.575;  204.475;    0.000
413.465; 2048.575;  186.475;    0.000
413.519; 2083.575;  196.475;    0.000
413.573; 2011.575;  181.475;    0.000
413.628; 2062.575;  200.475;    0.000
413.682; 2108.575;  157.475;    0.000
413.736; 2072.575;  194.475;    0.000
413.791; 2022.575;  193.475;    0.000
413.845; 2028.575;  225.475;    0.000
413.899; 2051.575;  195.475;    0.000
413.953; 2060.575;  173.475;    0.000
414.008; 2044.575;  186.475;    0.000
414.062; 1973.575;  217.475;    0.000
414.116; 2020.575;  169.475;    0.000
414.170; 2058.575;  228.475;    0.000
414.225; 2076.575;  177.475;    0.000
414.279; 2072.575;  210.475;    0.000
414.333; 2109.575;  207.475;    0.000
414.387; 2054.575;  217.475;    0.000
414.441; 2047.575;  187.475;    0.000
414.496; 2024.575;  215.475;    0.000
414.550; 2104.575;  204.475;    0.000
414.604; 2085.575;  206.475;    0.000
414.658; 1949.575;  139.475;    0.000
414.712; 2052.575;  198.475;    0.000
414.766; 2096.575;  208.475;    0.000
414.820; 2034.575;  199.475;    0.000
414.874; 2071.575;  216.475;    0.000
414.928; 2055.575;  186.475;    0.000
414.982; 2024.575;  176.475;    0.000
415.037; 2148.575;  181.475;    0.000
415.091; 2035.575;  208.475;    0.000
415.145; 1970.575;  209.475;    0.000
415.199; 2004.575;  186.475;    0.000
415.253; 2030.575;  203.475;    0.000
415.307; 2032.575;  197.475;    0.000
415.361; 2054.575;  223.475;    0.000
415.415; 2057.575;  213.475;    0.000
415.469; 2128.575;  226.475;    0.000
415.523; 2079.575;  222.475;    0.000
415.577; 2002.575;  205.475;    0.000
415.631; 2075.575;  224.475;    0.000
415.684; 2093.575;  193.475;    0.000
415.738; 2026.575;  224.475;    0.000
415.792; 2070.575;  204.475;    0.000
415.846; 2057.575;  189.475;    0.000
415.900; 2008.575;  223.475;    0.000
415.954; 2113.575;  187.475;    0.000
416.008; 2115.575;  237.475;    0.000
416.062; 2039.575;  195.475;    0.000
416.116; 1971.575;  223.475;    0.000
416.169; 1958.575;  210.475;    0.000
416.223; 2031.575;  232.475;    0.000
416.277; 2048.575;  227.475;    0.000
416.331; 2042.575;  216.475;    0.000
416.385; 2028.575;  186.475;    0.000
416.439; 2041.575;  226.475;    0.000
416.492; 1958.575;  229.475;    0.000
416.546; 1974.575;  216.475;    0.000
416.600; 1963.575;  211.475;    0.000
416.654; 2176.575;  226.475;    0.000
416.707; 1997.575;  248.475;    0.000
416.761; 2035.575;  217.475;    0.000
416.815; 2019.575;  207.475;    0.000
416.869; 2022.575;  226.475;    0.000
416.922; 1944.575;  192.475;    0.000
416.976; 2001.575;  205.475;    0.000
417.030; 2060.575;  233.475;    0.000
417.083; 1994.575;  226.475;    0.000
417.137; 2035.575;  222.475;    0.000
417.191; 2062.575;  217.475;    0.000
417.244; 2051.575;  221.475;    0.000
417.298; 2002.575;  201.475;    0.000
417.352; 1969.575;  170.475;    0.000
417.405; 2084.575;  234.475;    0.000
417.459; 1963.575;  241.475;    0.000
417.512; 2040.575;  247.475;    0.000
417.566; 2063.575;  219.475;    0.000
417.620; 2073.575;  228.475;    0.000
417.673; 2016.575;  192.475;    0.000
417.727; 1978.575;  203.475;    0.000
417.780; 2002.575;  204.475;    0.000
417.834; 1990.575;  234.475;    0.000
417.887; 2047.575;  245.475;    0.000
417.941; 2092.575;  211.475;    0.000
417.994; 2007.575;  244.475;    0.000
418.048; 2007.575;  203.475;    0.000
418.101; 2047.575;  212.475;    0.000
418.155; 1974.575;  251.475;    0.000
418.208; 1954.575;  286.475;    0.000
418.262; 2146.575;  243.475;    0.000
418.315; 2050.575;  214.475;    0.000
418.369; 2114.575;  269.475;    0.000
418.422; 2061.575;  222.475;    0.000
418.476; 2037.575;  226.475;    0.000
418.529; 2107.575;  238.475;    0.000
418.582; 2003.575;  210.475;    0.000
418.636; 2109.575;  221.475;    0.000
418.689; 2069.575;  224.475;    0.000
418.743; 2091.575;  228.475;    0.000
418.796; 2042.575;  192.475;    0.000
418.849; 2004.575;  230.475;    0.000
418.903; 2061.575;  257.475;    0.000
418.956; 2019.575;  241.475;    0.000
419.009; 2034.575;  247.475;    0.000
419.063; 2009.575;  235.475;    0.000
419.116; 2010.575;  218.475;    0.000
419.169; 2097.575;  219.475;    0.000
419.222; 1996.575;  215.475;    0.000
419.276; 1999.575;  202.475;    0.000
419.329; 2037.575;  210.475;    0.000
419.382; 1945.575;  188.475;    0.000
419.435; 2005.575;  222.475;    0.000
419.489; 2040.575;  232.475;    0.000
419.542; 1972.575;  250.475;    0.000
419.595; 2051.575;  240.475;    0.000
419.648; 2023.575;  261.475;    0.000
419.701; 2013.575;  222.475;    0.000
419.755; 2006.575;  233.475;    0.000
419.808; 2016.575;  178.475;    0.000
419.861; 1990.575;  207.475;    0.000
419.914; 2012.575;  223.475;    0.000
419.967; 2003.575;  216.475;    0.000
420.020; 2005.575;  211.475;    0.000
420.073; 1978.575;  200.475;    0.000
420.127; 2033.575;  248.475;    0.000
420.180; 2030.575;  220.475;    0.000
420.233; 1976.575;  215.475;    0.000
420.286; 1945.575;  222.475;    0.000
420.339; 1999.575;  229.475;    0.000
420.392; 1973.575;  245.475;    0.000
420.445; 1997.575;  221.475;    0.000
420.498; 1984.575;  224.475;    0.000
420.551; 1873.575;  170.475;    0.000
420.604; 2002.575;  237.475;    0.000
420.657; 1933.575;  235.475;    0.000
420.710; 1917.575;  223.475;    0.000
420.763; 1918.575;  219.475;    0.000
420.816; 1911.575;  200.475;    0.000
420.869; 1993.575;  197.475;    0.000
420.922; 2025.575;  212.475;    0.000
420.975; 2007.575;  274.475;    0.000
421.028; 2039.575;  228.475;    0.000
421.081; 1942.575;  243.475;    0.000
421.134; 1951.575;  227.475;    0.000
421.187; 1883.575;  245.475;    0.000
421.239; 1954.575;  210.475;    0.000
421.292; 1918.575;  193.475;    0.000
421.345; 1971.575;  226.475;    0.000
421.398; 1966.575;  226.475;    0.000
421.451; 1912.575;  259.475;    0.000
421.504; 1929.575;  204.475;    0.000
421.557; 1917.575;  215.475;    0.000
421.609; 1988.575;  194.475;    0.000
421.662; 1927.575;  216.475;    0.000
421.715; 1980.575;  226.475;    0.000
421.768; 1951.575;  177.475;    0.000
421.821; 1925.575;  210.475;    0.000
421.873; 1940.575;  208.475;    0.000
421.926; 1988.575;  223.475;    0.000
421.979; 2034.575;  230.475;    0.000
422.032; 1968.575;  227.475;    0.000
422.084; 1915.575;  234.475;    0.000
422.137; 1940.575;  207.475;    0.000
422.190; 1958.575;  228.475;    0.000
422.243; 1955.575;  206.475;    0.000
422.295; 1872.575;  236.475;    0.000
422.348; 1952.575;  232.475;    0.000
422.401; 1880.575;  228.475;    0.000
422.453; 1993.575;  239.475;    0.000
422.506; 1888.575;  226.475;    0.000
422.559; 1936.575;  205.475;    0.000
422.611; 1906.575;  235.475;    0.000
422.664; 1938.575;  231.475;    0.000
422.716; 1887.575;  228.475;    0.000
422.769; 2036.575;  204.475;    0.000
422.822; 1858.575;  205.475;    0.000
422.874; 1957.575;  228.475;    0.000
422.927; 1927.575;  266.475;    0.000
422.979; 1898.575;  223.475;    0.000
423.032; 1888.575;  207.475;    0.000
423.084; 1911.575;  211.475;    0.000
423.137; 1883.575;  205.475;    0.000
423.189; 1928.575;  254.475;    0.000
423.242; 1935.575;  208.475;    0.000
423.294; 1950.575;  240.475;    0.000
423.347; 1974.575;  218.475;    0.000
423.399; 1964.575;  237.475;    0.000
423.452; 1980.575;  242.475;    0.000
423.504; 1846.575;  225.475;    0.000
423.557; 1939.575;  195.475;    0.000
423.609; 1929.575;  206.475;    0.000
423.662; 1956.575;  211.475;    0.000
423.714; 1916.575;  252.475;    0.000
423.766; 1943.575;  181.475;    0.000
423.819; 1950.575;  216.475;    0.000
423.871; 1851.575;  216.475;    0.000
423.923; 1842.575;  222.475;    0.000
423.976; 1932.575;  223.475;    0.000
424.028; 1826.575;  229.475;    0.000
424.081; 1963.575;  267.475;    0.000
424.133; 1936.575;  251.475;    0.000
424.185; 1897.575;  238.475;    0.000
424.238; 1820.575;  220.475;    0.000
424.290; 1881.575;  259.475;    0.000
424.342; 1816.575;  248.475;    0.000
424.394; 1896.575;  234.475;    0.000
424.447; 1869.575;  248.475;    0.000
424.499; 1826.575;  233.475;    0.000
424.551; 1911.575;  236.475;    0.000
424.603; 1946.575;  207.475;    0.000
424.656; 1836.575;  210.475;    0.000
424.708; 1863.575;  251.475;    0.000
424.760; 1841.575;  221.475;    0.000
424.812; 1910.575;  275.475;    0.000
424.864; 1799.575;  206.475;    0.000
424.917; 1822.575;  198.475;    0.000
424.969; 1906.575;  246.475;    0.000
425.021; 1879.575;  209.475;    0.000
425.073; 1885.575;  242.475;    0.000
425.125; 1862.575;  254.475;    0.000
425.177; 1841.575;  224.475;    0.000
425.229; 1861.575;  256.475;    0.000
425.282; 1876.575;  265.475;    0.000
425.334; 1819.575;  266.475;    0.000
425.386; 1799.575;  242.475;    0.000
425.438; 1825.575;  205.475;    0.000
425.490; 1869.575;  227.475;    0.000
425.542; 1784.575;  235.475;    0.000
425.594; 1820.575;  210.475;    0.000
425.646; 1774.575;  232.475;    0.000
425.698; 1911.575;  243.475;    0.000
425.750; 1747.575;  230.475;    0.000
425.802; 1862.575;  218.475;    0.000
425.854; 1896.575;  222.475;    0.000
425.906; 1827.575;  235.475;    0.000
425.958; 1906.575;  220.475;    0.000
426.010; 1816.575;  236.475;    0.000
426.062; 1839.575;  230.475;    0.000
426.114; 1820.575;  216.475;    0.000
426.166; 1828.575;  230.475;    0.000
426.218; 1819.575;  237.475;    0.000
426.270; 1788.575;  217.475;    0.000
426.321; 1818.575;  224.475;    0.000
426.373; 1744.575;  207.475;    0.000
426.425; 1806.575;  278.475;    0.000
426.477; 1798.575;  243.475;    0.000
426.529; 1746.575;  247.475;    0.000
426.581; 1789.575;  229.475;    0.000
426.633; 1806.575;  212.475;    0.000
426.684; 1807.575;  244.475;    0.000
426.736; 1857.575;  250.475;    0.000
426.788; 1751.575;  210.475;    0.000
426.840; 1655.575;  201.475;    0.000
426.892; 1815.575;  225.475;    0.000
426.943; 1788.575;  215.475;    0.000
426.995; 1783.575;  216.475;    0.000
427.047; 1788.575;  216.475;    0.000
427.099; 1780.575;  203.475;    0.000
427.150; 1804.575;  195.475;    0.000
427.202; 1712.575;  212.475;    0.000
427.254; 1778.575;  233.475;    0.000
427.306; 1748.575;  211.475;    0.000
427.357; 1812.575;  210.475;    0.000
427.409; 1832.575;  244.475;    0.000
427.461; 1702.575;  187.475;    0.000
427.512; 1771.575;  227.475;    0.000
427.564; 1778.575;  210.475;    0.000
427.616; 1792.575;  202.475;    0.000
427.667; 1774.575;  185.475;    0.000
427.719; 1715.575;  222.475;    0.000
427.770; 1760.575;  230.475;    0.000
427.822; 1777.575;  254.475;    0.000
427.874; 1784.575;  222.475;    0.000
427.925; 1761.575;  199.475;    0.000
427.977; 1752.575;  228.475;    0.000
428.028; 1830.575;  226.475;    0.000
428.080; 1731.575;  236.475;    0.000
428.131; 1712.575;  220.475;    0.000
428.183; 1691.575;  256.475;    0.000
428.234; 1724.575;  217.475;    0.000
428.286; 1683.575;  234.475;    0.000
428.337; 1720.575;  209.475;    0.000
428.389; 1702.575;  219.475;    0.000
428.440; 1716.575;  249.475;    0.000
428.492; 1720.575;  255.475;    0.000
428.543; 1654.575;  224.475;    0.000
428.595; 1746.575;  225.475;    0.000
428.646; 1771.575;  240.475;    0.000
428.697; 1718.575;  211.475;    0.000
428.749; 1754.575;  200.475;    0.000
428.800; 1813.575;  235.475;    0.000
428.852; 1717.575;  265.475;    0.000
428.903; 1688.575;  201.475;    0.000
428.954; 1739.575;  242.475;    0.000
429.006; 1699.575;  245.475;    0.000
429.057; 1717.575;  252.475;    0.000
429.108; 1761.575;  211.475;    0.000
429.160; 1746.575;  217.475;    0.000
429.211; 1726.575;  234.475;    0.000
429.262; 1688.575;  205.475;    0.000
429.314; 1777.575;  211.475;    0.000
429.365; 1715.575;  240.475;    0.000
429.416; 1775.575;  263.475;    0.000
429.467; 1655.575;  244.475;    0.000
429.519; 1690.575;  223.475;    0.000
429.570; 1731.575;  214.475;    0.000
429.621; 1720.575;  235.475;    0.000
429.672; 1704.575;  202.475;    0.000
429.724; 1614.575;  189.475;    0.000
429.775; 1719.575;  214.475;    0.000
429.826; 1688.575;  178.475;    0.000
429.877; 1684.575;  224.475;    0.000
429.928; 1710.575;  230.475;    0.000
429.980; 1655.575;  199.475;    0.000
430.031; 1702.575;  208.475;    0.000
430.082; 1638.575;  224.475;    0.000
430.133; 1758.575;  193.475;    0.000
430.184; 1665.575;  220.475;    0.000
430.235; 1682.575;  184.475;    0.000
430.286; 1669.575;  197.475;    0.000
430.337; 1731.575;  199.475;    0.000
430.388; 1649.575;  207.475;    0.000
430.439; 1691.575;  227.475;    0.000
430.490; 1613.575;  215.475;    0.000
430.542; 1671.575;  211.475;    0.000
430.593; 1630.575;  230.475;    0.000
430.644; 1653.575;  186.475;    0.000
430.695; 1652.575;  232.475;    0.000
430.746; 1651.575;  214.475;    0.000
430.797; 1694.575;  260.475;    0.000
430.848; 1669.575;  214.475;    0.000
430.898; 1671.575;  204.475;    0.000
430.949; 1712.575;  189.475;    0.000
431.000; 1694.575;  240.475;    0.000
431.051; 1781.575;  201.475;    0.000
431.102; 1687.575;  188.475;    0.000
431.153; 1658.575;  209.475;    0.000
431.204; 1680.575;  187.475;    0.000
431.255; 1653.575;  171.475;    0.000
431.306; 1723.575;  181.475;    0.000
431.357; 1656.575;  221.475;    0.000
431.408; 1671.575;  217.475;    0.000
431.458; 1650.575;  206.475;    0.000
431.509; 1611.575;  194.475;    0.000
431.560; 1722.575;  235.475;    0.000
431.611; 1706.575;  213.475;    0.000
431.662; 1654.575;  237.475;    0.000
431.713; 1669.575;  220.475;    0.000
431.763; 1668.575;  212.475;    0.000
431.814; 1727.575;  238.475;    0.000
431.865; 1717.575;  213.475;    0.000
431.916; 1655.575;  191.475;    0.000
431.966; 1717.575;  171.475;    0.000
432.017; 1684.575;  263.475;    0.000
432.068; 1714.575;  240.475;    0.000
432.118; 1699.575;  235.475;    0.000
432.169; 1686.575;  212.475;    0.000
432.220; 1687.575;  188.475;    0.000
432.271; 1668.575;  216.475;    0.000
432.321; 1661.575;  223.475;    0.000
432.372; 1714.575;  254.475;    0.000
432.423; 1661.575;  193.475;    0.000
432.473; 1692.575;  219.475;    0.000
432.524; 1698.575;  215.475;    0.000
432.574; 1665.575;  234.475;    0.000
432.625; 1639.575;  226.475;    0.000
432.676; 1725.575;  219.475;    0.000
432.726; 1680.575;  254.475;    0.000
432.777; 1681.575;  210.475;    0.000
432.827; 1631.575;  234.475;    0.000
432.878; 1626.575;  212.475;    0.000
432.928; 1609.575;  238.475;    0.000
432.979; 1632.575;  252.475;    0.000
433.029; 1643.575;  222.475;    0.000
433.080; 1622.575;  188.475;    0.000
433.130; 1669.575;  223.475;    0.000
433.181; 1725.575;  254.475;    0.000
433.231; 1738.575;  237.475;    0.000
433.282; 1690.575;  242.475;    0.000
433.332; 1669.575;  261.475;    0.000
433.383; 1747.575;  266.475;    0.000
433.433; 1663.575;  286.475;    0.000
433.484; 1685.575;  231.475;    0.000
433.534; 1605.575;  256.475;    0.000
433.585; 1677.575;  253.475;    0.000
433.635; 1656.575;  228.475;    0.000
433.685; 1684.575;  226.475;    0.000
433.736; 1735.575;  276.475;    0.000
433.786; 1683.575;  253.475;    0.000
433.836; 1689.575;  289.475;    0.000
433.887; 1650.575;  241.475;    0.000
433.937; 1726.575;  252.475;    0.000
433.987; 1690.575;  223.475;    0.000
434.038; 1668.575;  241.475;    0.000
434.088; 1691.575;  231.475;    0.000
434.138; 1745.575;  259.475;    0.000
434.189; 1675.575;  263.475;    0.000
434.239; 1697.575;  194.475;    0.000
434.289; 1710.575;  273.475;    0.000
434.339; 1716.575;  212.475;    0.000
434.389; 1751.575;  248.475;    0.000
434.440; 1708.575;  250.475;    0.000
434.490; 1761.575;  278.475;    0.000
434.540; 1749.575;  241.475;    0.000
434.590; 1668.575;  251.475;    0.000
434.640; 1706.575;  207.475;    0.000
434.691; 1726.575;  242.475;    0.000
434.741; 1765.575;  218.475;    0.000
434.791; 1773.575;  267.475;    0.000
434.841; 1806.575;  272.475;    0.000
434.891; 1739.575;  260.475;    0.000
434.941; 1713.575;  258.475;    0.000
434.991; 1805.575;  264.475;    0.000
435.042; 1769.575;  264.475;    0.000
435.092; 1651.575;  271.475;    0.000
435.142; 1758.575;  229.475;    0.000
435.192; 1669.575;  226.475;    0.000
435.242; 1671.575;  253.475;    0.000
435.292; 1719.575;  215.475;    0.000
435.342; 1702.575;  240.475;    0.000
435.392; 1703.575;  235.475;    0.000
435.442; 1675.575;  230.475;    0.000
435.492; 1658.575;  235.475;    0.000
435.542; 1678.575;  230.475;    0.000
435.592; 1641.575;  239.475;    0.000
435.642; 1650.575;  244.475;    0.000
435.692; 1560.575;  236.475;    0.000
435.742; 1647.575;  236.475;    0.000
435.792; 1703.575;  230.475;    0.000
435.842; 1633.575;  248.475;    0.000
435.891; 1623.575;  233.475;    0.000
435.941; 1628.575;  243.475;    0.000
435.991; 1674.575;  279.475;    0.000
436.041; 1584.575;  204.475;    0.000
436.091; 1691.575;  217.475;    0.000
436.141; 1562.575;  205.475;    0.000
436.191; 1642.575;  220.475;    0.000
436.241; 1655.575;  248.475;    0.000
436.290; 1692.575;  255.475;    0.000
436.340; 1632.575;  235.475;    0.000
436.390; 1657.575;  207.475;    0.000
436.440; 1635.575;  207.475;    0.000
436.490; 1508.575;  251.475;    0.000
436.539; 1580.575;  240.475;    0.000
436.589; 1592.575;  198.475;    0.000
436.639; 1645.575;  240.475;    0.000
436.689; 1558.575;  216.475;    0.000
436.738; 1600.575;  246.475;    0.000
436.788; 1594.575;  203.475;    0.000
436.838; 1634.575;  230.475;    0.000
436.887; 1649.575;  235.475;    0.000
436.937; 1633.575;  249.475;    0.000
436.987; 1660.575;  208.475;    0.000
437.036; 1607.575;  232.475;    0.000
437.086; 1559.575;  238.475;    0.000
437.136; 1607.575;  228.475;    0.000
437.185; 1571.575;  219.475;    0.000
437.235; 1668.575;  227.475;    0.000
437.285; 1622.575;  241.475;    0.000
437.334; 1564.575;  216.475;    0.000
437.384; 1598.575;  243.475;    0.000
437.433; 1566.575;  214.475;    0.000
437.483; 1610.575;  246.475;    0.000
437.532; 1627.575;  261.475;    0.000
437.582; 1624.575;  205.475;    0.000
437.631; 1561.575;  218.475;    0.000
437.681; 1623.575;  240.475;    0.000
437.730; 1629.575;  258.475;    0.000
437.780; 1578.575;  237.475;    0.000
437.829; 1576.575;  209.475;    0.000
437.879; 1531.575;  214.475;    0.000
437.928; 1548.575;  223.475;    0.000
437.978; 1557.575;  220.475;    0.000
438.027; 1659.575;  239.475;    0.000
438.077; 1554.575;  231.475;    0.000
438.126; 1554.575;  266.475;    0.000
438.176; 1610.575;  234.475;    0.000
438.225; 1603.575;  237.475;    0.000
438.274; 1508.575;  234.475;    0.000
438.324; 1595.575;  244.475;    0.000
438.373; 1541.575;  232.475;    0.000
438.422; 1579.575;  218.475;    0.000
438.472; 1502.575;  221.475;    0.000
438.521; 1548.575;  190.475;    0.000
438.570; 1518.575;  243.475;    0.000
438.620; 1593.575;  255.475;    0.000
438.669; 1578.575;  210.475;    0.000
438.718; 1527.575;  237.475;    0.000
438.768; 1540.575;  220.475;    0.000
438.817; 1513.575;  218.475;    0.000
438.866; 1559.575;  198.475;    0.000
438.915; 1627.575;  256.475;    0.000
438.965; 1510.575;  221.475;    0.000
439.014; 1602.575;  255.475;    0.000
439.063; 1589.575;  276.475;    0.000
439.112; 1532.575;  220.475;    0.000
439.162; 1618.575;  253.475;    0.000
439.211; 1579.575;  247.475;    0.000
439.260; 1609.575;  220.475;    0.000
439.309; 1525.575;  235.475;    0.000
439.358; 1566.575;  205.475;    0.000
439.407; 1553.575;  207.475;    0.000
439.456; 1562.575;  216.475;    0.000
439.506; 1543.575;  245.475;    0.000
439.555; 1601.575;  264.475;    0.000
439.604; 1601.575;  227.475;    0.000
439.653; 1557.575;  220.475;    0.000
439.702; 1539.575;  223.475;    0.000
439.751; 1554.575;  197.475;    0.000
439.800; 1489.575;  207.475;    0.000
439.849; 1505.575;  238.475;    0.000
439.898; 1515.575;  209.475;    0.000
439.947; 1592.575;  170.475;    0.000
439.996; 1523.575;  233.475;    0.000
440.045; 1595.575;  222.475;    0.000
440.094; 1625.575;  240.475;    0.000
440.143; 1558.575;  249.475;    0.000
440.192; 1606.575;  252.475;    0.000
440.241; 1616.575;  239.475;    0.000
440.290; 1570.575;  234.475;    0.000
440.339; 1601.575;  241.475;    0.000
440.388; 1563.575;  239.475;    0.000
440.437; 1597.575;  231.475;    0.000
440.486; 1548.575;  254.475;    0.000
440.535; 1519.575;  266.475;    0.000
440.583; 1569.575;  205.475;    0.000
440.632; 1636.575;  234.475;    0.000
440.681; 1555.575;  218.475;    0.000
440.730; 1582.575;  248.475;    0.000
440.779; 1566.575;  246.475;    0.000
440.828; 1563.575;  235.475;    0.000
440.876; 1608.575;  218.475;    0.000
440.925; 1606.575;  228.475;    0.000
440.974; 1597.575;  249.475;    0.000
441.023; 1609.575;  192.475;    0.000
441.072; 1634.575;  226.475;    0.000
441.120; 1644.575;  238.475;    0.000
441.169; 1685.575;  255.475;    0.000
441.218; 1637.575;  233.475;    0.000
441.267; 1629.575;  231.475;    0.000
441.315; 1653.575;  214.475;    0.000
441.364; 1640.575;  250.475;    0.000
441.413; 1591.575;  228.475;    0.000
441.461; 1699.575;  209.475;    0.000
441.510; 1663.575;  260.475;    0.000
441.559; 1641.575;  230.475;    0.000
441.607; 1648.575;  220.475;    0.000
441.656; 1668.575;  251.475;    0.000
441.705; 1760.575;  237.475;    0.000
441.753; 1712.575;  257.475;    0.000
441.802; 1667.575;  256.475;    0.000
441.850; 1654.575;  253.475;    0.000
441.899; 1696.575;  212.475;    0.000
441.948; 1618.575;  251.475;    0.000
441.996; 1600.575;  239.475;    0.000
442.045; 1594.575;  223.475;    0.000
442.093; 1661.575;  211.475;    0.000
442.142; 1712.575;  235.475;    0.000
442.190; 1609.575;  254.475;    0.000
442.239; 1640.575;  226.475;    0.000
442.287; 1683.575;  242.475;    0.000
442.336; 1669.575;  256.475;    0.000
442.384; 1612.575;  252.475;    0.000
442.433; 1713.575;  262.475;    0.000
442.481; 1602.575;  246.475;    0.000
442.529; 1638.575;  290.475;    0.000
442.578; 1727.575;  247.475;    0.000
442.626; 1634.575;  247.475;    0.000
442.675; 1691.575;  272.475;    0.000
442.723; 1619.575;  230.475;    0.000
442.771; 1677.575;  234.475;    0.000
442.820; 1692.575;  224.475;    0.000
442.868; 1603.575;  246.475;    0.000
442.917; 1642.575;  249.475;    0.000
442.965; 1672.575;  260.475;    0.000
443.013; 1629.575;  258.475;    0.000
443.062; 1694.575;  259.475;    0.000
443.110; 1662.575;  226.475;    0.000
443.158; 1643.575;  213.475;    0.000
443.206; 1584.575;  201.475;    0.000
443.255; 1711.575;  280.475;    0.000
443.303; 1685.575;  292.475;    0.000
443.351; 1675.575;  256.475;    0.000
443.399; 1632.575;  215.475;    0.000
443.448; 1668.575;  243.475;    0.000
443.496; 1638.575;  249.475;    0.000
443.544; 1691.575;  231.475;    0.000
443.592; 1678.575;  243.475;    0.000
443.640; 1690.575;  252.475;    0.000
443.689; 1716.575;  220.475;    0.000
443.737; 1725.575;  231.475;    0.000
443.785; 1708.575;  256.475;    0.000
443.833; 1703.575;  268.475;    0.000
443.881; 1635.575;  181.475;    0.000
443.929; 1740.575;  245.475;    0.000
443.977; 1707.575;  278.475;    0.000
444.025; 1732.575;  245.475;    0.000
444.074; 1682.575;  233.475;    0.000
444.122; 1724.575;  267.475;    0.000
444.170; 1738.575;  247.475;    0.000
444.218; 1746.575;  246.475;    0.000
444.266; 1750.575;  275.475;    0.000
444.314; 1781.575;  263.475;    0.000
444.362; 1818.575;  240.475;    0.000
444.410; 1723.575;  220.475;    0.000
444.458; 1775.575;  258.475;    0.000
444.506; 1813.575;  258.475;    0.000
444.554; 1773.575;  224.475;    0.000
444.602; 1771.575;  245.475;    0.000
444.650; 1770.575;  261.475;    0.000
444.698; 1780.575;  232.475;    0.000
444.746; 1675.575;  206.475;    0.000
444.793; 1719.575;  249.475;    0.000
444.841; 1762.575;  261.475;    0.000
444.889; 1783.575;  221.475;    0.000
444.937; 1718.575;  215.475;    0.000
444.985; 1740.575;  244.475;    0.000
445.033; 1748.575;  211.475;    0.000
445.081; 1787.575;  225.475;    0.000
445.129; 1754.575;  217.475;    0.000
445.176; 1763.575;  196.475;    0.000
445.224; 1830.575;  211.475;    0.000
445.272; 1780.575;  242.475;    0.000
445.320; 1690.575;  225.475;    0.000
445.368; 1831.575;  249.475;    0.000
445.415; 1760.575;  243.475;    0.000
445.463; 1721.575;  242.475;    0.000
445.511; 1806.575;  248.475;    0.000
445.559; 1779.575;  219.475;    0.000
445.606; 1798.575;  221.475;    0.000
445.654; 1732.575;  202.475;    0.000
445.702; 1783.575;  210.475;    0.000
445.749; 1773.575;  249.475;    0.000
445.797; 1756.575;  206.475;    0.000
445.845; 1729.575;  213.475;    0.000
445.892; 1698.575;  224.475;    0.000
445.940; 1748.575;  214.475;    0.000
445.988; 1761.575;  247.475;    0.000
446.035; 1742.575;  204.475;    0.000
446.083; 1703.575;  235.475;    0.000
446.130; 1697.575;  195.475;    0.000
446.178; 1802.575;  236.475;    0.000
446.226; 1783.575;  218.475;    0.000
446.273; 1801.575;  215.475;    0.000
446.321; 1818.575;  222.475;    0.000
446.368; 1745.575;  228.475;    0.000
446.416; 1825.575;  223.475;    0.000
446.463; 1768.575;  220.475;    0.000
446.511; 1831.575;  198.475;    0.000
446.558; 1781.575;  208.475;    0.000
446.606; 1803.575;  253.475;    0.000
446.653; 1871.575;  198.475;    0.000
446.701; 1818.575;  231.475;    0.000
446.748; 1868.575;  224.475;    0.000
446.796; 1871.575;  201.475;    0.000
446.843; 1936.575;  257.475;    0.000
446.891; 1906.575;  218.475;    0.000
446.938; 1959.575;  232.475;    0.000
446.985; 1876.575;  229.475;    0.000
447.033; 1932.575;  251.475;    0.000
447.080; 1872.575;  257.475;    0.000
447.128; 1935.575;  232.475;    0.000
447.175; 1952.575;  269.475;    0.000
447.222; 1936.575;  185.475;    0.000
447.270; 1976.575;  264.475;    0.000
447.317; 1992.575;  225.475;    0.000
447.364; 1912.575;  243.475;    0.000
447.411; 1994.575;  263.475;    0.000
447.459; 2000.575;  257.475;    0.000
447.506; 1982.575;  175.475;    0.000
447.553; 2086.575;  203.475;    0.000
447.601; 2112.575;  238.475;    0.000
447.648; 2099.575;  244.475;    0.000
447.695; 2104.575;  249.475;    0.000
447.742; 2067.575;  234.475;    0.000
447.789; 2223.575;  228.475;    0.000
447.837; 2216.575;  258.475;    0.000
447.884; 2174.575;  243.475;    0.000
447.931; 2270.575;  235.475;    0.000
447.978; 2264.575;  224.475;    0.000
448.025; 2276.575;  245.475;    0.000
448.072; 2318.575;  212.475;    0.000
448.120; 2303.575;  256.475;    0.000
448.167; 2307.575;  240.475;    0.000
448.214; 2268.575;  247.475;    0.000
448.261; 2308.575;  245.475;    0.000
448.308; 2127.575;  273.475;    0.000
448.355; 2204.575;  257.475;    0.000
448.402; 2156.575;  259.475;    0.000
448.449; 2094.575;  238.475;    0.000
448.496; 2112.575;  245.475;    0.000
448.543; 2110.575;  217.475;    0.000
448.590; 2048.575;  269.475;    0.000
448.637; 2076.575;  250.475;    0.000
448.684; 1993.575;  250.475;    0.000
448.731; 1982.575;  235.475;    0.000
448.778; 2019.575;  265.475;    0.000
448.825; 1900.575;  257.475;    0.000
448.872; 1888.575;  234.475;    0.000
448.919; 1921.575;  216.475;    0.000
448.966; 1953.575;  274.475;    0.000
449.013; 1860.575;  263.475;    0.000
449.060; 1986.575;  247.475;    0.000
449.107; 1848.575;  218.475;    0.000
449.154; 1843.575;  225.475;    0.000
449.200; 1799.575;  212.475;    0.000
449.247; 1866.575;  242.475;    0.000
449.294; 1835.575;  228.475;    0.000
449.341; 1732.575;  232.475;    0.000
449.388; 1776.575;  247.475;    0.000
449.435; 1852.575;  227.475;    0.000
449.481; 1745.575;  270.475;    0.000
449.528; 1792.575;  265.475;    0.000
449.575; 1814.575;  255.475;    0.000
449.622; 1790.575;  210.475;    0.000
449.668; 1740.575;  234.475;    0.000
449.715; 1735.575;  262.475;    0.000
449.762; 1742.575;  247.475;    0.000
449.809; 1791.575;  286.475;    0.000
449.855; 1845.575;  246.475;    0.000
449.902; 1742.575;  224.475;    0.000
449.949; 1726.575;  244.475;    0.000
449.995; 1749.575;  274.475;    0.000
450.042; 1704.575;  272.475;    0.000
450.089; 1815.575;  274.475;    0.000
450.135; 1761.575;  285.475;    0.000
450.182; 1695.575;  251.475;    0.000
450.229; 1681.575;  242.475;    0.000
450.275; 1730.575;  277.475;    0.000
450.322; 1712.575;  260.475;    0.000
450.368; 1679.575;  257.475;    0.000
450.415; 1750.575;  276.475;    0.000
450.462; 1683.575;  298.475;    0.000
450.508; 1693.575;  255.475;    0.000
450.555; 1708.575;  271.475;    0.000
450.601; 1678.575;  281.475;    0.000
450.648; 1707.575;  249.475;    0.000
450.694; 1684.575;  270.475;    0.000
450.741; 1673.575;  256.475;    0.000
450.787; 1616.575;  292.475;    0.000
450.834; 1671.575;  221.475;    0.000
450.880; 1670.575;  265.475;    0.000
450.927; 1668.575;  242.475;    0.000
450.973; 1661.575;  259.475;    0.000
451.019; 1592.575;  221.475;    0.000
451.066; 1646.575;  257.475;    0.000
451.112; 1585.575;  251.475;    0.000
451.159; 1584.575;  278.475;    0.000
451.205; 1579.575;  274.475;    0.000
451.251; 1650.575;  281.475;    0.000
451.298; 1615.575;  273.475;    0.000
451.344; 1583.575;  246.475;    0.000
451.390; 1698.575;  286.475;    0.000
451.437; 1544.575;  268.475;    0.000
451.483; 1643.575;  315.475;    0.000
451.529; 1590.575;  251.475;    0.000
451.576; 1610.575;  306.475;    0.000
451.622; 1581.575;  234.475;    0.000
451.668; 1562.575;  243.475;    0.000
451.714; 1552.575;  256.475;    0.000
451.761; 1667.575;  264.475;    0.000
451.807; 1599.575;  284.475;    0.000
451.853; 1627.575;  282.475;    0.000
451.899; 1527.575;  240.475;    0.000
451.945; 1592.575;  263.475;    0.000
451.992; 1666.575;  255.475;    0.000
452.038; 1606.575;  273.475;    0.000
452.084; 1570.575;  274.475;    0.000
452.130; 1608.575;  261.475;    0.000
452.176; 1588.575;  246.475;    0.000
452.222; 1517.575;  238.475;    0.000
452.268; 1495.575;  267.475;    0.000
452.315; 1595.575;  274.475;    0.000
452.361; 1620.575;  241.475;    0.000
452.407; 1576.575;  274.475;    0.000
452.453; 1591.575;  260.475;    0.000
452.499; 1604.575;  232.475;    0.000
452.545; 1508.575;  252.475;    0.000
452.591; 1574.575;  263.475;    0.000
452.637; 1550.575;  208.475;    0.000
452.683; 1476.575;  237.475;    0.000
452.729; 1622.575;  263.475;    0.000
452.775; 1578.575;  291.475;    0.000
452.821; 1521.575;  238.475;    0.000
452.867; 1551.575;  223.475;    0.000
452.913; 1564.575;  257.475;    0.000
452.959; 1515.575;  238.475;    0.000
453.005; 1585.575;  252.475;    0.000
453.051; 1589.575;  260.475;    0.000
453.097; 1506.575;  268.475;    0.000
453.142; 1490.575;  231.475;    0.000
453.188; 1530.575;  266.475;    0.000
453.234; 1467.575;  233.475;    0.000
453.280; 1547.575;  219.475;    0.000
453.326; 1515.575;  265.475;    0.000
453.372; 1497.575;  238.475;    0.000
453.418; 1523.575;  240.475;    0.000
453.463; 1540.575;  219.475;    0.000
453.509; 1564.575;  264.475;    0.000
453.555; 1488.575;  247.475;    0.000
453.601; 1517.575;  230.475;    0.000
453.647; 1534.575;  285.475;    0.000
453.692; 1520.575;  240.475;    0.000
453.738; 1540.575;  233.475;    0.000
453.784; 1540.575;  230.475;    0.000
453.829; 1517.575;  246.475;    0.000
453.875; 1549.575;  261.475;    0.000
453.921; 1450.575;  203.475;    0.000
453.967; 1478.575;  241.475;    0.000
454.012; 1534.575;  250.475;    0.000
454.058; 1485.575;  252.475;    0.000
454.104; 1569.575;  239.475;    0.000
454.149; 1495.575;  250.475;    0.000
454.195; 1447.575;  243.475;    0.000
454.240; 1553.575;  252.475;    0.000
454.286; 1501.575;  245.475;    0.000
454.332; 1493.575;  286.475;    0.000
454.377; 1438.575;  254.475;    0.000
454.423; 1548.575;  246.475;    0.000
454.468; 1507.575;  235.475;    0.000
454.514; 1473.575;  231.475;    0.000
454.559; 1511.575;  246.475;    0.000
454.605; 1525.575;  204.475;    0.000
454.650; 1538.575;  272.475;    0.000
454.696; 1424.575;  222.475;    0.000
454.741; 1565.575;  290.475;    0.000
454.787; 1542.575;  262.475;    0.000
454.832; 1481.575;  227.475;    0.000
454.878; 1513.575;  241.475;    0.000
454.923; 1514.575;  272.475;    0.000
454.969; 1487.575;  290.475;    0.000
455.014; 1499.575;  278.475;    0.000
455.060; 1499.575;  246.475;    0.000
455.105; 1499.575;  231.475;    0.000
455.150; 1565.575;  265.475;    0.000
455.196; 1518.575;  266.475;    0.000
455.241; 1520.575;  258.475;    0.000
455.286; 1506.575;  266.475;    0.000
455.332; 1450.575;  252.475;    0.000
455.377; 1495.575;  219.475;    0.000
455.422; 1485.575;  262.475;    0.000
455.468; 1490.575;  260.475;    0.000
455.513; 1531.575;  212.475;    0.000
455.558; 1451.575;  197.475;    0.000
455.604; 1510.575;  262.475;    0.000
455.649; 1479.575;  238.475;    0.000
455.694; 1423.575;  221.475;    0.000
455.739; 1448.575;  251.475;    0.000
455.785; 1592.575;  287.475;    0.000
455.830; 1505.575;  284.475;    0.000
455.875; 1564.575;  234.475;    0.000
455.920; 1536.575;  215.475;    0.000
455.965; 1486.575;  256.475;    0.000
456.010; 1534.575;  266.475;    0.000
456.056; 1465.575;  263.475;    0.000
456.101; 1476.575;  240.475;    0.000
456.146; 1522.575;  258.475;    0.000
456.191; 1545.575;  241.475;    0.000
456.236; 1443.575;  252.475;    0.000
456.281; 1507.575;  218.475;    0.000
456.326; 1480.575;  251.475;    0.000
456.371; 1491.575;  256.475;    0.000
456.416; 1563.575;  301.475;    0.000
456.461; 1480.575;  233.475;    0.000
456.507; 1556.575;  218.475;    0.000
456.552; 1566.575;  278.475;    0.000
456.597; 1524.575;  223.475;    0.000
456.642; 1464.575;  203.475;    0.000
456.687; 1464.575;  245.475;    0.000
456.732; 1562.575;  256.475;    0.000
456.776; 1523.575;  244.475;    0.000
456.821; 1482.575;  276.475;    0.000
456.866; 1508.575;  232.475;    0.000
456.911; 1468.575;  225.475;    0.000
456.956; 1539.575;  237.475;    0.000
457.001; 1550.575;  261.475;    0.000
457.046; 1473.575;  205.475;    0.000
457.091; 1482.575;  241.475;    0.000
457.136; 1456.575;  217.475;    0.000
457.181; 1472.575;  251.475;    0.000
457.225; 1515.575;  241.475;    0.000
457.270; 1473.575;  237.475;    0.000
457.315; 1521.575;  279.475;    0.000
457.360; 1420.575;  245.475;    0.000
457.405; 1508.575;  202.475;    0.000
457.450; 1516.575;  247.475;    0.000
457.494; 1547.575;  243.475;    0.000
457.539; 1565.575;  222.475;    0.000
457.584; 1504.575;  239.475;    0.000
457.629; 1456.575;  236.475;    0.000
457.673; 1518.575;  234.475;    0.000
457.718; 1486.575;  202.475;    0.000
457.763; 1519.575;  274.475;    0.000
457.807; 1470.575;  236.475;    0.000
457.852; 1518.575;  265.475;    0.000
457.897; 1563.575;  252.475;    0.000
457.941; 1573.575;  264.475;    0.000
457.986; 1542.575;  280.475;    0.000
458.031; 1529.575;  217.475;    0.000
458.075; 1573.575;  249.475;    0.000
458.120; 1538.575;  257.475;    0.000
458.165; 1533.575;  183.475;    0.000
458.209; 1601.575;  245.475;    0.000
458.254; 1589.575;  245.475;    0.000
458.298; 1517.575;  265.475;    0.000
458.343; 1587.575;  241.475;    0.000
458.387; 1537.575;  262.475;    0.000
458.432; 1585.575;  245.475;    0.000
458.476; 1527.575;  255.475;    0.000
458.521; 1541.575;  269.475;    0.000
458.565; 1624.575;  265.475;    0.000
458.610; 1579.575;  222.475;    0.000
458.654; 1563.575;  257.475;    0.000
458.699; 1618.575;  296.475;    0.000
458.743; 1527.575;  203.475;    0.000
458.788; 1648.575;  267.475;    0.000
458.832; 1556.575;  274.475;    0.000
458.877; 1596.575;  251.475;    0.000
458.921; 1551.575;  237.475;    0.000
458.965; 1572.575;  264.475;    0.000
459.010; 1634.575;  256.475;    0.000
459.054; 1600.575;  280.475;    0.000
459.099; 1640.575;  240.475;    0.000
459.143; 1704.575;  287.475;    0.000
459.187; 1620.575;  257.475;    0.000
459.231; 1599.575;  273.475;    0.000
459.276; 1632.575;  231.475;    0.000
459.320; 1578.575;  261.475;    0.000
459.364; 1636.575;  278.475;    0.000
459.409; 1612.575;  249.475;    0.000
459.453; 1656.575;  235.475;    0.000
459.497; 1688.575;  262.475;    0.000
459.541; 1609.575;  269.475;    0.000
459.586; 1628.575;  240.475;    0.000
459.630; 1642.575;  261.475;    0.000
459.674; 1634.575;  276.475;    0.000
459.718; 1632.575;  236.475;    0.000
459.762; 1659.575;  263.475;    0.000
459.807; 1630.575;  263.475;    0.000
459.851; 1683.575;  225.475;    0.000
459.895; 1675.575;  247.475;    0.000
459.939; 1672.575;  231.475;    0.000
459.983; 1654.575;  242.475;    0.000
460.027; 1607.575;  248.475;    0.000
460.071; 1612.575;  273.475;    0.000
460.115; 1702.575;  282.475;    0.000
460.159; 1708.575;  264.475;    0.000
460.204; 1767.575;  288.475;    0.000
460.248; 1740.575;  293.475;    0.000
460.292; 1710.575;  277.475;    0.000
460.336; 1687.575;  250.475;    0.000
460.380; 1720.575;  275.475;    0.000
460.424; 1698.575;  243.475;    0.000
460.468; 1660.575;  277.475;    0.000
460.512; 1673.575;  261.475;    0.000
460.556; 1704.575;  266.475;    0.000
460.599; 1710.575;  246.475;    0.000
460.643; 1655.575;  256.475;    0.000
460.687; 1744.575;  257.475;    0.000
460.731; 1641.575;  235.475;    0.000
460.775; 1620.575;  278.475;    0.000
460.819; 1715.575;  268.475;    0.000
460.863; 1688.575;  257.475;    0.000
460.907; 1698.575;  213.475;    0.000
460.951; 1649.575;  274.475;    0.000
460.995; 1732.575;  258.475;    0.000
461.038; 1692.575;  219.475;    0.000
461.082; 1688.575;  253.475;    0.000
461.126; 1751.575;  281.475;    0.000
461.170; 1679.575;  244.475;    0.000
461.214; 1650.575;  262.475;    0.000
461.257; 1730.575;  284.475;    0.000
461.301; 1704.575;  275.475;    0.000
461.345; 1712.575;  267.475;    0.000
461.389; 1668.575;  255.475;    0.000
461.432; 1707.575;  282.475;    0.000
461.476; 1625.575;  263.475;    0.000
461.520; 1670.575;  260.475;    0.000
461.563; 1702.575;  278.475;    0.000
461.607; 1754.575;  236.475;    0.000
461.651; 1728.575;  262.475;    0.000
461.694; 1707.575;  236.475;    0.000
461.738; 1667.575;  295.475;    0.000
461.782; 1667.575;  252.475;    0.000
461.825; 1685.575;  271.475;    0.000
461.869; 1774.575;  278.475;    0.000
461.913; 1718.575;  255.475;    0.000
461.956; 1716.575;  254.475;    0.000
462.000; 1710.575;  299.475;    0.000
462.043; 1817.575;  282.475;    0.000
462.087; 1715.575;  274.475;    0.000
462.130; 1771.575;  270.475;    0.000
462.174; 1766.575;  274.475;    0.000
462.217; 1737.575;  272.475;    0.000
462.261; 1803.575;  286.475;    0.000
462.304; 1782.575;  236.475;    0.000
462.348; 1742.575;  262.475;    0.000
462.391; 1799.575;  244.475;    0.000
462.435; 1913.575;  321.475;    0.000
462.478; 1830.575;  230.475;    0.000
462.522; 1757.575;  245.475;    0.000
462.565; 1755.575;  278.475;    0.000
462.608; 1842.575;  303.475;    0.000
462.652; 1865.575;  275.475;    0.000
462.695; 1893.575;  314.475;    0.000
462.739; 1863.575;  307.475;    0.000
462.782; 1870.575;  286.475;    0.000
462.825; 1825.575;  312.475;    0.000
462.869; 1861.575;  338.475;    0.000
462.912; 1897.575;  304.475;    0.000
462.955; 1904.575;  288.475;    0.000
462.998; 1923.575;  292.475;    0.000
463.042; 1847.575;  309.475;    0.000
463.085; 1833.575;  292.475;    0.000
463.128; 1855.575;  317.475;    0.000
463.172; 1822.575;  287.475;    0.000
463.215;  380.575;  313.475;    0.000
463.258;  332.575;  295.475;    0.000
463.301;  299.575;  275.475;    0.000
463.344;  340.575;  311.475;    0.000
463.388;  295.575;  296.475;    0.000
463.431;  300.575;  277.475;    0.000
463.474;  358.575;  364.475;    0.000
463.517;  322.575;  306.475;    0.000
463.560;  304.575;  308.475;    0.000
463.603;  332.575;  343.475;    0.000
463.646;  330.575;  309.475;    0.000
463.690;  329.575;  309.475;    0.000
463.733;  319.575;  320.475;    0.000
463.776;  300.575;  299.475;    0.000
463.819;  330.575;  320.475;    0.000
463.862;  283.575;  283.475;    0.000

