
Integration time [ms]:   0.300
Averaging Nr. [scans]: 1
Smoothing Nr. [pixels]: 0
Data measured with spectrometer [name]: UV2
Wave   ;Sample   ;Dark     ;Reference
[nm]   ;[counts] ;[counts] ;[counts] 

353.533;  224.500;  235.675;    0.000
353.597;  249.500;  239.675;    0.000
353.660;  179.500;  203.675;    0.000
353.723;  184.500;  225.675;    0.000
353.786;  197.500;  178.675;    0.000
353.850;  236.500;  199.675;    0.000
353.913;  209.500;  179.675;    0.000
353.976;  218.500;  209.675;    0.000
354.039;  196.500;  188.675;    0.000
354.102;  203.500;  219.675;    0.000
354.166;  204.500;  237.675;    0.000
354.229;  227.500;  179.675;    0.000
354.292;  189.500;  210.675;    0.000
354.355;  232.500;  214.675;    0.000
354.418;  160.500;  173.675;    0.000
354.481;  206.500;  170.675;    0.000
354.545;  594.500;  229.675;    0.000
354.608;  689.500;  233.675;    0.000
354.671;  628.500;  183.675;    0.000
354.734;  654.500;  208.675;    0.000
354.797;  647.500;  263.675;    0.000
354.860;  683.500;  208.675;    0.000
354.923;  677.500;  202.675;    0.000
354.986;  654.500;  207.675;    0.000
355.050;  717.500;  180.675;    0.000
355.113;  672.500;  189.675;    0.000
355.176;  776.500;  214.675;    0.000
355.239;  731.500;  199.675;    0.000
355.302;  749.500;  229.675;    0.000
355.365;  775.500;  220.675;    0.000
355.428;  808.500;  196.675;    0.000
355.491;  842.500;  243.675;    0.000
355.554;  758.500;  191.675;    0.000
355.617;  795.500;  200.675;    0.000
355.680;  802.500;  190.675;    0.000
355.743;  860.500;  236.675;    0.000
355.806;  795.500;  193.675;    0.000
355.869;  871.500;  223.675;    0.000
355.932;  862.500;  208.675;    0.000
355.995;  905.500;  231.675;    0.000
356.058;  826.500;  202.675;    0.000
356.121;  880.500;  198.675;    0.000
356.184;  878.500;  209.675;    0.000
356.247;  863.500;  224.675;    0.000
356.310;  867.500;  149.675;    0.000
356.373;  905.500;  211.675;    0.000
356.436;  922.500;  195.675;    0.000
356.498;  893.500;  176.675;    0.000
356.561;  898.500;  186.675;    0.000
356.624;  882.500;  184.675;    0.000
356.687;  925.500;  179.675;    0.000
356.750;  931.500;  213.675;    0.000
356.813;  903.500;  172.675;    0.000
356.876;  871.500;  189.675;    0.000
356.939;  917.500;  204.675;    0.000
357.001;  931.500;  195.675;    0.000
357.064;  944.500;  202.675;    0.000
357.127;  934.500;  176.675;    0.000
357.190;  948.500;  186.675;    0.000
357.253;  965.500;  178.675;    0.000
357.316;  946.500;  187.675;    0.000
357.378;  962.500;  181.675;    0.000
357.441;  909.500;  142.675;    0.000
357.504;  914.500;  161.675;    0.000
357.567;  859.500;  113.675;    0.000
357.629;  921.500;  193.675;    0.000
357.692;  871.500;  144.675;    0.000
357.755;  879.500;  177.675;    0.000
357.818;  885.500;  144.675;    0.000
357.880;  966.500;  182.675;    0.000
357.943;  907.500;  166.675;    0.000
358.006;  960.500;  184.675;    0.000
358.069;  920.500;  200.675;    0.000
358.131; 1013.500;  148.675;    0.000
358.194;  857.500;  155.675;    0.000
358.257;  946.500;  173.675;    0.000
358.319;  910.500;  178.675;    0.000
358.382; 1016.500;  184.675;    0.000
358.445;  951.500;  156.675;    0.000
358.507;  987.500;  199.675;    0.000
358.570;  939.500;  182.675;    0.000
358.633;  921.500;  167.675;    0.000
358.695;  948.500;  124.675;    0.000
358.758; 1006.500;  164.675;    0.000
358.821;  952.500;  147.675;    0.000
358.883;  948.500;  153.675;    0.000
358.946;  961.500;  171.675;    0.000
359.008;  924.500;  196.675;    0.000
359.071;  961.500;  178.675;    0.000
359.134;  968.500;  123.675;    0.000
359.196;  960.500;  166.675;    0.000
359.259;  993.500;  173.675;    0.000
359.321; 1044.500;  164.675;    0.000
359.384; 1049.500;  155.675;    0.000
359.446; 1018.500;  157.675;    0.000
359.509;  994.500;  153.675;    0.000
359.571; 1041.500;  184.675;    0.000
359.634;  986.500;  138.675;    0.000
359.696;  995.500;  169.675;    0.000
359.759; 1041.500;  152.675;    0.000
359.821;  941.500;  150.675;    0.000
359.884; 1029.500;  166.675;    0.000
359.946; 1007.500;  165.675;    0.000
360.009; 1050.500;  176.675;    0.000
360.071; 1035.500;  148.675;    0.000
360.134; 1085.500;  193.675;    0.000
360.196;  985.500;  151.675;    0.000
360.259; 1120.500;  182.675;    0.000
360.321;  991.500;  168.675;    0.000
360.384; 1008.500;  176.675;    0.000
360.446; 1041.500;  156.675;    0.000
360.508; 1077.500;  183.675;    0.000
360.571; 1068.500;  193.675;    0.000
360.633; 1020.500;  184.675;    0.000
360.696; 1040.500;  136.675;    0.000
360.758; 1097.500;  186.675;    0.000
360.820; 1043.500;  127.675;    0.000
360.883; 1058.500;  146.675;    0.000
360.945; 1120.500;  144.675;    0.000
361.007; 1040.500;  160.675;    0.000
361.070; 1093.500;  175.675;    0.000
361.132; 1100.500;  195.675;    0.000
361.194; 1119.500;  167.675;    0.000
361.257; 1054.500;  140.675;    0.000
361.319; 1082.500;  154.675;    0.000
361.381; 1087.500;  181.675;    0.000
361.443;  982.500;  137.675;    0.000
361.506; 1054.500;  159.675;    0.000
361.568; 1031.500;  144.675;    0.000
361.630; 1063.500;  189.675;    0.000
361.693; 1098.500;  162.675;    0.000
361.755; 1097.500;  156.675;    0.000
361.817; 1089.500;  225.675;    0.000
361.879; 1082.500;  172.675;    0.000
361.941; 1008.500;  138.675;    0.000
362.004; 1125.500;  163.675;    0.000
362.066; 1121.500;  164.675;    0.000
362.128; 1145.500;  160.675;    0.000
362.190; 1143.500;  168.675;    0.000
362.252; 1154.500;  177.675;    0.000
362.315; 1141.500;  169.675;    0.000
362.377; 1075.500;  188.675;    0.000
362.439; 1175.500;  158.675;    0.000
362.501; 1148.500;  168.675;    0.000
362.563; 1095.500;  168.675;    0.000
362.625; 1099.500;  188.675;    0.000
362.688; 1130.500;  162.675;    0.000
362.750; 1192.500;  209.675;    0.000
362.812; 1192.500;  154.675;    0.000
362.874; 1172.500;  190.675;    0.000
362.936; 1164.500;  190.675;    0.000
362.998; 1193.500;  143.675;    0.000
363.060; 1228.500;  186.675;    0.000
363.122; 1150.500;  167.675;    0.000
363.184; 1166.500;  163.675;    0.000
363.246; 1148.500;  169.675;    0.000
363.308; 1197.500;  165.675;    0.000
363.370; 1160.500;  177.675;    0.000
363.432; 1147.500;  139.675;    0.000
363.494; 1137.500;  177.675;    0.000
363.556; 1190.500;  164.675;    0.000
363.618; 1171.500;  170.675;    0.000
363.680; 1152.500;  146.675;    0.000
363.742; 1192.500;  179.675;    0.000
363.804; 1153.500;  188.675;    0.000
363.866; 1177.500;  186.675;    0.000
363.928; 1208.500;  147.675;    0.000
363.990; 1184.500;  185.675;    0.000
364.052; 1174.500;  197.675;    0.000
364.114; 1163.500;  150.675;    0.000
364.176; 1195.500;  217.675;    0.000
364.238; 1182.500;  159.675;    0.000
364.300; 1160.500;  192.675;    0.000
364.362; 1133.500;  130.675;    0.000
364.424; 1104.500;  131.675;    0.000
364.486; 1178.500;  178.675;    0.000
364.548; 1187.500;  203.675;    0.000
364.609; 1232.500;  192.675;    0.000
364.671; 1223.500;  169.675;    0.000
364.733; 1150.500;  169.675;    0.000
364.795; 1227.500;  157.675;    0.000
364.857; 1184.500;  171.675;    0.000
364.919; 1234.500;  134.675;    0.000
364.981; 1184.500;  162.675;    0.000
365.042; 1213.500;  136.675;    0.000
365.104; 1126.500;  152.675;    0.000
365.166; 1150.500;  149.675;    0.000
365.228; 1189.500;  195.675;    0.000
365.290; 1180.500;  147.675;    0.000
365.351; 1189.500;  138.675;    0.000
365.413; 1179.500;  168.675;    0.000
365.475; 1159.500;  150.675;    0.000
365.537; 1243.500;  179.675;    0.000
365.598; 1216.500;  177.675;    0.000
365.660; 1159.500;  149.675;    0.000
365.722; 1202.500;  160.675;    0.000
365.784; 1210.500;  175.675;    0.000
365.845; 1194.500;  149.675;    0.000
365.907; 1246.500;  154.675;    0.000
365.969; 1208.500;  128.675;    0.000
366.030; 1225.500;  176.675;    0.000
366.092; 1237.500;  181.675;    0.000
366.154; 1243.500;  194.675;    0.000
366.215; 1203.500;  149.675;    0.000
366.277; 1248.500;  144.675;    0.000
366.339; 1143.500;  160.675;    0.000
366.400; 1181.500;  144.675;    0.000
366.462; 1260.500;  145.675;    0.000
366.524; 1262.500;  148.675;    0.000
366.585; 1168.500;  128.675;    0.000
366.647; 1218.500;  156.675;    0.000
366.708; 1167.500;  128.675;    0.000
366.770; 1198.500;  188.675;    0.000
366.832; 1223.500;  170.675;    0.000
366.893; 1314.500;  158.675;    0.000
366.955; 1271.500;  150.675;    0.000
367.016; 1216.500;  160.675;    0.000
367.078; 1249.500;  144.675;    0.000
367.139; 1290.500;  109.675;    0.000
367.201; 1313.500;  155.675;    0.000
367.262; 1276.500;  165.675;    0.000
367.324; 1282.500;  180.675;    0.000
367.385; 1191.500;  150.675;    0.000
367.447; 1287.500;  164.675;    0.000
367.508; 1259.500;  137.675;    0.000
367.570; 1234.500;  174.675;    0.000
367.631; 1189.500;  126.675;    0.000
367.693; 1284.500;  153.675;    0.000
367.754; 1350.500;  194.675;    0.000
367.816; 1232.500;  154.675;    0.000
367.877; 1301.500;  183.675;    0.000
367.939; 1293.500;  179.675;    0.000
368.000; 1238.500;  142.675;    0.000
368.062; 1281.500;  147.675;    0.000
368.123; 1254.500;  155.675;    0.000
368.184; 1249.500;  169.675;    0.000
368.246; 1261.500;  145.675;    0.000
368.307; 1253.500;  165.675;    0.000
368.369; 1199.500;  177.675;    0.000
368.430; 1259.500;  161.675;    0.000
368.491; 1269.500;  156.675;    0.000
368.553; 1253.500;  156.675;    0.000
368.614; 1273.500;  186.675;    0.000
368.675; 1164.500;  154.675;    0.000
368.737; 1222.500;  162.675;    0.000
368.798; 1263.500;  202.675;    0.000
368.859; 1297.500;  162.675;    0.000
368.921; 1333.500;  171.675;    0.000
368.982; 1274.500;  193.675;    0.000
369.043; 1255.500;  207.675;    0.000
369.104; 1308.500;  143.675;    0.000
369.166; 1289.500;  203.675;    0.000
369.227; 1241.500;  125.675;    0.000
369.288; 1335.500;  154.675;    0.000
369.349; 1378.500;  187.675;    0.000
369.411; 1312.500;  191.675;    0.000
369.472; 1327.500;  175.675;    0.000
369.533; 1379.500;  180.675;    0.000
369.594; 1300.500;  161.675;    0.000
369.656; 1335.500;  169.675;    0.000
369.717; 1306.500;  103.675;    0.000
369.778; 1310.500;  159.675;    0.000
369.839; 1272.500;  146.675;    0.000
369.900; 1350.500;  218.675;    0.000
369.961; 1270.500;  200.675;    0.000
370.023; 1325.500;  177.675;    0.000
370.084; 1267.500;  149.675;    0.000
370.145; 1270.500;  179.675;    0.000
370.206; 1329.500;  179.675;    0.000
370.267; 1379.500;  166.675;    0.000
370.328; 1277.500;  164.675;    0.000
370.389; 1250.500;  162.675;    0.000
370.451; 1349.500;  179.675;    0.000
370.512; 1335.500;  181.675;    0.000
370.573; 1334.500;  173.675;    0.000
370.634; 1355.500;  162.675;    0.000
370.695; 1283.500;  167.675;    0.000
370.756; 1337.500;  177.675;    0.000
370.817; 1324.500;  178.675;    0.000
370.878; 1241.500;  152.675;    0.000
370.939; 1276.500;  185.675;    0.000
371.000; 1276.500;  173.675;    0.000
371.061; 1353.500;  176.675;    0.000
371.122; 1334.500;  169.675;    0.000
371.183; 1307.500;  116.675;    0.000
371.244; 1340.500;  174.675;    0.000
371.305; 1364.500;  152.675;    0.000
371.366; 1397.500;  168.675;    0.000
371.427; 1317.500;  188.675;    0.000
371.488; 1388.500;  180.675;    0.000
371.549; 1296.500;  145.675;    0.000
371.610; 1292.500;  160.675;    0.000
371.671; 1339.500;  164.675;    0.000
371.732; 1343.500;  158.675;    0.000
371.793; 1342.500;  162.675;    0.000
371.853; 1362.500;  130.675;    0.000
371.914; 1360.500;  172.675;    0.000
371.975; 1318.500;   98.675;    0.000
372.036; 1328.500;  161.675;    0.000
372.097; 1311.500;  143.675;    0.000
372.158; 1347.500;  175.675;    0.000
372.219; 1338.500;  196.675;    0.000
372.280; 1313.500;  175.675;    0.000
372.340; 1328.500;  160.675;    0.000
372.401; 1324.500;  163.675;    0.000
372.462; 1286.500;  147.675;    0.000
372.523; 1359.500;  146.675;    0.000
372.584; 1341.500;  173.675;    0.000
372.645; 1326.500;  126.675;    0.000
372.705; 1422.500;  179.675;    0.000
372.766; 1385.500;  173.675;    0.000
372.827; 1396.500;  171.675;    0.000
372.888; 1317.500;  134.675;    0.000
372.948; 1389.500;  167.675;    0.000
373.009; 1383.500;  167.675;    0.000
373.070; 1379.500;  152.675;    0.000
373.131; 1326.500;  177.675;    0.000
373.191; 1393.500;  225.675;    0.000
373.252; 1331.500;  165.675;    0.000
373.313; 1364.500;  171.675;    0.000
373.373; 1358.500;  160.675;    0.000
373.434; 1391.500;  172.675;    0.000
373.495; 1281.500;  150.675;    0.000
373.555; 1398.500;  130.675;    0.000
373.616; 1282.500;  155.675;    0.000
373.677; 1355.500;  212.675;    0.000
373.737; 1350.500;  188.675;    0.000
373.798; 1391.500;  203.675;    0.000
373.859; 1375.500;  169.675;    0.000
373.919; 1357.500;  197.675;    0.000
373.980; 1332.500;  134.675;    0.000
374.041; 1341.500;  186.675;    0.000
374.101; 1372.500;  207.675;    0.000
374.162; 1354.500;  190.675;    0.000
374.222; 1395.500;  182.675;    0.000
374.283; 1392.500;  213.675;    0.000
374.343; 1407.500;  191.675;    0.000
374.404; 1418.500;  181.675;    0.000
374.465; 1383.500;  193.675;    0.000
374.525; 1370.500;  153.675;    0.000
374.586; 1408.500;  190.675;    0.000
374.646; 1414.500;  173.675;    0.000
374.707; 1483.500;  210.675;    0.000
374.767; 1368.500;  218.675;    0.000
374.828; 1381.500;  174.675;    0.000
374.888; 1356.500;  197.675;    0.000
374.949; 1397.500;  196.675;    0.000
375.009; 1402.500;  169.675;    0.000
375.070; 1472.500;  157.675;    0.000
375.130; 1425.500;  203.675;    0.000
375.190; 1384.500;  174.675;    0.000
375.251; 1451.500;  230.675;    0.000
375.311; 1343.500;  198.675;    0.000
375.372; 1394.500;  160.675;    0.000
375.432; 1401.500;  169.675;    0.000
375.493; 1398.500;  159.675;    0.000
375.553; 1446.500;  179.675;    0.000
375.613; 1420.500;  157.675;    0.000
375.674; 1381.500;  174.675;    0.000
375.734; 1393.500;  180.675;    0.000
375.794; 1375.500;  175.675;    0.000
375.855; 1417.500;  193.675;    0.000
375.915; 1354.500;  148.675;    0.000
375.975; 1385.500;  183.675;    0.000
376.036; 1369.500;  144.675;    0.000
376.096; 1360.500;  195.675;    0.000
376.156; 1367.500;  200.675;    0.000
376.217; 1367.500;  160.675;    0.000
376.277; 1393.500;  193.675;    0.000
376.337; 1359.500;  168.675;    0.000
376.398; 1368.500;  183.675;    0.000
376.458; 1376.500;  168.675;    0.000
376.518; 1410.500;  184.675;    0.000
376.578; 1395.500;  176.675;    0.000
376.639; 1394.500;  158.675;    0.000
376.699; 1378.500;  157.675;    0.000
376.759; 1406.500;  184.675;    0.000
376.819; 1397.500;  166.675;    0.000
376.880; 1428.500;  220.675;    0.000
376.940; 1369.500;  195.675;    0.000
377.000; 1359.500;  178.675;    0.000
377.060; 1399.500;  212.675;    0.000
377.120; 1391.500;  161.675;    0.000
377.180; 1408.500;  168.675;    0.000
377.241; 1335.500;  167.675;    0.000
377.301; 1382.500;  171.675;    0.000
377.361; 1312.500;  174.675;    0.000
377.421; 1410.500;  216.675;    0.000
377.481; 1366.500;  164.675;    0.000
377.541; 1334.500;  163.675;    0.000
377.601; 1429.500;  197.675;    0.000
377.661; 1392.500;  175.675;    0.000
377.722; 1471.500;  196.675;    0.000
377.782; 1393.500;  162.675;    0.000
377.842; 1425.500;  179.675;    0.000
377.902; 1383.500;  140.675;    0.000
377.962; 1394.500;  121.675;    0.000
378.022; 1348.500;  174.675;    0.000
378.082; 1381.500;  167.675;    0.000
378.142; 1387.500;  151.675;    0.000
378.202; 1346.500;  174.675;    0.000
378.262; 1367.500;  168.675;    0.000
378.322; 1446.500;  183.675;    0.000
378.382; 1387.500;  159.675;    0.000
378.442; 1402.500;  177.675;    0.000
378.502; 1319.500;  137.675;    0.000
378.562; 1388.500;  140.675;    0.000
378.622; 1413.500;  197.675;    0.000
378.682; 1404.500;  205.675;    0.000
378.742; 1381.500;  160.675;    0.000
378.802; 1396.500;  132.675;    0.000
378.862; 1454.500;  222.675;    0.000
378.921; 1491.500;  178.675;    0.000
378.981; 1446.500;  160.675;    0.000
379.041; 1421.500;  136.675;    0.000
379.101; 1452.500;  184.675;    0.000
379.161; 1397.500;  147.675;    0.000
379.221; 1436.500;  139.675;    0.000
379.281; 1443.500;  204.675;    0.000
379.341; 1469.500;  142.675;    0.000
379.401; 1398.500;  136.675;    0.000
379.460; 1461.500;  161.675;    0.000
379.520; 1406.500;  171.675;    0.000
379.580; 1406.500;  168.675;    0.000
379.640; 1489.500;  183.675;    0.000
379.700; 1437.500;  182.675;    0.000
379.759; 1453.500;  190.675;    0.000
379.819; 1445.500;  149.675;    0.000
379.879; 1443.500;  140.675;    0.000
379.939; 1443.500;  155.675;    0.000
379.999; 1427.500;  199.675;    0.000
380.058; 1501.500;  163.675;    0.000
380.118; 1409.500;  190.675;    0.000
380.178; 1478.500;  220.675;    0.000
380.237; 1486.500;  181.675;    0.000
380.297; 1486.500;  187.675;    0.000
380.357; 1451.500;  193.675;    0.000
380.417; 1507.500;  157.675;    0.000
380.476; 1395.500;  176.675;    0.000
380.536; 1421.500;  180.675;    0.000
380.596; 1431.500;  191.675;    0.000
380.655; 1460.500;  190.675;    0.000
380.715; 1390.500;  180.675;    0.000
380.775; 1454.500;  202.675;    0.000
380.834; 1535.500;  190.675;    0.000
380.894; 1524.500;  163.675;    0.000
380.954; 1464.500;  181.675;    0.000
381.013; 1499.500;  218.675;    0.000
381.073; 1447.500;  181.675;    0.000
381.132; 1464.500;  193.675;    0.000
381.192; 1478.500;  209.675;    0.000
381.252; 1470.500;  206.675;    0.000
381.311; 1490.500;  173.675;    0.000
381.371; 1462.500;  188.675;    0.000
381.430; 1486.500;  162.675;    0.000
381.490; 1469.500;  168.675;    0.000
381.549; 1471.500;  213.675;    0.000
381.609; 1567.500;  194.675;    0.000
381.668; 1473.500;  190.675;    0.000
381.728; 1477.500;  183.675;    0.000
381.787; 1525.500;  172.675;    0.000
381.847; 1462.500;  198.675;    0.000
381.906; 1524.500;  197.675;    0.000
381.966; 1487.500;  201.675;    0.000
382.025; 1535.500;  219.675;    0.000
382.085; 1485.500;  194.675;    0.000
382.144; 1531.500;  187.675;    0.000
382.204; 1546.500;  196.675;    0.000
382.263; 1590.500;  168.675;    0.000
382.323; 1596.500;  135.675;    0.000
382.382; 1527.500;  173.675;    0.000
382.441; 1560.500;  155.675;    0.000
382.501; 1505.500;  168.675;    0.000
382.560; 1573.500;  200.675;    0.000
382.619; 1546.500;  155.675;    0.000
382.679; 1564.500;  198.675;    0.000
382.738; 1596.500;  211.675;    0.000
382.798; 1627.500;  214.675;    0.000
382.857; 1693.500;  146.675;    0.000
382.916; 1681.500;  183.675;    0.000
382.976; 1652.500;  173.675;    0.000
383.035; 1706.500;  165.675;    0.000
383.094; 1702.500;  173.675;    0.000
383.154; 1799.500;  143.675;    0.000
383.213; 1841.500;  173.675;    0.000
383.272; 1774.500;  166.675;    0.000
383.331; 1689.500;  154.675;    0.000
383.391; 1797.500;  232.675;    0.000
383.450; 1664.500;  185.675;    0.000
383.509; 1653.500;  204.675;    0.000
383.568; 1675.500;  197.675;    0.000
383.628; 1703.500;  171.675;    0.000
383.687; 1685.500;  202.675;    0.000
383.746; 1838.500;  116.675;    0.000
383.805; 1881.500;  156.675;    0.000
383.864; 1886.500;  150.675;    0.000
383.924; 1866.500;  195.675;    0.000
383.983; 1625.500;  157.675;    0.000
384.042; 1701.500;  184.675;    0.000
384.101; 1609.500;  210.675;    0.000
384.160; 1709.500;  123.675;    0.000
384.219; 1653.500;  191.675;    0.000
384.279; 1555.500;  184.675;    0.000
384.338; 1551.500;  172.675;    0.000
384.397; 1643.500;  153.675;    0.000
384.456; 1587.500;  181.675;    0.000
384.515; 1587.500;  171.675;    0.000
384.574; 1660.500;  172.675;    0.000
384.633; 1574.500;  174.675;    0.000
384.692; 1528.500;  178.675;    0.000
384.751; 1610.500;  180.675;    0.000
384.810; 1668.500;  161.675;    0.000
384.869; 1562.500;  162.675;    0.000
384.929; 1527.500;  157.675;    0.000
384.988; 1556.500;  153.675;    0.000
385.047; 1589.500;  178.675;    0.000
385.106; 1562.500;  164.675;    0.000
385.165; 1535.500;  127.675;    0.000
385.224; 1612.500;  156.675;    0.000
385.283; 1592.500;  178.675;    0.000
385.342; 1603.500;  177.675;    0.000
385.401; 1687.500;  178.675;    0.000
385.459; 1624.500;  177.675;    0.000
385.518; 1612.500;  152.675;    0.000
385.577; 1582.500;  133.675;    0.000
385.636; 1714.500;  204.675;    0.000
385.695; 1602.500;  161.675;    0.000
385.754; 1660.500;  190.675;    0.000
385.813; 1588.500;  160.675;    0.000
385.872; 1595.500;  138.675;    0.000
385.931; 1669.500;  192.675;    0.000
385.990; 1659.500;  158.675;    0.000
386.049; 1682.500;  187.675;    0.000
386.107; 1562.500;  140.675;    0.000
386.166; 1578.500;  139.675;    0.000
386.225; 1677.500;  182.675;    0.000
386.284; 1596.500;  123.675;    0.000
386.343; 1639.500;  207.675;    0.000
386.402; 1593.500;  150.675;    0.000
386.460; 1671.500;  185.675;    0.000
386.519; 1701.500;  145.675;    0.000
386.578; 1654.500;  153.675;    0.000
386.637; 1696.500;  153.675;    0.000
386.696; 1587.500;  189.675;    0.000
386.754; 1624.500;  128.675;    0.000
386.813; 1611.500;  202.675;    0.000
386.872; 1645.500;  152.675;    0.000
386.931; 1598.500;  166.675;    0.000
386.989; 1714.500;  194.675;    0.000
387.048; 1678.500;  176.675;    0.000
387.107; 1686.500;  203.675;    0.000
387.165; 1637.500;  136.675;    0.000
387.224; 1637.500;  193.675;    0.000
387.283; 1623.500;  157.675;    0.000
387.342; 1665.500;  194.675;    0.000
387.400; 1587.500;  191.675;    0.000
387.459; 1649.500;  142.675;    0.000
387.517; 1639.500;  202.675;    0.000
387.576; 1734.500;  164.675;    0.000
387.635; 1733.500;  147.675;    0.000
387.693; 1648.500;  199.675;    0.000
387.752; 1631.500;  181.675;    0.000
387.811; 1634.500;  161.675;    0.000
387.869; 1727.500;  184.675;    0.000
387.928; 1703.500;  175.675;    0.000
387.986; 1650.500;  143.675;    0.000
388.045; 1666.500;  146.675;    0.000
388.103; 1747.500;  164.675;    0.000
388.162; 1694.500;  170.675;    0.000
388.221; 1714.500;  169.675;    0.000
388.279; 1601.500;  151.675;    0.000
388.338; 1783.500;  175.675;    0.000
388.396; 1652.500;  170.675;    0.000
388.455; 1699.500;  193.675;    0.000
388.513; 1659.500;  134.675;    0.000
388.572; 1737.500;  201.675;    0.000
388.630; 1720.500;  181.675;    0.000
388.689; 1746.500;  165.675;    0.000
388.747; 1678.500;  164.675;    0.000
388.806; 1706.500;  155.675;    0.000
388.864; 1669.500;  172.675;    0.000
388.922; 1780.500;  190.675;    0.000
388.981; 1687.500;  170.675;    0.000
389.039; 1753.500;  142.675;    0.000
389.098; 1739.500;  177.675;    0.000
389.156; 1779.500;  184.675;    0.000
389.214; 1696.500;  197.675;    0.000
389.273; 1708.500;  141.675;    0.000
389.331; 1717.500;  145.675;    0.000
389.390; 1700.500;  160.675;    0.000
389.448; 1624.500;  142.675;    0.000
389.506; 1736.500;  192.675;    0.000
389.565; 1766.500;  176.675;    0.000
389.623; 1681.500;  174.675;    0.000
389.681; 1754.500;  184.675;    0.000
389.740; 1754.500;  193.675;    0.000
389.798; 1736.500;  130.675;    0.000
389.856; 1733.500;  224.675;    0.000
389.914; 1699.500;  223.675;    0.000
389.973; 1773.500;  164.675;    0.000
390.031; 1739.500;  198.675;    0.000
390.089; 1806.500;  177.675;    0.000
390.147; 1775.500;  158.675;    0.000
390.206; 1770.500;  213.675;    0.000
390.264; 1733.500;  178.675;    0.000
390.322; 1804.500;  181.675;    0.000
390.380; 1719.500;  148.675;    0.000
390.439; 1784.500;  185.675;    0.000
390.497; 1857.500;  208.675;    0.000
390.555; 1767.500;  175.675;    0.000
390.613; 1810.500;  178.675;    0.000
390.671; 1824.500;  190.675;    0.000
390.729; 1796.500;  172.675;    0.000
390.788; 1881.500;  194.675;    0.000
390.846; 1802.500;  187.675;    0.000
390.904; 1821.500;  207.675;    0.000
390.962; 1814.500;  211.675;    0.000
391.020; 1808.500;  218.675;    0.000
391.078; 1817.500;  179.675;    0.000
391.136; 1787.500;  223.675;    0.000
391.194; 1801.500;  209.675;    0.000
391.253; 1885.500;  217.675;    0.000
391.311; 1818.500;  217.675;    0.000
391.369; 1829.500;  217.675;    0.000
391.427; 1850.500;  253.675;    0.000
391.485; 1837.500;  176.675;    0.000
391.543; 1911.500;  252.675;    0.000
391.601; 1895.500;  168.675;    0.000
391.659; 1865.500;  206.675;    0.000
391.717; 1885.500;  172.675;    0.000
391.775; 1869.500;  170.675;    0.000
391.833; 1868.500;  196.675;    0.000
391.891; 1858.500;  180.675;    0.000
391.949; 1885.500;  201.675;    0.000
392.007; 1951.500;  196.675;    0.000
392.065; 1935.500;  191.675;    0.000
392.123; 1878.500;  158.675;    0.000
392.180; 1885.500;  192.675;    0.000
392.238; 1999.500;  186.675;    0.000
392.296; 1918.500;  150.675;    0.000
392.354; 1896.500;  175.675;    0.000
392.412; 1877.500;  219.675;    0.000
392.470; 1885.500;  200.675;    0.000
392.528; 1876.500;  177.675;    0.000
392.586; 1929.500;  169.675;    0.000
392.644; 1908.500;  155.675;    0.000
392.701; 1955.500;  215.675;    0.000
392.759; 1927.500;  218.675;    0.000
392.817; 1906.500;  178.675;    0.000
392.875; 1881.500;  190.675;    0.000
392.933; 1928.500;  197.675;    0.000
392.991; 1878.500;  179.675;    0.000
393.048; 1930.500;  205.675;    0.000
393.106; 1997.500;  229.675;    0.000
393.164; 1967.500;  167.675;    0.000
393.222; 2032.500;  156.675;    0.000
393.279; 2051.500;  203.675;    0.000
393.337; 2061.500;  216.675;    0.000
393.395; 2059.500;  180.675;    0.000
393.453; 1950.500;  163.675;    0.000
393.510; 1976.500;  194.675;    0.000
393.568; 2012.500;  207.675;    0.000
393.626; 2041.500;  200.675;    0.000
393.684; 1962.500;  234.675;    0.000
393.741; 1979.500;  197.675;    0.000
393.799; 2040.500;  201.675;    0.000
393.857; 1944.500;  185.675;    0.000
393.914; 1921.500;  200.675;    0.000
393.972; 2051.500;  181.675;    0.000
394.030; 2074.500;  188.675;    0.000
394.087; 1970.500;  202.675;    0.000
394.145; 2034.500;  214.675;    0.000
394.202; 2011.500;  204.675;    0.000
394.260; 2044.500;  178.675;    0.000
394.318; 2027.500;  208.675;    0.000
394.375; 2029.500;  183.675;    0.000
394.433; 2013.500;  175.675;    0.000
394.490; 2038.500;  170.675;    0.000
394.548; 1974.500;  161.675;    0.000
394.605; 2078.500;  196.675;    0.000
394.663; 2051.500;  191.675;    0.000
394.720; 2069.500;  179.675;    0.000
394.778; 2041.500;  193.675;    0.000
394.836; 1995.500;  160.675;    0.000
394.893; 2075.500;  152.675;    0.000
394.951; 2002.500;  179.675;    0.000
395.008; 2011.500;  185.675;    0.000
395.065; 2021.500;  154.675;    0.000
395.123; 2058.500;  176.675;    0.000
395.180; 2030.500;  202.675;    0.000
395.238; 2043.500;  135.675;    0.000
395.295; 2062.500;  178.675;    0.000
395.353; 2083.500;  181.675;    0.000
395.410; 2021.500;  160.675;    0.000
395.468; 2101.500;  179.675;    0.000
395.525; 2122.500;  187.675;    0.000
395.582; 2101.500;  221.675;    0.000
395.640; 2082.500;  220.675;    0.000
395.697; 2145.500;  174.675;    0.000
395.754; 2149.500;  177.675;    0.000
395.812; 2011.500;  193.675;    0.000
395.869; 2239.500;  220.675;    0.000
395.927; 2077.500;  206.675;    0.000
395.984; 2119.500;  213.675;    0.000
396.041; 2103.500;  194.675;    0.000
396.098; 2144.500;  144.675;    0.000
396.156; 2166.500;  168.675;    0.000
396.213; 2135.500;  181.675;    0.000
396.270; 2112.500;  186.675;    0.000
396.328; 2138.500;  165.675;    0.000
396.385; 2128.500;  192.675;    0.000
396.442; 2061.500;  196.675;    0.000
396.499; 2206.500;  162.675;    0.000
396.557; 2124.500;  177.675;    0.000
396.614; 2097.500;  184.675;    0.000
396.671; 2102.500;  180.675;    0.000
396.728; 2235.500;  194.675;    0.000
396.785; 2157.500;  173.675;    0.000
396.843; 2208.500;  154.675;    0.000
396.900; 2203.500;  200.675;    0.000
396.957; 2187.500;  158.675;    0.000
397.014; 2120.500;  203.675;    0.000
397.071; 2221.500;  178.675;    0.000
397.128; 2218.500;  201.675;    0.000
397.186; 2164.500;  200.675;    0.000
397.243; 2260.500;  187.675;    0.000
397.300; 2260.500;  173.675;    0.000
397.357; 2201.500;  189.675;    0.000
397.414; 2237.500;  202.675;    0.000
397.471; 2216.500;  156.675;    0.000
397.528; 2208.500;  197.675;    0.000
397.585; 2244.500;  174.675;    0.000
397.642; 2187.500;  202.675;    0.000
397.699; 2181.500;  197.675;    0.000
397.756; 2216.500;  188.675;    0.000
397.814; 2252.500;  210.675;    0.000
397.871; 2248.500;  203.675;    0.000
397.928; 2228.500;  189.675;    0.000
397.985; 2207.500;  192.675;    0.000
398.042; 2308.500;  198.675;    0.000
398.099; 2258.500;  181.675;    0.000
398.156; 2236.500;  201.675;    0.000
398.212; 2294.500;  216.675;    0.000
398.269; 2272.500;  206.675;    0.000
398.326; 2330.500;  213.675;    0.000
398.383; 2229.500;  168.675;    0.000
398.440; 2280.500;  184.675;    0.000
398.497; 2289.500;  194.675;    0.000
398.554; 2286.500;  219.675;    0.000
398.611; 2269.500;  190.675;    0.000
398.668; 2333.500;  138.675;    0.000
398.725; 2324.500;  170.675;    0.000
398.782; 2321.500;  223.675;    0.000
398.839; 2381.500;  211.675;    0.000
398.895; 2307.500;  173.675;    0.000
398.952; 2377.500;  207.675;    0.000
399.009; 2348.500;  173.675;    0.000
399.066; 2335.500;  171.675;    0.000
399.123; 2397.500;  189.675;    0.000
399.180; 2472.500;  170.675;    0.000
399.236; 2487.500;  193.675;    0.000
399.293; 2580.500;  222.675;    0.000
399.350; 2494.500;  195.675;    0.000
399.407; 2591.500;  214.675;    0.000
399.463; 2542.500;  181.675;    0.000
399.520; 2510.500;  168.675;    0.000
399.577; 2578.500;  231.675;    0.000
399.634; 2599.500;  215.675;    0.000
399.690; 2508.500;  177.675;    0.000
399.747; 2603.500;  212.675;    0.000
399.804; 2683.500;  208.675;    0.000
399.861; 2613.500;  225.675;    0.000
399.917; 2556.500;  191.675;    0.000
399.974; 2586.500;  182.675;    0.000
400.031; 2596.500;  218.675;    0.000
400.087; 2456.500;  202.675;    0.000
400.144; 2531.500;  192.675;    0.000
400.201; 2540.500;  187.675;    0.000
400.257; 2605.500;  193.675;    0.000
400.314; 2504.500;  185.675;    0.000
400.370; 2552.500;  201.675;    0.000
400.427; 2448.500;  208.675;    0.000
400.484; 2504.500;  201.675;    0.000
400.540; 2485.500;  204.675;    0.000
400.597; 2486.500;  210.675;    0.000
400.653; 2540.500;  224.675;    0.000
400.710; 2422.500;  196.675;    0.000
400.766; 2476.500;  224.675;    0.000
400.823; 2429.500;  210.675;    0.000
400.879; 2433.500;  213.675;    0.000
400.936; 2430.500;  182.675;    0.000
400.993; 2497.500;  184.675;    0.000
401.049; 2364.500;  216.675;    0.000
401.105; 2357.500;  235.675;    0.000
401.162; 2443.500;  196.675;    0.000
401.218; 2465.500;  221.675;    0.000
401.275; 2437.500;  216.675;    0.000
401.331; 2472.500;  198.675;    0.000
401.388; 2453.500;  205.675;    0.000
401.444; 2456.500;  154.675;    0.000
401.501; 2473.500;  208.675;    0.000
401.557; 2319.500;  162.675;    0.000
401.614; 2376.500;  157.675;    0.000
401.670; 2441.500;  198.675;    0.000
401.726; 2428.500;  195.675;    0.000
401.783; 2485.500;  186.675;    0.000
401.839; 2482.500;  205.675;    0.000
401.895; 2440.500;  202.675;    0.000
401.952; 2419.500;  143.675;    0.000
402.008; 2494.500;  177.675;    0.000
402.064; 2373.500;  177.675;    0.000
402.121; 2515.500;  194.675;    0.000
402.177; 2418.500;  181.675;    0.000
402.233; 2452.500;  205.675;    0.000
402.290; 2469.500;  190.675;    0.000
402.346; 2435.500;  190.675;    0.000
402.402; 2510.500;  151.675;    0.000
402.458; 2429.500;  194.675;    0.000
402.515; 2472.500;  212.675;    0.000
402.571; 2515.500;  209.675;    0.000
402.627; 2496.500;  199.675;    0.000
402.683; 2461.500;  213.675;    0.000
402.740; 2393.500;  165.675;    0.000
402.796; 2490.500;  168.675;    0.000
402.852; 2488.500;  200.675;    0.000
402.908; 2528.500;  193.675;    0.000
402.964; 2503.500;  166.675;    0.000
403.021; 2485.500;  196.675;    0.000
403.077; 2487.500;  212.675;    0.000
403.133; 2424.500;  186.675;    0.000
403.189; 2634.500;  206.675;    0.000
403.245; 2472.500;  207.675;    0.000
403.301; 2625.500;  204.675;    0.000
403.357; 2496.500;  246.675;    0.000
403.414; 2568.500;  227.675;    0.000
403.470; 2573.500;  207.675;    0.000
403.526; 2518.500;  171.675;    0.000
403.582; 2569.500;  200.675;    0.000
403.638; 2582.500;  213.675;    0.000
403.694; 2536.500;  239.675;    0.000
403.750; 2587.500;  221.675;    0.000
403.806; 2541.500;  197.675;    0.000
403.862; 2613.500;  222.675;    0.000
403.918; 2549.500;  174.675;    0.000
403.974; 2566.500;  183.675;    0.000
404.030; 2610.500;  184.675;    0.000
404.086; 2493.500;  170.675;    0.000
404.142; 2649.500;  215.675;    0.000
404.198; 2641.500;  189.675;    0.000
404.254; 2569.500;  195.675;    0.000
404.310; 2535.500;  206.675;    0.000
404.366; 2507.500;  179.675;    0.000
404.422; 2555.500;  197.675;    0.000
404.478; 2615.500;  176.675;    0.000
404.534; 2601.500;  165.675;    0.000
404.590; 2566.500;  203.675;    0.000
404.646; 2592.500;  195.675;    0.000
404.701; 2660.500;  180.675;    0.000
404.757; 2586.500;  218.675;    0.000
404.813; 2589.500;  160.675;    0.000
404.869; 2635.500;  213.675;    0.000
404.925; 2586.500;  171.675;    0.000
404.981; 2598.500;  194.675;    0.000
405.037; 2671.500;  211.675;    0.000
405.092; 2597.500;  158.675;    0.000
405.148; 2526.500;  140.675;    0.000
405.204; 2627.500;  161.675;    0.000
405.260; 2603.500;  161.675;    0.000
405.316; 2560.500;  155.675;    0.000
405.371; 2635.500;  151.675;    0.000
405.427; 2651.500;  186.675;    0.000
405.483; 2768.500;  206.675;    0.000
405.539; 2690.500;  162.675;    0.000
405.594; 2618.500;  205.675;    0.000
405.650; 2538.500;  153.675;    0.000
405.706; 2524.500;  185.675;    0.000
405.761; 2586.500;  205.675;    0.000
405.817; 2761.500;  185.675;    0.000
405.873; 2703.500;  160.675;    0.000
405.928; 2613.500;  182.675;    0.000
405.984; 2680.500;  206.675;    0.000
406.040; 2745.500;  200.675;    0.000
406.095; 2679.500;  138.675;    0.000
406.151; 2764.500;  178.675;    0.000
406.207; 2611.500;  225.675;    0.000
406.262; 2704.500;  161.675;    0.000
406.318; 2671.500;  186.675;    0.000
406.374; 2720.500;  173.675;    0.000
406.429; 2628.500;  197.675;    0.000
406.485; 2874.500;  260.675;    0.000
406.540; 2766.500;  184.675;    0.000
406.596; 2832.500;  193.675;    0.000
406.651; 2840.500;  176.675;    0.000
406.707; 2792.500;  158.675;    0.000
406.763; 2769.500;  174.675;    0.000
406.818; 2861.500;  188.675;    0.000
406.874; 2826.500;  176.675;    0.000
406.929; 2898.500;  220.675;    0.000
406.985; 2812.500;  167.675;    0.000
407.040; 2855.500;  191.675;    0.000
407.095; 2979.500;  190.675;    0.000
407.151; 2867.500;  196.675;    0.000
407.206; 2913.500;  184.675;    0.000
407.262; 2978.500;  167.675;    0.000
407.317; 2966.500;  199.675;    0.000
407.373; 3052.500;  211.675;    0.000
407.428; 2958.500;  202.675;    0.000
407.484; 2919.500;  172.675;    0.000
407.539; 2951.500;  171.675;    0.000
407.594; 2943.500;  219.675;    0.000
407.650; 2972.500;  179.675;    0.000
407.705; 2977.500;  141.675;    0.000
407.760; 2906.500;  182.675;    0.000
407.816; 2952.500;  203.675;    0.000
407.871; 2958.500;  219.675;    0.000
407.926; 3014.500;  197.675;    0.000
407.982; 3017.500;  176.675;    0.000
408.037; 2913.500;  187.675;    0.000
408.092; 2918.500;  161.675;    0.000
408.148; 2943.500;  185.675;    0.000
408.203; 2869.500;  196.675;    0.000
408.258; 2901.500;  188.675;    0.000
408.314; 2961.500;  225.675;    0.000
408.369; 2855.500;  172.675;    0.000
408.424; 2922.500;  204.675;    0.000
408.479; 2849.500;  182.675;    0.000
408.534; 2909.500;  220.675;    0.000
408.590; 2913.500;  196.675;    0.000
408.645; 2868.500;  170.675;    0.000
408.700; 2845.500;  204.675;    0.000
408.755; 2879.500;  219.675;    0.000
408.810; 2841.500;  174.675;    0.000
408.866; 2959.500;  212.675;    0.000
408.921; 2962.500;  233.675;    0.000
408.976; 2837.500;  198.675;    0.000
409.031; 2828.500;  179.675;    0.000
409.086; 2787.500;  181.675;    0.000
409.141; 2940.500;  192.675;    0.000
409.196; 2933.500;  172.675;    0.000
409.252; 2827.500;  199.675;    0.000
409.307; 2888.500;  159.675;    0.000
409.362; 2858.500;  158.675;    0.000
409.417; 2892.500;  164.675;    0.000
409.472; 2959.500;  186.675;    0.000
409.527; 2886.500;  215.675;    0.000
409.582; 2834.500;  227.675;    0.000
409.637; 2867.500;  211.675;    0.000
409.692; 2892.500;  224.675;    0.000
409.747; 2810.500;  147.675;    0.000
409.802; 2895.500;  203.675;    0.000
409.857; 2917.500;  203.675;    0.000
409.912; 2908.500;  219.675;    0.000
409.967; 2978.500;  200.675;    0.000
410.022; 2953.500;  199.675;    0.000
410.077; 2938.500;  171.675;    0.000
410.132; 2921.500;  193.675;    0.000
410.187; 2792.500;  167.675;    0.000
410.242; 2907.500;  188.675;    0.000
410.297; 2865.500;  195.675;    0.000
410.351; 2841.500;  225.675;    0.000
410.406; 2905.500;  188.675;    0.000
410.461; 2868.500;  197.675;    0.000
410.516; 2928.500;  212.675;    0.000
410.571; 2887.500;  173.675;    0.000
410.626; 2983.500;  180.675;    0.000
410.681; 2943.500;  198.675;    0.000
410.736; 2904.500;  190.675;    0.000
410.790; 2830.500;  204.675;    0.000
410.845; 2952.500;  214.675;    0.000
410.900; 2902.500;  184.675;    0.000
410.955; 2916.500;  231.675;    0.000
411.010; 2940.500;  211.675;    0.000
411.064; 2893.500;  204.675;    0.000
411.119; 2858.500;  219.675;    0.000
411.174; 2781.500;  208.675;    0.000
411.229; 2900.500;  207.675;    0.000
411.283; 2966.500;  199.675;    0.000
411.338; 2887.500;  198.675;    0.000
411.393; 2885.500;  155.675;    0.000
411.447; 2913.500;  200.675;    0.000
411.502; 2904.500;  229.675;    0.000
411.557; 2877.500;  197.675;    0.000
411.612; 2846.500;  171.675;    0.000
411.666; 2917.500;  201.675;    0.000
411.721; 2849.500;  174.675;    0.000
411.776; 2954.500;  222.675;    0.000
411.830; 2951.500;  150.675;    0.000
411.885; 2939.500;  169.675;    0.000
411.939; 2891.500;  216.675;    0.000
411.994; 2929.500;  215.675;    0.000
412.049; 2907.500;  219.675;    0.000
412.103; 2926.500;  225.675;    0.000
412.158; 2954.500;  216.675;    0.000
412.212; 2836.500;  218.675;    0.000
412.267; 2939.500;  219.675;    0.000
412.322; 3014.500;  235.675;    0.000
412.376; 2977.500;  208.675;    0.000
412.431; 2949.500;  232.675;    0.000
412.485; 2948.500;  223.675;    0.000
412.540; 2898.500;  217.675;    0.000
412.594; 2929.500;  195.675;    0.000
412.649; 2915.500;  236.675;    0.000
412.703; 2863.500;  216.675;    0.000
412.758; 2852.500;  201.675;    0.000
412.812; 2931.500;  176.675;    0.000
412.866; 2805.500;  179.675;    0.000
412.921; 2888.500;  196.675;    0.000
412.975; 2840.500;  238.675;    0.000
413.030; 2898.500;  272.675;    0.000
413.084; 2910.500;  208.675;    0.000
413.139; 2929.500;  201.675;    0.000
413.193; 2942.500;  198.675;    0.000
413.247; 2888.500;  213.675;    0.000
413.302; 2897.500;  202.675;    0.000
413.356; 2823.500;  184.675;    0.000
413.410; 2923.500;  202.675;    0.000
413.465; 2941.500;  145.675;    0.000
413.519; 2844.500;  200.675;    0.000
413.573; 2933.500;  197.675;    0.000
413.628; 2858.500;  224.675;    0.000
413.682; 2898.500;  211.675;    0.000
413.736; 2815.500;  202.675;    0.000
413.791; 2936.500;  228.675;    0.000
413.845; 2951.500;  184.675;    0.000
413.899; 2885.500;  226.675;    0.000
413.953; 2853.500;  213.675;    0.000
414.008; 2824.500;  175.675;    0.000
414.062; 2826.500;  216.675;    0.000
414.116; 2860.500;  206.675;    0.000
414.170; 2959.500;  229.675;    0.000
414.225; 2899.500;  196.675;    0.000
414.279; 2834.500;  199.675;    0.000
414.333; 2897.500;  220.675;    0.000
414.387; 2936.500;  217.675;    0.000
414.441; 2886.500;  206.675;    0.000
414.496; 2924.500;  264.675;    0.000
414.550; 2893.500;  217.675;    0.000
414.604; 2943.500;  224.675;    0.000
414.658; 2836.500;  156.675;    0.000
414.712; 2923.500;  203.675;    0.000
414.766; 2950.500;  216.675;    0.000
414.820; 2891.500;  218.675;    0.000
414.874; 2874.500;  240.675;    0.000
414.928; 2922.500;  204.675;    0.000
414.982; 2950.500;  195.675;    0.000
415.037; 2917.500;  212.675;    0.000
415.091; 2838.500;  211.675;    0.000
415.145; 2933.500;  230.675;    0.000
415.199; 2883.500;  208.675;    0.000
415.253; 2899.500;  213.675;    0.000
415.307; 2813.500;  208.675;    0.000
415.361; 2891.500;  193.675;    0.000
415.415; 2817.500;  207.675;    0.000
415.469; 2926.500;  214.675;    0.000
415.523; 2946.500;  226.675;    0.000
415.577; 2879.500;  194.675;    0.000
415.631; 2976.500;  258.675;    0.000
415.684; 2853.500;  239.675;    0.000
415.738; 2945.500;  191.675;    0.000
415.792; 2913.500;  185.675;    0.000
415.846; 2860.500;  239.675;    0.000
415.900; 2882.500;  209.675;    0.000
415.954; 2865.500;  215.675;    0.000
416.008; 2971.500;  229.675;    0.000
416.062; 2881.500;  200.675;    0.000
416.116; 2928.500;  195.675;    0.000
416.169; 2937.500;  238.675;    0.000
416.223; 2815.500;  271.675;    0.000
416.277; 2936.500;  232.675;    0.000
416.331; 2915.500;  226.675;    0.000
416.385; 2802.500;  207.675;    0.000
416.439; 2909.500;  221.675;    0.000
416.492; 2872.500;  269.675;    0.000
416.546; 2936.500;  254.675;    0.000
416.600; 2822.500;  225.675;    0.000
416.654; 2987.500;  269.675;    0.000
416.707; 2925.500;  232.675;    0.000
416.761; 2838.500;  226.675;    0.000
416.815; 2862.500;  219.675;    0.000
416.869; 2991.500;  234.675;    0.000
416.922; 3022.500;  230.675;    0.000
416.976; 2905.500;  216.675;    0.000
417.030; 2885.500;  271.675;    0.000
417.083; 2887.500;  229.675;    0.000
417.137; 2900.500;  249.675;    0.000
417.191; 2923.500;  241.675;    0.000
417.244; 2895.500;  230.675;    0.000
417.298; 2853.500;  215.675;    0.000
417.352; 2802.500;  188.675;    0.000
417.405; 2878.500;  248.675;    0.000
417.459; 2980.500;  256.675;    0.000
417.512; 2934.500;  263.675;    0.000
417.566; 2881.500;  227.675;    0.000
417.620; 2881.500;  270.675;    0.000
417.673; 2915.500;  216.675;    0.000
417.727; 2966.500;  234.675;    0.000
417.780; 2915.500;  215.675;    0.000
417.834; 2823.500;  203.675;    0.000
417.887; 2893.500;  257.675;    0.000
417.941; 2900.500;  216.675;    0.000
417.994; 2941.500;  245.675;    0.000
418.048; 2814.500;  209.675;    0.000
418.101; 2920.500;  207.675;    0.000
418.155; 2939.500;  204.675;    0.000
418.208; 2862.500;  270.675;    0.000
418.262; 2913.500;  228.675;    0.000
418.315; 2909.500;  254.675;    0.000
418.369; 2890.500;  245.675;    0.000
418.422; 2904.500;  224.675;    0.000
418.476; 2929.500;  221.675;    0.000
418.529; 2845.500;  234.675;    0.000
418.582; 2865.500;  249.675;    0.000
418.636; 2845.500;  224.675;    0.000
418.689; 2896.500;  228.675;    0.000
418.743; 2931.500;  240.675;    0.000
418.796; 2921.500;  197.675;    0.000
418.849; 2897.500;  220.675;    0.000
418.903; 2915.500;  246.675;    0.000
418.956; 2946.500;  250.675;    0.000
419.009; 2908.500;  276.675;    0.000
419.063; 2987.500;  232.675;    0.000
419.116; 2827.500;  228.675;    0.000
419.169; 2842.500;  249.675;    0.000
419.222; 2863.500;  215.675;    0.000
419.276; 2912.500;  228.675;    0.000
419.329; 2854.500;  246.675;    0.000
419.382; 2836.500;  188.675;    0.000
419.435; 2797.500;  240.675;    0.000
419.489; 2866.500;  261.675;    0.000
419.542; 2816.500;  224.675;    0.000
419.595; 2905.500;  251.675;    0.000
419.648; 2880.500;  236.675;    0.000
419.701; 2875.500;  244.675;    0.000
419.755; 2789.500;  242.675;    0.000
419.808; 2716.500;  242.675;    0.000
419.861; 2781.500;  189.675;    0.000
419.914; 2902.500;  258.675;    0.000
419.967; 2800.500;  230.675;    0.000
420.020; 2877.500;  223.675;    0.000
420.073; 2804.500;  221.675;    0.000
420.127; 2899.500;  252.675;    0.000
420.180; 2837.500;  219.675;    0.000
420.233; 2780.500;  201.675;    0.000
420.286; 2785.500;  221.675;    0.000
420.339; 2874.500;  250.675;    0.000
420.392; 2800.500;  268.675;    0.000
420.445; 2819.500;  223.675;    0.000
420.498; 2812.500;  240.675;    0.000
420.551; 2687.500;  220.675;    0.000
420.604; 2733.500;  231.675;    0.000
420.657; 2748.500;  228.675;    0.000
420.710; 2712.500;  219.675;    0.000
420.763; 2760.500;  280.675;    0.000
420.816; 2814.500;  202.675;    0.000
420.869; 2767.500;  219.675;    0.000
420.922; 2772.500;  218.675;    0.000
420.975; 2696.500;  237.675;    0.000
421.028; 2714.500;  242.675;    0.000
421.081; 2687.500;  247.675;    0.000
421.134; 2700.500;  239.675;    0.000
421.187; 2640.500;  229.675;    0.000
421.239; 2754.500;  200.675;    0.000
421.292; 2719.500;  205.675;    0.000
421.345; 2768.500;  219.675;    0.000
421.398; 2692.500;  187.675;    0.000
421.451; 2686.500;  226.675;    0.000
421.504; 2615.500;  206.675;    0.000
421.557; 2684.500;  226.675;    0.000
421.609; 2618.500;  209.675;    0.000
421.662; 2686.500;  229.675;    0.000
421.715; 2707.500;  231.675;    0.000
421.768; 2670.500;  215.675;    0.000
421.821; 2628.500;  211.675;    0.000
421.873; 2659.500;  220.675;    0.000
421.926; 2669.500;  212.675;    0.000
421.979; 2734.500;  209.675;    0.000
422.032; 2735.500;  203.675;    0.000
422.084; 2688.500;  213.675;    0.000
422.137; 2626.500;  196.675;    0.000
422.190; 2689.500;  246.675;    0.000
422.243; 2687.500;  194.675;    0.000
422.295; 2624.500;  225.675;    0.000
422.348; 2690.500;  248.675;    0.000
422.401; 2689.500;  252.675;    0.000
422.453; 2603.500;  249.675;    0.000
422.506; 2696.500;  233.675;    0.000
422.559; 2734.500;  228.675;    0.000
422.611; 2605.500;  224.675;    0.000
422.664; 2687.500;  226.675;    0.000
422.716; 2732.500;  226.675;    0.000
422.769; 2680.500;  216.675;    0.000
422.822; 2597.500;  256.675;    0.000
422.874; 2611.500;  206.675;    0.000
422.927; 2588.500;  257.675;    0.000
422.979; 2630.500;  209.675;    0.000
423.032; 2608.500;  244.675;    0.000
423.084; 2631.500;  244.675;    0.000
423.137; 2658.500;  213.675;    0.000
423.189; 2600.500;  208.675;    0.000
423.242; 2617.500;  226.675;    0.000
423.294; 2564.500;  250.675;    0.000
423.347; 2582.500;  206.675;    0.000
423.399; 2683.500;  268.675;    0.000
423.452; 2618.500;  262.675;    0.000
423.504; 2575.500;  237.675;    0.000
423.557; 2614.500;  245.675;    0.000
423.609; 2595.500;  211.675;    0.000
423.662; 2626.500;  222.675;    0.000
423.714; 2579.500;  219.675;    0.000
423.766; 2622.500;  250.675;    0.000
423.819; 2655.500;  220.675;    0.000
423.871; 2530.500;  229.675;    0.000
423.923; 2601.500;  219.675;    0.000
423.976; 2606.500;  221.675;    0.000
424.028; 2603.500;  211.675;    0.000
424.081; 2560.500;  254.675;    0.000
424.133; 2567.500;  230.675;    0.000
424.185; 2607.500;  241.675;    0.000
424.238; 2563.500;  182.675;    0.000
424.290; 2628.500;  215.675;    0.000
424.342; 2580.500;  235.675;    0.000
424.394; 2574.500;  225.675;    0.000
424.447; 2650.500;  264.675;    0.000
424.499; 2602.500;  225.675;    0.000
424.551; 2550.500;  237.675;    0.000
424.603; 2526.500;  219.675;    0.000
424.656; 2589.500;  240.675;    0.000
424.708; 2637.500;  266.675;    0.000
424.760; 2509.500;  230.675;    0.000
424.812; 2645.500;  284.675;    0.000
424.864; 2613.500;  189.675;    0.000
424.917; 2557.500;  226.675;    0.000
424.969; 2677.500;  253.675;    0.000
425.021; 2557.500;  233.675;    0.000
425.073; 2555.500;  246.675;    0.000
425.125; 2581.500;  238.675;    0.000
425.177; 2533.500;  253.675;    0.000
425.229; 2589.500;  254.675;    0.000
425.282; 2449.500;  252.675;    0.000
425.334; 2580.500;  261.675;    0.000
425.386; 2511.500;  227.675;    0.000
425.438; 2535.500;  246.675;    0.000
425.490; 2523.500;  249.675;    0.000
425.542; 2585.500;  236.675;    0.000
425.594; 2510.500;  236.675;    0.000
425.646; 2458.500;  237.675;    0.000
425.698; 2472.500;  271.675;    0.000
425.750; 2524.500;  240.675;    0.000
425.802; 2503.500;  238.675;    0.000
425.854; 2475.500;  256.675;    0.000
425.906; 2419.500;  230.675;    0.000
425.958; 2520.500;  231.675;    0.000
426.010; 2492.500;  268.675;    0.000
426.062; 2484.500;  227.675;    0.000
426.114; 2512.500;  234.675;    0.000
426.166; 2520.500;  239.675;    0.000
426.218; 2466.500;  255.675;    0.000
426.270; 2488.500;  196.675;    0.000
426.321; 2440.500;  231.675;    0.000
426.373; 2466.500;  199.675;    0.000
426.425; 2524.500;  245.675;    0.000
426.477; 2445.500;  259.675;    0.000
426.529; 2526.500;  274.675;    0.000
426.581; 2450.500;  221.675;    0.000
426.633; 2499.500;  231.675;    0.000
426.684; 2434.500;  248.675;    0.000
426.736; 2429.500;  237.675;    0.000
426.788; 2405.500;  191.675;    0.000
426.840; 2369.500;  180.675;    0.000
426.892; 2466.500;  259.675;    0.000
426.943; 2477.500;  256.675;    0.000
426.995; 2411.500;  212.675;    0.000
427.047; 2419.500;  233.675;    0.000
427.099; 2435.500;  222.675;    0.000
427.150; 2407.500;  203.675;    0.000
427.202; 2375.500;  218.675;    0.000
427.254; 2392.500;  198.675;    0.000
427.306; 2360.500;  248.675;    0.000
427.357; 2442.500;  239.675;    0.000
427.409; 2432.500;  193.675;    0.000
427.461; 2408.500;  215.675;    0.000
427.512; 2392.500;  251.675;    0.000
427.564; 2408.500;  210.675;    0.000
427.616; 2373.500;  251.675;    0.000
427.667; 2432.500;  246.675;    0.000
427.719; 2346.500;  227.675;    0.000
427.770; 2426.500;  247.675;    0.000
427.822; 2464.500;  261.675;    0.000
427.874; 2415.500;  231.675;    0.000
427.925; 2334.500;  231.675;    0.000
427.977; 2351.500;  243.675;    0.000
428.028; 2439.500;  249.675;    0.000
428.080; 2368.500;  224.675;    0.000
428.131; 2418.500;  247.675;    0.000
428.183; 2405.500;  213.675;    0.000
428.234; 2382.500;  213.675;    0.000
428.286; 2448.500;  224.675;    0.000
428.337; 2412.500;  212.675;    0.000
428.389; 2359.500;  231.675;    0.000
428.440; 2399.500;  248.675;    0.000
428.492; 2357.500;  242.675;    0.000
428.543; 2356.500;  220.675;    0.000
428.595; 2344.500;  212.675;    0.000
428.646; 2382.500;  231.675;    0.000
428.697; 2332.500;  232.675;    0.000
428.749; 2313.500;  231.675;    0.000
428.800; 2372.500;  270.675;    0.000
428.852; 2386.500;  266.675;    0.000
428.903; 2335.500;  215.675;    0.000
428.954; 2408.500;  200.675;    0.000
429.006; 2369.500;  247.675;    0.000
429.057; 2332.500;  247.675;    0.000
429.108; 2343.500;  193.675;    0.000
429.160; 2388.500;  249.675;    0.000
429.211; 2386.500;  228.675;    0.000
429.262; 2301.500;  243.675;    0.000
429.314; 2350.500;  227.675;    0.000
429.365; 2458.500;  242.675;    0.000
429.416; 2306.500;  240.675;    0.000
429.467; 2337.500;  222.675;    0.000
429.519; 2341.500;  233.675;    0.000
429.570; 2371.500;  223.675;    0.000
429.621; 2309.500;  257.675;    0.000
429.672; 2271.500;  220.675;    0.000
429.724; 2295.500;  203.675;    0.000
429.775; 2287.500;  242.675;    0.000
429.826; 2368.500;  195.675;    0.000
429.877; 2237.500;  248.675;    0.000
429.928; 2302.500;  226.675;    0.000
429.980; 2274.500;  189.675;    0.000
430.031; 2326.500;  223.675;    0.000
430.082; 2232.500;  217.675;    0.000
430.133; 2375.500;  210.675;    0.000
430.184; 2307.500;  271.675;    0.000
430.235; 2231.500;  190.675;    0.000
430.286; 2309.500;  233.675;    0.000
430.337; 2274.500;  232.675;    0.000
430.388; 2278.500;  221.675;    0.000
430.439; 2330.500;  221.675;    0.000
430.490; 2268.500;  229.675;    0.000
430.542; 2139.500;  196.675;    0.000
430.593; 2211.500;  214.675;    0.000
430.644; 2267.500;  224.675;    0.000
430.695; 2281.500;  216.675;    0.000
430.746; 2296.500;  228.675;    0.000
430.797; 2270.500;  190.675;    0.000
430.848; 2268.500;  231.675;    0.000
430.898; 2238.500;  232.675;    0.000
430.949; 2227.500;  224.675;    0.000
431.000; 2310.500;  236.675;    0.000
431.051; 2285.500;  251.675;    0.000
431.102; 2278.500;  205.675;    0.000
431.153; 2255.500;  212.675;    0.000
431.204; 2242.500;  200.675;    0.000
431.255; 2293.500;  220.675;    0.000
431.306; 2289.500;  223.675;    0.000
431.357; 2311.500;  240.675;    0.000
431.408; 2310.500;  232.675;    0.000
431.458; 2273.500;  204.675;    0.000
431.509; 2245.500;  196.675;    0.000
431.560; 2331.500;  243.675;    0.000
431.611; 2262.500;  222.675;    0.000
431.662; 2225.500;  246.675;    0.000
431.713; 2257.500;  188.675;    0.000
431.763; 2267.500;  226.675;    0.000
431.814; 2282.500;  239.675;    0.000
431.865; 2295.500;  245.675;    0.000
431.916; 2225.500;  173.675;    0.000
431.966; 2237.500;  220.675;    0.000
432.017; 2238.500;  247.675;    0.000
432.068; 2273.500;  241.675;    0.000
432.118; 2278.500;  220.675;    0.000
432.169; 2243.500;  244.675;    0.000
432.220; 2241.500;  246.675;    0.000
432.271; 2257.500;  203.675;    0.000
432.321; 2291.500;  244.675;    0.000
432.372; 2327.500;  254.675;    0.000
432.423; 2210.500;  224.675;    0.000
432.473; 2245.500;  211.675;    0.000
432.524; 2243.500;  227.675;    0.000
432.574; 2280.500;  228.675;    0.000
432.625; 2150.500;  223.675;    0.000
432.676; 2193.500;  220.675;    0.000
432.726; 2235.500;  257.675;    0.000
432.777; 2232.500;  257.675;    0.000
432.827; 2258.500;  240.675;    0.000
432.878; 2157.500;  219.675;    0.000
432.928; 2199.500;  234.675;    0.000
432.979; 2262.500;  226.675;    0.000
433.029; 2194.500;  216.675;    0.000
433.080; 2259.500;  232.675;    0.000
433.130; 2201.500;  257.675;    0.000
433.181; 2228.500;  243.675;    0.000
433.231; 2271.500;  239.675;    0.000
433.282; 2165.500;  232.675;    0.000
433.332; 2248.500;  256.675;    0.000
433.383; 2319.500;  268.675;    0.000
433.433; 2232.500;  291.675;    0.000
433.484; 2210.500;  263.675;    0.000
433.534; 2223.500;  248.675;    0.000
433.585; 2194.500;  244.675;    0.000
433.635; 2220.500;  242.675;    0.000
433.685; 2222.500;  243.675;    0.000
433.736; 2279.500;  283.675;    0.000
433.786; 2254.500;  264.675;    0.000
433.836; 2271.500;  282.675;    0.000
433.887; 2230.500;  265.675;    0.000
433.937; 2247.500;  255.675;    0.000
433.987; 2166.500;  245.675;    0.000
434.038; 2303.500;  276.675;    0.000
434.088; 2264.500;  249.675;    0.000
434.138; 2223.500;  260.675;    0.000
434.189; 2200.500;  241.675;    0.000
434.239; 2199.500;  232.675;    0.000
434.289; 2334.500;  272.675;    0.000
434.339; 2252.500;  288.675;    0.000
434.389; 2260.500;  258.675;    0.000
434.440; 2240.500;  244.675;    0.000
434.490; 2292.500;  288.675;    0.000
434.540; 2329.500;  252.675;    0.000
434.590; 2286.500;  256.675;    0.000
434.640; 2272.500;  259.675;    0.000
434.691; 2206.500;  220.675;    0.000
434.741; 2350.500;  238.675;    0.000
434.791; 2325.500;  276.675;    0.000
434.841; 2333.500;  256.675;    0.000
434.891; 2310.500;  297.675;    0.000
434.941; 2325.500;  290.675;    0.000
434.991; 2285.500;  261.675;    0.000
435.042; 2265.500;  300.675;    0.000
435.092; 2205.500;  248.675;    0.000
435.142; 2209.500;  246.675;    0.000
435.192; 2207.500;  201.675;    0.000
435.242; 2185.500;  234.675;    0.000
435.292; 2151.500;  266.675;    0.000
435.342; 2175.500;  250.675;    0.000
435.392; 2233.500;  279.675;    0.000
435.442; 2184.500;  242.675;    0.000
435.492; 2123.500;  265.675;    0.000
435.542; 2158.500;  243.675;    0.000
435.592; 2156.500;  243.675;    0.000
435.642; 2237.500;  241.675;    0.000
435.692; 2122.500;  263.675;    0.000
435.742; 2140.500;  264.675;    0.000
435.792; 2259.500;  291.675;    0.000
435.842; 2208.500;  257.675;    0.000
435.891; 2149.500;  224.675;    0.000
435.941; 2191.500;  243.675;    0.000
435.991; 2240.500;  300.675;    0.000
436.041; 2144.500;  197.675;    0.000
436.091; 2120.500;  238.675;    0.000
436.141; 2095.500;  222.675;    0.000
436.191; 2148.500;  249.675;    0.000
436.241; 2124.500;  208.675;    0.000
436.290; 2138.500;  282.675;    0.000
436.340; 2112.500;  233.675;    0.000
436.390; 2134.500;  223.675;    0.000
436.440; 2080.500;  252.675;    0.000
436.490; 1984.500;  254.675;    0.000
436.539; 2095.500;  271.675;    0.000
436.589; 2004.500;  248.675;    0.000
436.639; 2163.500;  235.675;    0.000
436.689; 2088.500;  238.675;    0.000
436.738; 2150.500;  267.675;    0.000
436.788; 2076.500;  239.675;    0.000
436.838; 2160.500;  244.675;    0.000
436.887; 2086.500;  265.675;    0.000
436.937; 2018.500;  261.675;    0.000
436.987; 1993.500;  235.675;    0.000
437.036; 2068.500;  267.675;    0.000
437.086; 2112.500;  258.675;    0.000
437.136; 2081.500;  250.675;    0.000
437.185; 2035.500;  214.675;    0.000
437.235; 2127.500;  257.675;    0.000
437.285; 2120.500;  259.675;    0.000
437.334; 2092.500;  241.675;    0.000
437.384; 2077.500;  231.675;    0.000
437.433; 2092.500;  239.675;    0.000
437.483; 2130.500;  260.675;    0.000
437.532; 2114.500;  277.675;    0.000
437.582; 2028.500;  268.675;    0.000
437.631; 2041.500;  239.675;    0.000
437.681; 2008.500;  251.675;    0.000
437.730; 2027.500;  246.675;    0.000
437.780; 2011.500;  226.675;    0.000
437.829; 2038.500;  256.675;    0.000
437.879; 1999.500;  239.675;    0.000
437.928; 2016.500;  253.675;    0.000
437.978; 1992.500;  245.675;    0.000
438.027; 2098.500;  277.675;    0.000
438.077; 1969.500;  248.675;    0.000
438.126; 1962.500;  201.675;    0.000
438.176; 1966.500;  220.675;    0.000
438.225; 2004.500;  250.675;    0.000
438.274; 1995.500;  234.675;    0.000
438.324; 2071.500;  276.675;    0.000
438.373; 1989.500;  226.675;    0.000
438.422; 2027.500;  228.675;    0.000
438.472; 1950.500;  225.675;    0.000
438.521; 2052.500;  227.675;    0.000
438.570; 2042.500;  242.675;    0.000
438.620; 2035.500;  277.675;    0.000
438.669; 1960.500;  256.675;    0.000
438.718; 1971.500;  248.675;    0.000
438.768; 2010.500;  225.675;    0.000
438.817; 2027.500;  229.675;    0.000
438.866; 1890.500;  218.675;    0.000
438.915; 2018.500;  256.675;    0.000
438.965; 1992.500;  242.675;    0.000
439.014; 2051.500;  260.675;    0.000
439.063; 2042.500;  238.675;    0.000
439.112; 1969.500;  209.675;    0.000
439.162; 2025.500;  258.675;    0.000
439.211; 2062.500;  275.675;    0.000
439.260; 2008.500;  238.675;    0.000
439.309; 2009.500;  237.675;    0.000
439.358; 2009.500;  252.675;    0.000
439.407; 2009.500;  239.675;    0.000
439.456; 1953.500;  211.675;    0.000
439.506; 1952.500;  261.675;    0.000
439.555; 2041.500;  274.675;    0.000
439.604; 1973.500;  262.675;    0.000
439.653; 2013.500;  245.675;    0.000
439.702; 1969.500;  247.675;    0.000
439.751; 1968.500;  228.675;    0.000
439.800; 2005.500;  253.675;    0.000
439.849; 2021.500;  219.675;    0.000
439.898; 1975.500;  246.675;    0.000
439.947; 2025.500;  229.675;    0.000
439.996; 1988.500;  274.675;    0.000
440.045; 2015.500;  224.675;    0.000
440.094; 2017.500;  225.675;    0.000
440.143; 1976.500;  277.675;    0.000
440.192; 1965.500;  252.675;    0.000
440.241; 2010.500;  253.675;    0.000
440.290; 2068.500;  242.675;    0.000
440.339; 1989.500;  220.675;    0.000
440.388; 2044.500;  244.675;    0.000
440.437; 1951.500;  268.675;    0.000
440.486; 1957.500;  242.675;    0.000
440.535; 2000.500;  269.675;    0.000
440.583; 1917.500;  258.675;    0.000
440.632; 1952.500;  286.675;    0.000
440.681; 2032.500;  238.675;    0.000
440.730; 2069.500;  271.675;    0.000
440.779; 1980.500;  226.675;    0.000
440.828; 1885.500;  213.675;    0.000
440.876; 1952.500;  207.675;    0.000
440.925; 1900.500;  247.675;    0.000
440.974; 2023.500;  229.675;    0.000
441.023; 2008.500;  227.675;    0.000
441.072; 1977.500;  222.675;    0.000
441.120; 1976.500;  273.675;    0.000
441.169; 2036.500;  263.675;    0.000
441.218; 2008.500;  264.675;    0.000
441.267; 2030.500;  287.675;    0.000
441.315; 1995.500;  251.675;    0.000
441.364; 1984.500;  252.675;    0.000
441.413; 1984.500;  227.675;    0.000
441.461; 2058.500;  198.675;    0.000
441.510; 2007.500;  273.675;    0.000
441.559; 2028.500;  245.675;    0.000
441.607; 2076.500;  218.675;    0.000
441.656; 2058.500;  261.675;    0.000
441.705; 2053.500;  259.675;    0.000
441.753; 2172.500;  272.675;    0.000
441.802; 2048.500;  246.675;    0.000
441.850; 2056.500;  255.675;    0.000
441.899; 2057.500;  236.675;    0.000
441.948; 2089.500;  267.675;    0.000
441.996; 2056.500;  246.675;    0.000
442.045; 2086.500;  279.675;    0.000
442.093; 2068.500;  251.675;    0.000
442.142; 1981.500;  274.675;    0.000
442.190; 2047.500;  279.675;    0.000
442.239; 2036.500;  295.675;    0.000
442.287; 2053.500;  229.675;    0.000
442.336; 2074.500;  265.675;    0.000
442.384; 2007.500;  219.675;    0.000
442.433; 2052.500;  287.675;    0.000
442.481; 2070.500;  271.675;    0.000
442.529; 2005.500;  262.675;    0.000
442.578; 2035.500;  282.675;    0.000
442.626; 1996.500;  245.675;    0.000
442.675; 2054.500;  283.675;    0.000
442.723; 1981.500;  247.675;    0.000
442.771; 1965.500;  221.675;    0.000
442.820; 1972.500;  253.675;    0.000
442.868; 1990.500;  204.675;    0.000
442.917; 1913.500;  263.675;    0.000
442.965; 2045.500;  255.675;    0.000
443.013; 2049.500;  282.675;    0.000
443.062; 1980.500;  258.675;    0.000
443.110; 1947.500;  268.675;    0.000
443.158; 1969.500;  247.675;    0.000
443.206; 2029.500;  243.675;    0.000
443.255; 2013.500;  271.675;    0.000
443.303; 1980.500;  279.675;    0.000
443.351; 1980.500;  264.675;    0.000
443.399; 1977.500;  245.675;    0.000
443.448; 1983.500;  259.675;    0.000
443.496; 2041.500;  281.675;    0.000
443.544; 2036.500;  213.675;    0.000
443.592; 2022.500;  290.675;    0.000
443.640; 1983.500;  270.675;    0.000
443.689; 1994.500;  229.675;    0.000
443.737; 2007.500;  254.675;    0.000
443.785; 2030.500;  234.675;    0.000
443.833; 2005.500;  287.675;    0.000
443.881; 1966.500;  229.675;    0.000
443.929; 2023.500;  260.675;    0.000
443.977; 1976.500;  265.675;    0.000
444.025; 1993.500;  257.675;    0.000
444.074; 2031.500;  245.675;    0.000
444.122; 2097.500;  282.675;    0.000
444.170; 2018.500;  240.675;    0.000
444.218; 1980.500;  270.675;    0.000
444.266; 2029.500;  254.675;    0.000
444.314; 2054.500;  264.675;    0.000
444.362; 2061.500;  287.675;    0.000
444.410; 2013.500;  236.675;    0.000
444.458; 2064.500;  273.675;    0.000
444.506; 2107.500;  235.675;    0.000
444.554; 2029.500;  242.675;    0.000
444.602; 2105.500;  283.675;    0.000
444.650; 2037.500;  266.675;    0.000
444.698; 2118.500;  248.675;    0.000
444.746; 2046.500;  247.675;    0.000
444.793; 2045.500;  211.675;    0.000
444.841; 2165.500;  259.675;    0.000
444.889; 2131.500;  253.675;    0.000
444.937; 1961.500;  248.675;    0.000
444.985; 2077.500;  233.675;    0.000
445.033; 2029.500;  245.675;    0.000
445.081; 2019.500;  243.675;    0.000
445.129; 1960.500;  238.675;    0.000
445.176; 2105.500;  204.675;    0.000
445.224; 1987.500;  262.675;    0.000
445.272; 2031.500;  256.675;    0.000
445.320; 1988.500;  235.675;    0.000
445.368; 2032.500;  251.675;    0.000
445.415; 1977.500;  250.675;    0.000
445.463; 1956.500;  225.675;    0.000
445.511; 2050.500;  226.675;    0.000
445.559; 2046.500;  251.675;    0.000
445.606; 1924.500;  213.675;    0.000
445.654; 1989.500;  261.675;    0.000
445.702; 1922.500;  222.675;    0.000
445.749; 2031.500;  257.675;    0.000
445.797; 1931.500;  263.675;    0.000
445.845; 1972.500;  218.675;    0.000
445.892; 1927.500;  228.675;    0.000
445.940; 2029.500;  249.675;    0.000
445.988; 2004.500;  276.675;    0.000
446.035; 1980.500;  229.675;    0.000
446.083; 2042.500;  255.675;    0.000
446.130; 1970.500;  200.675;    0.000
446.178; 1905.500;  256.675;    0.000
446.226; 1988.500;  238.675;    0.000
446.273; 1988.500;  250.675;    0.000
446.321; 1935.500;  233.675;    0.000
446.368; 1945.500;  244.675;    0.000
446.416; 1879.500;  214.675;    0.000
446.463; 1998.500;  225.675;    0.000
446.511; 1900.500;  253.675;    0.000
446.558; 1990.500;  246.675;    0.000
446.606; 1959.500;  238.675;    0.000
446.653; 1984.500;  215.675;    0.000
446.701; 1971.500;  248.675;    0.000
446.748; 2000.500;  258.675;    0.000
446.796; 1991.500;  259.675;    0.000
446.843; 1962.500;  269.675;    0.000
446.891; 1922.500;  259.675;    0.000
446.938; 1872.500;  226.675;    0.000
446.985; 1966.500;  225.675;    0.000
447.033; 1944.500;  269.675;    0.000
447.080; 1931.500;  258.675;    0.000
447.128; 1943.500;  225.675;    0.000
447.175; 2018.500;  259.675;    0.000
447.222; 1893.500;  238.675;    0.000
447.270; 1970.500;  250.675;    0.000
447.317; 1974.500;  217.675;    0.000
447.364; 1954.500;  262.675;    0.000
447.411; 2049.500;  269.675;    0.000
447.459; 1951.500;  251.675;    0.000
447.506; 1889.500;  227.675;    0.000
447.553; 1961.500;  250.675;    0.000
447.601; 2001.500;  251.675;    0.000
447.648; 1985.500;  276.675;    0.000
447.695; 1952.500;  229.675;    0.000
447.742; 1949.500;  245.675;    0.000
447.789; 1971.500;  243.675;    0.000
447.837; 2011.500;  267.675;    0.000
447.884; 1961.500;  246.675;    0.000
447.931; 1990.500;  266.675;    0.000
447.978; 1943.500;  242.675;    0.000
448.025; 1968.500;  267.675;    0.000
448.072; 2062.500;  257.675;    0.000
448.120; 1979.500;  279.675;    0.000
448.167; 2017.500;  275.675;    0.000
448.214; 1930.500;  241.675;    0.000
448.261; 1978.500;  271.675;    0.000
448.308; 2001.500;  256.675;    0.000
448.355; 1984.500;  253.675;    0.000
448.402; 1995.500;  267.675;    0.000
448.449; 1891.500;  252.675;    0.000
448.496; 1857.500;  241.675;    0.000
448.543; 1939.500;  250.675;    0.000
448.590; 1932.500;  288.675;    0.000
448.637; 1930.500;  255.675;    0.000
448.684; 1928.500;  284.675;    0.000
448.731; 1949.500;  244.675;    0.000
448.778; 1912.500;  257.675;    0.000
448.825; 1990.500;  252.675;    0.000
448.872; 1791.500;  205.675;    0.000
448.919; 1940.500;  244.675;    0.000
448.966; 1897.500;  278.675;    0.000
449.013; 1940.500;  262.675;    0.000
449.060; 1925.500;  278.675;    0.000
449.107; 1860.500;  248.675;    0.000
449.154; 1792.500;  230.675;    0.000
449.200; 1917.500;  211.675;    0.000
449.247; 1868.500;  283.675;    0.000
449.294; 1929.500;  251.675;    0.000
449.341; 1912.500;  280.675;    0.000
449.388; 1922.500;  247.675;    0.000
449.435; 1901.500;  267.675;    0.000
449.481; 1946.500;  303.675;    0.000
449.528; 1885.500;  279.675;    0.000
449.575; 1920.500;  226.675;    0.000
449.622; 1947.500;  263.675;    0.000
449.668; 1887.500;  249.675;    0.000
449.715; 1855.500;  257.675;    0.000
449.762; 1893.500;  251.675;    0.000
449.809; 1938.500;  289.675;    0.000
449.855; 1910.500;  239.675;    0.000
449.902; 1894.500;  262.675;    0.000
449.949; 1920.500;  262.675;    0.000
449.995; 1911.500;  265.675;    0.000
450.042; 1867.500;  280.675;    0.000
450.089; 1929.500;  277.675;    0.000
450.135; 1933.500;  285.675;    0.000
450.182; 1920.500;  275.675;    0.000
450.229; 1880.500;  278.675;    0.000
450.275; 1828.500;  288.675;    0.000
450.322; 1901.500;  238.675;    0.000
450.368; 1921.500;  276.675;    0.000
450.415; 1902.500;  295.675;    0.000
450.462; 1884.500;  283.675;    0.000
450.508; 1874.500;  264.675;    0.000
450.555; 1911.500;  275.675;    0.000
450.601; 1917.500;  278.675;    0.000
450.648; 1921.500;  251.675;    0.000
450.694; 1902.500;  237.675;    0.000
450.741; 1867.500;  280.675;    0.000
450.787; 1954.500;  279.675;    0.000
450.834; 1845.500;  287.675;    0.000
450.880; 1869.500;  265.675;    0.000
450.927; 1935.500;  270.675;    0.000
450.973; 1882.500;  308.675;    0.000
451.019; 1805.500;  253.675;    0.000
451.066; 1793.500;  261.675;    0.000
451.112; 1905.500;  276.675;    0.000
451.159; 1814.500;  235.675;    0.000
451.205; 1871.500;  284.675;    0.000
451.251; 1869.500;  264.675;    0.000
451.298; 1885.500;  262.675;    0.000
451.344; 1857.500;  278.675;    0.000
451.390; 1945.500;  273.675;    0.000
451.437; 1918.500;  272.675;    0.000
451.483; 1945.500;  302.675;    0.000
451.529; 1791.500;  255.675;    0.000
451.576; 1885.500;  287.675;    0.000
451.622; 1845.500;  254.675;    0.000
451.668; 1899.500;  260.675;    0.000
451.714; 1873.500;  289.675;    0.000
451.761; 1918.500;  273.675;    0.000
451.807; 1963.500;  307.675;    0.000
451.853; 1863.500;  281.675;    0.000
451.899; 1814.500;  246.675;    0.000
451.945; 1837.500;  258.675;    0.000
451.992; 1831.500;  276.675;    0.000
452.038; 1864.500;  287.675;    0.000
452.084; 1842.500;  288.675;    0.000
452.130; 1831.500;  259.675;    0.000
452.176; 1871.500;  265.675;    0.000
452.222; 1822.500;  222.675;    0.000
452.268; 1884.500;  271.675;    0.000
452.315; 1839.500;  258.675;    0.000
452.361; 1878.500;  233.675;    0.000
452.407; 1880.500;  270.675;    0.000
452.453; 1843.500;  261.675;    0.000
452.499; 1912.500;  279.675;    0.000
452.545; 1866.500;  269.675;    0.000
452.591; 1843.500;  288.675;    0.000
452.637; 1868.500;  279.675;    0.000
452.683; 1792.500;  232.675;    0.000
452.729; 1864.500;  285.675;    0.000
452.775; 1879.500;  280.675;    0.000
452.821; 1816.500;  260.675;    0.000
452.867; 1854.500;  239.675;    0.000
452.913; 1884.500;  240.675;    0.000
452.959; 1882.500;  214.675;    0.000
453.005; 1916.500;  266.675;    0.000
453.051; 1838.500;  258.675;    0.000
453.097; 1887.500;  253.675;    0.000
453.142; 1848.500;  244.675;    0.000
453.188; 1843.500;  241.675;    0.000
453.234; 1832.500;  257.675;    0.000
453.280; 1827.500;  231.675;    0.000
453.326; 1788.500;  240.675;    0.000
453.372; 1796.500;  208.675;    0.000
453.418; 1828.500;  266.675;    0.000
453.463; 1804.500;  232.675;    0.000
453.509; 1854.500;  221.675;    0.000
453.555; 1866.500;  268.675;    0.000
453.601; 1792.500;  242.675;    0.000
453.647; 1876.500;  283.675;    0.000
453.692; 1858.500;  242.675;    0.000
453.738; 1875.500;  294.675;    0.000
453.784; 1835.500;  256.675;    0.000
453.829; 1876.500;  267.675;    0.000
453.875; 1810.500;  233.675;    0.000
453.921; 1811.500;  247.675;    0.000
453.967; 1822.500;  249.675;    0.000
454.012; 1886.500;  274.675;    0.000
454.058; 1910.500;  249.675;    0.000
454.104; 1861.500;  272.675;    0.000
454.149; 1840.500;  277.675;    0.000
454.195; 1901.500;  256.675;    0.000
454.240; 1823.500;  263.675;    0.000
454.286; 1795.500;  276.675;    0.000
454.332; 1883.500;  290.675;    0.000
454.377; 1904.500;  274.675;    0.000
454.423; 1871.500;  282.675;    0.000
454.468; 1824.500;  275.675;    0.000
454.514; 1834.500;  270.675;    0.000
454.559; 1850.500;  249.675;    0.000
454.605; 1772.500;  241.675;    0.000
454.650; 1842.500;  269.675;    0.000
454.696; 1952.500;  253.675;    0.000
454.741; 1859.500;  279.675;    0.000
454.787; 1831.500;  252.675;    0.000
454.832; 1854.500;  246.675;    0.000
454.878; 1877.500;  264.675;    0.000
454.923; 1884.500;  268.675;    0.000
454.969; 1910.500;  253.675;    0.000
455.014; 1888.500;  264.675;    0.000
455.060; 1877.500;  265.675;    0.000
455.105; 1823.500;  270.675;    0.000
455.150; 1902.500;  284.675;    0.000
455.196; 1811.500;  278.675;    0.000
455.241; 1938.500;  248.675;    0.000
455.286; 1923.500;  274.675;    0.000
455.332; 1858.500;  269.675;    0.000
455.377; 1839.500;  218.675;    0.000
455.422; 1868.500;  261.675;    0.000
455.468; 1847.500;  278.675;    0.000
455.513; 1914.500;  235.675;    0.000
455.558; 1785.500;  232.675;    0.000
455.604; 1836.500;  285.675;    0.000
455.649; 1824.500;  264.675;    0.000
455.694; 1882.500;  235.675;    0.000
455.739; 1903.500;  265.675;    0.000
455.785; 1897.500;  266.675;    0.000
455.830; 1866.500;  272.675;    0.000
455.875; 1886.500;  256.675;    0.000
455.920; 1831.500;  191.675;    0.000
455.965; 1884.500;  280.675;    0.000
456.010; 1933.500;  267.675;    0.000
456.056; 1849.500;  270.675;    0.000
456.101; 1813.500;  248.675;    0.000
456.146; 1898.500;  287.675;    0.000
456.191; 1886.500;  280.675;    0.000
456.236; 1837.500;  229.675;    0.000
456.281; 1809.500;  241.675;    0.000
456.326; 1901.500;  248.675;    0.000
456.371; 1913.500;  233.675;    0.000
456.416; 1879.500;  284.675;    0.000
456.461; 1865.500;  256.675;    0.000
456.507; 1857.500;  250.675;    0.000
456.552; 1965.500;  290.675;    0.000
456.597; 1847.500;  260.675;    0.000
456.642; 1846.500;  252.675;    0.000
456.687; 1923.500;  272.675;    0.000
456.732; 1927.500;  303.675;    0.000
456.776; 1893.500;  269.675;    0.000
456.821; 1880.500;  256.675;    0.000
456.866; 1729.500;  278.675;    0.000
456.911; 1854.500;  230.675;    0.000
456.956; 1894.500;  275.675;    0.000
457.001; 1855.500;  248.675;    0.000
457.046; 1886.500;  222.675;    0.000
457.091; 1941.500;  251.675;    0.000
457.136; 1875.500;  231.675;    0.000
457.181; 1879.500;  245.675;    0.000
457.225; 1816.500;  262.675;    0.000
457.270; 1783.500;  277.675;    0.000
457.315; 1903.500;  235.675;    0.000
457.360; 1848.500;  231.675;    0.000
457.405; 1846.500;  214.675;    0.000
457.450; 1848.500;  255.675;    0.000
457.494; 1832.500;  220.675;    0.000
457.539; 1822.500;  257.675;    0.000
457.584; 1878.500;  279.675;    0.000
457.629; 1887.500;  249.675;    0.000
457.673; 1854.500;  237.675;    0.000
457.718; 1956.500;  232.675;    0.000
457.763; 1875.500;  278.675;    0.000
457.807; 1875.500;  279.675;    0.000
457.852; 1886.500;  246.675;    0.000
457.897; 1903.500;  284.675;    0.000
457.941; 1918.500;  272.675;    0.000
457.986; 1958.500;  285.675;    0.000
458.031; 1888.500;  235.675;    0.000
458.075; 1931.500;  299.675;    0.000
458.120; 1892.500;  284.675;    0.000
458.165; 1949.500;  212.675;    0.000
458.209; 1889.500;  254.675;    0.000
458.254; 1896.500;  257.675;    0.000
458.298; 1900.500;  265.675;    0.000
458.343; 1908.500;  278.675;    0.000
458.387; 1937.500;  316.675;    0.000
458.432; 1931.500;  279.675;    0.000
458.476; 1960.500;  272.675;    0.000
458.521; 1980.500;  240.675;    0.000
458.565; 1982.500;  307.675;    0.000
458.610; 1987.500;  246.675;    0.000
458.654; 2008.500;  275.675;    0.000
458.699; 1934.500;  288.675;    0.000
458.743; 1912.500;  244.675;    0.000
458.788; 2037.500;  245.675;    0.000
458.832; 2022.500;  277.675;    0.000
458.877; 2020.500;  285.675;    0.000
458.921; 1901.500;  216.675;    0.000
458.965; 1940.500;  260.675;    0.000
459.010; 1999.500;  284.675;    0.000
459.054; 1989.500;  272.675;    0.000
459.099; 1958.500;  262.675;    0.000
459.143; 2021.500;  276.675;    0.000
459.187; 2026.500;  258.675;    0.000
459.231; 1988.500;  278.675;    0.000
459.276; 2037.500;  262.675;    0.000
459.320; 2037.500;  291.675;    0.000
459.364; 2029.500;  294.675;    0.000
459.409; 2095.500;  269.675;    0.000
459.453; 2068.500;  257.675;    0.000
459.497; 2005.500;  283.675;    0.000
459.541; 2021.500;  275.675;    0.000
459.586; 2063.500;  261.675;    0.000
459.630; 2068.500;  284.675;    0.000
459.674; 2044.500;  244.675;    0.000
459.718; 2091.500;  309.675;    0.000
459.762; 2093.500;  281.675;    0.000
459.807; 2096.500;  250.675;    0.000
459.851; 2084.500;  286.675;    0.000
459.895; 2060.500;  230.675;    0.000
459.939; 2162.500;  262.675;    0.000
459.983; 2043.500;  250.675;    0.000
460.027; 2100.500;  275.675;    0.000
460.071; 2158.500;  301.675;    0.000
460.115; 2022.500;  279.675;    0.000
460.159; 2067.500;  301.675;    0.000
460.204; 2214.500;  287.675;    0.000
460.248; 2120.500;  293.675;    0.000
460.292; 2139.500;  310.675;    0.000
460.336; 2145.500;  263.675;    0.000
460.380; 2190.500;  268.675;    0.000
460.424; 2093.500;  281.675;    0.000
460.468; 2116.500;  310.675;    0.000
460.512; 2142.500;  273.675;    0.000
460.556; 2095.500;  291.675;    0.000
460.599; 2177.500;  240.675;    0.000
460.643; 2085.500;  260.675;    0.000
460.687; 2156.500;  283.675;    0.000
460.731; 2157.500;  254.675;    0.000
460.775; 2120.500;  265.675;    0.000
460.819; 2079.500;  280.675;    0.000
460.863; 2177.500;  316.675;    0.000
460.907; 2158.500;  231.675;    0.000
460.951; 2183.500;  275.675;    0.000
460.995; 2172.500;  290.675;    0.000
461.038; 2124.500;  284.675;    0.000
461.082; 2205.500;  278.675;    0.000
461.126; 2139.500;  321.675;    0.000
461.170; 2088.500;  273.675;    0.000
461.214; 2170.500;  289.675;    0.000
461.257; 2204.500;  296.675;    0.000
461.301; 2239.500;  287.675;    0.000
461.345; 2146.500;  290.675;    0.000
461.389; 2122.500;  260.675;    0.000
461.432; 2129.500;  262.675;    0.000
461.476; 2160.500;  254.675;    0.000
461.520; 2122.500;  305.675;    0.000
461.563; 2161.500;  289.675;    0.000
461.607; 2135.500;  286.675;    0.000
461.651; 2179.500;  271.675;    0.000
461.694; 2128.500;  245.675;    0.000
461.738; 2229.500;  278.675;    0.000
461.782; 2143.500;  284.675;    0.000
461.825; 2208.500;  305.675;    0.000
461.869; 2198.500;  293.675;    0.000
461.913; 2188.500;  280.675;    0.000
461.956; 2177.500;  237.675;    0.000
462.000; 2142.500;  288.675;    0.000
462.043; 2242.500;  282.675;    0.000
462.087; 2199.500;  268.675;    0.000
462.130; 2252.500;  286.675;    0.000
462.174; 2215.500;  312.675;    0.000
462.217; 2195.500;  270.675;    0.000
462.261; 2235.500;  281.675;    0.000
462.304; 2252.500;  248.675;    0.000
462.348; 2266.500;  267.675;    0.000
462.391; 2350.500;  270.675;    0.000
462.435; 2226.500;  287.675;    0.000
462.478; 2268.500;  290.675;    0.000
462.522; 2224.500;  296.675;    0.000
462.565; 2255.500;  275.675;    0.000
462.608; 2377.500;  325.675;    0.000
462.652; 2345.500;  303.675;    0.000
462.695; 2302.500;  355.675;    0.000
462.739; 2232.500;  272.675;    0.000
462.782; 2344.500;  295.675;    0.000
462.825; 2387.500;  300.675;    0.000
462.869; 2299.500;  319.675;    0.000
462.912; 2361.500;  363.675;    0.000
462.955; 2312.500;  298.675;    0.000
462.998; 2342.500;  321.675;    0.000
463.042; 2386.500;  310.675;    0.000
463.085; 2402.500;  305.675;    0.000
463.128; 2357.500;  345.675;    0.000
463.172; 2336.500;  341.675;    0.000
463.215;  363.500;  300.675;    0.000
463.258;  335.500;  287.675;    0.000
463.301;  325.500;  290.675;    0.000
463.344;  317.500;  320.675;    0.000
463.388;  326.500;  340.675;    0.000
463.431;  282.500;  278.675;    0.000
463.474;  322.500;  353.675;    0.000
463.517;  293.500;  295.675;    0.000
463.560;  333.500;  328.675;    0.000
463.603;  341.500;  316.675;    0.000
463.646;  317.500;  295.675;    0.000
463.690;  309.500;  334.675;    0.000
463.733;  305.500;  343.675;    0.000
463.776;  301.500;  300.675;    0.000
463.819;  315.500;  368.675;    0.000
463.862;  309.500;  327.675;    0.000

