
Integration time [ms]:   0.300
Averaging Nr. [scans]: 1
Smoothing Nr. [pixels]: 0
Data measured with spectrometer [name]: VIS
Wave   ;Sample   ;Dark     ;Reference
[nm]   ;[counts] ;[counts] ;[counts] 

450.961;  187.625;  204.350;    0.000
451.100;  189.625;  243.350;    0.000
451.239;  216.625;  228.350;    0.000
451.377;  235.625;  250.350;    0.000
451.516;  216.625;  189.350;    0.000
451.655;  210.625;  235.350;    0.000
451.794;  251.625;  223.350;    0.000
451.932;  266.625;  269.350;    0.000
452.071;  264.625;  250.350;    0.000
452.210;  224.625;  262.350;    0.000
452.348;  229.625;  259.350;    0.000
452.487;  222.625;  231.350;    0.000
452.626;  231.625;  220.350;    0.000
452.764;  232.625;  252.350;    0.000
452.903;  228.625;  236.350;    0.000
453.042;  285.625;  217.350;    0.000
453.180; 2589.625;  273.350;    0.000
453.319; 2556.625;  261.350;    0.000
453.458; 2586.625;  219.350;    0.000
453.596; 2618.625;  307.350;    0.000
453.735; 2735.625;  246.350;    0.000
453.873; 2709.625;  270.350;    0.000
454.012; 2732.625;  232.350;    0.000
454.150; 2831.625;  211.350;    0.000
454.289; 2891.625;  245.350;    0.000
454.427; 2876.625;  224.350;    0.000
454.566; 2869.625;  252.350;    0.000
454.704; 2862.625;  225.350;    0.000
454.843; 2988.625;  195.350;    0.000
454.981; 2982.625;  258.350;    0.000
455.120; 2930.625;  191.350;    0.000
455.258; 2951.625;  243.350;    0.000
455.397; 3019.625;  188.350;    0.000
455.535; 3214.625;  219.350;    0.000
455.674; 3011.625;  184.350;    0.000
455.812; 3101.625;  225.350;    0.000
455.951; 3142.625;  201.350;    0.000
456.089; 3178.625;  187.350;    0.000
456.227; 3185.625;  199.350;    0.000
456.366; 3280.625;  235.350;    0.000
456.504; 3319.625;  216.350;    0.000
456.642; 3299.625;  256.350;    0.000
456.781; 3327.625;  201.350;    0.000
456.919; 3395.625;  231.350;    0.000
457.057; 3386.625;  181.350;    0.000
457.196; 3336.625;  231.350;    0.000
457.334; 3450.625;  229.350;    0.000
457.472; 3512.625;  242.350;    0.000
457.610; 3526.625;  221.350;    0.000
457.749; 3577.625;  218.350;    0.000
457.887; 3628.625;  213.350;    0.000
458.025; 3687.625;  228.350;    0.000
458.163; 3680.625;  204.350;    0.000
458.301; 3779.625;  230.350;    0.000
458.440; 3913.625;  200.350;    0.000
458.578; 3932.625;  222.350;    0.000
458.716; 3904.625;  137.350;    0.000
458.854; 3958.625;  259.350;    0.000
458.992; 3960.625;  172.350;    0.000
459.130; 4153.625;  253.350;    0.000
459.269; 4072.625;  212.350;    0.000
459.407; 4182.625;  212.350;    0.000
459.545; 4261.625;  225.350;    0.000
459.683; 4190.625;  225.350;    0.000
459.821; 4259.625;  192.350;    0.000
459.959; 4172.625;  205.350;    0.000
460.097; 4261.625;  199.350;    0.000
460.235; 4363.625;  232.350;    0.000
460.373; 4345.625;  248.350;    0.000
460.511; 4334.625;  225.350;    0.000
460.649; 4414.625;  204.350;    0.000
460.787; 4603.625;  221.350;    0.000
460.925; 4388.625;  181.350;    0.000
461.063; 4557.625;  243.350;    0.000
461.201; 4561.625;  212.350;    0.000
461.339; 4631.625;  229.350;    0.000
461.477; 4614.625;  162.350;    0.000
461.615; 4572.625;  232.350;    0.000
461.753; 4699.625;  193.350;    0.000
461.891; 4675.625;  217.350;    0.000
462.029; 4708.625;  224.350;    0.000
462.166; 4841.625;  222.350;    0.000
462.304; 4798.625;  185.350;    0.000
462.442; 5034.625;  246.350;    0.000
462.580; 4912.625;  246.350;    0.000
462.718; 4982.625;  235.350;    0.000
462.856; 5065.625;  230.350;    0.000
462.993; 5033.625;  266.350;    0.000
463.131; 4951.625;  208.350;    0.000
463.269; 5080.625;  218.350;    0.000
463.407; 4841.625;  215.350;    0.000
463.545; 4779.625;  200.350;    0.000
463.682; 4853.625;  206.350;    0.000
463.820; 5150.625;  211.350;    0.000
463.958; 5378.625;  206.350;    0.000
464.095; 5291.625;  193.350;    0.000
464.233; 5330.625;  203.350;    0.000
464.371; 5503.625;  258.350;    0.000
464.509; 5487.625;  219.350;    0.000
464.646; 5357.625;  210.350;    0.000
464.784; 5340.625;  206.350;    0.000
464.921; 5381.625;  233.350;    0.000
465.059; 5292.625;  186.350;    0.000
465.197; 5230.625;  213.350;    0.000
465.334; 5037.625;  202.350;    0.000
465.472; 5006.625;  236.350;    0.000
465.609; 5029.625;  206.350;    0.000
465.747; 5024.625;  208.350;    0.000
465.885; 5083.625;  198.350;    0.000
466.022; 4853.625;  210.350;    0.000
466.160; 5081.625;  245.350;    0.000
466.297; 4861.625;  226.350;    0.000
466.435; 4932.625;  235.350;    0.000
466.572; 4952.625;  226.350;    0.000
466.710; 4901.625;  266.350;    0.000
466.847; 4951.625;  258.350;    0.000
466.985; 4925.625;  228.350;    0.000
467.122; 4850.625;  201.350;    0.000
467.260; 4792.625;  170.350;    0.000
467.397; 4869.625;  174.350;    0.000
467.534; 4788.625;  244.350;    0.000
467.672; 4851.625;  247.350;    0.000
467.809; 4795.625;  182.350;    0.000
467.947; 4958.625;  208.350;    0.000
468.084; 4857.625;  206.350;    0.000
468.221; 4926.625;  249.350;    0.000
468.359; 4848.625;  253.350;    0.000
468.496; 4902.625;  208.350;    0.000
468.633; 4831.625;  189.350;    0.000
468.771; 4749.625;  216.350;    0.000
468.908; 4841.625;  240.350;    0.000
469.045; 4932.625;  234.350;    0.000
469.183; 4981.625;  203.350;    0.000
469.320; 4882.625;  230.350;    0.000
469.457; 4981.625;  219.350;    0.000
469.594; 5073.625;  233.350;    0.000
469.732; 4972.625;  230.350;    0.000
469.869; 5023.625;  239.350;    0.000
470.006; 5053.625;  224.350;    0.000
470.143; 5099.625;  241.350;    0.000
470.280; 5103.625;  234.350;    0.000
470.417; 5036.625;  236.350;    0.000
470.555; 5162.625;  207.350;    0.000
470.692; 5099.625;  251.350;    0.000
470.829; 5126.625;  238.350;    0.000
470.966; 5014.625;  242.350;    0.000
471.103; 5118.625;  215.350;    0.000
471.240; 5129.625;  237.350;    0.000
471.377; 5006.625;  235.350;    0.000
471.514; 5075.625;  256.350;    0.000
471.651; 5045.625;  198.350;    0.000
471.789; 5025.625;  215.350;    0.000
471.926; 4999.625;  210.350;    0.000
472.063; 4947.625;  237.350;    0.000
472.200; 4976.625;  265.350;    0.000
472.337; 4971.625;  240.350;    0.000
472.474; 4941.625;  195.350;    0.000
472.611; 4952.625;  228.350;    0.000
472.748; 4898.625;  234.350;    0.000
472.884; 4890.625;  230.350;    0.000
473.021; 4796.625;  219.350;    0.000
473.158; 4899.625;  253.350;    0.000
473.295; 4872.625;  207.350;    0.000
473.432; 4845.625;  238.350;    0.000
473.569; 4909.625;  236.350;    0.000
473.706; 4804.625;  203.350;    0.000
473.843; 4798.625;  232.350;    0.000
473.980; 4800.625;  207.350;    0.000
474.117; 4837.625;  182.350;    0.000
474.253; 5003.625;  261.350;    0.000
474.390; 4952.625;  211.350;    0.000
474.527; 4877.625;  229.350;    0.000
474.664; 4876.625;  181.350;    0.000
474.801; 4987.625;  250.350;    0.000
474.937; 5000.625;  196.350;    0.000
475.074; 5018.625;  213.350;    0.000
475.211; 4953.625;  232.350;    0.000
475.348; 5068.625;  228.350;    0.000
475.484; 4982.625;  240.350;    0.000
475.621; 5016.625;  235.350;    0.000
475.758; 5005.625;  232.350;    0.000
475.894; 4983.625;  227.350;    0.000
476.031; 5024.625;  233.350;    0.000
476.168; 4937.625;  205.350;    0.000
476.304; 5078.625;  263.350;    0.000
476.441; 5101.625;  255.350;    0.000
476.578; 5110.625;  191.350;    0.000
476.714; 5080.625;  218.350;    0.000
476.851; 5135.625;  224.350;    0.000
476.987; 5225.625;  225.350;    0.000
477.124; 5169.625;  231.350;    0.000
477.261; 5121.625;  291.350;    0.000
477.397; 5144.625;  218.350;    0.000
477.534; 5192.625;  209.350;    0.000
477.670; 5259.625;  210.350;    0.000
477.807; 5231.625;  199.350;    0.000
477.943; 5189.625;  219.350;    0.000
478.080; 5246.625;  234.350;    0.000
478.216; 5282.625;  196.350;    0.000
478.353; 5304.625;  234.350;    0.000
478.489; 5348.625;  219.350;    0.000
478.626; 5361.625;  209.350;    0.000
478.762; 5381.625;  206.350;    0.000
478.898; 5409.625;  209.350;    0.000
479.035; 5464.625;  232.350;    0.000
479.171; 5476.625;  219.350;    0.000
479.308; 5349.625;  226.350;    0.000
479.444; 5393.625;  184.350;    0.000
479.580; 5451.625;  192.350;    0.000
479.717; 5526.625;  247.350;    0.000
479.853; 5370.625;  181.350;    0.000
479.989; 5575.625;  212.350;    0.000
480.126; 5457.625;  187.350;    0.000
480.262; 5622.625;  217.350;    0.000
480.398; 5573.625;  249.350;    0.000
480.535; 5441.625;  196.350;    0.000
480.671; 5534.625;  199.350;    0.000
480.807; 5543.625;  231.350;    0.000
480.943; 5597.625;  192.350;    0.000
481.080; 5449.625;  206.350;    0.000
481.216; 5437.625;  189.350;    0.000
481.352; 5373.625;  215.350;    0.000
481.488; 5442.625;  223.350;    0.000
481.624; 5543.625;  235.350;    0.000
481.760; 5549.625;  218.350;    0.000
481.897; 5313.625;  204.350;    0.000
482.033; 5417.625;  243.350;    0.000
482.169; 5437.625;  239.350;    0.000
482.305; 5360.625;  221.350;    0.000
482.441; 5345.625;  162.350;    0.000
482.577; 5383.625;  241.350;    0.000
482.713; 5431.625;  223.350;    0.000
482.849; 5355.625;  195.350;    0.000
482.985; 5428.625;  230.350;    0.000
483.121; 5355.625;  230.350;    0.000
483.258; 5392.625;  254.350;    0.000
483.394; 5406.625;  199.350;    0.000
483.530; 5456.625;  209.350;    0.000
483.665; 5400.625;  196.350;    0.000
483.801; 5414.625;  208.350;    0.000
483.937; 5368.625;  202.350;    0.000
484.073; 5387.625;  247.350;    0.000
484.209; 5510.625;  188.350;    0.000
484.345; 5468.625;  241.350;    0.000
484.481; 5463.625;  247.350;    0.000
484.617; 5534.625;  248.350;    0.000
484.753; 5432.625;  255.350;    0.000
484.889; 5499.625;  253.350;    0.000
485.025; 5514.625;  226.350;    0.000
485.161; 5456.625;  207.350;    0.000
485.296; 5481.625;  247.350;    0.000
485.432; 5460.625;  255.350;    0.000
485.568; 5538.625;  216.350;    0.000
485.704; 5439.625;  232.350;    0.000
485.840; 5422.625;  231.350;    0.000
485.975; 5583.625;  233.350;    0.000
486.111; 5528.625;  207.350;    0.000
486.247; 5487.625;  211.350;    0.000
486.383; 5498.625;  219.350;    0.000
486.518; 5595.625;  213.350;    0.000
486.654; 5720.625;  216.350;    0.000
486.790; 5636.625;  253.350;    0.000
486.926; 5520.625;  229.350;    0.000
487.061; 5639.625;  241.350;    0.000
487.197; 5568.625;  218.350;    0.000
487.333; 5556.625;  221.350;    0.000
487.468; 5560.625;  206.350;    0.000
487.604; 5520.625;  254.350;    0.000
487.740; 5568.625;  240.350;    0.000
487.875; 5528.625;  260.350;    0.000
488.011; 5536.625;  232.350;    0.000
488.146; 5480.625;  206.350;    0.000
488.282; 5606.625;  236.350;    0.000
488.417; 5718.625;  255.350;    0.000
488.553; 5678.625;  221.350;    0.000
488.688; 5534.625;  233.350;    0.000
488.824; 5582.625;  246.350;    0.000
488.960; 5709.625;  267.350;    0.000
489.095; 5591.625;  217.350;    0.000
489.230; 5681.625;  226.350;    0.000
489.366; 5629.625;  232.350;    0.000
489.501; 5759.625;  220.350;    0.000
489.637; 5719.625;  245.350;    0.000
489.772; 5646.625;  228.350;    0.000
489.908; 5751.625;  250.350;    0.000
490.043; 5843.625;  239.350;    0.000
490.178; 5860.625;  213.350;    0.000
490.314; 5648.625;  270.350;    0.000
490.449; 5819.625;  245.350;    0.000
490.585; 5772.625;  218.350;    0.000
490.720; 5780.625;  243.350;    0.000
490.855; 5716.625;  196.350;    0.000
490.991; 5780.625;  208.350;    0.000
491.126; 5844.625;  268.350;    0.000
491.261; 5838.625;  226.350;    0.000
491.396; 5922.625;  201.350;    0.000
491.532; 5714.625;  213.350;    0.000
491.667; 5808.625;  183.350;    0.000
491.802; 5860.625;  239.350;    0.000
491.937; 5831.625;  228.350;    0.000
492.073; 5865.625;  258.350;    0.000
492.208; 6043.625;  218.350;    0.000
492.343; 5996.625;  205.350;    0.000
492.478; 5996.625;  247.350;    0.000
492.613; 6150.625;  217.350;    0.000
492.749; 6031.625;  258.350;    0.000
492.884; 5924.625;  208.350;    0.000
493.019; 5832.625;  248.350;    0.000
493.154; 5942.625;  231.350;    0.000
493.289; 5871.625;  226.350;    0.000
493.424; 5868.625;  216.350;    0.000
493.559; 5924.625;  205.350;    0.000
493.694; 6096.625;  203.350;    0.000
493.829; 5939.625;  231.350;    0.000
493.964; 6016.625;  200.350;    0.000
494.099; 5936.625;  253.350;    0.000
494.234; 6022.625;  244.350;    0.000
494.369; 5970.625;  239.350;    0.000
494.504; 6062.625;  223.350;    0.000
494.639; 6010.625;  263.350;    0.000
494.774; 6034.625;  240.350;    0.000
494.909; 5949.625;  231.350;    0.000
495.044; 5865.625;  195.350;    0.000
495.179; 5975.625;  231.350;    0.000
495.314; 5963.625;  231.350;    0.000
495.449; 5989.625;  239.350;    0.000
495.584; 6013.625;  201.350;    0.000
495.719; 6015.625;  201.350;    0.000
495.854; 6092.625;  201.350;    0.000
495.988; 6190.625;  239.350;    0.000
496.123; 6049.625;  199.350;    0.000
496.258; 6199.625;  256.350;    0.000
496.393; 6144.625;  214.350;    0.000
496.528; 6254.625;  220.350;    0.000
496.663; 6335.625;  207.350;    0.000
496.797; 6391.625;  241.350;    0.000
496.932; 6432.625;  215.350;    0.000
497.067; 6656.625;  240.350;    0.000
497.202; 6741.625;  177.350;    0.000
497.336; 6834.625;  221.350;    0.000
497.471; 6942.625;  228.350;    0.000
497.606; 7028.625;  213.350;    0.000
497.740; 7180.625;  217.350;    0.000
497.875; 7319.625;  182.350;    0.000
498.010; 7679.625;  230.350;    0.000
498.144; 7645.625;  217.350;    0.000
498.279; 7958.625;  194.350;    0.000
498.414; 7932.625;  270.350;    0.000
498.548; 8042.625;  184.350;    0.000
498.683; 8036.625;  188.350;    0.000
498.817; 7889.625;  216.350;    0.000
498.952; 7931.625;  208.350;    0.000
499.087; 8058.625;  236.350;    0.000
499.221; 8247.625;  219.350;    0.000
499.356; 8482.625;  263.350;    0.000
499.490; 8451.625;  221.350;    0.000
499.625; 8688.625;  233.350;    0.000
499.759; 8855.625;  245.350;    0.000
499.894; 8998.625;  241.350;    0.000
500.028; 9271.625;  237.350;    0.000
500.162; 9478.625;  282.350;    0.000
500.297; 9362.625;  232.350;    0.000
500.431; 9498.625;  266.350;    0.000
500.566; 9289.625;  254.350;    0.000
500.700; 9230.625;  238.350;    0.000
500.835; 9225.625;  264.350;    0.000
500.969; 8851.625;  165.350;    0.000
501.103; 8821.625;  190.350;    0.000
501.238; 8577.625;  274.350;    0.000
501.372; 8255.625;  270.350;    0.000
501.506; 7919.625;  231.350;    0.000
501.641; 7726.625;  224.350;    0.000
501.775; 7609.625;  224.350;    0.000
501.909; 7585.625;  218.350;    0.000
502.043; 7342.625;  238.350;    0.000
502.178; 7262.625;  289.350;    0.000
502.312; 7045.625;  225.350;    0.000
502.446; 7069.625;  295.350;    0.000
502.580; 6807.625;  200.350;    0.000
502.715; 6773.625;  256.350;    0.000
502.849; 6769.625;  226.350;    0.000
502.983; 6763.625;  250.350;    0.000
503.117; 6601.625;  229.350;    0.000
503.251; 6456.625;  267.350;    0.000
503.385; 6493.625;  237.350;    0.000
503.520; 6327.625;  210.350;    0.000
503.654; 6128.625;  204.350;    0.000
503.788; 6191.625;  236.350;    0.000
503.922; 6110.625;  225.350;    0.000
504.056; 6099.625;  222.350;    0.000
504.190; 6104.625;  220.350;    0.000
504.324; 5872.625;  257.350;    0.000
504.458; 5834.625;  223.350;    0.000
504.592; 5851.625;  252.350;    0.000
504.726; 5814.625;  216.350;    0.000
504.860; 5590.625;  231.350;    0.000
504.994; 5612.625;  228.350;    0.000
505.128; 5651.625;  239.350;    0.000
505.262; 5456.625;  245.350;    0.000
505.396; 5355.625;  231.350;    0.000
505.530; 5377.625;  211.350;    0.000
505.664; 5244.625;  223.350;    0.000
505.798; 5264.625;  239.350;    0.000
505.932; 5304.625;  232.350;    0.000
506.066; 5156.625;  263.350;    0.000
506.199; 5157.625;  231.350;    0.000
506.333; 5146.625;  213.350;    0.000
506.467; 5070.625;  241.350;    0.000
506.601; 4932.625;  233.350;    0.000
506.735; 5022.625;  235.350;    0.000
506.869; 4893.625;  269.350;    0.000
507.002; 4995.625;  244.350;    0.000
507.136; 4883.625;  258.350;    0.000
507.270; 4950.625;  218.350;    0.000
507.404; 4869.625;  191.350;    0.000
507.537; 4751.625;  226.350;    0.000
507.671; 4786.625;  243.350;    0.000
507.805; 4712.625;  234.350;    0.000
507.939; 4731.625;  234.350;    0.000
508.072; 4653.625;  261.350;    0.000
508.206; 4718.625;  220.350;    0.000
508.340; 4783.625;  241.350;    0.000
508.473; 4738.625;  214.350;    0.000
508.607; 4600.625;  232.350;    0.000
508.740; 4583.625;  222.350;    0.000
508.874; 4737.625;  225.350;    0.000
509.008; 4612.625;  258.350;    0.000
509.141; 4605.625;  210.350;    0.000
509.275; 4586.625;  199.350;    0.000
509.408; 4554.625;  260.350;    0.000
509.542; 4489.625;  252.350;    0.000
509.675; 4680.625;  276.350;    0.000
509.809; 4555.625;  266.350;    0.000
509.942; 4479.625;  227.350;    0.000
510.076; 4533.625;  243.350;    0.000
510.209; 4451.625;  221.350;    0.000
510.343; 4554.625;  229.350;    0.000
510.476; 4476.625;  246.350;    0.000
510.610; 4408.625;  211.350;    0.000
510.743; 4473.625;  279.350;    0.000
510.877; 4452.625;  274.350;    0.000
511.010; 4399.625;  252.350;    0.000
511.143; 4450.625;  228.350;    0.000
511.277; 4412.625;  261.350;    0.000
511.410; 4415.625;  217.350;    0.000
511.543; 4442.625;  230.350;    0.000
511.677; 4408.625;  245.350;    0.000
511.810; 4331.625;  237.350;    0.000
511.943; 4368.625;  224.350;    0.000
512.077; 4298.625;  194.350;    0.000
512.210; 4379.625;  212.350;    0.000
512.343; 4294.625;  236.350;    0.000
512.476; 4356.625;  248.350;    0.000
512.610; 4390.625;  249.350;    0.000
512.743; 4405.625;  224.350;    0.000
512.876; 4394.625;  277.350;    0.000
513.009; 4357.625;  261.350;    0.000
513.142; 4316.625;  213.350;    0.000
513.276; 4233.625;  192.350;    0.000
513.409; 4257.625;  267.350;    0.000
513.542; 4279.625;  224.350;    0.000
513.675; 4299.625;  244.350;    0.000
513.808; 4200.625;  218.350;    0.000
513.941; 4315.625;  237.350;    0.000
514.074; 4235.625;  257.350;    0.000
514.207; 4260.625;  245.350;    0.000
514.340; 4356.625;  195.350;    0.000
514.474; 4392.625;  244.350;    0.000
514.607; 4312.625;  230.350;    0.000
514.740; 4420.625;  246.350;    0.000
514.873; 4562.625;  268.350;    0.000
515.006; 4590.625;  253.350;    0.000
515.139; 4568.625;  235.350;    0.000
515.272; 4706.625;  214.350;    0.000
515.404; 4894.625;  228.350;    0.000
515.537; 4821.625;  263.350;    0.000
515.670; 4695.625;  270.350;    0.000
515.803; 4650.625;  243.350;    0.000
515.936; 4531.625;  226.350;    0.000
516.069; 4565.625;  227.350;    0.000
516.202; 4479.625;  259.350;    0.000
516.335; 4552.625;  260.350;    0.000
516.468; 4559.625;  243.350;    0.000
516.600; 4630.625;  258.350;    0.000
516.733; 4765.625;  235.350;    0.000
516.866; 4800.625;  267.350;    0.000
516.999; 4760.625;  251.350;    0.000
517.132; 4960.625;  261.350;    0.000
517.264; 5107.625;  260.350;    0.000
517.397; 5175.625;  231.350;    0.000
517.530; 4884.625;  257.350;    0.000
517.663; 4696.625;  263.350;    0.000
517.795; 4798.625;  250.350;    0.000
517.928; 4818.625;  257.350;    0.000
518.061; 4656.625;  227.350;    0.000
518.193; 4876.625;  252.350;    0.000
518.326; 5284.625;  227.350;    0.000
518.459; 5425.625;  210.350;    0.000
518.591; 4945.625;  214.350;    0.000
518.724; 4648.625;  269.350;    0.000
518.857; 4518.625;  215.350;    0.000
518.989; 4538.625;  259.350;    0.000
519.122; 4413.625;  238.350;    0.000
519.254; 4431.625;  248.350;    0.000
519.387; 4402.625;  246.350;    0.000
519.519; 4185.625;  239.350;    0.000
519.652; 4385.625;  249.350;    0.000
519.784; 4319.625;  238.350;    0.000
519.917; 4242.625;  231.350;    0.000
520.049; 4269.625;  244.350;    0.000
520.182; 4291.625;  205.350;    0.000
520.314; 4251.625;  262.350;    0.000
520.447; 4152.625;  234.350;    0.000
520.579; 4103.625;  273.350;    0.000
520.712; 4097.625;  215.350;    0.000
520.844; 4206.625;  258.350;    0.000
520.976; 4032.625;  242.350;    0.000
521.109; 4078.625;  232.350;    0.000
521.241; 4082.625;  236.350;    0.000
521.373; 4045.625;  227.350;    0.000
521.506; 3969.625;  212.350;    0.000
521.638; 3968.625;  292.350;    0.000
521.770; 3931.625;  259.350;    0.000
521.903; 3875.625;  263.350;    0.000
522.035; 3933.625;  269.350;    0.000
522.167; 3785.625;  289.350;    0.000
522.300; 3908.625;  255.350;    0.000
522.432; 3776.625;  247.350;    0.000
522.564; 3834.625;  239.350;    0.000
522.696; 3917.625;  246.350;    0.000
522.828; 3739.625;  230.350;    0.000
522.961; 3764.625;  239.350;    0.000
523.093; 3820.625;  269.350;    0.000
523.225; 3725.625;  251.350;    0.000
523.357; 3761.625;  244.350;    0.000
523.489; 3720.625;  266.350;    0.000
523.621; 3782.625;  267.350;    0.000
523.753; 3658.625;  234.350;    0.000
523.885; 3627.625;  229.350;    0.000
524.018; 3599.625;  221.350;    0.000
524.150; 3716.625;  264.350;    0.000
524.282; 3589.625;  283.350;    0.000
524.414; 3727.625;  258.350;    0.000
524.546; 3614.625;  286.350;    0.000
524.678; 3586.625;  274.350;    0.000
524.810; 3650.625;  253.350;    0.000
524.942; 3653.625;  183.350;    0.000
525.074; 3534.625;  232.350;    0.000
525.206; 3587.625;  250.350;    0.000
525.338; 3653.625;  228.350;    0.000
525.469; 3687.625;  224.350;    0.000
525.601; 3597.625;  247.350;    0.000
525.733; 3599.625;  199.350;    0.000
525.865; 3558.625;  230.350;    0.000
525.997; 3545.625;  209.350;    0.000
526.129; 3554.625;  211.350;    0.000
526.261; 3509.625;  233.350;    0.000
526.393; 3504.625;  261.350;    0.000
526.524; 3459.625;  206.350;    0.000
526.656; 3399.625;  260.350;    0.000
526.788; 3499.625;  293.350;    0.000
526.920; 3497.625;  208.350;    0.000
527.052; 3470.625;  204.350;    0.000
527.183; 3510.625;  244.350;    0.000
527.315; 3580.625;  237.350;    0.000
527.447; 3462.625;  236.350;    0.000
527.578; 3451.625;  235.350;    0.000
527.710; 3485.625;  253.350;    0.000
527.842; 3431.625;  231.350;    0.000
527.973; 3484.625;  224.350;    0.000
528.105; 3513.625;  237.350;    0.000
528.237; 3472.625;  213.350;    0.000
528.368; 3349.625;  194.350;    0.000
528.500; 3354.625;  195.350;    0.000
528.632; 3502.625;  201.350;    0.000
528.763; 3485.625;  196.350;    0.000
528.895; 3400.625;  204.350;    0.000
529.026; 3477.625;  214.350;    0.000
529.158; 3495.625;  197.350;    0.000
529.289; 3485.625;  230.350;    0.000
529.421; 3497.625;  247.350;    0.000
529.552; 3410.625;  255.350;    0.000
529.684; 3467.625;  270.350;    0.000
529.815; 3494.625;  248.350;    0.000
529.947; 3405.625;  234.350;    0.000
530.078; 3457.625;  223.350;    0.000
530.210; 3397.625;  243.350;    0.000
530.341; 3380.625;  222.350;    0.000
530.472; 3477.625;  217.350;    0.000
530.604; 3509.625;  242.350;    0.000
530.735; 3485.625;  249.350;    0.000
530.867; 3423.625;  257.350;    0.000
530.998; 3456.625;  250.350;    0.000
531.129; 3603.625;  244.350;    0.000
531.260; 3521.625;  276.350;    0.000
531.392; 3503.625;  220.350;    0.000
531.523; 3510.625;  262.350;    0.000
531.654; 3556.625;  264.350;    0.000
531.786; 3706.625;  225.350;    0.000
531.917; 3603.625;  285.350;    0.000
532.048; 3614.625;  239.350;    0.000
532.179; 3573.625;  248.350;    0.000
532.311; 3600.625;  219.350;    0.000
532.442; 3589.625;  264.350;    0.000
532.573; 3550.625;  230.350;    0.000
532.704; 3451.625;  253.350;    0.000
532.835; 3487.625;  239.350;    0.000
532.966; 3578.625;  247.350;    0.000
533.097; 3551.625;  225.350;    0.000
533.229; 3485.625;  282.350;    0.000
533.360; 3488.625;  236.350;    0.000
533.491; 3472.625;  247.350;    0.000
533.622; 3489.625;  265.350;    0.000
533.753; 3478.625;  226.350;    0.000
533.884; 3473.625;  294.350;    0.000
534.015; 3598.625;  215.350;    0.000
534.146; 3530.625;  223.350;    0.000
534.277; 3703.625;  264.350;    0.000
534.408; 3509.625;  232.350;    0.000
534.539; 3565.625;  274.350;    0.000
534.670; 3549.625;  275.350;    0.000
534.801; 3489.625;  261.350;    0.000
534.932; 3406.625;  225.350;    0.000
535.063; 3559.625;  235.350;    0.000
535.194; 3555.625;  300.350;    0.000
535.324; 3315.625;  249.350;    0.000
535.455; 3443.625;  260.350;    0.000
535.586; 3471.625;  288.350;    0.000
535.717; 3402.625;  237.350;    0.000
535.848; 3464.625;  271.350;    0.000
535.979; 3440.625;  234.350;    0.000
536.109; 3398.625;  255.350;    0.000
536.240; 3338.625;  269.350;    0.000
536.371; 3399.625;  232.350;    0.000
536.502; 3432.625;  253.350;    0.000
536.632; 3450.625;  240.350;    0.000
536.763; 3469.625;  251.350;    0.000
536.894; 3395.625;  256.350;    0.000
537.025; 3436.625;  247.350;    0.000
537.155; 3382.625;  272.350;    0.000
537.286; 3319.625;  241.350;    0.000
537.417; 3387.625;  279.350;    0.000
537.547; 3302.625;  229.350;    0.000
537.678; 3384.625;  227.350;    0.000
537.808; 3323.625;  225.350;    0.000
537.939; 3358.625;  250.350;    0.000
538.070; 3418.625;  263.350;    0.000
538.200; 3409.625;  270.350;    0.000
538.331; 3328.625;  249.350;    0.000
538.461; 3408.625;  230.350;    0.000
538.592; 3481.625;  282.350;    0.000
538.722; 3479.625;  253.350;    0.000
538.853; 3359.625;  240.350;    0.000
538.983; 3352.625;  232.350;    0.000
539.114; 3294.625;  248.350;    0.000
539.244; 3247.625;  256.350;    0.000
539.375; 3378.625;  248.350;    0.000
539.505; 3388.625;  235.350;    0.000
539.636; 3338.625;  237.350;    0.000
539.766; 3403.625;  263.350;    0.000
539.896; 3338.625;  217.350;    0.000
540.027; 3379.625;  217.350;    0.000
540.157; 3444.625;  231.350;    0.000
540.287; 3323.625;  210.350;    0.000
540.418; 3452.625;  239.350;    0.000
540.548; 3351.625;  260.350;    0.000
540.678; 3420.625;  228.350;    0.000
540.809; 3476.625;  241.350;    0.000
540.939; 3366.625;  238.350;    0.000
541.069; 3410.625;  245.350;    0.000
541.200; 3510.625;  225.350;    0.000
541.330; 3386.625;  219.350;    0.000
541.460; 3440.625;  254.350;    0.000
541.590; 3563.625;  234.350;    0.000
541.720; 3403.625;  196.350;    0.000
541.851; 3549.625;  200.350;    0.000
541.981; 3433.625;  235.350;    0.000
542.111; 3452.625;  246.350;    0.000
542.241; 3526.625;  214.350;    0.000
542.371; 3654.625;  221.350;    0.000
542.501; 3589.625;  259.350;    0.000
542.631; 3609.625;  213.350;    0.000
542.761; 3634.625;  240.350;    0.000
542.891; 3777.625;  242.350;    0.000
543.021; 3739.625;  230.350;    0.000
543.151; 3701.625;  261.350;    0.000
543.281; 3675.625;  212.350;    0.000
543.411; 3687.625;  229.350;    0.000
543.542; 3547.625;  204.350;    0.000
543.671; 3644.625;  260.350;    0.000
543.801; 3525.625;  236.350;    0.000
543.931; 3566.625;  243.350;    0.000
544.061; 3522.625;  262.350;    0.000
544.191; 3596.625;  223.350;    0.000
544.321; 3634.625;  217.350;    0.000
544.451; 3589.625;  209.350;    0.000
544.581; 3685.625;  213.350;    0.000
544.711; 3641.625;  256.350;    0.000
544.841; 3654.625;  235.350;    0.000
544.970; 3847.625;  260.350;    0.000
545.100; 3731.625;  236.350;    0.000
545.230; 3879.625;  220.350;    0.000
545.360; 3773.625;  219.350;    0.000
545.490; 3819.625;  217.350;    0.000
545.619; 3656.625;  199.350;    0.000
545.749; 3660.625;  183.350;    0.000
545.879; 3570.625;  169.350;    0.000
546.009; 3675.625;  215.350;    0.000
546.138; 3642.625;  228.350;    0.000
546.268; 3512.625;  209.350;    0.000
546.398; 3614.625;  167.350;    0.000
546.527; 3527.625;  178.350;    0.000
546.657; 3638.625;  175.350;    0.000
546.786; 3497.625;  225.350;    0.000
546.916; 3638.625;  196.350;    0.000
547.046; 3609.625;  185.350;    0.000
547.175; 3632.625;  184.350;    0.000
547.305; 3579.625;  197.350;    0.000
547.434; 3589.625;  168.350;    0.000
547.564; 3583.625;  183.350;    0.000
547.693; 3551.625;  204.350;    0.000
547.823; 3502.625;  211.350;    0.000
547.953; 3594.625;  174.350;    0.000
548.082; 3629.625;  217.350;    0.000
548.211; 3530.625;  201.350;    0.000
548.341; 3604.625;  195.350;    0.000
548.470; 3559.625;  225.350;    0.000
548.600; 3577.625;  194.350;    0.000
548.729; 3525.625;  218.350;    0.000
548.859; 3531.625;  202.350;    0.000
548.988; 3670.625;  193.350;    0.000
549.117; 3646.625;  182.350;    0.000
549.247; 3573.625;  198.350;    0.000
549.376; 3545.625;  200.350;    0.000
549.505; 3626.625;  200.350;    0.000
549.635; 3623.625;  224.350;    0.000
549.764; 3565.625;  200.350;    0.000
549.893; 3555.625;  224.350;    0.000
550.023; 3685.625;  207.350;    0.000
550.152; 3717.625;  167.350;    0.000
550.281; 3764.625;  219.350;    0.000
550.410; 3679.625;  217.350;    0.000
550.539; 3752.625;  211.350;    0.000
550.669; 3667.625;  173.350;    0.000
550.798; 3777.625;  211.350;    0.000
550.927; 3750.625;  195.350;    0.000
551.056; 3676.625;  176.350;    0.000
551.185; 3698.625;  203.350;    0.000
551.314; 3650.625;  178.350;    0.000
551.443; 3775.625;  185.350;    0.000
551.573; 3753.625;  167.350;    0.000
551.702; 3776.625;  193.350;    0.000
551.831; 3811.625;  245.350;    0.000
551.960; 3835.625;  190.350;    0.000
552.089; 3754.625;  202.350;    0.000
552.218; 3795.625;  211.350;    0.000
552.347; 3824.625;  184.350;    0.000
552.476; 3838.625;  200.350;    0.000
552.605; 3804.625;  174.350;    0.000
552.734; 3933.625;  206.350;    0.000
552.863; 3790.625;  189.350;    0.000
552.992; 3852.625;  209.350;    0.000
553.121; 3919.625;  201.350;    0.000
553.249; 3882.625;  208.350;    0.000
553.378; 3917.625;  142.350;    0.000
553.507; 3799.625;  208.350;    0.000
553.636; 3754.625;  192.350;    0.000
553.765; 3854.625;  182.350;    0.000
553.894; 3787.625;  183.350;    0.000
554.023; 3855.625;  182.350;    0.000
554.151; 3820.625;  211.350;    0.000
554.280; 3779.625;  179.350;    0.000
554.409; 3703.625;  182.350;    0.000
554.538; 3842.625;  209.350;    0.000
554.666; 3728.625;  182.350;    0.000
554.795; 3742.625;  179.350;    0.000
554.924; 3790.625;  217.350;    0.000
555.052; 3892.625;  220.350;    0.000
555.181; 3711.625;  228.350;    0.000
555.310; 3768.625;  212.350;    0.000
555.439; 3687.625;  199.350;    0.000
555.567; 3761.625;  220.350;    0.000
555.696; 3804.625;  187.350;    0.000
555.824; 3680.625;  189.350;    0.000
555.953; 3698.625;  217.350;    0.000
556.082; 3680.625;  187.350;    0.000
556.210; 3757.625;  245.350;    0.000
556.339; 3604.625;  195.350;    0.000
556.467; 3728.625;  218.350;    0.000
556.596; 3747.625;  198.350;    0.000
556.724; 3716.625;  201.350;    0.000
556.853; 3673.625;  196.350;    0.000
556.981; 3678.625;  175.350;    0.000
557.110; 3668.625;  210.350;    0.000
557.238; 3612.625;  190.350;    0.000
557.367; 3658.625;  192.350;    0.000
557.495; 3699.625;  219.350;    0.000
557.623; 3649.625;  203.350;    0.000
557.752; 3652.625;  166.350;    0.000
557.880; 3740.625;  172.350;    0.000
558.008; 3801.625;  221.350;    0.000
558.137; 3750.625;  211.350;    0.000
558.265; 3703.625;  157.350;    0.000
558.393; 3662.625;  198.350;    0.000
558.522; 3728.625;  209.350;    0.000
558.650; 3707.625;  260.350;    0.000
558.778; 3755.625;  203.350;    0.000
558.906; 3716.625;  210.350;    0.000
559.035; 3793.625;  194.350;    0.000
559.163; 3714.625;  192.350;    0.000
559.291; 3808.625;  215.350;    0.000
559.419; 3666.625;  197.350;    0.000
559.548; 3712.625;  160.350;    0.000
559.676; 3833.625;  200.350;    0.000
559.804; 3781.625;  223.350;    0.000
559.932; 3920.625;  213.350;    0.000
560.060; 3921.625;  224.350;    0.000
560.188; 3868.625;  221.350;    0.000
560.316; 3855.625;  223.350;    0.000
560.444; 3953.625;  159.350;    0.000
560.572; 3938.625;  204.350;    0.000
560.700; 3891.625;  213.350;    0.000
560.828; 4140.625;  216.350;    0.000
560.956; 4090.625;  207.350;    0.000
561.085; 4099.625;  231.350;    0.000
561.212; 4015.625;  197.350;    0.000
561.340; 4022.625;  192.350;    0.000
561.468; 4080.625;  215.350;    0.000
561.596; 3989.625;  215.350;    0.000
561.724; 4032.625;  181.350;    0.000
561.852; 4098.625;  184.350;    0.000
561.980; 4065.625;  217.350;    0.000
562.108; 4132.625;  199.350;    0.000
562.236; 4043.625;  181.350;    0.000
562.364; 4158.625;  234.350;    0.000
562.492; 4209.625;  225.350;    0.000
562.619; 4179.625;  204.350;    0.000
562.747; 4292.625;  223.350;    0.000
562.875; 4300.625;  210.350;    0.000
563.003; 4317.625;  232.350;    0.000
563.130; 4343.625;  224.350;    0.000
563.258; 4368.625;  213.350;    0.000
563.386; 4446.625;  191.350;    0.000
563.514; 4524.625;  252.350;    0.000
563.641; 4421.625;  201.350;    0.000
563.769; 4608.625;  201.350;    0.000
563.897; 4708.625;  176.350;    0.000
564.024; 4779.625;  167.350;    0.000
564.152; 4828.625;  205.350;    0.000
564.280; 4815.625;  222.350;    0.000
564.407; 4910.625;  192.350;    0.000
564.535; 4790.625;  231.350;    0.000
564.662; 4978.625;  197.350;    0.000
564.790; 4948.625;  200.350;    0.000
564.917; 4996.625;  172.350;    0.000
565.045; 5053.625;  187.350;    0.000
565.173; 5015.625;  173.350;    0.000
565.300; 5181.625;  196.350;    0.000
565.428; 5276.625;  195.350;    0.000
565.555; 5338.625;  191.350;    0.000
565.682; 5401.625;  169.350;    0.000
565.810; 5610.625;  198.350;    0.000
565.937; 5687.625;  213.350;    0.000
566.065; 5836.625;  221.350;    0.000
566.192; 5939.625;  173.350;    0.000
566.320; 6079.625;  214.350;    0.000
566.447; 6213.625;  214.350;    0.000
566.574; 6346.625;  188.350;    0.000
566.702; 6448.625;  198.350;    0.000
566.829; 6726.625;  200.350;    0.000
566.956; 6784.625;  194.350;    0.000
567.083; 6787.625;  176.350;    0.000
567.211; 6657.625;  189.350;    0.000
567.338; 6910.625;  184.350;    0.000
567.465; 6769.625;  181.350;    0.000
567.593; 6794.625;  194.350;    0.000
567.720; 6710.625;  193.350;    0.000
567.847; 6883.625;  196.350;    0.000
567.974; 7127.625;  199.350;    0.000
568.101; 7665.625;  150.350;    0.000
568.228; 9001.625;  174.350;    0.000
568.356; 9909.625;  164.350;    0.000
568.483; 9740.625;  163.350;    0.000
568.610; 9954.625;  187.350;    0.000
568.737;11469.625;  192.350;    0.000
568.864;12841.625;  218.350;    0.000
568.991;12553.625;  169.350;    0.000
569.118;11580.625;  161.350;    0.000
569.245;10413.625;  161.350;    0.000
569.372; 9633.625;  187.350;    0.000
569.499; 8999.625;  146.350;    0.000
569.626; 8515.625;  172.350;    0.000
569.753; 8074.625;  188.350;    0.000
569.880; 7755.625;  180.350;    0.000
570.007; 7455.625;  187.350;    0.000
570.134; 7082.625;  196.350;    0.000
570.261; 7066.625;  127.350;    0.000
570.388; 6663.625;  189.350;    0.000
570.515; 6492.625;  219.350;    0.000
570.642; 6382.625;  187.350;    0.000
570.768; 6249.625;  175.350;    0.000
570.895; 6167.625;  165.350;    0.000
571.022; 6014.625;  180.350;    0.000
571.149; 5854.625;  209.350;    0.000
571.276; 5781.625;  187.350;    0.000
571.402; 5671.625;  227.350;    0.000
571.529; 5600.625;  166.350;    0.000
571.656; 5485.625;  203.350;    0.000
571.783; 5459.625;  156.350;    0.000
571.909; 5413.625;  195.350;    0.000
572.036; 5288.625;  165.350;    0.000
572.163; 5100.625;  156.350;    0.000
572.289; 5167.625;  193.350;    0.000
572.416; 5046.625;  199.350;    0.000
572.543; 5071.625;  185.350;    0.000
572.669; 5008.625;  180.350;    0.000
572.796; 5012.625;  173.350;    0.000
572.922; 4956.625;  186.350;    0.000
573.049; 4881.625;  185.350;    0.000
573.176; 5052.625;  196.350;    0.000
573.302; 4906.625;  189.350;    0.000
573.429; 4904.625;  186.350;    0.000
573.555; 4734.625;  220.350;    0.000
573.682; 4719.625;  196.350;    0.000
573.808; 4776.625;  201.350;    0.000
573.935; 4723.625;  188.350;    0.000
574.061; 4634.625;  216.350;    0.000
574.188; 4741.625;  161.350;    0.000
574.314; 4718.625;  189.350;    0.000
574.440; 4688.625;  190.350;    0.000
574.567; 4580.625;  201.350;    0.000
574.693; 4617.625;  175.350;    0.000
574.820; 4573.625;  188.350;    0.000
574.946; 4623.625;  182.350;    0.000
575.072; 4682.625;  188.350;    0.000
575.198; 4650.625;  232.350;    0.000
575.325; 4523.625;  159.350;    0.000
575.451; 4639.625;  231.350;    0.000
575.577; 4594.625;  196.350;    0.000
575.704; 4567.625;  177.350;    0.000
575.830; 4601.625;  171.350;    0.000
575.956; 4508.625;  163.350;    0.000
576.082; 4638.625;  197.350;    0.000
576.208; 4593.625;  181.350;    0.000
576.335; 4630.625;  218.350;    0.000
576.461; 4561.625;  207.350;    0.000
576.587; 4504.625;  173.350;    0.000
576.713; 4525.625;  170.350;    0.000
576.839; 4481.625;  186.350;    0.000
576.965; 4549.625;  194.350;    0.000
577.091; 4649.625;  167.350;    0.000
577.217; 4542.625;  212.350;    0.000
577.343; 4537.625;  214.350;    0.000
577.469; 4455.625;  208.350;    0.000
577.596; 4637.625;  188.350;    0.000
577.722; 4647.625;  221.350;    0.000
577.848; 4623.625;  197.350;    0.000
577.974; 4599.625;  222.350;    0.000
578.099; 4556.625;  187.350;    0.000
578.225; 4681.625;  213.350;    0.000
578.351; 4736.625;  190.350;    0.000
578.477; 4596.625;  212.350;    0.000
578.603; 4554.625;  178.350;    0.000
578.729; 4790.625;  193.350;    0.000
578.855; 4725.625;  194.350;    0.000
578.981; 4656.625;  152.350;    0.000
579.107; 4698.625;  175.350;    0.000
579.232; 4879.625;  192.350;    0.000
579.358; 4721.625;  186.350;    0.000
579.484; 4899.625;  186.350;    0.000
579.610; 4900.625;  199.350;    0.000
579.735; 4825.625;  197.350;    0.000
579.861; 4864.625;  203.350;    0.000
579.987; 4887.625;  220.350;    0.000
580.113; 4916.625;  210.350;    0.000
580.238; 4946.625;  189.350;    0.000
580.364; 4955.625;  214.350;    0.000
580.490; 5030.625;  205.350;    0.000
580.615; 4956.625;  231.350;    0.000
580.741; 5054.625;  212.350;    0.000
580.867; 5031.625;  196.350;    0.000
580.992; 5170.625;  214.350;    0.000
581.118; 5127.625;  178.350;    0.000
581.243; 5224.625;  209.350;    0.000
581.369; 5323.625;  173.350;    0.000
581.494; 5322.625;  209.350;    0.000
581.620; 5433.625;  204.350;    0.000
581.745; 5334.625;  168.350;    0.000
581.871; 5564.625;  236.350;    0.000
581.996; 5602.625;  212.350;    0.000
582.122; 5613.625;  192.350;    0.000
582.247; 5653.625;  179.350;    0.000
582.373; 5735.625;  189.350;    0.000
582.498; 5888.625;  217.350;    0.000
582.624; 5907.625;  231.350;    0.000
582.749; 5891.625;  237.350;    0.000
582.874; 5829.625;  205.350;    0.000
583.000; 6038.625;  204.350;    0.000
583.125; 6060.625;  192.350;    0.000
583.250; 6206.625;  229.350;    0.000
583.376; 6318.625;  256.350;    0.000
583.501; 6329.625;  200.350;    0.000
583.626; 6561.625;  207.350;    0.000
583.751; 6662.625;  215.350;    0.000
583.877; 6833.625;  212.350;    0.000
584.002; 6879.625;  227.350;    0.000
584.127; 6897.625;  153.350;    0.000
584.252; 7145.625;  197.350;    0.000
584.377; 7245.625;  183.350;    0.000
584.503; 7401.625;  211.350;    0.000
584.628; 7398.625;  215.350;    0.000
584.753; 7831.625;  194.350;    0.000
584.878; 7947.625;  154.350;    0.000
585.003; 8133.625;  213.350;    0.000
585.128; 8245.625;  199.350;    0.000
585.253; 8681.625;  219.350;    0.000
585.378; 8746.625;  174.350;    0.000
585.503; 9072.625;  202.350;    0.000
585.628; 9185.625;  186.350;    0.000
585.753; 9689.625;  209.350;    0.000
585.878; 9923.625;  167.350;    0.000
586.003;10295.625;  226.350;    0.000
586.128;10752.625;  206.350;    0.000
586.253;11125.625;  198.350;    0.000
586.378;11587.625;  180.350;    0.000
586.503;12176.625;  201.350;    0.000
586.628;12780.625;  206.350;    0.000
586.753;13490.625;  178.350;    0.000
586.878;14239.625;  228.350;    0.000
587.003;15160.625;  199.350;    0.000
587.127;15738.625;  194.350;    0.000
587.252;16876.625;  212.350;    0.000
587.377;18075.625;  172.350;    0.000
587.502;19238.625;  219.350;    0.000
587.627;20714.625;  247.350;    0.000
587.751;22331.625;  184.350;    0.000
587.876;24038.625;  215.350;    0.000
588.001;26034.625;  163.350;    0.000
588.125;27995.625;  185.350;    0.000
588.250;31193.625;  171.350;    0.000
588.375;34232.625;  255.350;    0.000
588.499;37779.625;  185.350;    0.000
588.624;42427.625;  167.350;    0.000
588.749;47526.625;  170.350;    0.000
588.873;49273.625;  173.350;    0.000
588.998;50858.625;  203.350;    0.000
589.122;55528.625;  184.350;    0.000
589.247;57424.625;  217.350;    0.000
589.372;54997.625;  250.350;    0.000
589.496;52121.625;  200.350;    0.000
589.621;51955.625;  199.350;    0.000
589.745;54200.625;  235.350;    0.000
589.870;51504.625;  206.350;    0.000
589.994;45663.625;  194.350;    0.000
590.118;40763.625;  177.350;    0.000
590.243;36464.625;  231.350;    0.000
590.367;33126.625;  173.350;    0.000
590.492;30096.625;  170.350;    0.000
590.616;27508.625;  182.350;    0.000
590.740;25388.625;  178.350;    0.000
590.865;23608.625;  219.350;    0.000
590.989;21819.625;  210.350;    0.000
591.114;20470.625;  194.350;    0.000
591.238;19116.625;  154.350;    0.000
591.362;17942.625;  210.350;    0.000
591.486;16946.625;  215.350;    0.000
591.611;16098.625;  194.350;    0.000
591.735;15377.625;  206.350;    0.000
591.859;14566.625;  188.350;    0.000
591.983;14017.625;  202.350;    0.000
592.107;13491.625;  175.350;    0.000
592.232;12973.625;  214.350;    0.000
592.356;12167.625;  232.350;    0.000
592.480;12001.625;  203.350;    0.000
592.604;11541.625;  204.350;    0.000
592.728;11012.625;  187.350;    0.000
592.852;10787.625;  204.350;    0.000
592.976;10452.625;  163.350;    0.000
593.100;10293.625;  177.350;    0.000
593.224; 9883.625;  209.350;    0.000
593.349; 9768.625;  255.350;    0.000
593.473; 9406.625;  225.350;    0.000
593.597; 9092.625;  211.350;    0.000
593.721; 8879.625;  222.350;    0.000
593.844; 8706.625;  202.350;    0.000
593.968; 8644.625;  223.350;    0.000
594.092; 8393.625;  162.350;    0.000
594.216; 8232.625;  211.350;    0.000
594.340; 7978.625;  198.350;    0.000
594.464; 7739.625;  242.350;    0.000
594.588; 7724.625;  213.350;    0.000
594.712; 7383.625;  198.350;    0.000
594.836; 7242.625;  207.350;    0.000
594.959; 7167.625;  192.350;    0.000
595.083; 7010.625;  180.350;    0.000
595.207; 6958.625;  242.350;    0.000
595.331; 6812.625;  172.350;    0.000
595.455; 6631.625;  185.350;    0.000
595.578; 6478.625;  221.350;    0.000
595.702; 6309.625;  233.350;    0.000
595.826; 6401.625;  164.350;    0.000
595.949; 6228.625;  215.350;    0.000
596.073; 6168.625;  198.350;    0.000
596.197; 5987.625;  266.350;    0.000
596.320; 5951.625;  236.350;    0.000
596.444; 5963.625;  215.350;    0.000
596.568; 5752.625;  213.350;    0.000
596.691; 5664.625;  198.350;    0.000
596.815; 5558.625;  210.350;    0.000
596.938; 5622.625;  207.350;    0.000
597.062; 5418.625;  187.350;    0.000
597.186; 5434.625;  234.350;    0.000
597.309; 5412.625;  176.350;    0.000
597.433; 5229.625;  222.350;    0.000
597.556; 5241.625;  219.350;    0.000
597.680; 5171.625;  227.350;    0.000
597.803; 5213.625;  240.350;    0.000
597.926; 5064.625;  227.350;    0.000
598.050; 5019.625;  198.350;    0.000
598.173; 4921.625;  235.350;    0.000
598.297; 4868.625;  233.350;    0.000
598.420; 4885.625;  211.350;    0.000
598.543; 4954.625;  207.350;    0.000
598.667; 4826.625;  232.350;    0.000
598.790; 4725.625;  205.350;    0.000
598.913; 4586.625;  200.350;    0.000
599.037; 4711.625;  193.350;    0.000
599.160; 4687.625;  199.350;    0.000
599.283; 4623.625;  237.350;    0.000
599.406; 4567.625;  168.350;    0.000
599.530; 4621.625;  231.350;    0.000
599.653; 4530.625;  220.350;    0.000
599.776; 4518.625;  203.350;    0.000
599.899; 4416.625;  202.350;    0.000
600.022; 4530.625;  189.350;    0.000
600.145; 4439.625;  175.350;    0.000
600.269; 4447.625;  235.350;    0.000
600.392; 4331.625;  213.350;    0.000
600.515; 4356.625;  236.350;    0.000
600.638; 4277.625;  198.350;    0.000
600.761; 4268.625;  195.350;    0.000
600.884; 4252.625;  221.350;    0.000
601.007; 4152.625;  236.350;    0.000
601.130; 4174.625;  223.350;    0.000
601.253; 4175.625;  250.350;    0.000
601.376; 4158.625;  195.350;    0.000
601.499; 4092.625;  168.350;    0.000
601.622; 4140.625;  221.350;    0.000
601.745; 4057.625;  223.350;    0.000
601.868; 4094.625;  204.350;    0.000
601.991; 4041.625;  207.350;    0.000
602.113; 3952.625;  223.350;    0.000
602.236; 3922.625;  182.350;    0.000
602.359; 3969.625;  235.350;    0.000
602.482; 3989.625;  173.350;    0.000
602.605; 3933.625;  227.350;    0.000
602.728; 3896.625;  227.350;    0.000
602.850; 3933.625;  250.350;    0.000
602.973; 3931.625;  195.350;    0.000
603.096; 3893.625;  270.350;    0.000
603.219; 3939.625;  197.350;    0.000
603.341; 3758.625;  195.350;    0.000
603.464; 3927.625;  204.350;    0.000
603.587; 3756.625;  243.350;    0.000
603.709; 3805.625;  188.350;    0.000
603.832; 3802.625;  214.350;    0.000
603.955; 3875.625;  213.350;    0.000
604.077; 3830.625;  201.350;    0.000
604.200; 3746.625;  209.350;    0.000
604.323; 3711.625;  201.350;    0.000
604.445; 3723.625;  202.350;    0.000
604.568; 3662.625;  230.350;    0.000
604.690; 3557.625;  212.350;    0.000
604.813; 3617.625;  226.350;    0.000
604.935; 3736.625;  216.350;    0.000
605.058; 3644.625;  182.350;    0.000
605.180; 3653.625;  204.350;    0.000
605.303; 3635.625;  199.350;    0.000
605.425; 3601.625;  178.350;    0.000
605.547; 3588.625;  209.350;    0.000
605.670; 3582.625;  206.350;    0.000
605.792; 3553.625;  199.350;    0.000
605.915; 3550.625;  221.350;    0.000
606.037; 3601.625;  222.350;    0.000
606.159; 3522.625;  160.350;    0.000
606.282; 3591.625;  188.350;    0.000
606.404; 3527.625;  205.350;    0.000
606.526; 3533.625;  228.350;    0.000
606.648; 3539.625;  184.350;    0.000
606.771; 3487.625;  195.350;    0.000
606.893; 3360.625;  193.350;    0.000
607.015; 3504.625;  202.350;    0.000
607.137; 3473.625;  189.350;    0.000
607.260; 3444.625;  201.350;    0.000
607.382; 3430.625;  211.350;    0.000
607.504; 3454.625;  206.350;    0.000
607.626; 3522.625;  236.350;    0.000
607.748; 3573.625;  228.350;    0.000
607.870; 3436.625;  212.350;    0.000
607.992; 3419.625;  201.350;    0.000
608.114; 3413.625;  214.350;    0.000
608.237; 3457.625;  235.350;    0.000
608.359; 3377.625;  215.350;    0.000
608.481; 3380.625;  183.350;    0.000
608.603; 3374.625;  206.350;    0.000
608.725; 3423.625;  238.350;    0.000
608.847; 3403.625;  237.350;    0.000
608.969; 3373.625;  227.350;    0.000
609.090; 3390.625;  205.350;    0.000
609.212; 3291.625;  182.350;    0.000
609.334; 3428.625;  210.350;    0.000
609.456; 3316.625;  208.350;    0.000
609.578; 3345.625;  195.350;    0.000
609.700; 3311.625;  196.350;    0.000
609.822; 3246.625;  184.350;    0.000
609.944; 3360.625;  258.350;    0.000
610.065; 3298.625;  219.350;    0.000
610.187; 3231.625;  217.350;    0.000
610.309; 3342.625;  179.350;    0.000
610.431; 3327.625;  189.350;    0.000
610.552; 3398.625;  212.350;    0.000
610.674; 3317.625;  211.350;    0.000
610.796; 3268.625;  168.350;    0.000
610.918; 3309.625;  201.350;    0.000
611.039; 3270.625;  212.350;    0.000
611.161; 3277.625;  207.350;    0.000
611.282; 3227.625;  219.350;    0.000
611.404; 3318.625;  243.350;    0.000
611.526; 3251.625;  180.350;    0.000
611.647; 3323.625;  235.350;    0.000
611.769; 3261.625;  189.350;    0.000
611.890; 3228.625;  201.350;    0.000
612.012; 3193.625;  191.350;    0.000
612.133; 3250.625;  227.350;    0.000
612.255; 3158.625;  191.350;    0.000
612.377; 3283.625;  192.350;    0.000
612.498; 3142.625;  202.350;    0.000
612.619; 3181.625;  207.350;    0.000
612.741; 3281.625;  241.350;    0.000
612.862; 3185.625;  219.350;    0.000
612.984; 3194.625;  203.350;    0.000
613.105; 3225.625;  228.350;    0.000
613.226; 3173.625;  199.350;    0.000
613.348; 3227.625;  238.350;    0.000
613.469; 3159.625;  239.350;    0.000
613.590; 3163.625;  183.350;    0.000
613.712; 3179.625;  245.350;    0.000
613.833; 3205.625;  241.350;    0.000
613.954; 3150.625;  208.350;    0.000
614.076; 3208.625;  181.350;    0.000
614.197; 3158.625;  217.350;    0.000
614.318; 3100.625;  182.350;    0.000
614.439; 3075.625;  204.350;    0.000
614.560; 3219.625;  219.350;    0.000
614.682; 3122.625;  238.350;    0.000
614.803; 3191.625;  240.350;    0.000
614.924; 3302.625;  212.350;    0.000
615.045; 3294.625;  225.350;    0.000
615.166; 3376.625;  227.350;    0.000
615.287; 3631.625;  230.350;    0.000
615.408; 4434.625;  187.350;    0.000
615.529; 4895.625;  211.350;    0.000
615.650; 4559.625;  202.350;    0.000
615.771; 4136.625;  203.350;    0.000
615.892; 4164.625;  222.350;    0.000
616.013; 5297.625;  215.350;    0.000
616.134; 6554.625;  193.350;    0.000
616.255; 6094.625;  242.350;    0.000
616.376; 5196.625;  205.350;    0.000
616.497; 4546.625;  200.350;    0.000
616.618; 4121.625;  177.350;    0.000
616.739; 3887.625;  218.350;    0.000
616.860; 3891.625;  214.350;    0.000
616.981; 3638.625;  208.350;    0.000
617.102; 3487.625;  203.350;    0.000
617.222; 3629.625;  212.350;    0.000
617.343; 3466.625;  162.350;    0.000
617.464; 3428.625;  230.350;    0.000
617.585; 3345.625;  197.350;    0.000
617.705; 3316.625;  209.350;    0.000
617.826; 3271.625;  229.350;    0.000
617.947; 3201.625;  216.350;    0.000
618.068; 3204.625;  192.350;    0.000
618.188; 3215.625;  230.350;    0.000
618.309; 3236.625;  238.350;    0.000
618.430; 3270.625;  242.350;    0.000
618.550; 3107.625;  235.350;    0.000
618.671; 3162.625;  207.350;    0.000
618.791; 3174.625;  228.350;    0.000
618.912; 3026.625;  266.350;    0.000
619.033; 3085.625;  232.350;    0.000
619.153; 3044.625;  207.350;    0.000
619.274; 3051.625;  193.350;    0.000
619.394; 3119.625;  237.350;    0.000
619.515; 2997.625;  216.350;    0.000
619.635; 3015.625;  203.350;    0.000
619.756; 3060.625;  227.350;    0.000
619.876; 3026.625;  244.350;    0.000
619.996; 3008.625;  220.350;    0.000
620.117; 3123.625;  231.350;    0.000
620.237; 3016.625;  235.350;    0.000
620.358; 3042.625;  241.350;    0.000
620.478; 2983.625;  237.350;    0.000
620.598; 3060.625;  255.350;    0.000
620.719; 2912.625;  243.350;    0.000
620.839; 2956.625;  237.350;    0.000
620.959; 2905.625;  216.350;    0.000
621.079; 2970.625;  240.350;    0.000
621.200; 2984.625;  195.350;    0.000
621.320; 2970.625;  287.350;    0.000
621.440; 2896.625;  236.350;    0.000
621.560; 2909.625;  231.350;    0.000
621.681; 2863.625;  177.350;    0.000
621.801; 2914.625;  257.350;    0.000
621.921; 2913.625;  241.350;    0.000
622.041; 2846.625;  239.350;    0.000
622.161; 2857.625;  233.350;    0.000
622.281; 2820.625;  204.350;    0.000
622.401; 2947.625;  204.350;    0.000
622.521; 2803.625;  242.350;    0.000
622.641; 2915.625;  205.350;    0.000
622.761; 2879.625;  254.350;    0.000
622.882; 2762.625;  225.350;    0.000
623.002; 2790.625;  255.350;    0.000
623.121; 2948.625;  244.350;    0.000
623.241; 2772.625;  238.350;    0.000
623.361; 2742.625;  208.350;    0.000
623.481; 2803.625;  194.350;    0.000
623.601; 2841.625;  249.350;    0.000
623.721; 2786.625;  229.350;    0.000
623.841; 2808.625;  244.350;    0.000
623.961; 2827.625;  253.350;    0.000
624.081; 2818.625;  218.350;    0.000
624.201; 2729.625;  218.350;    0.000
624.320; 2777.625;  212.350;    0.000
624.440; 2766.625;  251.350;    0.000
624.560; 2736.625;  244.350;    0.000
624.680; 2829.625;  224.350;    0.000
624.799; 2735.625;  198.350;    0.000
624.919; 2717.625;  215.350;    0.000
625.039; 2741.625;  225.350;    0.000
625.159; 2750.625;  209.350;    0.000
625.278; 2711.625;  211.350;    0.000
625.398; 2700.625;  260.350;    0.000
625.518; 2753.625;  205.350;    0.000
625.637; 2749.625;  240.350;    0.000
625.757; 2675.625;  208.350;    0.000
625.876; 2654.625;  221.350;    0.000
625.996; 2724.625;  245.350;    0.000
626.115; 2747.625;  196.350;    0.000
626.235; 2745.625;  241.350;    0.000
626.354; 2620.625;  231.350;    0.000
626.474; 2683.625;  220.350;    0.000
626.594; 2702.625;  210.350;    0.000
626.713; 2664.625;  229.350;    0.000
626.832; 2753.625;  236.350;    0.000
626.952; 2638.625;  223.350;    0.000
627.071; 2640.625;  211.350;    0.000
627.191; 2621.625;  220.350;    0.000
627.310; 2652.625;  206.350;    0.000
627.429; 2697.625;  223.350;    0.000
627.549; 2665.625;  205.350;    0.000
627.668; 2600.625;  227.350;    0.000
627.787; 2689.625;  221.350;    0.000
627.907; 2582.625;  194.350;    0.000
628.026; 2677.625;  231.350;    0.000
628.145; 2603.625;  210.350;    0.000
628.264; 2646.625;  245.350;    0.000
628.384; 2559.625;  234.350;    0.000
628.503; 2683.625;  210.350;    0.000
628.622; 2589.625;  223.350;    0.000
628.741; 2660.625;  210.350;    0.000
628.860; 2659.625;  222.350;    0.000
628.980; 2568.625;  184.350;    0.000
629.099; 2676.625;  234.350;    0.000
629.218; 2651.625;  157.350;    0.000
629.337; 2572.625;  220.350;    0.000
629.456; 2674.625;  210.350;    0.000
629.575; 2632.625;  239.350;    0.000
629.694; 2696.625;  216.350;    0.000
629.813; 2616.625;  218.350;    0.000
629.932; 2610.625;  175.350;    0.000
630.051; 2625.625;  218.350;    0.000
630.170; 2644.625;  215.350;    0.000
630.289; 2592.625;  203.350;    0.000
630.408; 2584.625;  180.350;    0.000
630.527; 2595.625;  249.350;    0.000
630.646; 2545.625;  186.350;    0.000
630.764; 2546.625;  189.350;    0.000
630.883; 2600.625;  221.350;    0.000
631.002; 2626.625;  191.350;    0.000
631.121; 2560.625;  210.350;    0.000
631.240; 2643.625;  256.350;    0.000
631.359; 2595.625;  246.350;    0.000
631.477; 2528.625;  230.350;    0.000
631.596; 2601.625;  229.350;    0.000
631.715; 2624.625;  242.350;    0.000
631.834; 2560.625;  261.350;    0.000
631.952; 2540.625;  250.350;    0.000
632.071; 2546.625;  218.350;    0.000
632.190; 2555.625;  200.350;    0.000
632.308; 2552.625;  226.350;    0.000
632.427; 2518.625;  234.350;    0.000
632.546; 2542.625;  250.350;    0.000
632.664; 2513.625;  224.350;    0.000
632.783; 2564.625;  211.350;    0.000
632.901; 2534.625;  254.350;    0.000
633.020; 2549.625;  204.350;    0.000
633.138; 2427.625;  228.350;    0.000
633.257; 2489.625;  219.350;    0.000
633.375; 2582.625;  243.350;    0.000
633.494; 2447.625;  242.350;    0.000
633.612; 2607.625;  227.350;    0.000
633.731; 2462.625;  221.350;    0.000
633.849; 2583.625;  239.350;    0.000
633.968; 2461.625;  219.350;    0.000
634.086; 2488.625;  218.350;    0.000
634.204; 2530.625;  203.350;    0.000
634.323; 2459.625;  222.350;    0.000
634.441; 2464.625;  257.350;    0.000
634.559; 2461.625;  201.350;    0.000
634.678; 2450.625;  214.350;    0.000
634.796; 2411.625;  207.350;    0.000
634.914; 2460.625;  226.350;    0.000
635.032; 2480.625;  250.350;    0.000
635.151; 2465.625;  228.350;    0.000
635.269; 2361.625;  188.350;    0.000
635.387; 2422.625;  247.350;    0.000
635.505; 2480.625;  250.350;    0.000
635.623; 2500.625;  230.350;    0.000
635.742; 2367.625;  209.350;    0.000
635.860; 2399.625;  239.350;    0.000
635.978; 2463.625;  213.350;    0.000
636.096; 2316.625;  176.350;    0.000
636.214; 2458.625;  246.350;    0.000
636.332; 2392.625;  224.350;    0.000
636.450; 2424.625;  215.350;    0.000
636.568; 2374.625;  246.350;    0.000
636.686; 2430.625;  225.350;    0.000
636.804; 2453.625;  218.350;    0.000
636.922; 2342.625;  195.350;    0.000
637.040; 2368.625;  213.350;    0.000
637.158; 2403.625;  228.350;    0.000
637.276; 2465.625;  206.350;    0.000
637.394; 2395.625;  224.350;    0.000
637.512; 2353.625;  245.350;    0.000
637.629; 2374.625;  234.350;    0.000
637.747; 2382.625;  233.350;    0.000
637.865; 2349.625;  236.350;    0.000
637.983; 2422.625;  235.350;    0.000
638.101; 2421.625;  232.350;    0.000
638.218; 2365.625;  256.350;    0.000
638.336; 2393.625;  216.350;    0.000
638.454; 2403.625;  255.350;    0.000
638.572; 2403.625;  237.350;    0.000
638.689; 2383.625;  271.350;    0.000
638.807; 2397.625;  243.350;    0.000
638.925; 2387.625;  259.350;    0.000
639.042; 2376.625;  185.350;    0.000
639.160; 2296.625;  250.350;    0.000
639.278; 2406.625;  207.350;    0.000
639.395; 2369.625;  243.350;    0.000
639.513; 2308.625;  235.350;    0.000
639.630; 2266.625;  230.350;    0.000
639.748; 2266.625;  192.350;    0.000
639.865; 2407.625;  219.350;    0.000
639.983; 2351.625;  183.350;    0.000
640.100; 2354.625;  251.350;    0.000
640.218; 2363.625;  246.350;    0.000
640.335; 2301.625;  227.350;    0.000
640.453; 2400.625;  259.350;    0.000
640.570; 2348.625;  251.350;    0.000
640.688; 2267.625;  223.350;    0.000
640.805; 2252.625;  246.350;    0.000
640.922; 2335.625;  249.350;    0.000
641.040; 2330.625;  257.350;    0.000
641.157; 2314.625;  207.350;    0.000
641.274; 2310.625;  241.350;    0.000
641.391; 2386.625;  246.350;    0.000
641.509; 2308.625;  216.350;    0.000
641.626; 2299.625;  252.350;    0.000
641.743; 2269.625;  215.350;    0.000
641.860; 2333.625;  234.350;    0.000
641.978; 2277.625;  216.350;    0.000
642.095; 2324.625;  247.350;    0.000
642.212; 2324.625;  199.350;    0.000
642.329; 2263.625;  237.350;    0.000
642.446; 2259.625;  222.350;    0.000
642.563; 2257.625;  287.350;    0.000
642.681; 2260.625;  261.350;    0.000
642.798; 2272.625;  251.350;    0.000
642.915; 2302.625;  238.350;    0.000
643.032; 2290.625;  246.350;    0.000
643.149; 2307.625;  239.350;    0.000
643.266; 2218.625;  238.350;    0.000
643.383; 2236.625;  231.350;    0.000
643.500; 2259.625;  212.350;    0.000
643.617; 2281.625;  236.350;    0.000
643.734; 2310.625;  239.350;    0.000
643.850; 2245.625;  234.350;    0.000
643.967; 2296.625;  253.350;    0.000
644.084; 2390.625;  253.350;    0.000
644.201; 2213.625;  227.350;    0.000
644.318; 2239.625;  247.350;    0.000
644.435; 2301.625;  264.350;    0.000
644.552; 2250.625;  230.350;    0.000
644.668; 2293.625;  250.350;    0.000
644.785; 2205.625;  235.350;    0.000
644.902; 2254.625;  227.350;    0.000
645.019; 2267.625;  203.350;    0.000
645.135; 2177.625;  210.350;    0.000
645.252; 2267.625;  206.350;    0.000
645.369; 2283.625;  235.350;    0.000
645.485; 2199.625;  223.350;    0.000
645.602; 2238.625;  205.350;    0.000
645.719; 2311.625;  222.350;    0.000
645.835; 2312.625;  246.350;    0.000
645.952; 2214.625;  239.350;    0.000
646.068; 2296.625;  225.350;    0.000
646.185; 2303.625;  248.350;    0.000
646.302; 2274.625;  226.350;    0.000
646.418; 2270.625;  228.350;    0.000
646.535; 2289.625;  219.350;    0.000
646.651; 2268.625;  204.350;    0.000
646.768; 2364.625;  247.350;    0.000
646.884; 2291.625;  228.350;    0.000
647.000; 2335.625;  223.350;    0.000
647.117; 2331.625;  251.350;    0.000
647.233; 2250.625;  223.350;    0.000
647.350; 2320.625;  237.350;    0.000
647.466; 2252.625;  223.350;    0.000
647.582; 2350.625;  243.350;    0.000
647.699; 2352.625;  223.350;    0.000
647.815; 2333.625;  215.350;    0.000
647.931; 2316.625;  214.350;    0.000
648.047; 2254.625;  199.350;    0.000
648.164; 2317.625;  233.350;    0.000
648.280; 2324.625;  231.350;    0.000
648.396; 2299.625;  215.350;    0.000
648.512; 2288.625;  252.350;    0.000
648.629; 2439.625;  237.350;    0.000
648.745; 2339.625;  216.350;    0.000
648.861; 2320.625;  207.350;    0.000
648.977; 2290.625;  247.350;    0.000
649.093; 2302.625;  221.350;    0.000
649.209; 2362.625;  232.350;    0.000
649.325; 2170.625;  245.350;    0.000
649.441; 2278.625;  253.350;    0.000
649.557; 2267.625;  221.350;    0.000
649.673; 2283.625;  182.350;    0.000
649.789; 2337.625;  245.350;    0.000
649.905; 2175.625;  204.350;    0.000
650.021; 2311.625;  270.350;    0.000
650.137; 2244.625;  218.350;    0.000
650.253; 2320.625;  268.350;    0.000
650.369; 2249.625;  222.350;    0.000
650.485; 2286.625;  215.350;    0.000
650.601; 2330.625;  218.350;    0.000
650.717; 2248.625;  208.350;    0.000
650.833; 2364.625;  263.350;    0.000
650.948; 2329.625;  266.350;    0.000
651.064; 2285.625;  271.350;    0.000
651.180; 2287.625;  232.350;    0.000
651.296; 2308.625;  237.350;    0.000
651.411; 2240.625;  233.350;    0.000
651.527; 2341.625;  232.350;    0.000
651.643; 2337.625;  259.350;    0.000
651.759; 2282.625;  257.350;    0.000
651.874; 2296.625;  216.350;    0.000
651.990; 2408.625;  234.350;    0.000
652.105; 2293.625;  195.350;    0.000
652.221; 2345.625;  245.350;    0.000
652.337; 2339.625;  210.350;    0.000
652.452; 2336.625;  259.350;    0.000
652.568; 2340.625;  202.350;    0.000
652.683; 2341.625;  233.350;    0.000
652.799; 2251.625;  230.350;    0.000
652.914; 2290.625;  198.350;    0.000
653.030; 2290.625;  203.350;    0.000
653.145; 2302.625;  228.350;    0.000
653.261; 2333.625;  244.350;    0.000
653.376; 2342.625;  214.350;    0.000
653.492; 2419.625;  246.350;    0.000
653.607; 2325.625;  241.350;    0.000
653.722; 2471.625;  257.350;    0.000
653.838; 2477.625;  265.350;    0.000
653.953; 2373.625;  252.350;    0.000
654.068; 2410.625;  270.350;    0.000
654.184; 2417.625;  248.350;    0.000
654.299; 2502.625;  226.350;    0.000
654.414; 2481.625;  190.350;    0.000
654.530; 2437.625;  263.350;    0.000
654.645; 2439.625;  240.350;    0.000
654.760; 2577.625;  243.350;    0.000
654.875; 2531.625;  210.350;    0.000
654.990; 2573.625;  250.350;    0.000
655.106; 2625.625;  277.350;    0.000
655.221; 2630.625;  249.350;    0.000
655.336; 2743.625;  239.350;    0.000
655.451; 2730.625;  226.350;    0.000
655.566; 2759.625;  236.350;    0.000
655.681; 2813.625;  272.350;    0.000
655.796; 2819.625;  224.350;    0.000
655.911; 2868.625;  247.350;    0.000
656.026; 2917.625;  240.350;    0.000
656.141; 2976.625;  239.350;    0.000
656.256; 3025.625;  241.350;    0.000
656.371; 3142.625;  213.350;    0.000
656.486; 3084.625;  275.350;    0.000
656.601; 3017.625;  225.350;    0.000
656.716; 2972.625;  239.350;    0.000
656.831; 2935.625;  260.350;    0.000
656.946; 2891.625;  250.350;    0.000
657.060; 2952.625;  257.350;    0.000
657.175; 2837.625;  256.350;    0.000
657.290; 2864.625;  255.350;    0.000
657.405; 2750.625;  303.350;    0.000
657.520; 2782.625;  272.350;    0.000
657.634; 2648.625;  268.350;    0.000
657.749; 2665.625;  261.350;    0.000
657.864; 2602.625;  235.350;    0.000
657.979; 2615.625;  257.350;    0.000
658.093; 2617.625;  243.350;    0.000
658.208; 2614.625;  281.350;    0.000
658.323; 2521.625;  240.350;    0.000
658.437; 2571.625;  285.350;    0.000
658.552; 2628.625;  262.350;    0.000
658.666; 2547.625;  269.350;    0.000
658.781; 2533.625;  244.350;    0.000
658.895; 2499.625;  259.350;    0.000
659.010; 2524.625;  254.350;    0.000
659.125; 2392.625;  210.350;    0.000
659.239; 2394.625;  212.350;    0.000
659.353; 2351.625;  269.350;    0.000
659.468; 2386.625;  269.350;    0.000
659.582; 2416.625;  244.350;    0.000
659.697; 2398.625;  262.350;    0.000
659.811; 2347.625;  271.350;    0.000
659.926; 2346.625;  232.350;    0.000
660.040; 2383.625;  250.350;    0.000
660.154; 2384.625;  209.350;    0.000
660.269; 2299.625;  212.350;    0.000
660.383; 2284.625;  237.350;    0.000
660.497; 2291.625;  231.350;    0.000
660.612; 2288.625;  232.350;    0.000
660.726; 2268.625;  276.350;    0.000
660.840; 2302.625;  235.350;    0.000
660.954; 2222.625;  224.350;    0.000
661.068; 2250.625;  241.350;    0.000
661.183; 2258.625;  223.350;    0.000
661.297; 2202.625;  255.350;    0.000
661.411; 2295.625;  223.350;    0.000
661.525; 2227.625;  249.350;    0.000
661.639; 2181.625;  264.350;    0.000
661.753; 2165.625;  225.350;    0.000
661.867; 2195.625;  245.350;    0.000
661.981; 2146.625;  225.350;    0.000
662.095; 2142.625;  262.350;    0.000
662.209; 2137.625;  225.350;    0.000
662.323; 2109.625;  228.350;    0.000
662.437; 2066.625;  230.350;    0.000
662.551; 2105.625;  234.350;    0.000
662.665; 2059.625;  212.350;    0.000
662.779; 2113.625;  254.350;    0.000
662.893; 2123.625;  269.350;    0.000
663.007; 2007.625;  196.350;    0.000
663.121; 2167.625;  262.350;    0.000
663.235; 2140.625;  263.350;    0.000
663.349; 2045.625;  242.350;    0.000
663.462; 2038.625;  234.350;    0.000
663.576; 2074.625;  219.350;    0.000
663.690; 2096.625;  234.350;    0.000
663.804; 1952.625;  205.350;    0.000
663.917; 2005.625;  224.350;    0.000
664.031; 1961.625;  208.350;    0.000
664.145; 1991.625;  241.350;    0.000
664.258; 2034.625;  188.350;    0.000
664.372; 2024.625;  214.350;    0.000
664.486; 1947.625;  203.350;    0.000
664.599; 1955.625;  217.350;    0.000
664.713; 2026.625;  286.350;    0.000
664.827; 2023.625;  199.350;    0.000
664.940; 1968.625;  250.350;    0.000
665.054; 1948.625;  261.350;    0.000
665.167; 1974.625;  258.350;    0.000
665.281; 2023.625;  234.350;    0.000
665.394; 1954.625;  213.350;    0.000
665.508; 2016.625;  222.350;    0.000
665.621; 1978.625;  254.350;    0.000
665.735; 2059.625;  252.350;    0.000
665.848; 2006.625;  248.350;    0.000
665.961; 1905.625;  234.350;    0.000
666.075; 1966.625;  262.350;    0.000
666.188; 2037.625;  270.350;    0.000
666.301; 1938.625;  237.350;    0.000
666.415; 1951.625;  245.350;    0.000
666.528; 2021.625;  248.350;    0.000
666.641; 1995.625;  210.350;    0.000
666.755; 1939.625;  218.350;    0.000
666.868; 1985.625;  224.350;    0.000
666.981; 1996.625;  244.350;    0.000
667.094; 1949.625;  279.350;    0.000
667.207; 1846.625;  190.350;    0.000
667.321; 1884.625;  210.350;    0.000
667.434; 1855.625;  205.350;    0.000
667.547; 1954.625;  253.350;    0.000
667.660; 1893.625;  243.350;    0.000
667.773; 1959.625;  242.350;    0.000
667.886; 1846.625;  218.350;    0.000
667.999; 1934.625;  226.350;    0.000
668.112; 1865.625;  258.350;    0.000
668.225; 1857.625;  243.350;    0.000
668.338; 1846.625;  224.350;    0.000
668.451; 1903.625;  250.350;    0.000
668.564; 1925.625;  260.350;    0.000
668.677; 1911.625;  204.350;    0.000
668.790; 1879.625;  229.350;    0.000
668.903; 1917.625;  269.350;    0.000
669.016; 1812.625;  228.350;    0.000
669.129; 1853.625;  253.350;    0.000
669.242; 1828.625;  245.350;    0.000
669.354; 1860.625;  234.350;    0.000
669.467; 1911.625;  256.350;    0.000
669.580; 1822.625;  223.350;    0.000
669.693; 1799.625;  252.350;    0.000
669.806; 1808.625;  212.350;    0.000
669.918; 1846.625;  228.350;    0.000
670.031; 1892.625;  265.350;    0.000
670.144; 1841.625;  255.350;    0.000
670.256; 1856.625;  229.350;    0.000
670.369; 1844.625;  301.350;    0.000
670.482; 1855.625;  263.350;    0.000
670.594; 1854.625;  246.350;    0.000
670.707; 1871.625;  255.350;    0.000
670.820; 1812.625;  256.350;    0.000
670.932; 1782.625;  210.350;    0.000
671.045; 1852.625;  249.350;    0.000
671.157; 1785.625;  254.350;    0.000
671.270; 1780.625;  265.350;    0.000
671.382; 1816.625;  219.350;    0.000
671.495; 1823.625;  242.350;    0.000
671.607; 1830.625;  266.350;    0.000
671.720; 1781.625;  238.350;    0.000
671.832; 1764.625;  220.350;    0.000
671.944; 1794.625;  251.350;    0.000
672.057; 1802.625;  232.350;    0.000
672.169; 1799.625;  240.350;    0.000
672.281; 1859.625;  270.350;    0.000
672.394; 1852.625;  257.350;    0.000
672.506; 1879.625;  247.350;    0.000
672.618; 1817.625;  229.350;    0.000
672.731; 1782.625;  227.350;    0.000
672.843; 1824.625;  282.350;    0.000
672.955; 1738.625;  262.350;    0.000
673.067; 1862.625;  277.350;    0.000
673.180; 1831.625;  280.350;    0.000
673.292; 1823.625;  241.350;    0.000
673.404; 1828.625;  234.350;    0.000
673.516; 1815.625;  224.350;    0.000
673.628; 1805.625;  272.350;    0.000
673.740; 1726.625;  249.350;    0.000
673.852; 1856.625;  288.350;    0.000
673.964; 1862.625;  278.350;    0.000
674.076; 1818.625;  273.350;    0.000
674.188; 1705.625;  251.350;    0.000
674.300; 1767.625;  244.350;    0.000
674.412; 1812.625;  267.350;    0.000
674.524; 1843.625;  276.350;    0.000
674.636; 1819.625;  234.350;    0.000
674.748; 1753.625;  267.350;    0.000
674.860; 1794.625;  255.350;    0.000
674.972; 1768.625;  253.350;    0.000
675.084; 1842.625;  253.350;    0.000
675.196; 1782.625;  300.350;    0.000
675.307; 1863.625;  307.350;    0.000
675.419; 1715.625;  245.350;    0.000
675.531; 1824.625;  292.350;    0.000
675.643; 1703.625;  244.350;    0.000
675.755; 1729.625;  265.350;    0.000
675.866; 1766.625;  281.350;    0.000
675.978; 1704.625;  266.350;    0.000
676.090; 1794.625;  267.350;    0.000
676.201; 1814.625;  265.350;    0.000
676.313; 1679.625;  222.350;    0.000
676.425; 1771.625;  248.350;    0.000
676.536; 1716.625;  234.350;    0.000
676.648; 1761.625;  261.350;    0.000
676.759; 1733.625;  280.350;    0.000
676.871; 1790.625;  260.350;    0.000
676.983; 1770.625;  277.350;    0.000
677.094; 1708.625;  252.350;    0.000
677.206; 1729.625;  238.350;    0.000
677.317; 1741.625;  269.350;    0.000
677.429; 1707.625;  245.350;    0.000
677.540; 1667.625;  244.350;    0.000
677.651; 1736.625;  225.350;    0.000
677.763; 1723.625;  216.350;    0.000
677.874; 1705.625;  226.350;    0.000
677.986; 1750.625;  234.350;    0.000
678.097; 1724.625;  237.350;    0.000
678.208; 1702.625;  278.350;    0.000
678.320; 1674.625;  243.350;    0.000
678.431; 1727.625;  248.350;    0.000
678.542; 1699.625;  240.350;    0.000
678.653; 1632.625;  250.350;    0.000
678.765; 1683.625;  258.350;    0.000
678.876; 1669.625;  221.350;    0.000
678.987; 1674.625;  229.350;    0.000
679.098; 1758.625;  233.350;    0.000
679.209; 1702.625;  274.350;    0.000
679.320; 1570.625;  216.350;    0.000
679.432; 1711.625;  246.350;    0.000
679.543; 1629.625;  226.350;    0.000
679.654; 1667.625;  232.350;    0.000
679.765; 1735.625;  246.350;    0.000
679.876; 1627.625;  263.350;    0.000
679.987; 1650.625;  216.350;    0.000
680.098; 1681.625;  262.350;    0.000
680.209; 1632.625;  219.350;    0.000
680.320; 1678.625;  232.350;    0.000
680.431; 1662.625;  261.350;    0.000
680.542; 1651.625;  219.350;    0.000
680.653; 1663.625;  238.350;    0.000
680.763; 1608.625;  191.350;    0.000
680.874; 1603.625;  267.350;    0.000
680.985; 1641.625;  240.350;    0.000
681.096; 1638.625;  251.350;    0.000
681.207; 1616.625;  232.350;    0.000
681.318; 1586.625;  211.350;    0.000
681.428; 1682.625;  233.350;    0.000
681.539; 1601.625;  197.350;    0.000
681.650; 1651.625;  197.350;    0.000
681.760; 1656.625;  243.350;    0.000
681.871; 1669.625;  245.350;    0.000
681.982; 1611.625;  218.350;    0.000
682.093; 1597.625;  262.350;    0.000
682.203; 1660.625;  250.350;    0.000
682.314; 1630.625;  239.350;    0.000
682.424; 1597.625;  250.350;    0.000
682.535; 1606.625;  206.350;    0.000
682.646; 1651.625;  302.350;    0.000
682.756; 1648.625;  258.350;    0.000
682.867; 1663.625;  265.350;    0.000
682.977; 1643.625;  218.350;    0.000
683.088; 1609.625;  264.350;    0.000
683.198; 1630.625;  236.350;    0.000
683.308; 1600.625;  246.350;    0.000
683.419; 1670.625;  296.350;    0.000
683.529; 1590.625;  242.350;    0.000
683.640; 1615.625;  245.350;    0.000
683.750; 1623.625;  213.350;    0.000
683.860; 1632.625;  256.350;    0.000
683.971; 1681.625;  251.350;    0.000
684.081; 1653.625;  232.350;    0.000
684.191; 1650.625;  252.350;    0.000
684.301; 1632.625;  214.350;    0.000
684.412; 1652.625;  261.350;    0.000
684.522; 1629.625;  243.350;    0.000
684.632; 1605.625;  257.350;    0.000
684.742; 1629.625;  271.350;    0.000
684.852; 1596.625;  258.350;    0.000
684.963; 1622.625;  262.350;    0.000
685.073; 1593.625;  219.350;    0.000
685.183; 1605.625;  270.350;    0.000
685.293; 1629.625;  233.350;    0.000
685.403; 1680.625;  274.350;    0.000
685.513; 1693.625;  280.350;    0.000
685.623; 1621.625;  267.350;    0.000
685.733; 1691.625;  274.350;    0.000
685.843; 1599.625;  274.350;    0.000
685.953; 1612.625;  244.350;    0.000
686.063; 1623.625;  261.350;    0.000
686.173; 1593.625;  283.350;    0.000
686.283; 1666.625;  260.350;    0.000
686.393; 1670.625;  256.350;    0.000
686.503; 1630.625;  295.350;    0.000
686.612; 1630.625;  294.350;    0.000
686.722; 1641.625;  263.350;    0.000
686.832; 1617.625;  291.350;    0.000
686.942; 1619.625;  229.350;    0.000
687.052; 1581.625;  241.350;    0.000
687.161; 1565.625;  304.350;    0.000
687.271; 1609.625;  223.350;    0.000
687.381; 1599.625;  273.350;    0.000
687.491; 1628.625;  246.350;    0.000
687.600; 1661.625;  242.350;    0.000
687.710; 1599.625;  225.350;    0.000
687.820; 1601.625;  259.350;    0.000
687.929; 1588.625;  232.350;    0.000
688.039; 1624.625;  248.350;    0.000
688.148; 1631.625;  250.350;    0.000
688.258; 1602.625;  240.350;    0.000
688.367; 1601.625;  253.350;    0.000
688.477; 1536.625;  229.350;    0.000
688.586; 1618.625;  259.350;    0.000
688.696; 1574.625;  250.350;    0.000
688.805; 1581.625;  279.350;    0.000
688.915; 1559.625;  250.350;    0.000
689.024; 1556.625;  240.350;    0.000
689.134; 1571.625;  269.350;    0.000
689.243; 1531.625;  214.350;    0.000
689.352; 1589.625;  257.350;    0.000
689.462; 1548.625;  248.350;    0.000
689.571; 1580.625;  233.350;    0.000
689.680; 1550.625;  236.350;    0.000
689.790; 1554.625;  238.350;    0.000
689.899; 1573.625;  232.350;    0.000
690.008; 1612.625;  259.350;    0.000
690.117; 1628.625;  254.350;    0.000
690.227; 1597.625;  251.350;    0.000
690.336; 1529.625;  240.350;    0.000
690.445; 1591.625;  235.350;    0.000
690.554; 1578.625;  243.350;    0.000
690.663; 1550.625;  214.350;    0.000
690.772; 1649.625;  247.350;    0.000
690.881; 1563.625;  249.350;    0.000
690.990; 1532.625;  265.350;    0.000
691.099; 1603.625;  217.350;    0.000
691.209; 1513.625;  272.350;    0.000
691.318; 1569.625;  223.350;    0.000
691.427; 1510.625;  212.350;    0.000
691.536; 1582.625;  260.350;    0.000
691.644; 1548.625;  246.350;    0.000
691.753; 1577.625;  251.350;    0.000
691.862; 1539.625;  239.350;    0.000
691.971; 1651.625;  253.350;    0.000
692.080; 1587.625;  255.350;    0.000
692.189; 1582.625;  228.350;    0.000
692.298; 1589.625;  243.350;    0.000
692.406; 1606.625;  269.350;    0.000
692.515; 1638.625;  254.350;    0.000
692.624; 1532.625;  225.350;    0.000
692.733; 1569.625;  245.350;    0.000
692.842; 1623.625;  259.350;    0.000
692.950; 1603.625;  226.350;    0.000
693.059; 1563.625;  216.350;    0.000
693.168; 1594.625;  266.350;    0.000
693.276; 1525.625;  236.350;    0.000
693.385; 1554.625;  257.350;    0.000
693.494; 1606.625;  268.350;    0.000
693.602; 1602.625;  239.350;    0.000
693.711; 1529.625;  224.350;    0.000
693.819; 1597.625;  263.350;    0.000
693.928; 1555.625;  270.350;    0.000
694.036; 1533.625;  247.350;    0.000
694.145; 1523.625;  261.350;    0.000
694.253; 1565.625;  261.350;    0.000
694.362; 1535.625;  253.350;    0.000
694.470; 1618.625;  270.350;    0.000
694.579; 1541.625;  233.350;    0.000
694.687; 1574.625;  260.350;    0.000
694.795; 1601.625;  228.350;    0.000
694.904; 1520.625;  228.350;    0.000
695.012; 1597.625;  288.350;    0.000
695.120; 1571.625;  230.350;    0.000
695.229; 1621.625;  287.350;    0.000
695.337; 1547.625;  249.350;    0.000
695.445; 1658.625;  283.350;    0.000
695.553; 1505.625;  251.350;    0.000
695.662; 1570.625;  236.350;    0.000
695.770; 1557.625;  267.350;    0.000
695.878; 1548.625;  268.350;    0.000
695.986; 1587.625;  297.350;    0.000
696.094; 1599.625;  275.350;    0.000
696.202; 1631.625;  201.350;    0.000
696.310; 1613.625;  283.350;    0.000
696.419; 1568.625;  261.350;    0.000
696.527; 1526.625;  252.350;    0.000
696.635; 1510.625;  249.350;    0.000
696.743; 1598.625;  236.350;    0.000
696.851; 1649.625;  241.350;    0.000
696.959; 1600.625;  278.350;    0.000
697.067; 1529.625;  239.350;    0.000
697.174; 1587.625;  260.350;    0.000
697.282; 1589.625;  259.350;    0.000
697.390; 1555.625;  302.350;    0.000
697.498; 1538.625;  216.350;    0.000
697.606; 1469.625;  245.350;    0.000
697.714; 1578.625;  279.350;    0.000
697.822; 1561.625;  267.350;    0.000
697.929; 1556.625;  234.350;    0.000
698.037; 1553.625;  255.350;    0.000
698.145; 1527.625;  226.350;    0.000
698.253; 1537.625;  261.350;    0.000
698.360; 1609.625;  299.350;    0.000
698.468; 1562.625;  254.350;    0.000
698.576; 1599.625;  307.350;    0.000
698.683; 1562.625;  280.350;    0.000
698.791; 1575.625;  284.350;    0.000
698.899; 1565.625;  279.350;    0.000
699.006; 1595.625;  264.350;    0.000
699.114; 1614.625;  263.350;    0.000
699.221; 1567.625;  291.350;    0.000
699.329; 1670.625;  309.350;    0.000
699.436; 1555.625;  261.350;    0.000
699.544; 1522.625;  259.350;    0.000
699.651; 1537.625;  251.350;    0.000
699.759; 1538.625;  251.350;    0.000
699.866; 1589.625;  266.350;    0.000
699.974; 1548.625;  264.350;    0.000
700.081; 1589.625;  295.350;    0.000
700.188; 1579.625;  293.350;    0.000
700.296; 1557.625;  233.350;    0.000
700.403; 1559.625;  290.350;    0.000
700.510; 1598.625;  275.350;    0.000
700.618; 1577.625;  273.350;    0.000
700.725; 1524.625;  262.350;    0.000
700.832; 1577.625;  250.350;    0.000
700.940; 1622.625;  300.350;    0.000
701.047; 1599.625;  245.350;    0.000
701.154; 1549.625;  280.350;    0.000
701.261; 1578.625;  270.350;    0.000
701.368; 1517.625;  286.350;    0.000
701.475; 1501.625;  301.350;    0.000
701.582; 1562.625;  286.350;    0.000
701.690; 1557.625;  279.350;    0.000
701.797; 1641.625;  292.350;    0.000
701.904; 1641.625;  314.350;    0.000
702.011; 1603.625;  340.350;    0.000
702.118; 1577.625;  276.350;    0.000
702.225; 1611.625;  351.350;    0.000
702.332; 1577.625;  301.350;    0.000
702.439; 1639.625;  334.350;    0.000
702.546; 1626.625;  325.350;    0.000
702.652; 1545.625;  343.350;    0.000
702.759; 1574.625;  339.350;    0.000
702.866; 1605.625;  344.350;    0.000
702.973; 1580.625;  330.350;    0.000
703.080; 1651.625;  322.350;    0.000
703.187; 1575.625;  327.350;    0.000
703.294; 1603.625;  339.350;    0.000
703.400; 1511.625;  325.350;    0.000
703.507;  456.625;  372.350;    0.000
703.614;  324.625;  348.350;    0.000
703.720;  342.625;  333.350;    0.000
703.827;  360.625;  331.350;    0.000
703.934;  300.625;  330.350;    0.000
704.040;  324.625;  327.350;    0.000
704.147;  332.625;  327.350;    0.000
704.254;  347.625;  354.350;    0.000
704.360;  310.625;  337.350;    0.000
704.467;  332.625;  370.350;    0.000
704.573;  334.625;  367.350;    0.000
704.680;  314.625;  339.350;    0.000
704.786;  342.625;  356.350;    0.000
704.893;  305.625;  352.350;    0.000
704.999;  336.625;  332.350;    0.000
705.106;  345.625;  359.350;    0.000

