
Integration time [ms]:   0.300
Averaging Nr. [scans]: 1
Smoothing Nr. [pixels]: 0
Data measured with spectrometer [name]: NIR
Wave   ;Sample   ;Dark     ;Reference
[nm]   ;[counts] ;[counts] ;[counts] 

691.496;  -16.950;  102.875;    0.000
691.696;   25.050;  181.875;    0.000
691.896;  -26.950;  138.875;    0.000
692.096;   11.050;  182.875;    0.000
692.296;  -50.950;  145.875;    0.000
692.496;   56.050;  154.875;    0.000
692.695;  -16.950;  108.875;    0.000
692.895;    9.050;  176.875;    0.000
693.095;  -43.950;  138.875;    0.000
693.295;   59.050;  192.875;    0.000
693.495;  -26.950;  170.875;    0.000
693.695;  -27.950;  147.875;    0.000
693.894;  -12.950;  191.875;    0.000
694.094;   21.050;  148.875;    0.000
694.294;   -5.950;  147.875;    0.000
694.494;  241.050;  140.875;    0.000
694.693; 2439.050;  137.875;    0.000
694.893; 2656.050;  141.875;    0.000
695.093; 2671.050;  105.875;    0.000
695.293; 2584.050;  115.875;    0.000
695.492; 2745.050;   81.875;    0.000
695.692; 2700.050;  162.875;    0.000
695.891; 2731.050;  162.875;    0.000
696.091; 2752.050;  166.875;    0.000
696.291; 2781.050;  143.875;    0.000
696.490; 2845.050;  170.875;    0.000
696.690; 2753.050;  142.875;    0.000
696.889; 2792.050;  186.875;    0.000
697.089; 2737.050;  120.875;    0.000
697.288; 2833.050;  215.875;    0.000
697.488; 2853.050;  178.875;    0.000
697.687; 2793.050;  170.875;    0.000
697.887; 2813.050;  140.875;    0.000
698.086; 2789.050;  131.875;    0.000
698.286; 2897.050;  117.875;    0.000
698.485; 2741.050;  136.875;    0.000
698.684; 2871.050;  126.875;    0.000
698.884; 2847.050;  161.875;    0.000
699.083; 2707.050;   95.875;    0.000
699.282; 2851.050;  120.875;    0.000
699.482; 2843.050;  131.875;    0.000
699.681; 2822.050;  168.875;    0.000
699.880; 2868.050;  154.875;    0.000
700.080; 2914.050;  149.875;    0.000
700.279; 2866.050;   99.875;    0.000
700.478; 2928.050;  157.875;    0.000
700.677; 2800.050;  111.875;    0.000
700.877; 2955.050;  126.875;    0.000
701.076; 3000.050;  142.875;    0.000
701.275; 2804.050;  107.875;    0.000
701.474; 2857.050;   72.875;    0.000
701.673; 2817.050;   87.875;    0.000
701.872; 2884.050;  170.875;    0.000
702.071; 2965.050;  136.875;    0.000
702.271; 2901.050;  121.875;    0.000
702.470; 2993.050;  139.875;    0.000
702.669; 2869.050;  121.875;    0.000
702.868; 2869.050;  146.875;    0.000
703.067; 2967.050;  159.875;    0.000
703.266; 2995.050;  122.875;    0.000
703.465; 3031.050;  121.875;    0.000
703.664; 3021.050;  144.875;    0.000
703.863; 3001.050;  140.875;    0.000
704.062; 2924.050;  109.875;    0.000
704.260; 3006.050;  164.875;    0.000
704.459; 2948.050;  124.875;    0.000
704.658; 2941.050;  109.875;    0.000
704.857; 3001.050;  149.875;    0.000
705.056; 3039.050;  112.875;    0.000
705.255; 2988.050;   95.875;    0.000
705.454; 2937.050;  105.875;    0.000
705.652; 3001.050;  134.875;    0.000
705.851; 2979.050;   92.875;    0.000
706.050; 3116.050;  127.875;    0.000
706.249; 3053.050;  111.875;    0.000
706.447; 2969.050;   98.875;    0.000
706.646; 2973.050;  108.875;    0.000
706.845; 3012.050;   95.875;    0.000
707.043; 3097.050;   95.875;    0.000
707.242; 2945.050;   97.875;    0.000
707.441; 3163.050;  142.875;    0.000
707.639; 3103.050;  121.875;    0.000
707.838; 3091.050;  141.875;    0.000
708.037; 3107.050;  125.875;    0.000
708.235; 3143.050;  100.875;    0.000
708.434; 3018.050;  106.875;    0.000
708.632; 3114.050;   86.875;    0.000
708.831; 3148.050;  138.875;    0.000
709.029; 3184.050;   86.875;    0.000
709.228; 3138.050;  103.875;    0.000
709.426; 3162.050;  146.875;    0.000
709.625; 3144.050;  136.875;    0.000
709.823; 3109.050;  114.875;    0.000
710.022; 3139.050;  144.875;    0.000
710.220; 3210.050;  109.875;    0.000
710.418; 3220.050;  116.875;    0.000
710.617; 3177.050;   67.875;    0.000
710.815; 3195.050;  104.875;    0.000
711.013; 3128.050;  109.875;    0.000
711.212; 3216.050;  106.875;    0.000
711.410; 3233.050;   95.875;    0.000
711.608; 3181.050;  155.875;    0.000
711.807; 3162.050;  103.875;    0.000
712.005; 3223.050;  104.875;    0.000
712.203; 3247.050;   94.875;    0.000
712.401; 3293.050;  125.875;    0.000
712.599; 3365.050;  127.875;    0.000
712.798; 3164.050;  141.875;    0.000
712.996; 3284.050;   85.875;    0.000
713.194; 3278.050;   96.875;    0.000
713.392; 3247.050;   54.875;    0.000
713.590; 3353.050;  123.875;    0.000
713.788; 3415.050;  130.875;    0.000
713.986; 3441.050;  104.875;    0.000
714.184; 3438.050;   91.875;    0.000
714.382; 3372.050;  120.875;    0.000
714.580; 3403.050;   71.875;    0.000
714.778; 3432.050;   92.875;    0.000
714.976; 3591.050;  129.875;    0.000
715.174; 3540.050;   99.875;    0.000
715.372; 3653.050;  119.875;    0.000
715.570; 3676.050;   95.875;    0.000
715.768; 4019.050;  113.875;    0.000
715.966; 3968.050;   64.875;    0.000
716.164; 4043.050;  135.875;    0.000
716.362; 3943.050;  125.875;    0.000
716.560; 3895.050;  135.875;    0.000
716.758; 3738.050;   84.875;    0.000
716.955; 3735.050;  109.875;    0.000
717.153; 3662.050;   73.875;    0.000
717.351; 3696.050;  110.875;    0.000
717.549; 3674.050;  149.875;    0.000
717.746; 3590.050;  121.875;    0.000
717.944; 3692.050;  128.875;    0.000
718.142; 3620.050;  124.875;    0.000
718.340; 3643.050;   96.875;    0.000
718.537; 3510.050;  138.875;    0.000
718.735; 3630.050;  144.875;    0.000
718.933; 3631.050;   97.875;    0.000
719.130; 3595.050;  109.875;    0.000
719.328; 3634.050;  123.875;    0.000
719.525; 3686.050;  118.875;    0.000
719.723; 3808.050;  117.875;    0.000
719.920; 3458.050;   72.875;    0.000
720.118; 3542.050;   92.875;    0.000
720.316; 3644.050;  141.875;    0.000
720.513; 3458.050;   98.875;    0.000
720.711; 3729.050;  146.875;    0.000
720.908; 3634.050;  113.875;    0.000
721.105; 3616.050;  157.875;    0.000
721.303; 3713.050;  106.875;    0.000
721.500; 3688.050;   88.875;    0.000
721.698; 3723.050;   88.875;    0.000
721.895; 3680.050;   94.875;    0.000
722.092; 3773.050;   82.875;    0.000
722.290; 3685.050;  136.875;    0.000
722.487; 3707.050;   67.875;    0.000
722.684; 3740.050;  115.875;    0.000
722.882; 3611.050;  104.875;    0.000
723.079; 3623.050;  122.875;    0.000
723.276; 3585.050;   91.875;    0.000
723.473; 3652.050;   89.875;    0.000
723.671; 3557.050;   97.875;    0.000
723.868; 3724.050;  117.875;    0.000
724.065; 3630.050;  102.875;    0.000
724.262; 3625.050;  137.875;    0.000
724.459; 3705.050;   48.875;    0.000
724.656; 3641.050;  122.875;    0.000
724.854; 3741.050;   96.875;    0.000
725.051; 3586.050;  120.875;    0.000
725.248; 3655.050;  146.875;    0.000
725.445; 3743.050;  117.875;    0.000
725.642; 3653.050;  106.875;    0.000
725.839; 3739.050;  143.875;    0.000
726.036; 3742.050;   79.875;    0.000
726.233; 3680.050;   90.875;    0.000
726.430; 3812.050;  124.875;    0.000
726.627; 3775.050;   98.875;    0.000
726.824; 3714.050;   91.875;    0.000
727.021; 3748.050;  131.875;    0.000
727.218; 3843.050;  110.875;    0.000
727.414; 3801.050;   83.875;    0.000
727.611; 3752.050;   86.875;    0.000
727.808; 3762.050;  131.875;    0.000
728.005; 3775.050;  105.875;    0.000
728.202; 3736.050;  128.875;    0.000
728.399; 3815.050;  113.875;    0.000
728.595; 3785.050;  102.875;    0.000
728.792; 3784.050;   91.875;    0.000
728.989; 3906.050;  122.875;    0.000
729.186; 3813.050;  103.875;    0.000
729.382; 3770.050;  106.875;    0.000
729.579; 3823.050;  114.875;    0.000
729.776; 3819.050;  115.875;    0.000
729.972; 3826.050;  108.875;    0.000
730.169; 3857.050;  111.875;    0.000
730.366; 3852.050;  100.875;    0.000
730.562; 3864.050;   86.875;    0.000
730.759; 3850.050;   93.875;    0.000
730.955; 3896.050;  127.875;    0.000
731.152; 3819.050;   99.875;    0.000
731.348; 3861.050;   97.875;    0.000
731.545; 3905.050;   98.875;    0.000
731.741; 3858.050;  130.875;    0.000
731.938; 3913.050;  115.875;    0.000
732.134; 3680.050;  107.875;    0.000
732.331; 3871.050;   80.875;    0.000
732.527; 3893.050;  108.875;    0.000
732.724; 3832.050;  104.875;    0.000
732.920; 3859.050;  109.875;    0.000
733.116; 3821.050;  117.875;    0.000
733.313; 3868.050;   81.875;    0.000
733.509; 3925.050;   87.875;    0.000
733.705; 3947.050;  143.875;    0.000
733.902; 3932.050;   74.875;    0.000
734.098; 3975.050;   90.875;    0.000
734.294; 3869.050;  104.875;    0.000
734.490; 3983.050;  139.875;    0.000
734.687; 3954.050;  113.875;    0.000
734.883; 3983.050;   72.875;    0.000
735.079; 3890.050;  100.875;    0.000
735.275; 4025.050;  113.875;    0.000
735.471; 4018.050;   55.875;    0.000
735.667; 3994.050;  106.875;    0.000
735.863; 4000.050;  131.875;    0.000
736.060; 3992.050;  127.875;    0.000
736.256; 4033.050;   76.875;    0.000
736.452; 3972.050;  127.875;    0.000
736.648; 3944.050;  136.875;    0.000
736.844; 4105.050;  113.875;    0.000
737.040; 4157.050;  125.875;    0.000
737.236; 3989.050;   99.875;    0.000
737.432; 4065.050;   75.875;    0.000
737.628; 4025.050;  155.875;    0.000
737.824; 4103.050;  116.875;    0.000
738.019; 4111.050;   92.875;    0.000
738.215; 4045.050;  113.875;    0.000
738.411; 4143.050;  135.875;    0.000
738.607; 4027.050;   53.875;    0.000
738.803; 4114.050;   79.875;    0.000
738.999; 4216.050;  117.875;    0.000
739.195; 4235.050;  106.875;    0.000
739.390; 4252.050;  125.875;    0.000
739.586; 4194.050;  102.875;    0.000
739.782; 4268.050;  125.875;    0.000
739.978; 4249.050;  124.875;    0.000
740.173; 4284.050;   96.875;    0.000
740.369; 4255.050;  118.875;    0.000
740.565; 4382.050;  128.875;    0.000
740.760; 4289.050;  118.875;    0.000
740.956; 4301.050;  109.875;    0.000
741.152; 4365.050;  151.875;    0.000
741.347; 4368.050;  112.875;    0.000
741.543; 4404.050;  113.875;    0.000
741.738; 4477.050;  128.875;    0.000
741.934; 4621.050;  144.875;    0.000
742.129; 4639.050;  105.875;    0.000
742.325; 5199.050;  137.875;    0.000
742.520; 5665.050;  128.875;    0.000
742.716; 5409.050;  121.875;    0.000
742.911; 5193.050;   75.875;    0.000
743.107; 5046.050;  100.875;    0.000
743.302; 5034.050;   72.875;    0.000
743.498; 4997.050;  137.875;    0.000
743.693; 5107.050;  124.875;    0.000
743.888; 5471.050;  121.875;    0.000
744.084; 5914.050;   93.875;    0.000
744.279; 7000.050;   75.875;    0.000
744.474; 7179.050;  136.875;    0.000
744.670; 6562.050;  109.875;    0.000
744.865; 6138.050;  142.875;    0.000
745.060; 5784.050;   84.875;    0.000
745.255; 5675.050;  149.875;    0.000
745.451; 5446.050;  101.875;    0.000
745.646; 5440.050;  132.875;    0.000
745.841; 5416.050;  126.875;    0.000
746.036; 5537.050;  125.875;    0.000
746.231; 5560.050;  150.875;    0.000
746.426; 5730.050;  118.875;    0.000
746.622; 6531.050;  135.875;    0.000
746.817; 8017.050;  122.875;    0.000
747.012; 9011.050;  134.875;    0.000
747.207; 8219.050;  124.875;    0.000
747.402; 7522.050;  122.875;    0.000
747.597; 7018.050;   95.875;    0.000
747.792; 6601.050;  168.875;    0.000
747.987; 6340.050;  110.875;    0.000
748.182; 6308.050;  119.875;    0.000
748.377; 6014.050;   70.875;    0.000
748.572; 5810.050;  113.875;    0.000
748.767; 5733.050;  123.875;    0.000
748.961; 5601.050;  110.875;    0.000
749.156; 5519.050;  135.875;    0.000
749.351; 5234.050;   98.875;    0.000
749.546; 5316.050;  126.875;    0.000
749.741; 5265.050;  129.875;    0.000
749.936; 5257.050;   86.875;    0.000
750.130; 5174.050;   97.875;    0.000
750.325; 5158.050;  110.875;    0.000
750.520; 5037.050;  120.875;    0.000
750.715; 5059.050;  122.875;    0.000
750.909; 5119.050;  120.875;    0.000
751.104; 4924.050;  118.875;    0.000
751.299; 4996.050;  122.875;    0.000
751.493; 5025.050;  129.875;    0.000
751.688; 4914.050;  138.875;    0.000
751.882; 4908.050;   87.875;    0.000
752.077; 4951.050;  142.875;    0.000
752.272; 4815.050;  110.875;    0.000
752.466; 4895.050;  154.875;    0.000
752.661; 4842.050;   96.875;    0.000
752.855; 4711.050;   93.875;    0.000
753.050; 4564.050;  122.875;    0.000
753.244; 4858.050;  110.875;    0.000
753.439; 4668.050;  116.875;    0.000
753.633; 4738.050;  131.875;    0.000
753.828; 4604.050;  130.875;    0.000
754.022; 4671.050;   96.875;    0.000
754.216; 4542.050;  114.875;    0.000
754.411; 4507.050;  145.875;    0.000
754.605; 4550.050;   65.875;    0.000
754.799; 4529.050;  116.875;    0.000
754.994; 4528.050;  117.875;    0.000
755.188; 4648.050;  124.875;    0.000
755.382; 4388.050;   80.875;    0.000
755.576; 4498.050;   90.875;    0.000
755.771; 4423.050;  115.875;    0.000
755.965; 4359.050;  106.875;    0.000
756.159; 4461.050;   87.875;    0.000
756.353; 4551.050;  125.875;    0.000
756.547; 4424.050;  146.875;    0.000
756.742; 4442.050;  111.875;    0.000
756.936; 4436.050;  108.875;    0.000
757.130; 4533.050;  101.875;    0.000
757.324; 4510.050;  114.875;    0.000
757.518; 4469.050;  136.875;    0.000
757.712; 4498.050;  123.875;    0.000
757.906; 4615.050;  115.875;    0.000
758.100; 4575.050;  186.875;    0.000
758.294; 4506.050;  118.875;    0.000
758.488; 4409.050;  167.875;    0.000
758.682; 4446.050;  137.875;    0.000
758.876; 4476.050;  135.875;    0.000
759.070; 4470.050;  132.875;    0.000
759.264; 4466.050;  118.875;    0.000
759.458; 4367.050;  111.875;    0.000
759.651; 4332.050;  142.875;    0.000
759.845; 4467.050;  105.875;    0.000
760.039; 4394.050;   73.875;    0.000
760.233; 4630.050;  156.875;    0.000
760.427; 4418.050;  119.875;    0.000
760.620; 4449.050;  136.875;    0.000
760.814; 4394.050;  126.875;    0.000
761.008; 4498.050;  126.875;    0.000
761.202; 4410.050;  123.875;    0.000
761.395; 4400.050;  141.875;    0.000
761.589; 4589.050;  107.875;    0.000
761.783; 4324.050;  122.875;    0.000
761.976; 4570.050;  120.875;    0.000
762.170; 4436.050;  147.875;    0.000
762.363; 4371.050;  144.875;    0.000
762.557; 4497.050;  119.875;    0.000
762.750; 4487.050;  118.875;    0.000
762.944; 4504.050;  145.875;    0.000
763.138; 4507.050;  123.875;    0.000
763.331; 4554.050;  129.875;    0.000
763.524; 4597.050;  109.875;    0.000
763.718; 4590.050;  150.875;    0.000
763.911; 4463.050;  140.875;    0.000
764.105; 4564.050;   97.875;    0.000
764.298; 4496.050;  128.875;    0.000
764.492; 4579.050;  132.875;    0.000
764.685; 4460.050;   92.875;    0.000
764.878; 4526.050;  111.875;    0.000
765.072; 4453.050;  116.875;    0.000
765.265; 4517.050;  135.875;    0.000
765.458; 4562.050;   69.875;    0.000
765.651; 4483.050;  145.875;    0.000
765.845; 4506.050;   95.875;    0.000
766.038; 4555.050;  147.875;    0.000
766.231; 4639.050;  119.875;    0.000
766.424; 5076.050;  126.875;    0.000
766.617; 5182.050;   92.875;    0.000
766.811; 4562.050;  109.875;    0.000
767.004; 4578.050;  107.875;    0.000
767.197; 4730.050;  171.875;    0.000
767.390; 4447.050;  114.875;    0.000
767.583; 4536.050;  109.875;    0.000
767.776; 4556.050;  130.875;    0.000
767.969; 4592.050;  103.875;    0.000
768.162; 4660.050;  139.875;    0.000
768.355; 4644.050;  142.875;    0.000
768.548; 4719.050;  140.875;    0.000
768.741; 4685.050;   82.875;    0.000
768.934; 4681.050;  107.875;    0.000
769.127; 4787.050;  121.875;    0.000
769.320; 4675.050;  106.875;    0.000
769.513; 4684.050;  145.875;    0.000
769.706; 4829.050;  120.875;    0.000
769.898; 5199.050;  135.875;    0.000
770.091; 5122.050;  146.875;    0.000
770.284; 4868.050;  108.875;    0.000
770.477; 4869.050;  148.875;    0.000
770.670; 4943.050;  163.875;    0.000
770.862; 4876.050;   97.875;    0.000
771.055; 4988.050;  116.875;    0.000
771.248; 5083.050;  143.875;    0.000
771.441; 5045.050;  125.875;    0.000
771.633; 4948.050;  125.875;    0.000
771.826; 5091.050;  132.875;    0.000
772.018; 5079.050;  123.875;    0.000
772.211; 5162.050;  143.875;    0.000
772.404; 5213.050;  144.875;    0.000
772.596; 5329.050;  130.875;    0.000
772.789; 5150.050;  109.875;    0.000
772.981; 5280.050;  151.875;    0.000
773.174; 5412.050;  119.875;    0.000
773.366; 5393.050;  179.875;    0.000
773.559; 5459.050;  106.875;    0.000
773.751; 5512.050;  120.875;    0.000
773.944; 5679.050;  159.875;    0.000
774.136; 5733.050;  131.875;    0.000
774.329; 5811.050;  141.875;    0.000
774.521; 6044.050;  114.875;    0.000
774.713; 6111.050;  169.875;    0.000
774.906; 6184.050;  151.875;    0.000
775.098; 6453.050;   99.875;    0.000
775.290; 6788.050;  166.875;    0.000
775.483; 7197.050;  146.875;    0.000
775.675; 7384.050;  106.875;    0.000
775.867; 7993.050;   91.875;    0.000
776.059; 8533.050;  137.875;    0.000
776.251; 9335.050;  124.875;    0.000
776.444;10307.050;  168.875;    0.000
776.636;12031.050;  138.875;    0.000
776.828;14783.050;  155.875;    0.000
777.020;20621.051;  160.875;    0.000
777.212;30032.051;  153.875;    0.000
777.404;33624.051;  135.875;    0.000
777.596;31474.051;  144.875;    0.000
777.788;23402.051;  127.875;    0.000
777.980;18001.051;  141.875;    0.000
778.172;14711.050;  138.875;    0.000
778.364;12807.050;  143.875;    0.000
778.556;11378.050;  123.875;    0.000
778.748;10430.050;  103.875;    0.000
778.940; 9587.050;  176.875;    0.000
779.132; 8746.050;  144.875;    0.000
779.324; 8236.050;   75.875;    0.000
779.516; 7698.050;  117.875;    0.000
779.708; 7468.050;  151.875;    0.000
779.900; 7048.050;  127.875;    0.000
780.091; 6744.050;  155.875;    0.000
780.283; 6549.050;  157.875;    0.000
780.475; 6314.050;  140.875;    0.000
780.667; 6191.050;  141.875;    0.000
780.859; 6039.050;  113.875;    0.000
781.050; 5909.050;  153.875;    0.000
781.242; 5731.050;  118.875;    0.000
781.434; 5578.050;  121.875;    0.000
781.625; 5674.050;  146.875;    0.000
781.817; 5446.050;  154.875;    0.000
782.008; 5411.050;  144.875;    0.000
782.200; 5432.050;  152.875;    0.000
782.392; 5280.050;  160.875;    0.000
782.583; 5200.050;  122.875;    0.000
782.775; 5042.050;  144.875;    0.000
782.966; 5032.050;  143.875;    0.000
783.158; 5017.050;  125.875;    0.000
783.349; 4929.050;  173.875;    0.000
783.541; 4879.050;  166.875;    0.000
783.732; 4912.050;  163.875;    0.000
783.924; 4819.050;  157.875;    0.000
784.115; 4753.050;  158.875;    0.000
784.306; 4827.050;  160.875;    0.000
784.498; 4780.050;  132.875;    0.000
784.689; 4659.050;  181.875;    0.000
784.880; 4606.050;  156.875;    0.000
785.072; 4599.050;  134.875;    0.000
785.263; 4610.050;  155.875;    0.000
785.454; 4589.050;  141.875;    0.000
785.645; 4428.050;  114.875;    0.000
785.837; 4534.050;  137.875;    0.000
786.028; 4472.050;  158.875;    0.000
786.219; 4580.050;  135.875;    0.000
786.410; 4583.050;  152.875;    0.000
786.601; 4539.050;  132.875;    0.000
786.792; 4386.050;  152.875;    0.000
786.984; 4479.050;  162.875;    0.000
787.175; 4373.050;   97.875;    0.000
787.366; 4460.050;  129.875;    0.000
787.557; 4382.050;  135.875;    0.000
787.748; 4454.050;  127.875;    0.000
787.939; 4448.050;  152.875;    0.000
788.130; 4367.050;  182.875;    0.000
788.321; 4399.050;  130.875;    0.000
788.512; 4478.050;  161.875;    0.000
788.703; 4450.050;  127.875;    0.000
788.894; 4419.050;  121.875;    0.000
789.084; 4440.050;  134.875;    0.000
789.275; 4406.050;  108.875;    0.000
789.466; 4424.050;  152.875;    0.000
789.657; 4394.050;  115.875;    0.000
789.848; 4386.050;  150.875;    0.000
790.039; 4381.050;  132.875;    0.000
790.229; 4380.050;  169.875;    0.000
790.420; 4501.050;  159.875;    0.000
790.611; 4424.050;  123.875;    0.000
790.801; 4362.050;  144.875;    0.000
790.992; 4439.050;  177.875;    0.000
791.183; 4485.050;  128.875;    0.000
791.373; 4367.050;  123.875;    0.000
791.564; 4435.050;  131.875;    0.000
791.755; 4508.050;  103.875;    0.000
791.945; 4430.050;  104.875;    0.000
792.136; 4461.050;  115.875;    0.000
792.326; 4452.050;   99.875;    0.000
792.517; 4548.050;  139.875;    0.000
792.707; 4507.050;  155.875;    0.000
792.898; 4480.050;  139.875;    0.000
793.088; 4609.050;  153.875;    0.000
793.279; 4631.050;  137.875;    0.000
793.469; 4605.050;  109.875;    0.000
793.660; 4726.050;  119.875;    0.000
793.850; 4895.050;  119.875;    0.000
794.040; 4957.050;  132.875;    0.000
794.231; 5236.050;  122.875;    0.000
794.421; 5615.050;  124.875;    0.000
794.611; 6034.050;  151.875;    0.000
794.802; 6876.050;  121.875;    0.000
794.992; 7283.050;  139.875;    0.000
795.182; 7439.050;  132.875;    0.000
795.372; 7084.050;  149.875;    0.000
795.563; 6436.050;  153.875;    0.000
795.753; 5977.050;  120.875;    0.000
795.943; 5580.050;  121.875;    0.000
796.133; 5340.050;   97.875;    0.000
796.323; 5215.050;  122.875;    0.000
796.513; 5185.050;  142.875;    0.000
796.703; 4983.050;  125.875;    0.000
796.893; 4967.050;  126.875;    0.000
797.083; 4905.050;  150.875;    0.000
797.273; 4720.050;  108.875;    0.000
797.463; 4725.050;  156.875;    0.000
797.653; 4544.050;   80.875;    0.000
797.843; 4610.050;   88.875;    0.000
798.033; 4609.050;   96.875;    0.000
798.223; 4521.050;  159.875;    0.000
798.413; 4359.050;  155.875;    0.000
798.603; 4353.050;  125.875;    0.000
798.793; 4394.050;  141.875;    0.000
798.983; 4245.050;  113.875;    0.000
799.172; 4313.050;   85.875;    0.000
799.362; 4312.050;  141.875;    0.000
799.552; 4341.050;  122.875;    0.000
799.742; 4354.050;  124.875;    0.000
799.932; 4359.050;  102.875;    0.000
800.121; 4249.050;  146.875;    0.000
800.311; 4165.050;  122.875;    0.000
800.501; 4215.050;  120.875;    0.000
800.690; 4256.050;  141.875;    0.000
800.880; 4278.050;  146.875;    0.000
801.070; 4317.050;  122.875;    0.000
801.259; 4257.050;  138.875;    0.000
801.449; 4246.050;  115.875;    0.000
801.638; 4247.050;  132.875;    0.000
801.828; 4308.050;   92.875;    0.000
802.017; 4299.050;  150.875;    0.000
802.207; 4113.050;  134.875;    0.000
802.396; 4212.050;  133.875;    0.000
802.586; 4160.050;  117.875;    0.000
802.775; 4197.050;  155.875;    0.000
802.965; 4146.050;  132.875;    0.000
803.154; 4239.050;  176.875;    0.000
803.343; 4193.050;  106.875;    0.000
803.533; 4207.050;  154.875;    0.000
803.722; 4161.050;   97.875;    0.000
803.911; 4134.050;  107.875;    0.000
804.101; 4162.050;  145.875;    0.000
804.290; 4253.050;  130.875;    0.000
804.479; 4206.050;  152.875;    0.000
804.668; 4245.050;  160.875;    0.000
804.857; 4240.050;  161.875;    0.000
805.047; 4154.050;  126.875;    0.000
805.236; 4187.050;  136.875;    0.000
805.425; 4344.050;  153.875;    0.000
805.614; 4305.050;  139.875;    0.000
805.803; 4319.050;  144.875;    0.000
805.992; 4276.050;  160.875;    0.000
806.181; 4328.050;  139.875;    0.000
806.370; 4299.050;  104.875;    0.000
806.559; 4297.050;  103.875;    0.000
806.748; 4390.050;  145.875;    0.000
806.937; 4409.050;  151.875;    0.000
807.126; 4407.050;  119.875;    0.000
807.315; 4410.050;  139.875;    0.000
807.504; 4361.050;  143.875;    0.000
807.693; 4576.050;  164.875;    0.000
807.882; 4375.050;  135.875;    0.000
808.071; 4502.050;  131.875;    0.000
808.260; 4524.050;  113.875;    0.000
808.448; 4529.050;  161.875;    0.000
808.637; 4549.050;  125.875;    0.000
808.826; 4498.050;  155.875;    0.000
809.015; 4576.050;  113.875;    0.000
809.203; 4597.050;  152.875;    0.000
809.392; 4591.050;   90.875;    0.000
809.581; 4749.050;  186.875;    0.000
809.770; 4694.050;   99.875;    0.000
809.958; 4777.050;  146.875;    0.000
810.147; 4837.050;  115.875;    0.000
810.335; 5076.050;  122.875;    0.000
810.524; 4885.050;  150.875;    0.000
810.713; 4944.050;  121.875;    0.000
810.901; 5143.050;  156.875;    0.000
811.090; 5071.050;  161.875;    0.000
811.278; 5319.050;  138.875;    0.000
811.467; 5285.050;  184.875;    0.000
811.655; 5489.050;  150.875;    0.000
811.844; 5486.050;  137.875;    0.000
812.032; 5580.050;  142.875;    0.000
812.220; 5530.050;  134.875;    0.000
812.409; 5505.050;  143.875;    0.000
812.597; 5791.050;  164.875;    0.000
812.785; 5830.050;  188.875;    0.000
812.974; 5823.050;  156.875;    0.000
813.162; 5976.050;  166.875;    0.000
813.350; 6069.050;  115.875;    0.000
813.539; 5908.050;  167.875;    0.000
813.727; 6036.050;  165.875;    0.000
813.915; 6202.050;  137.875;    0.000
814.103; 6423.050;  166.875;    0.000
814.291; 6525.050;  151.875;    0.000
814.479; 6563.050;  147.875;    0.000
814.668; 6609.050;  166.875;    0.000
814.856; 6884.050;  160.875;    0.000
815.044; 7126.050;  172.875;    0.000
815.232; 7263.050;  193.875;    0.000
815.420; 7510.050;  173.875;    0.000
815.608; 7715.050;  134.875;    0.000
815.796; 8095.050;  105.875;    0.000
815.984; 8260.050;  125.875;    0.000
816.172; 8844.050;  160.875;    0.000
816.360; 9114.050;  162.875;    0.000
816.548; 9526.050;  160.875;    0.000
816.736;10130.050;  132.875;    0.000
816.924;10969.050;  184.875;    0.000
817.111;11807.050;  145.875;    0.000
817.299;13082.050;  132.875;    0.000
817.487;14702.050;  193.875;    0.000
817.675;16938.051;  153.875;    0.000
817.863;20525.051;  153.875;    0.000
818.050;28142.051;  172.875;    0.000
818.238;42430.051;  131.875;    0.000
818.426;52760.051;  160.875;    0.000
818.613;44368.051;  136.875;    0.000
818.801;38255.051;  162.875;    0.000
818.989;36792.051;  153.875;    0.000
819.176;39696.051;  181.875;    0.000
819.364;49683.051;  165.875;    0.000
819.552;59479.051;  111.875;    0.000
819.739;50516.051;  192.875;    0.000
819.927;42805.051;  146.875;    0.000
820.114;36691.051;  154.875;    0.000
820.302;31714.051;  144.875;    0.000
820.489;28168.051;  133.875;    0.000
820.677;25263.051;  135.875;    0.000
820.864;22755.051;  130.875;    0.000
821.052;21698.051;   88.875;    0.000
821.239;20520.051;  143.875;    0.000
821.426;19889.051;  186.875;    0.000
821.614;20234.051;  171.875;    0.000
821.801;20284.051;   90.875;    0.000
821.988;18482.051;  143.875;    0.000
822.176;17453.051;   95.875;    0.000
822.363;17029.051;  148.875;    0.000
822.550;15980.050;  139.875;    0.000
822.737;14723.050;  122.875;    0.000
822.924;13708.050;  171.875;    0.000
823.112;13217.050;  147.875;    0.000
823.299;12445.050;  111.875;    0.000
823.486;12009.050;  161.875;    0.000
823.673;11202.050;  124.875;    0.000
823.860;11073.050;  151.875;    0.000
824.047;10603.050;  145.875;    0.000
824.234;11177.050;  139.875;    0.000
824.421;11059.050;  110.875;    0.000
824.608;10244.050;  145.875;    0.000
824.795; 9441.050;  115.875;    0.000
824.982; 9084.050;  148.875;    0.000
825.169; 8463.050;  135.875;    0.000
825.356; 8354.050;  122.875;    0.000
825.543; 8087.050;  142.875;    0.000
825.730; 7625.050;   89.875;    0.000
825.917; 7497.050;  127.875;    0.000
826.104; 7354.050;  187.875;    0.000
826.290; 7030.050;  138.875;    0.000
826.477; 6832.050;  140.875;    0.000
826.664; 6603.050;  106.875;    0.000
826.851; 6563.050;  155.875;    0.000
827.038; 6360.050;  125.875;    0.000
827.224; 6200.050;  126.875;    0.000
827.411; 6071.050;  163.875;    0.000
827.598; 5944.050;  140.875;    0.000
827.784; 5918.050;  117.875;    0.000
827.971; 5629.050;  114.875;    0.000
828.157; 5571.050;  146.875;    0.000
828.344; 5466.050;  161.875;    0.000
828.531; 5407.050;  155.875;    0.000
828.717; 5378.050;  130.875;    0.000
828.904; 5233.050;  138.875;    0.000
829.090; 5318.050;  176.875;    0.000
829.277; 4918.050;  152.875;    0.000
829.463; 5106.050;  139.875;    0.000
829.650; 4938.050;  168.875;    0.000
829.836; 4919.050;  176.875;    0.000
830.022; 4822.050;  159.875;    0.000
830.209; 4796.050;  135.875;    0.000
830.395; 4638.050;  177.875;    0.000
830.581; 4564.050;  125.875;    0.000
830.768; 4480.050;  155.875;    0.000
830.954; 4440.050;  187.875;    0.000
831.140; 4413.050;  135.875;    0.000
831.327; 4350.050;  158.875;    0.000
831.513; 4389.050;  126.875;    0.000
831.699; 4337.050;  167.875;    0.000
831.885; 4207.050;  165.875;    0.000
832.071; 4171.050;  167.875;    0.000
832.257; 4258.050;  144.875;    0.000
832.444; 4173.050;  158.875;    0.000
832.630; 4079.050;  167.875;    0.000
832.816; 4064.050;  150.875;    0.000
833.002; 3986.050;  157.875;    0.000
833.188; 3940.050;  169.875;    0.000
833.374; 3909.050;  144.875;    0.000
833.560; 3850.050;  179.875;    0.000
833.746; 3869.050;  134.875;    0.000
833.932; 3712.050;  150.875;    0.000
834.118; 3825.050;   98.875;    0.000
834.303; 3807.050;  121.875;    0.000
834.489; 3724.050;  179.875;    0.000
834.675; 3775.050;  136.875;    0.000
834.861; 3757.050;  130.875;    0.000
835.047; 3783.050;  132.875;    0.000
835.233; 3568.050;  104.875;    0.000
835.418; 3567.050;  143.875;    0.000
835.604; 3560.050;  127.875;    0.000
835.790; 3597.050;  138.875;    0.000
835.976; 3496.050;  137.875;    0.000
836.161; 3559.050;  155.875;    0.000
836.347; 3358.050;  101.875;    0.000
836.533; 3479.050;  121.875;    0.000
836.718; 3417.050;  150.875;    0.000
836.904; 3431.050;  168.875;    0.000
837.089; 3446.050;  169.875;    0.000
837.275; 3366.050;  172.875;    0.000
837.460; 3424.050;  140.875;    0.000
837.646; 3365.050;  144.875;    0.000
837.831; 3380.050;  137.875;    0.000
838.017; 3400.050;  176.875;    0.000
838.202; 3330.050;  107.875;    0.000
838.388; 3323.050;  181.875;    0.000
838.573; 3289.050;  151.875;    0.000
838.759; 3311.050;  160.875;    0.000
838.944; 3307.050;  121.875;    0.000
839.129; 3378.050;  145.875;    0.000
839.315; 3282.050;  166.875;    0.000
839.500; 3271.050;  143.875;    0.000
839.685; 3254.050;   93.875;    0.000
839.870; 3248.050;  160.875;    0.000
840.056; 3170.050;  132.875;    0.000
840.241; 3210.050;  154.875;    0.000
840.426; 3290.050;  161.875;    0.000
840.611; 3306.050;  186.875;    0.000
840.796; 3267.050;  135.875;    0.000
840.981; 3288.050;  147.875;    0.000
841.166; 3304.050;  138.875;    0.000
841.352; 3314.050;  156.875;    0.000
841.537; 3254.050;  170.875;    0.000
841.722; 3314.050;  143.875;    0.000
841.907; 3307.050;  143.875;    0.000
842.092; 3349.050;  166.875;    0.000
842.277; 3386.050;  113.875;    0.000
842.461; 3466.050;  126.875;    0.000
842.646; 3424.050;  145.875;    0.000
842.831; 3552.050;  193.875;    0.000
843.016; 3581.050;  162.875;    0.000
843.201; 3662.050;  144.875;    0.000
843.386; 3832.050;  160.875;    0.000
843.571; 3925.050;  136.875;    0.000
843.755; 4105.050;  134.875;    0.000
843.940; 4339.050;  136.875;    0.000
844.125; 4780.050;  169.875;    0.000
844.310; 5449.050;  189.875;    0.000
844.494; 7019.050;  167.875;    0.000
844.679; 9457.050;  184.875;    0.000
844.864; 9348.050;  147.875;    0.000
845.048; 7763.050;  140.875;    0.000
845.233; 6623.050;  178.875;    0.000
845.418; 5812.050;  145.875;    0.000
845.602; 5155.050;  147.875;    0.000
845.787; 4787.050;  147.875;    0.000
845.971; 4512.050;  165.875;    0.000
846.156; 4182.050;  106.875;    0.000
846.340; 4097.050;  168.875;    0.000
846.525; 3904.050;  155.875;    0.000
846.709; 3720.050;  157.875;    0.000
846.893; 3599.050;  166.875;    0.000
847.078; 3538.050;  138.875;    0.000
847.262; 3539.050;  171.875;    0.000
847.447; 3313.050;  135.875;    0.000
847.631; 3233.050;  136.875;    0.000
847.815; 3138.050;  136.875;    0.000
848.000; 3074.050;  126.875;    0.000
848.184; 3196.050;  131.875;    0.000
848.368; 3181.050;  153.875;    0.000
848.552; 2989.050;  137.875;    0.000
848.736; 3060.050;  151.875;    0.000
848.921; 3024.050;  156.875;    0.000
849.105; 2933.050;  153.875;    0.000
849.289; 2911.050;  180.875;    0.000
849.473; 2873.050;  156.875;    0.000
849.657; 2853.050;  157.875;    0.000
849.841; 2817.050;  147.875;    0.000
850.025; 2813.050;  194.875;    0.000
850.209; 2776.050;  147.875;    0.000
850.393; 2803.050;  141.875;    0.000
850.577; 2725.050;  156.875;    0.000
850.761; 2759.050;  157.875;    0.000
850.945; 2623.050;  128.875;    0.000
851.129; 2835.050;  151.875;    0.000
851.313; 2650.050;  180.875;    0.000
851.497; 2695.050;  123.875;    0.000
851.680; 2682.050;  188.875;    0.000
851.864; 2664.050;  177.875;    0.000
852.048; 2666.050;  163.875;    0.000
852.232; 2692.050;  149.875;    0.000
852.416; 2614.050;  187.875;    0.000
852.599; 2638.050;  169.875;    0.000
852.783; 2557.050;  154.875;    0.000
852.967; 2656.050;  191.875;    0.000
853.150; 2617.050;  170.875;    0.000
853.334; 2586.050;  173.875;    0.000
853.518; 2712.050;  186.875;    0.000
853.701; 2505.050;  142.875;    0.000
853.885; 2523.050;  153.875;    0.000
854.068; 2569.050;  132.875;    0.000
854.252; 2560.050;  184.875;    0.000
854.435; 2603.050;  152.875;    0.000
854.619; 2545.050;  152.875;    0.000
854.802; 2546.050;  164.875;    0.000
854.986; 2513.050;  151.875;    0.000
855.169; 2555.050;  153.875;    0.000
855.353; 2628.050;  183.875;    0.000
855.536; 2577.050;  113.875;    0.000
855.719; 2628.050;  181.875;    0.000
855.903; 2603.050;  159.875;    0.000
856.086; 2536.050;  142.875;    0.000
856.269; 2575.050;  171.875;    0.000
856.452; 2687.050;  132.875;    0.000
856.636; 2657.050;  140.875;    0.000
856.819; 2816.050;  165.875;    0.000
857.002; 2895.050;  170.875;    0.000
857.185; 2922.050;  173.875;    0.000
857.368; 2718.050;  129.875;    0.000
857.552; 2757.050;  151.875;    0.000
857.735; 2645.050;  146.875;    0.000
857.918; 2660.050;  114.875;    0.000
858.101; 2708.050;  152.875;    0.000
858.284; 2684.050;  164.875;    0.000
858.467; 2721.050;  147.875;    0.000
858.650; 2789.050;  146.875;    0.000
858.833; 2883.050;  118.875;    0.000
859.016; 2887.050;  161.875;    0.000
859.199; 2935.050;  135.875;    0.000
859.382; 3103.050;  157.875;    0.000
859.564; 3401.050;  124.875;    0.000
859.747; 3382.050;  154.875;    0.000
859.930; 3074.050;  138.875;    0.000
860.113; 3108.050;  153.875;    0.000
860.296; 2906.050;  180.875;    0.000
860.478; 2877.050;  145.875;    0.000
860.661; 2856.050;  160.875;    0.000
860.844; 2918.050;   96.875;    0.000
861.027; 2897.050;  128.875;    0.000
861.209; 2874.050;  127.875;    0.000
861.392; 2891.050;  126.875;    0.000
861.575; 2855.050;  155.875;    0.000
861.757; 2786.050;  141.875;    0.000
861.940; 2887.050;  181.875;    0.000
862.122; 2888.050;  145.875;    0.000
862.305; 2956.050;  124.875;    0.000
862.487; 3092.050;  151.875;    0.000
862.670; 3232.050;  132.875;    0.000
862.852; 3686.050;  112.875;    0.000
863.035; 4387.050;  116.875;    0.000
863.217; 4395.050;  131.875;    0.000
863.400; 4013.050;  145.875;    0.000
863.582; 3795.050;  147.875;    0.000
863.764; 3576.050;  163.875;    0.000
863.947; 3444.050;  129.875;    0.000
864.129; 3236.050;  159.875;    0.000
864.311; 3293.050;  144.875;    0.000
864.493; 3214.050;  141.875;    0.000
864.676; 3153.050;  159.875;    0.000
864.858; 3105.050;  146.875;    0.000
865.040; 3149.050;  163.875;    0.000
865.222; 3127.050;  133.875;    0.000
865.404; 3136.050;  148.875;    0.000
865.587; 3367.050;  177.875;    0.000
865.769; 3341.050;  172.875;    0.000
865.951; 3401.050;  145.875;    0.000
866.133; 3502.050;  168.875;    0.000
866.315; 3511.050;  147.875;    0.000
866.497; 3334.050;  164.875;    0.000
866.679; 3497.050;  143.875;    0.000
866.861; 3587.050;  170.875;    0.000
867.043; 3850.050;  185.875;    0.000
867.225; 3978.050;  149.875;    0.000
867.407; 4318.050;  143.875;    0.000
867.589; 4809.050;  169.875;    0.000
867.770; 5826.050;  166.875;    0.000
867.952; 7656.050;  158.875;    0.000
868.134; 9914.050;  170.875;    0.000
868.316; 9888.050;  157.875;    0.000
868.498; 9507.050;  186.875;    0.000
868.679; 8244.050;  158.875;    0.000
868.861; 7021.050;  180.875;    0.000
869.043; 5938.050;  164.875;    0.000
869.224; 5291.050;  156.875;    0.000
869.406; 4948.050;  176.875;    0.000
869.588; 4687.050;  152.875;    0.000
869.769; 4387.050;  131.875;    0.000
869.951; 4332.050;  203.875;    0.000
870.132; 4312.050;  143.875;    0.000
870.314; 4735.050;  129.875;    0.000
870.495; 4830.050;  175.875;    0.000
870.677; 4406.050;  165.875;    0.000
870.858; 4365.050;  151.875;    0.000
871.040; 4405.050;  155.875;    0.000
871.221; 4894.050;  144.875;    0.000
871.403; 4776.050;  131.875;    0.000
871.584; 4490.050;  174.875;    0.000
871.765; 4497.050;  169.875;    0.000
871.947; 4847.050;  187.875;    0.000
872.128; 4342.050;  181.875;    0.000
872.309; 3823.050;  129.875;    0.000
872.491; 3610.050;  142.875;    0.000
872.672; 3387.050;  158.875;    0.000
872.853; 3312.050;  179.875;    0.000
873.034; 3220.050;  164.875;    0.000
873.215; 3146.050;  168.875;    0.000
873.396; 2876.050;  114.875;    0.000
873.578; 2820.050;  126.875;    0.000
873.759; 2697.050;  177.875;    0.000
873.940; 2633.050;  169.875;    0.000
874.121; 2634.050;  133.875;    0.000
874.302; 2593.050;  164.875;    0.000
874.483; 2547.050;  162.875;    0.000
874.664; 2683.050;  140.875;    0.000
874.845; 2563.050;  124.875;    0.000
875.026; 2486.050;  146.875;    0.000
875.207; 2449.050;  147.875;    0.000
875.388; 2420.050;  174.875;    0.000
875.568; 2406.050;  179.875;    0.000
875.749; 2350.050;  155.875;    0.000
875.930; 2466.050;  166.875;    0.000
876.111; 2333.050;  153.875;    0.000
876.292; 2343.050;  146.875;    0.000
876.472; 2312.050;  167.875;    0.000
876.653; 2336.050;  145.875;    0.000
876.834; 2254.050;  172.875;    0.000
877.015; 2243.050;  184.875;    0.000
877.195; 2252.050;  160.875;    0.000
877.376; 2169.050;  163.875;    0.000
877.556; 2233.050;  164.875;    0.000
877.737; 2210.050;  179.875;    0.000
877.918; 2236.050;  137.875;    0.000
878.098; 2147.050;  117.875;    0.000
878.279; 2125.050;  135.875;    0.000
878.459; 2063.050;  149.875;    0.000
878.640; 2092.050;  171.875;    0.000
878.820; 2143.050;  142.875;    0.000
879.000; 2100.050;  166.875;    0.000
879.181; 2103.050;  177.875;    0.000
879.361; 2114.050;  176.875;    0.000
879.542; 2121.050;  159.875;    0.000
879.722; 2130.050;  122.875;    0.000
879.902; 2051.050;  166.875;    0.000
880.083; 2058.050;  164.875;    0.000
880.263; 2064.050;  139.875;    0.000
880.443; 2135.050;  179.875;    0.000
880.623; 2116.050;  154.875;    0.000
880.803; 2076.050;  160.875;    0.000
880.984; 2146.050;  181.875;    0.000
881.164; 2073.050;  167.875;    0.000
881.344; 2094.050;  141.875;    0.000
881.524; 2151.050;  190.875;    0.000
881.704; 2107.050;  165.875;    0.000
881.884; 2176.050;  144.875;    0.000
882.064; 2351.050;  135.875;    0.000
882.244; 2462.050;  186.875;    0.000
882.424; 2318.050;  150.875;    0.000
882.604; 2218.050;  168.875;    0.000
882.784; 2183.050;  155.875;    0.000
882.964; 2170.050;  137.875;    0.000
883.144; 1998.050;  136.875;    0.000
883.324; 2116.050;  200.875;    0.000
883.504; 2120.050;  203.875;    0.000
883.683; 2020.050;  149.875;    0.000
883.863; 2076.050;  160.875;    0.000
884.043; 2014.050;  161.875;    0.000
884.223; 2019.050;  147.875;    0.000
884.402; 2021.050;  175.875;    0.000
884.582; 2063.050;  188.875;    0.000
884.762; 2041.050;  173.875;    0.000
884.941; 2032.050;  164.875;    0.000
885.121; 1956.050;  147.875;    0.000
885.301; 1911.050;  135.875;    0.000
885.480; 1964.050;  145.875;    0.000
885.660; 1955.050;  144.875;    0.000
885.839; 1967.050;  155.875;    0.000
886.019; 1913.050;  207.875;    0.000
886.198; 1892.050;  165.875;    0.000
886.378; 1895.050;  120.875;    0.000
886.557; 1836.050;  133.875;    0.000
886.737; 1872.050;  119.875;    0.000
886.916; 1921.050;  129.875;    0.000
887.095; 2033.050;  158.875;    0.000
887.275; 1866.050;  169.875;    0.000
887.454; 1843.050;  184.875;    0.000
887.633; 1935.050;  143.875;    0.000
887.813; 1965.050;  154.875;    0.000
887.992; 1859.050;  188.875;    0.000
888.171; 1854.050;  176.875;    0.000
888.350; 1860.050;  161.875;    0.000
888.530; 1896.050;  163.875;    0.000
888.709; 1839.050;  136.875;    0.000
888.888; 1864.050;  177.875;    0.000
889.067; 1866.050;  169.875;    0.000
889.246; 1867.050;  188.875;    0.000
889.425; 1809.050;  187.875;    0.000
889.604; 1930.050;  169.875;    0.000
889.783; 1837.050;  182.875;    0.000
889.962; 1796.050;  112.875;    0.000
890.141; 1858.050;  231.875;    0.000
890.320; 1901.050;  161.875;    0.000
890.499; 1880.050;  164.875;    0.000
890.678; 1825.050;  176.875;    0.000
890.857; 1819.050;  163.875;    0.000
891.036; 1884.050;  161.875;    0.000
891.214; 1799.050;  156.875;    0.000
891.393; 1839.050;  167.875;    0.000
891.572; 1867.050;  163.875;    0.000
891.751; 1874.050;  205.875;    0.000
891.930; 1853.050;  162.875;    0.000
892.108; 1856.050;  153.875;    0.000
892.287; 1812.050;  153.875;    0.000
892.466; 1898.050;  201.875;    0.000
892.644; 1832.050;  158.875;    0.000
892.823; 1837.050;  122.875;    0.000
893.001; 1847.050;  148.875;    0.000
893.180; 1869.050;  142.875;    0.000
893.359; 1860.050;  192.875;    0.000
893.537; 1777.050;  166.875;    0.000
893.716; 1867.050;  144.875;    0.000
893.894; 1816.050;  145.875;    0.000
894.073; 1809.050;  180.875;    0.000
894.251; 1853.050;  165.875;    0.000
894.429; 1805.050;  182.875;    0.000
894.608; 1834.050;  181.875;    0.000
894.786; 1827.050;  180.875;    0.000
894.964; 1749.050;  207.875;    0.000
895.143; 1859.050;  190.875;    0.000
895.321; 1821.050;  206.875;    0.000
895.499; 1778.050;  164.875;    0.000
895.677; 1832.050;  199.875;    0.000
895.856; 1851.050;  203.875;    0.000
896.034; 1842.050;  200.875;    0.000
896.212; 1867.050;  198.875;    0.000
896.390; 1790.050;  161.875;    0.000
896.568; 1805.050;  205.875;    0.000
896.746; 1840.050;  185.875;    0.000
896.924; 1864.050;  179.875;    0.000
897.102; 1944.050;  190.875;    0.000
897.280; 1832.050;  160.875;    0.000
897.458; 1883.050;  196.875;    0.000
897.636; 1863.050;  168.875;    0.000
897.814; 1865.050;  159.875;    0.000
897.992; 1801.050;  216.875;    0.000
898.170; 1843.050;  195.875;    0.000
898.348; 1848.050;  185.875;    0.000
898.526; 1898.050;  199.875;    0.000
898.704; 1859.050;  215.875;    0.000
898.882; 1845.050;  195.875;    0.000
899.059; 1868.050;  197.875;    0.000
899.237; 1811.050;  168.875;    0.000
899.415; 1906.050;  221.875;    0.000
899.593; 1858.050;  171.875;    0.000
899.770; 1903.050;  191.875;    0.000
899.948; 1973.050;  206.875;    0.000
900.125; 1910.050;  175.875;    0.000
900.303; 1936.050;  176.875;    0.000
900.481; 1922.050;  199.875;    0.000
900.658; 1894.050;  217.875;    0.000
900.836; 1967.050;  192.875;    0.000
901.013; 1936.050;  221.875;    0.000
901.191; 1921.050;  203.875;    0.000
901.368; 1950.050;  189.875;    0.000
901.546; 2034.050;  212.875;    0.000
901.723; 2000.050;  189.875;    0.000
901.901; 2059.050;  198.875;    0.000
902.078; 2049.050;  193.875;    0.000
902.255; 2024.050;  176.875;    0.000
902.433; 2090.050;  201.875;    0.000
902.610; 2093.050;  170.875;    0.000
902.787; 2072.050;  164.875;    0.000
902.964; 2199.050;  216.875;    0.000
903.142; 2193.050;  153.875;    0.000
903.319; 2198.050;  204.875;    0.000
903.496; 2199.050;  188.875;    0.000
903.673; 2385.050;  209.875;    0.000
903.850; 2274.050;  173.875;    0.000
904.027; 2413.050;  186.875;    0.000
904.204; 2462.050;  241.875;    0.000
904.381; 2638.050;  187.875;    0.000
904.558; 2901.050;  196.875;    0.000
904.735; 3214.050;  206.875;    0.000
904.912; 3279.050;  228.875;    0.000
905.089; 3246.050;  172.875;    0.000
905.266; 3080.050;  175.875;    0.000
905.443; 2863.050;  239.875;    0.000
905.620; 2612.050;  176.875;    0.000
905.797; 2528.050;  205.875;    0.000
905.974; 2598.050;  187.875;    0.000
906.151; 2449.050;  135.875;    0.000
906.327; 2508.050;  209.875;    0.000
906.504; 2505.050;  145.875;    0.000
906.681; 2341.050;  178.875;    0.000
906.858; 2344.050;  179.875;    0.000
907.034; 2405.050;  221.875;    0.000
907.211; 2279.050;  166.875;    0.000
907.388; 2237.050;  206.875;    0.000
907.564; 2221.050;  150.875;    0.000
907.741; 2137.050;  187.875;    0.000
907.917; 2219.050;  180.875;    0.000
908.094; 2138.050;  206.875;    0.000
908.271; 2097.050;  184.875;    0.000
908.447; 2177.050;  212.875;    0.000
908.623; 2049.050;  193.875;    0.000
908.800; 2020.050;  185.875;    0.000
908.976; 2018.050;  202.875;    0.000
909.153; 1979.050;  175.875;    0.000
909.329; 2069.050;  193.875;    0.000
909.505; 2035.050;  154.875;    0.000
909.682; 1961.050;  188.875;    0.000
909.858; 1988.050;  162.875;    0.000
910.034; 1948.050;  181.875;    0.000
910.211; 1873.050;  142.875;    0.000
910.387; 1958.050;  200.875;    0.000
910.563; 1973.050;  163.875;    0.000
910.739; 1905.050;  156.875;    0.000
910.915; 1965.050;  202.875;    0.000
911.091; 1915.050;  186.875;    0.000
911.268; 1912.050;  167.875;    0.000
911.444; 1953.050;  193.875;    0.000
911.620; 1899.050;  175.875;    0.000
911.796; 1895.050;  168.875;    0.000
911.972; 1958.050;  154.875;    0.000
912.148; 1901.050;  201.875;    0.000
912.324; 1899.050;  146.875;    0.000
912.500; 1926.050;  185.875;    0.000
912.676; 1896.050;  183.875;    0.000
912.851; 1862.050;  204.875;    0.000
913.027; 1907.050;  196.875;    0.000
913.203; 1872.050;  174.875;    0.000
913.379; 1844.050;  210.875;    0.000
913.555; 1903.050;  197.875;    0.000
913.730; 1820.050;  209.875;    0.000
913.906; 1874.050;  169.875;    0.000
914.082; 1957.050;  236.875;    0.000
914.258; 1899.050;  216.875;    0.000
914.433; 1904.050;  212.875;    0.000
914.609; 1917.050;  180.875;    0.000
914.784; 1910.050;  176.875;    0.000
914.960; 1903.050;  227.875;    0.000
915.136; 1800.050;  149.875;    0.000
915.311; 1945.050;  165.875;    0.000
915.487; 1929.050;  167.875;    0.000
915.662; 1882.050;  225.875;    0.000
915.838; 1954.050;  165.875;    0.000
916.013; 1815.050;  188.875;    0.000
916.189; 1937.050;  200.875;    0.000
916.364; 1953.050;  201.875;    0.000
916.539; 1940.050;  240.875;    0.000
916.715; 1920.050;  180.875;    0.000
916.890; 1936.050;  191.875;    0.000
917.065; 1949.050;  211.875;    0.000
917.240; 1895.050;  212.875;    0.000
917.416; 1893.050;  207.875;    0.000
917.591; 1893.050;  189.875;    0.000
917.766; 1967.050;  205.875;    0.000
917.941; 1891.050;  191.875;    0.000
918.116; 1818.050;  195.875;    0.000
918.292; 1863.050;  183.875;    0.000
918.467; 1845.050;  206.875;    0.000
918.642; 1852.050;  190.875;    0.000
918.817; 1886.050;  193.875;    0.000
918.992; 1908.050;  171.875;    0.000
919.167; 1946.050;  191.875;    0.000
919.342; 1923.050;  202.875;    0.000
919.517; 1995.050;  182.875;    0.000
919.692; 1926.050;  190.875;    0.000
919.867; 2027.050;  221.875;    0.000
920.041; 1938.050;  195.875;    0.000
920.216; 1986.050;  226.875;    0.000
920.391; 2050.050;  230.875;    0.000
920.566; 1968.050;  210.875;    0.000
920.741; 2076.050;  204.875;    0.000
920.915; 2180.050;  213.875;    0.000
921.090; 2278.050;  194.875;    0.000
921.265; 2912.050;  234.875;    0.000
921.439; 3201.050;  228.875;    0.000
921.614; 2869.050;  199.875;    0.000
921.789; 2591.050;  194.875;    0.000
921.963; 2454.050;  236.875;    0.000
922.138; 2321.050;  192.875;    0.000
922.312; 2367.050;  203.875;    0.000
922.487; 2351.050;  207.875;    0.000
922.661; 2500.050;  216.875;    0.000
922.836; 2764.050;  199.875;    0.000
923.010; 2987.050;  179.875;    0.000
923.185; 2692.050;  241.875;    0.000
923.359; 2562.050;  199.875;    0.000
923.534; 2505.050;  227.875;    0.000
923.708; 2573.050;  213.875;    0.000
923.882; 2660.050;  203.875;    0.000
924.057; 2641.050;  194.875;    0.000
924.231; 2436.050;  185.875;    0.000
924.405; 2407.050;  223.875;    0.000
924.579; 2263.050;  196.875;    0.000
924.753; 2179.050;  209.875;    0.000
924.928; 2283.050;  202.875;    0.000
925.102; 2293.050;  184.875;    0.000
925.276; 2272.050;  191.875;    0.000
925.450; 2302.050;  199.875;    0.000
925.624; 2330.050;  190.875;    0.000
925.798; 2406.050;  214.875;    0.000
925.972; 2517.050;  193.875;    0.000
926.146; 2549.050;  191.875;    0.000
926.320; 2688.050;  177.875;    0.000
926.494; 2928.050;  190.875;    0.000
926.668; 2990.050;  182.875;    0.000
926.842; 3193.050;  182.875;    0.000
927.016; 3113.050;  235.875;    0.000
927.190; 3015.050;  234.875;    0.000
927.363; 3003.050;  214.875;    0.000
927.537; 2872.050;  198.875;    0.000
927.711; 2939.050;  154.875;    0.000
927.885; 2837.050;  167.875;    0.000
928.058; 2752.050;  210.875;    0.000
928.232; 2666.050;  206.875;    0.000
928.406; 2667.050;  176.875;    0.000
928.579; 2682.050;  182.875;    0.000
928.753; 2581.050;  179.875;    0.000
928.927; 2583.050;  186.875;    0.000
929.100; 2478.050;  188.875;    0.000
929.274; 2384.050;  167.875;    0.000
929.447; 2322.050;  152.875;    0.000
929.621; 2355.050;  195.875;    0.000
929.794; 2282.050;  200.875;    0.000
929.968; 2318.050;  203.875;    0.000
930.141; 2335.050;  237.875;    0.000
930.315; 2292.050;  165.875;    0.000
930.488; 2178.050;  175.875;    0.000
930.661; 2164.050;  173.875;    0.000
930.835; 2228.050;  171.875;    0.000
931.008; 2160.050;  210.875;    0.000
931.181; 2171.050;  206.875;    0.000
931.354; 2176.050;  195.875;    0.000
931.528; 2113.050;  178.875;    0.000
931.701; 2051.050;  179.875;    0.000
931.874; 2037.050;  150.875;    0.000
932.047; 2068.050;  154.875;    0.000
932.220; 2139.050;  185.875;    0.000
932.393; 1975.050;  166.875;    0.000
932.566; 2022.050;  171.875;    0.000
932.739; 2073.050;  196.875;    0.000
932.912; 1989.050;  212.875;    0.000
933.085; 2044.050;  234.875;    0.000
933.258; 1940.050;  212.875;    0.000
933.431; 1996.050;  181.875;    0.000
933.604; 1927.050;  201.875;    0.000
933.777; 1937.050;  201.875;    0.000
933.950; 1917.050;  176.875;    0.000
934.123; 1971.050;  175.875;    0.000
934.296; 1945.050;  174.875;    0.000
934.468; 1858.050;  186.875;    0.000
934.641; 1893.050;  192.875;    0.000
934.814; 1951.050;  187.875;    0.000
934.987; 1890.050;  165.875;    0.000
935.159; 1969.050;  162.875;    0.000
935.332; 1960.050;  210.875;    0.000
935.505; 1905.050;  191.875;    0.000
935.677; 1852.050;  159.875;    0.000
935.850; 1940.050;  170.875;    0.000
936.022; 1889.050;  172.875;    0.000
936.195; 1991.050;  202.875;    0.000
936.367; 1963.050;  179.875;    0.000
936.540; 1959.050;  207.875;    0.000
936.712; 1991.050;  200.875;    0.000
936.885; 1927.050;  219.875;    0.000
937.057; 1996.050;  150.875;    0.000
937.229; 1944.050;  187.875;    0.000
937.402; 1934.050;  169.875;    0.000
937.574; 2052.050;  127.875;    0.000
937.746; 2000.050;  171.875;    0.000
937.919; 2173.050;  176.875;    0.000
938.091; 2133.050;  193.875;    0.000
938.263; 2222.050;  200.875;    0.000
938.435; 2515.050;  181.875;    0.000
938.608; 2655.050;  191.875;    0.000
938.780; 3045.050;  173.875;    0.000
938.952; 3145.050;  184.875;    0.000
939.124; 3218.050;  171.875;    0.000
939.296; 3530.050;  156.875;    0.000
939.468; 3672.050;  147.875;    0.000
939.640; 3277.050;  186.875;    0.000
939.812; 3017.050;  217.875;    0.000
939.984; 2798.050;  155.875;    0.000
940.156; 2698.050;  191.875;    0.000
940.328; 2531.050;  201.875;    0.000
940.500; 2341.050;  176.875;    0.000
940.672; 2293.050;  190.875;    0.000
940.843; 2278.050;  143.875;    0.000
941.015; 2170.050;  189.875;    0.000
941.187; 2128.050;  172.875;    0.000
941.359; 2209.050;  175.875;    0.000
941.531; 2137.050;  154.875;    0.000
941.702; 2150.050;  183.875;    0.000
941.874; 2032.050;  140.875;    0.000
942.046; 2039.050;  177.875;    0.000
942.217; 2023.050;  147.875;    0.000
942.389; 2079.050;  196.875;    0.000
942.560; 2046.050;  163.875;    0.000
942.732; 1983.050;  187.875;    0.000
942.904; 2012.050;  226.875;    0.000
943.075; 1894.050;  159.875;    0.000
943.247; 1888.050;  209.875;    0.000
943.418; 1878.050;  167.875;    0.000
943.589; 1914.050;  195.875;    0.000
943.761; 1919.050;  190.875;    0.000
943.932; 1922.050;  187.875;    0.000
944.104; 1815.050;  194.875;    0.000
944.275; 1766.050;  177.875;    0.000
944.446; 1806.050;  155.875;    0.000
944.617; 1756.050;  176.875;    0.000
944.789; 1802.050;  171.875;    0.000
944.960; 1784.050;  172.875;    0.000
945.131; 1766.050;  158.875;    0.000
945.302; 1734.050;  201.875;    0.000
945.473; 1819.050;  141.875;    0.000
945.645; 1828.050;  197.875;    0.000
945.816; 1791.050;  165.875;    0.000
945.987; 1864.050;  190.875;    0.000
946.158; 1890.050;  158.875;    0.000
946.329; 1800.050;  160.875;    0.000
946.500; 1793.050;  190.875;    0.000
946.671; 1782.050;  152.875;    0.000
946.842; 1709.050;  182.875;    0.000
947.013; 1718.050;  160.875;    0.000
947.183; 1763.050;  203.875;    0.000
947.354; 1661.050;  174.875;    0.000
947.525; 1710.050;  173.875;    0.000
947.696; 1713.050;  170.875;    0.000
947.867; 1700.050;  187.875;    0.000
948.037; 1644.050;  165.875;    0.000
948.208; 1717.050;  154.875;    0.000
948.379; 1698.050;  176.875;    0.000
948.550; 1633.050;  176.875;    0.000
948.720; 1691.050;  169.875;    0.000
948.891; 1751.050;  216.875;    0.000
949.061; 1681.050;  200.875;    0.000
949.232; 1630.050;  163.875;    0.000
949.403; 1595.050;  157.875;    0.000
949.573; 1696.050;  158.875;    0.000
949.744; 1690.050;  213.875;    0.000
949.914; 1679.050;  177.875;    0.000
950.085; 1582.050;  195.875;    0.000
950.255; 1600.050;  166.875;    0.000
950.425; 1613.050;  196.875;    0.000
950.596; 1660.050;  176.875;    0.000
950.766; 1590.050;  228.875;    0.000
950.936; 1688.050;  185.875;    0.000
951.107; 1597.050;  178.875;    0.000
951.277; 1645.050;  227.875;    0.000
951.447; 1655.050;  219.875;    0.000
951.617; 1636.050;  219.875;    0.000
951.788; 1527.050;  198.875;    0.000
951.958; 1569.050;  202.875;    0.000
952.128; 1611.050;  197.875;    0.000
952.298; 1596.050;  211.875;    0.000
952.468; 1607.050;  233.875;    0.000
952.638; 1588.050;  222.875;    0.000
952.808; 1557.050;  210.875;    0.000
952.978; 1668.050;  216.875;    0.000
953.148; 1573.050;  203.875;    0.000
953.318; 1644.050;  212.875;    0.000
953.488; 1517.050;  156.875;    0.000
953.658; 1525.050;  226.875;    0.000
953.828; 1567.050;  223.875;    0.000
953.998; 1567.050;  209.875;    0.000
954.167; 1595.050;  203.875;    0.000
954.337; 1523.050;  209.875;    0.000
954.507; 1559.050;  252.875;    0.000
954.677; 1512.050;  207.875;    0.000
954.846; 1616.050;  240.875;    0.000
955.016; 1454.050;  197.875;    0.000
955.186; 1506.050;  208.875;    0.000
955.355; 1576.050;  243.875;    0.000
955.525; 1551.050;  211.875;    0.000
955.695; 1531.050;  187.875;    0.000
955.864; 1526.050;  204.875;    0.000
956.034; 1542.050;  199.875;    0.000
956.203; 1567.050;  257.875;    0.000
956.373; 1482.050;  193.875;    0.000
956.542; 1516.050;  187.875;    0.000
956.711; 1530.050;  259.875;    0.000
956.881; 1536.050;  227.875;    0.000
957.050; 1492.050;  260.875;    0.000
957.220; 1504.050;  246.875;    0.000
957.389; 1493.050;  211.875;    0.000
957.558; 1466.050;  197.875;    0.000
957.727; 1503.050;  227.875;    0.000
957.897; 1507.050;  219.875;    0.000
958.066; 1477.050;  180.875;    0.000
958.235; 1461.050;  179.875;    0.000
958.404; 1466.050;  194.875;    0.000
958.573; 1446.050;  235.875;    0.000
958.743; 1444.050;  191.875;    0.000
958.912; 1483.050;  181.875;    0.000
959.081; 1485.050;  193.875;    0.000
959.250; 1396.050;  180.875;    0.000
959.419; 1456.050;  205.875;    0.000
959.588; 1439.050;  241.875;    0.000
959.757; 1500.050;  202.875;    0.000
959.926; 1441.050;  212.875;    0.000
960.094; 1549.050;  199.875;    0.000
960.263; 1427.050;  226.875;    0.000
960.432; 1436.050;  188.875;    0.000
960.601; 1379.050;  200.875;    0.000
960.770; 1441.050;  197.875;    0.000
960.939; 1483.050;  195.875;    0.000
961.107; 1448.050;  198.875;    0.000
961.276; 1463.050;  151.875;    0.000
961.445; 1482.050;  227.875;    0.000
961.613; 1455.050;  186.875;    0.000
961.782; 1410.050;  187.875;    0.000
961.951; 1427.050;  194.875;    0.000
962.119; 1424.050;  227.875;    0.000
962.288; 1422.050;  181.875;    0.000
962.456; 1376.050;  206.875;    0.000
962.625; 1448.050;  181.875;    0.000
962.793; 1418.050;  216.875;    0.000
962.962; 1461.050;  237.875;    0.000
963.130; 1406.050;  194.875;    0.000
963.298; 1447.050;  190.875;    0.000
963.467; 1413.050;  204.875;    0.000
963.635; 1428.050;  159.875;    0.000
963.803; 1459.050;  208.875;    0.000
963.972; 1414.050;  206.875;    0.000
964.140; 1440.050;  178.875;    0.000
964.308; 1395.050;  185.875;    0.000
964.477; 1439.050;  189.875;    0.000
964.645; 1414.050;  201.875;    0.000
964.813; 1386.050;  200.875;    0.000
964.981; 1435.050;  160.875;    0.000
965.149; 1448.050;  230.875;    0.000
965.317; 1502.050;  214.875;    0.000
965.485; 1436.050;  190.875;    0.000
965.653; 1440.050;  239.875;    0.000
965.821; 1406.050;  211.875;    0.000
965.989; 1457.050;  216.875;    0.000
966.157; 1446.050;  198.875;    0.000
966.325; 1405.050;  200.875;    0.000
966.493; 1405.050;  187.875;    0.000
966.661; 1396.050;  181.875;    0.000
966.829; 1403.050;  181.875;    0.000
966.996; 1400.050;  220.875;    0.000
967.164; 1385.050;  179.875;    0.000
967.332; 1411.050;  203.875;    0.000
967.500; 1473.050;  200.875;    0.000
967.667; 1394.050;  196.875;    0.000
967.835; 1477.050;  199.875;    0.000
968.003; 1481.050;  191.875;    0.000
968.170; 1396.050;  141.875;    0.000
968.338; 1423.050;  185.875;    0.000
968.505; 1452.050;  199.875;    0.000
968.673; 1401.050;  191.875;    0.000
968.841; 1419.050;  165.875;    0.000
969.008; 1453.050;  192.875;    0.000
969.175; 1450.050;  172.875;    0.000
969.343; 1405.050;  191.875;    0.000
969.510; 1441.050;  199.875;    0.000
969.678; 1356.050;  156.875;    0.000
969.845; 1451.050;  191.875;    0.000
970.012; 1430.050;  205.875;    0.000
970.180; 1385.050;  201.875;    0.000
970.347; 1419.050;  229.875;    0.000
970.514; 1491.050;  207.875;    0.000
970.681; 1424.050;  169.875;    0.000
970.849; 1400.050;  196.875;    0.000
971.016; 1409.050;  212.875;    0.000
971.183; 1432.050;  178.875;    0.000
971.350; 1386.050;  193.875;    0.000
971.517; 1507.050;  190.875;    0.000
971.684; 1381.050;  261.875;    0.000
971.851; 1435.050;  203.875;    0.000
972.018; 1339.050;  184.875;    0.000
972.185; 1496.050;  226.875;    0.000
972.352; 1384.050;  180.875;    0.000
972.519; 1473.050;  226.875;    0.000
972.686; 1364.050;  233.875;    0.000
972.853; 1390.050;  173.875;    0.000
973.020; 1491.050;  208.875;    0.000
973.186; 1345.050;  173.875;    0.000
973.353; 1403.050;  218.875;    0.000
973.520; 1423.050;  218.875;    0.000
973.687; 1354.050;  176.875;    0.000
973.853; 1392.050;  203.875;    0.000
974.020; 1433.050;  196.875;    0.000
974.187; 1436.050;  188.875;    0.000
974.353; 1416.050;  230.875;    0.000
974.520; 1454.050;  195.875;    0.000
974.687; 1431.050;  209.875;    0.000
974.853; 1429.050;  189.875;    0.000
975.020; 1423.050;  179.875;    0.000
975.186; 1367.050;  204.875;    0.000
975.353; 1404.050;  201.875;    0.000
975.519; 1424.050;  200.875;    0.000
975.685; 1409.050;  176.875;    0.000
975.852; 1412.050;  197.875;    0.000
976.018; 1406.050;  201.875;    0.000
976.184; 1379.050;  176.875;    0.000
976.351; 1449.050;  221.875;    0.000
976.517; 1383.050;  203.875;    0.000
976.683; 1367.050;  236.875;    0.000
976.849; 1380.050;  190.875;    0.000
977.016; 1344.050;  173.875;    0.000
977.182; 1329.050;  200.875;    0.000
977.348; 1322.050;  179.875;    0.000
977.514; 1426.050;  159.875;    0.000
977.680; 1423.050;  200.875;    0.000
977.846; 1311.050;  206.875;    0.000
978.012; 1389.050;  219.875;    0.000
978.178; 1330.050;  229.875;    0.000
978.344; 1334.050;  195.875;    0.000
978.510; 1300.050;  209.875;    0.000
978.676; 1404.050;  190.875;    0.000
978.842; 1385.050;  195.875;    0.000
979.008; 1324.050;  186.875;    0.000
979.174; 1326.050;  185.875;    0.000
979.340; 1379.050;  198.875;    0.000
979.505; 1325.050;  214.875;    0.000
979.671; 1343.050;  159.875;    0.000
979.837; 1351.050;  202.875;    0.000
980.003; 1372.050;  190.875;    0.000
980.168; 1392.050;  216.875;    0.000
980.334; 1293.050;  194.875;    0.000
980.499; 1408.050;  229.875;    0.000
980.665; 1378.050;  240.875;    0.000
980.831; 1363.050;  202.875;    0.000
980.996; 1351.050;  179.875;    0.000
981.162; 1427.050;  212.875;    0.000
981.327; 1319.050;  202.875;    0.000
981.493; 1348.050;  219.875;    0.000
981.658; 1358.050;  218.875;    0.000
981.823; 1392.050;  207.875;    0.000
981.989; 1388.050;  207.875;    0.000
982.154; 1432.050;  224.875;    0.000
982.319; 1451.050;  217.875;    0.000
982.485; 1438.050;  266.875;    0.000
982.650; 1461.050;  245.875;    0.000
982.815; 1403.050;  229.875;    0.000
982.980; 1471.050;  203.875;    0.000
983.146; 1472.050;  242.875;    0.000
983.311; 1404.050;  144.875;    0.000
983.476; 1413.050;  222.875;    0.000
983.641; 1380.050;  206.875;    0.000
983.806; 1374.050;  217.875;    0.000
983.971; 1423.050;  254.875;    0.000
984.136; 1341.050;  217.875;    0.000
984.301; 1335.050;  202.875;    0.000
984.466; 1375.050;  206.875;    0.000
984.631; 1390.050;  224.875;    0.000
984.796; 1392.050;  218.875;    0.000
984.961; 1405.050;  202.875;    0.000
985.126; 1410.050;  238.875;    0.000
985.291; 1400.050;  220.875;    0.000
985.455; 1350.050;  223.875;    0.000
985.620; 1333.050;  218.875;    0.000
985.785; 1343.050;  228.875;    0.000
985.950; 1346.050;  212.875;    0.000
986.114; 1407.050;  215.875;    0.000
986.279; 1368.050;  243.875;    0.000
986.444; 1337.050;  222.875;    0.000
986.608; 1432.050;  243.875;    0.000
986.773; 1380.050;  213.875;    0.000
986.937; 1462.050;  267.875;    0.000
987.102; 1443.050;  235.875;    0.000
987.266; 1413.050;  210.875;    0.000
987.431; 1475.050;  239.875;    0.000
987.595; 1447.050;  230.875;    0.000
987.760; 1412.050;  229.875;    0.000
987.924; 1472.050;  217.875;    0.000
988.088; 1421.050;  210.875;    0.000
988.253; 1418.050;  215.875;    0.000
988.417; 1346.050;  186.875;    0.000
988.581; 1411.050;  214.875;    0.000
988.746; 1337.050;  212.875;    0.000
988.910; 1369.050;  192.875;    0.000
989.074; 1406.050;  195.875;    0.000
989.238; 1390.050;  226.875;    0.000
989.402; 1390.050;  214.875;    0.000
989.566; 1369.050;  201.875;    0.000
989.731; 1359.050;  199.875;    0.000
989.895; 1382.050;  205.875;    0.000
990.059; 1286.050;  204.875;    0.000
990.223; 1334.050;  182.875;    0.000
990.387; 1385.050;  220.875;    0.000
990.551; 1374.050;  199.875;    0.000
990.714; 1294.050;  202.875;    0.000
990.878; 1300.050;  201.875;    0.000
991.042; 1372.050;  202.875;    0.000
991.206; 1313.050;  215.875;    0.000
991.370; 1364.050;  217.875;    0.000
991.534; 1274.050;  152.875;    0.000
991.697; 1459.050;  194.875;    0.000
991.861; 1439.050;  208.875;    0.000
992.025; 1347.050;  209.875;    0.000
992.188; 1375.050;  182.875;    0.000
992.352; 1338.050;  181.875;    0.000
992.516; 1362.050;  192.875;    0.000
992.679; 1328.050;  183.875;    0.000
992.843; 1370.050;  156.875;    0.000
993.006; 1378.050;  192.875;    0.000
993.170; 1414.050;  172.875;    0.000
993.333; 1328.050;  195.875;    0.000
993.497; 1377.050;  185.875;    0.000
993.660; 1394.050;  155.875;    0.000
993.824; 1336.050;  199.875;    0.000
993.987; 1338.050;  211.875;    0.000
994.150; 1337.050;  173.875;    0.000
994.314; 1317.050;  202.875;    0.000
994.477; 1352.050;  171.875;    0.000
994.640; 1483.050;  191.875;    0.000
994.803; 1378.050;  203.875;    0.000
994.967; 1361.050;  198.875;    0.000
995.130; 1399.050;  192.875;    0.000
995.293; 1331.050;  211.875;    0.000
995.456; 1322.050;  207.875;    0.000
995.619; 1432.050;  207.875;    0.000
995.782; 1261.050;  186.875;    0.000
995.945; 1292.050;  203.875;    0.000
996.108; 1308.050;  195.875;    0.000
996.271; 1346.050;  195.875;    0.000
996.434; 1389.050;  179.875;    0.000
996.597; 1309.050;  170.875;    0.000
996.760; 1387.050;  161.875;    0.000
996.923; 1287.050;  177.875;    0.000
997.086; 1358.050;  199.875;    0.000
997.248; 1385.050;  225.875;    0.000
997.411; 1357.050;  194.875;    0.000
997.574; 1358.050;  204.875;    0.000
997.737; 1330.050;  236.875;    0.000
997.899; 1268.050;  191.875;    0.000
998.062; 1323.050;  178.875;    0.000
998.225; 1379.050;  176.875;    0.000
998.387; 1358.050;  203.875;    0.000
998.550; 1316.050;  155.875;    0.000
998.712; 1301.050;  169.875;    0.000
998.875; 1376.050;  234.875;    0.000
999.037; 1294.050;  211.875;    0.000
999.200; 1350.050;  185.875;    0.000
999.362; 1267.050;  199.875;    0.000
999.525; 1319.050;  234.875;    0.000
999.687; 1317.050;  194.875;    0.000
999.849; 1322.050;  223.875;    0.000
1000.012; 1328.050;  222.875;    0.000
1000.174; 1348.050;  187.875;    0.000
1000.336; 1328.050;  204.875;    0.000
1000.499; 1411.050;  240.875;    0.000
1000.661; 1314.050;  215.875;    0.000
1000.823; 1323.050;  206.875;    0.000
1000.985; 1327.050;  197.875;    0.000
1001.147; 1425.050;  221.875;    0.000
1001.309; 1318.050;  207.875;    0.000
1001.471; 1352.050;  227.875;    0.000
1001.633; 1432.050;  208.875;    0.000
1001.796; 1396.050;  158.875;    0.000
1001.958; 1439.050;  210.875;    0.000
1002.119; 1410.050;  223.875;    0.000
1002.281; 1487.050;  211.875;    0.000
1002.443; 1511.050;  227.875;    0.000
1002.605; 1527.050;  186.875;    0.000
1002.767; 1542.050;  242.875;    0.000
1002.929; 1650.050;  219.875;    0.000
1003.091; 1660.050;  191.875;    0.000
1003.252; 1830.050;  233.875;    0.000
1003.414; 1856.050;  214.875;    0.000
1003.576; 1882.050;  186.875;    0.000
1003.738; 1924.050;  175.875;    0.000
1003.899; 2087.050;  237.875;    0.000
1004.061; 2150.050;  220.875;    0.000
1004.222; 2271.050;  186.875;    0.000
1004.384; 2382.050;  216.875;    0.000
1004.546; 2349.050;  203.875;    0.000
1004.707; 2466.050;  216.875;    0.000
1004.869; 2492.050;  219.875;    0.000
1005.030; 2526.050;  188.875;    0.000
1005.191; 2548.050;  223.875;    0.000
1005.353; 2443.050;  227.875;    0.000
1005.514; 2314.050;  235.875;    0.000
1005.675; 2123.050;  201.875;    0.000
1005.837; 2086.050;  199.875;    0.000
1005.998; 2041.050;  219.875;    0.000
1006.159; 1992.050;  235.875;    0.000
1006.321; 2008.050;  199.875;    0.000
1006.482; 2120.050;  222.875;    0.000
1006.643; 2126.050;  195.875;    0.000
1006.804; 2221.050;  205.875;    0.000
1006.965; 2219.050;  199.875;    0.000
1007.126; 2299.050;  231.875;    0.000
1007.287; 2287.050;  208.875;    0.000
1007.448; 2418.050;  205.875;    0.000
1007.609; 2337.050;  256.875;    0.000
1007.770; 2150.050;  231.875;    0.000
1007.931; 2116.050;  223.875;    0.000
1008.092; 2218.050;  217.875;    0.000
1008.253; 2316.050;  236.875;    0.000
1008.414; 2435.050;  197.875;    0.000
1008.575; 2442.050;  233.875;    0.000
1008.736; 2331.050;  193.875;    0.000
1008.896; 2442.050;  238.875;    0.000
1009.057; 2341.050;  245.875;    0.000
1009.218; 2366.050;  240.875;    0.000
1009.379; 2340.050;  210.875;    0.000
1009.539; 2402.050;  234.875;    0.000
1009.700; 2442.050;  228.875;    0.000
1009.860; 2431.050;  238.875;    0.000
1010.021; 2448.050;  199.875;    0.000
1010.182; 2471.050;  214.875;    0.000
1010.342; 2456.050;  216.875;    0.000
1010.503; 2510.050;  207.875;    0.000
1010.663; 2684.050;  258.875;    0.000
1010.823; 2739.050;  243.875;    0.000
1010.984; 2788.050;  268.875;    0.000
1011.144; 2587.050;  217.875;    0.000
1011.305; 2676.050;  237.875;    0.000
1011.465; 2807.050;  216.875;    0.000
1011.625; 2882.050;  195.875;    0.000
1011.785; 2919.050;  201.875;    0.000
1011.946; 2922.050;  200.875;    0.000
1012.106; 2853.050;  206.875;    0.000
1012.266; 2850.050;  227.875;    0.000
1012.426; 2908.050;  221.875;    0.000
1012.586; 2906.050;  198.875;    0.000
1012.746; 2868.050;  215.875;    0.000
1012.906; 2703.050;  226.875;    0.000
1013.066; 2754.050;  221.875;    0.000
1013.226; 2905.050;  202.875;    0.000
1013.386; 2854.050;  210.875;    0.000
1013.546; 2803.050;  243.875;    0.000
1013.706; 2672.050;  200.875;    0.000
1013.866; 2838.050;  232.875;    0.000
1014.026; 2775.050;  206.875;    0.000
1014.186; 2866.050;  222.875;    0.000
1014.346; 2762.050;  233.875;    0.000
1014.505; 3003.050;  241.875;    0.000
1014.665; 3022.050;  225.875;    0.000
1014.825; 2922.050;  196.875;    0.000
1014.985; 2866.050;  234.875;    0.000
1015.144; 3092.050;  232.875;    0.000
1015.304; 3202.050;  214.875;    0.000
1015.464; 3084.050;  210.875;    0.000
1015.623; 3042.050;  219.875;    0.000
1015.783; 3384.050;  216.875;    0.000
1015.942; 3655.050;  267.875;    0.000
1016.102; 3614.050;  234.875;    0.000
1016.261; 3415.050;  230.875;    0.000
1016.420; 3790.050;  225.875;    0.000
1016.580; 4325.050;  205.875;    0.000
1016.739; 4200.050;  199.875;    0.000
1016.899; 3900.050;  218.875;    0.000
1017.058; 4212.050;  204.875;    0.000
1017.217; 4632.050;  196.875;    0.000
1017.376; 4317.050;  204.875;    0.000
1017.536; 3945.050;  195.875;    0.000
1017.695; 3907.050;  216.875;    0.000
1017.854; 4013.050;  235.875;    0.000
1018.013; 3809.050;  189.875;    0.000
1018.172; 3553.050;  217.875;    0.000
1018.331; 3513.050;  215.875;    0.000
1018.490; 3840.050;  233.875;    0.000
1018.649; 3995.050;  211.875;    0.000
1018.808; 4221.050;  196.875;    0.000
1018.967; 4119.050;  222.875;    0.000
1019.126; 4079.050;  221.875;    0.000
1019.285; 4319.050;  212.875;    0.000
1019.444; 4306.050;  231.875;    0.000
1019.603; 4073.050;  227.875;    0.000
1019.762; 3798.050;  192.875;    0.000
1019.921; 3828.050;  240.875;    0.000
1020.079; 4194.050;  209.875;    0.000
1020.238; 4502.050;  211.875;    0.000
1020.397; 4331.050;  253.875;    0.000
1020.555; 4116.050;  179.875;    0.000
1020.714; 4129.050;  225.875;    0.000
1020.873; 4500.050;  232.875;    0.000
1021.031; 4468.050;  245.875;    0.000
1021.190; 4034.050;  230.875;    0.000
1021.348; 4021.050;  221.875;    0.000
1021.507; 4517.050;  212.875;    0.000
1021.665; 4875.050;  211.875;    0.000
1021.824; 4525.050;  206.875;    0.000
1021.982; 4240.050;  218.875;    0.000
1022.141; 4127.050;  232.875;    0.000
1022.299; 4701.050;  193.875;    0.000
1022.457; 5018.050;  217.875;    0.000
1022.616; 4605.050;  248.875;    0.000
1022.774; 4207.050;  222.875;    0.000
1022.932; 4292.050;  211.875;    0.000
1023.090; 4943.050;  288.875;    0.000
1023.249; 5124.050;  214.875;    0.000
1023.407; 4699.050;  233.875;    0.000
1023.565; 4026.050;  208.875;    0.000
1023.723; 4497.050;  217.875;    0.000
1023.881; 5082.050;  235.875;    0.000
1024.039; 5043.050;  228.875;    0.000
1024.197; 4574.050;  216.875;    0.000
1024.355; 4294.050;  251.875;    0.000
1024.513; 4373.050;  232.875;    0.000
1024.671; 5066.050;  217.875;    0.000
1024.829; 5060.050;  255.875;    0.000
1024.987; 4736.050;  203.875;    0.000
1025.145; 4284.050;  239.875;    0.000
1025.302; 4417.050;  209.875;    0.000
1025.460; 4864.050;  224.875;    0.000
1025.618; 5189.050;  193.875;    0.000
1025.776; 5101.050;  209.875;    0.000
1025.933; 4459.050;  229.875;    0.000
1026.091; 4439.050;  218.875;    0.000
1026.249; 4927.050;  269.875;    0.000
1026.406; 5295.050;  264.875;    0.000
1026.564; 5203.050;  230.875;    0.000
1026.721; 4754.050;  198.875;    0.000
1026.879; 4706.050;  216.875;    0.000
1027.036; 5000.050;  226.875;    0.000
1027.194; 5248.050;  245.875;    0.000
1027.351; 5412.050;  236.875;    0.000
1027.509; 5068.050;  262.875;    0.000
1027.666; 4858.050;  227.875;    0.000
1027.823; 5177.050;  214.875;    0.000
1027.981; 5263.050;  258.875;    0.000
1028.138; 5377.050;  239.875;    0.000
1028.295; 5359.050;  226.875;    0.000
1028.452; 5056.050;  225.875;    0.000
1028.609; 5031.050;  276.875;    0.000
1028.767; 5288.050;  228.875;    0.000
1028.924; 5525.050;  213.875;    0.000
1029.081; 5180.050;  232.875;    0.000
1029.238; 5193.050;  250.875;    0.000
1029.395; 5126.050;  255.875;    0.000
1029.552; 5275.050;  217.875;    0.000
1029.709; 5591.050;  210.875;    0.000
1029.866; 5485.050;  243.875;    0.000
1030.023; 5441.050;  202.875;    0.000
1030.180; 5080.050;  233.875;    0.000
1030.337; 5128.050;  234.875;    0.000
1030.494; 5458.050;  222.875;    0.000
1030.650; 5703.050;  241.875;    0.000
1030.807; 5779.050;  206.875;    0.000
1030.964; 5389.050;  206.875;    0.000
1031.121; 5275.050;  228.875;    0.000
1031.277; 5200.050;  228.875;    0.000
1031.434; 5646.050;  234.875;    0.000
1031.591; 5910.050;  250.875;    0.000
1031.747; 5919.050;  246.875;    0.000
1031.904; 5770.050;  201.875;    0.000
1032.060; 5495.050;  237.875;    0.000
1032.217; 5310.050;  232.875;    0.000
1032.373; 6116.050;  210.875;    0.000
1032.530; 6182.050;  246.875;    0.000
1032.686; 6800.050;  196.875;    0.000
1032.843; 6530.050;  212.875;    0.000
1032.999; 6142.050;  243.875;    0.000
1033.155; 6487.050;  234.875;    0.000
1033.312; 6350.050;  246.875;    0.000
1033.468; 7615.050;  233.875;    0.000
1033.624; 8134.050;  237.875;    0.000
1033.780; 8436.050;  263.875;    0.000
1033.937; 8334.050;  214.875;    0.000
1034.093; 7554.050;  230.875;    0.000
1034.249; 7882.050;  206.875;    0.000
1034.405; 8098.050;  238.875;    0.000
1034.561; 8645.050;  231.875;    0.000
1034.717; 9242.050;  228.875;    0.000
1034.873; 8882.050;  262.875;    0.000
1035.029; 8916.050;  252.875;    0.000
1035.185; 8178.050;  232.875;    0.000
1035.341; 7533.050;  245.875;    0.000
1035.497; 8580.050;  253.875;    0.000
1035.653; 8700.050;  252.875;    0.000
1035.809; 9923.050;  245.875;    0.000
1035.964;10956.050;  229.875;    0.000
1036.120;10071.050;  226.875;    0.000
1036.276;10239.050;  236.875;    0.000
1036.432; 9921.050;  203.875;    0.000
1036.587; 9170.050;  228.875;    0.000
1036.743; 9785.050;  240.875;    0.000
1036.899;10784.050;  220.875;    0.000
1037.054;10736.050;  153.875;    0.000
1037.210;12199.050;  219.875;    0.000
1037.365;11740.050;  229.875;    0.000
1037.521;10745.050;  257.875;    0.000
1037.676;10879.050;  211.875;    0.000
1037.832;10217.050;  234.875;    0.000
1037.987;10394.050;  235.875;    0.000
1038.143;10753.050;  176.875;    0.000
1038.298;12529.050;  262.875;    0.000
1038.453;12300.050;  209.875;    0.000
1038.609;13717.050;  230.875;    0.000
1038.764;13734.050;  253.875;    0.000
1038.919;12401.050;  195.875;    0.000
1039.074;12083.050;  234.875;    0.000
1039.229;11175.050;  234.875;    0.000
1039.385;11393.050;  266.875;    0.000
1039.540;11506.050;  252.875;    0.000
1039.695;12813.050;  231.875;    0.000
1039.850;14132.050;  208.875;    0.000
1040.005;14776.050;  232.875;    0.000
1040.160;15667.050;  214.875;    0.000
1040.315;14776.050;  221.875;    0.000
1040.470;13771.050;  207.875;    0.000
1040.625;13311.050;  249.875;    0.000
1040.780;13169.050;  251.875;    0.000
1040.935;13268.050;  254.875;    0.000
1041.089;13869.050;  210.875;    0.000
1041.244;15568.050;  225.875;    0.000
1041.399;16270.050;  208.875;    0.000
1041.554;17659.051;  249.875;    0.000
1041.708;19537.051;  254.875;    0.000
1041.863;18547.051;  248.875;    0.000
1042.018;17889.051;  280.875;    0.000
1042.172;16946.051;  233.875;    0.000
1042.327;15308.050;  256.875;    0.000
1042.481;16187.050;  210.875;    0.000
1042.636;17132.051;  229.875;    0.000
1042.791;16769.051;  215.875;    0.000
1042.945;19780.051;  256.875;    0.000
1043.099;21343.051;  251.875;    0.000
1043.254;21160.051;  204.875;    0.000
1043.408;22695.051;  278.875;    0.000
1043.563;23647.051;  211.875;    0.000
1043.717;22157.051;  259.875;    0.000
1043.871;21422.051;  233.875;    0.000
1044.025;19985.051;  221.875;    0.000
1044.180;19668.051;  208.875;    0.000
1044.334;20134.051;  255.875;    0.000
1044.488;21459.051;  269.875;    0.000
1044.642;22492.051;  228.875;    0.000
1044.796;24179.051;  232.875;    0.000
1044.950;27415.051;  249.875;    0.000
1045.104;29800.051;  205.875;    0.000
1045.258;30808.051;  206.875;    0.000
1045.412;28907.051;  251.875;    0.000
1045.566;28342.051;  249.875;    0.000
1045.720;26686.051;  206.875;    0.000
1045.874;23767.051;  232.875;    0.000
1046.028;23127.051;  266.875;    0.000
1046.182;23852.051;  217.875;    0.000
1046.336;25234.051;  216.875;    0.000
1046.489;25574.051;  236.875;    0.000
1046.643;25108.051;  253.875;    0.000
1046.797;29578.051;  244.875;    0.000
1046.951;29373.051;  234.875;    0.000
1047.104;29572.051;  281.875;    0.000
1047.258;31860.051;  253.875;    0.000
1047.411;32255.051;  228.875;    0.000
1047.565;32008.051;  273.875;    0.000
1047.719;29377.051;  232.875;    0.000
1047.872;29751.051;  230.875;    0.000
1048.026;29141.051;  282.875;    0.000
1048.179;28836.051;  225.875;    0.000
1048.332;30113.051;  234.875;    0.000
1048.486;28097.051;  223.875;    0.000
1048.639;28230.051;  248.875;    0.000
1048.792;28953.051;  244.875;    0.000
1048.946;32891.051;  210.875;    0.000
1049.099;35515.051;  242.875;    0.000
1049.252;35973.051;  269.875;    0.000
1049.406;33244.051;  285.875;    0.000
1049.559;34723.051;  277.875;    0.000
1049.712;37876.051;  254.875;    0.000
1049.865;40984.051;  252.875;    0.000
1050.018;40697.051;  270.875;    0.000
1050.171;35869.051;  230.875;    0.000
1050.324;34530.051;  268.875;    0.000
1050.477;35417.051;  262.875;    0.000
1050.630;38207.051;  243.875;    0.000
1050.783;38919.051;  216.875;    0.000
1050.936;38285.051;  250.875;    0.000
1051.089;36296.051;  247.875;    0.000
1051.242;39265.051;  300.875;    0.000
1051.394;42876.051;  233.875;    0.000
1051.547;43424.051;  263.875;    0.000
1051.700;39051.051;  238.875;    0.000
1051.853;38605.051;  299.875;    0.000
1052.005;41007.051;  275.875;    0.000
1052.158;46417.051;  304.875;    0.000
1052.311;52019.051;  251.875;    0.000
1052.463;49288.051;  276.875;    0.000
1052.616;42001.051;  271.875;    0.000
1052.768;36962.051;  285.875;    0.000
1052.921;37737.051;  261.875;    0.000
1053.073;41004.051;  333.875;    0.000
1053.226;46077.051;  271.875;    0.000
1053.378;50955.051;  309.875;    0.000
1053.531;55656.051;  266.875;    0.000
1053.683;52055.051;  278.875;    0.000
1053.835;44369.051;  274.875;    0.000
1053.988;35191.051;  287.875;    0.000
1054.140; 6120.050;  350.875;    0.000
1054.292; 1461.050;  338.875;    0.000
1054.444; 1174.050;  270.875;    0.000
1054.596; 1079.050;  294.875;    0.000
1054.749; 1040.050;  285.875;    0.000
1054.901;  965.050;  254.875;    0.000
1055.053;  835.050;  320.875;    0.000
1055.205;  832.050;  284.875;    0.000
1055.357;  814.050;  298.875;    0.000
1055.509;  775.050;  304.875;    0.000
1055.661;  751.050;  350.875;    0.000
1055.813;  718.050;  289.875;    0.000
1055.965;  741.050;  277.875;    0.000
1056.116;  780.050;  288.875;    0.000
1056.268;  680.050;  311.875;    0.000
1056.420;  708.050;  308.875;    0.000

