
Integration time [ms]:   0.300
Averaging Nr. [scans]: 1
Smoothing Nr. [pixels]: 0
Data measured with spectrometer [name]: VIS
Wave   ;Sample   ;Dark     ;Reference
[nm]   ;[counts] ;[counts] ;[counts] 

450.961;  198.200;  204.350;    0.000
451.100;  238.200;  243.350;    0.000
451.239;  213.200;  228.350;    0.000
451.377;  249.200;  250.350;    0.000
451.516;  211.200;  189.350;    0.000
451.655;  217.200;  235.350;    0.000
451.794;  229.200;  223.350;    0.000
451.932;  239.200;  269.350;    0.000
452.071;  229.200;  250.350;    0.000
452.210;  234.200;  262.350;    0.000
452.348;  243.200;  259.350;    0.000
452.487;  229.200;  231.350;    0.000
452.626;  202.200;  220.350;    0.000
452.764;  235.200;  252.350;    0.000
452.903;  245.200;  236.350;    0.000
453.042;  268.200;  217.350;    0.000
453.180; 2917.200;  273.350;    0.000
453.319; 2933.200;  261.350;    0.000
453.458; 2890.200;  219.350;    0.000
453.596; 2977.200;  307.350;    0.000
453.735; 3070.200;  246.350;    0.000
453.873; 3081.200;  270.350;    0.000
454.012; 3087.200;  232.350;    0.000
454.150; 3119.200;  211.350;    0.000
454.289; 3163.200;  245.350;    0.000
454.427; 3107.200;  224.350;    0.000
454.566; 3209.200;  252.350;    0.000
454.704; 3228.200;  225.350;    0.000
454.843; 3252.200;  195.350;    0.000
454.981; 3360.200;  258.350;    0.000
455.120; 3180.200;  191.350;    0.000
455.258; 3415.200;  243.350;    0.000
455.397; 3376.200;  188.350;    0.000
455.535; 3460.200;  219.350;    0.000
455.674; 3408.200;  184.350;    0.000
455.812; 3416.200;  225.350;    0.000
455.951; 3524.200;  201.350;    0.000
456.089; 3458.200;  187.350;    0.000
456.227; 3546.200;  199.350;    0.000
456.366; 3452.200;  235.350;    0.000
456.504; 3714.200;  216.350;    0.000
456.642; 3592.200;  256.350;    0.000
456.781; 3703.200;  201.350;    0.000
456.919; 3847.200;  231.350;    0.000
457.057; 3806.200;  181.350;    0.000
457.196; 3805.200;  231.350;    0.000
457.334; 3926.200;  229.350;    0.000
457.472; 3980.200;  242.350;    0.000
457.610; 3954.200;  221.350;    0.000
457.749; 4055.200;  218.350;    0.000
457.887; 4087.200;  213.350;    0.000
458.025; 4105.200;  228.350;    0.000
458.163; 4136.200;  204.350;    0.000
458.301; 4259.200;  230.350;    0.000
458.440; 4256.200;  200.350;    0.000
458.578; 4384.200;  222.350;    0.000
458.716; 4267.200;  137.350;    0.000
458.854; 4464.200;  259.350;    0.000
458.992; 4536.200;  172.350;    0.000
459.130; 4586.200;  253.350;    0.000
459.269; 4586.200;  212.350;    0.000
459.407; 4628.200;  212.350;    0.000
459.545; 4620.200;  225.350;    0.000
459.683; 4742.200;  225.350;    0.000
459.821; 4679.200;  192.350;    0.000
459.959; 4781.200;  205.350;    0.000
460.097; 4894.200;  199.350;    0.000
460.235; 4990.200;  232.350;    0.000
460.373; 4997.200;  248.350;    0.000
460.511; 4898.200;  225.350;    0.000
460.649; 5047.200;  204.350;    0.000
460.787; 4973.200;  221.350;    0.000
460.925; 4971.200;  181.350;    0.000
461.063; 5223.200;  243.350;    0.000
461.201; 5079.200;  212.350;    0.000
461.339; 5200.200;  229.350;    0.000
461.477; 5149.200;  162.350;    0.000
461.615; 5128.200;  232.350;    0.000
461.753; 5092.200;  193.350;    0.000
461.891; 5232.200;  217.350;    0.000
462.029; 5488.200;  224.350;    0.000
462.166; 5517.200;  222.350;    0.000
462.304; 5462.200;  185.350;    0.000
462.442; 5532.200;  246.350;    0.000
462.580; 5490.200;  246.350;    0.000
462.718; 5680.200;  235.350;    0.000
462.856; 5591.200;  230.350;    0.000
462.993; 5645.200;  266.350;    0.000
463.131; 5592.200;  208.350;    0.000
463.269; 5677.200;  218.350;    0.000
463.407; 5376.200;  215.350;    0.000
463.545; 5360.200;  200.350;    0.000
463.682; 5509.200;  206.350;    0.000
463.820; 5808.200;  211.350;    0.000
463.958; 5957.200;  206.350;    0.000
464.095; 6068.200;  193.350;    0.000
464.233; 6086.200;  203.350;    0.000
464.371; 6071.200;  258.350;    0.000
464.509; 6098.200;  219.350;    0.000
464.646; 6011.200;  210.350;    0.000
464.784; 6028.200;  206.350;    0.000
464.921; 5949.200;  233.350;    0.000
465.059; 5960.200;  186.350;    0.000
465.197; 5837.200;  213.350;    0.000
465.334; 5730.200;  202.350;    0.000
465.472; 5672.200;  236.350;    0.000
465.609; 5635.200;  206.350;    0.000
465.747; 5602.200;  208.350;    0.000
465.885; 5591.200;  198.350;    0.000
466.022; 5515.200;  210.350;    0.000
466.160; 5560.200;  245.350;    0.000
466.297; 5586.200;  226.350;    0.000
466.435; 5429.200;  235.350;    0.000
466.572; 5604.200;  226.350;    0.000
466.710; 5584.200;  266.350;    0.000
466.847; 5576.200;  258.350;    0.000
466.985; 5485.200;  228.350;    0.000
467.122; 5505.200;  201.350;    0.000
467.260; 5478.200;  170.350;    0.000
467.397; 5498.200;  174.350;    0.000
467.534; 5474.200;  244.350;    0.000
467.672; 5417.200;  247.350;    0.000
467.809; 5491.200;  182.350;    0.000
467.947; 5515.200;  208.350;    0.000
468.084; 5539.200;  206.350;    0.000
468.221; 5589.200;  249.350;    0.000
468.359; 5487.200;  253.350;    0.000
468.496; 5368.200;  208.350;    0.000
468.633; 5310.200;  189.350;    0.000
468.771; 5452.200;  216.350;    0.000
468.908; 5495.200;  240.350;    0.000
469.045; 5492.200;  234.350;    0.000
469.183; 5514.200;  203.350;    0.000
469.320; 5589.200;  230.350;    0.000
469.457; 5754.200;  219.350;    0.000
469.594; 5648.200;  233.350;    0.000
469.732; 5642.200;  230.350;    0.000
469.869; 5617.200;  239.350;    0.000
470.006; 5669.200;  224.350;    0.000
470.143; 5673.200;  241.350;    0.000
470.280; 5786.200;  234.350;    0.000
470.417; 5687.200;  236.350;    0.000
470.555; 5723.200;  207.350;    0.000
470.692; 5719.200;  251.350;    0.000
470.829; 5781.200;  238.350;    0.000
470.966; 5725.200;  242.350;    0.000
471.103; 5714.200;  215.350;    0.000
471.240; 5702.200;  237.350;    0.000
471.377; 5696.200;  235.350;    0.000
471.514; 5679.200;  256.350;    0.000
471.651; 5679.200;  198.350;    0.000
471.789; 5607.200;  215.350;    0.000
471.926; 5519.200;  210.350;    0.000
472.063; 5614.200;  237.350;    0.000
472.200; 5698.200;  265.350;    0.000
472.337; 5470.200;  240.350;    0.000
472.474; 5526.200;  195.350;    0.000
472.611; 5450.200;  228.350;    0.000
472.748; 5483.200;  234.350;    0.000
472.884; 5583.200;  230.350;    0.000
473.021; 5445.200;  219.350;    0.000
473.158; 5531.200;  253.350;    0.000
473.295; 5463.200;  207.350;    0.000
473.432; 5370.200;  238.350;    0.000
473.569; 5482.200;  236.350;    0.000
473.706; 5393.200;  203.350;    0.000
473.843; 5542.200;  232.350;    0.000
473.980; 5502.200;  207.350;    0.000
474.117; 5589.200;  182.350;    0.000
474.253; 5595.200;  261.350;    0.000
474.390; 5637.200;  211.350;    0.000
474.527; 5393.200;  229.350;    0.000
474.664; 5505.200;  181.350;    0.000
474.801; 5495.200;  250.350;    0.000
474.937; 5664.200;  196.350;    0.000
475.074; 5717.200;  213.350;    0.000
475.211; 5629.200;  232.350;    0.000
475.348; 5685.200;  228.350;    0.000
475.484; 5616.200;  240.350;    0.000
475.621; 5604.200;  235.350;    0.000
475.758; 5713.200;  232.350;    0.000
475.894; 5561.200;  227.350;    0.000
476.031; 5591.200;  233.350;    0.000
476.168; 5744.200;  205.350;    0.000
476.304; 5640.200;  263.350;    0.000
476.441; 5695.200;  255.350;    0.000
476.578; 5701.200;  191.350;    0.000
476.714; 5726.200;  218.350;    0.000
476.851; 5780.200;  224.350;    0.000
476.987; 5716.200;  225.350;    0.000
477.124; 5692.200;  231.350;    0.000
477.261; 5745.200;  291.350;    0.000
477.397; 5719.200;  218.350;    0.000
477.534; 5856.200;  209.350;    0.000
477.670; 5658.200;  210.350;    0.000
477.807; 5802.200;  199.350;    0.000
477.943; 6001.200;  219.350;    0.000
478.080; 6036.200;  234.350;    0.000
478.216; 6002.200;  196.350;    0.000
478.353; 5877.200;  234.350;    0.000
478.489; 6121.200;  219.350;    0.000
478.626; 6049.200;  209.350;    0.000
478.762; 6048.200;  206.350;    0.000
478.898; 6137.200;  209.350;    0.000
479.035; 6099.200;  232.350;    0.000
479.171; 6117.200;  219.350;    0.000
479.308; 6101.200;  226.350;    0.000
479.444; 6132.200;  184.350;    0.000
479.580; 6169.200;  192.350;    0.000
479.717; 6142.200;  247.350;    0.000
479.853; 6111.200;  181.350;    0.000
479.989; 6301.200;  212.350;    0.000
480.126; 6230.200;  187.350;    0.000
480.262; 6121.200;  217.350;    0.000
480.398; 6239.200;  249.350;    0.000
480.535; 6160.200;  196.350;    0.000
480.671; 6211.200;  199.350;    0.000
480.807; 6237.200;  231.350;    0.000
480.943; 6089.200;  192.350;    0.000
481.080; 6166.200;  206.350;    0.000
481.216; 6124.200;  189.350;    0.000
481.352; 6156.200;  215.350;    0.000
481.488; 6117.200;  223.350;    0.000
481.624; 6155.200;  235.350;    0.000
481.760; 6053.200;  218.350;    0.000
481.897; 6108.200;  204.350;    0.000
482.033; 6142.200;  243.350;    0.000
482.169; 6045.200;  239.350;    0.000
482.305; 6092.200;  221.350;    0.000
482.441; 6047.200;  162.350;    0.000
482.577; 6104.200;  241.350;    0.000
482.713; 6099.200;  223.350;    0.000
482.849; 6115.200;  195.350;    0.000
482.985; 6120.200;  230.350;    0.000
483.121; 6016.200;  230.350;    0.000
483.258; 6110.200;  254.350;    0.000
483.394; 6062.200;  199.350;    0.000
483.530; 5966.200;  209.350;    0.000
483.665; 6086.200;  196.350;    0.000
483.801; 6070.200;  208.350;    0.000
483.937; 6141.200;  202.350;    0.000
484.073; 6077.200;  247.350;    0.000
484.209; 6061.200;  188.350;    0.000
484.345; 6097.200;  241.350;    0.000
484.481; 6151.200;  247.350;    0.000
484.617; 6147.200;  248.350;    0.000
484.753; 6113.200;  255.350;    0.000
484.889; 6165.200;  253.350;    0.000
485.025; 6069.200;  226.350;    0.000
485.161; 6032.200;  207.350;    0.000
485.296; 6208.200;  247.350;    0.000
485.432; 6153.200;  255.350;    0.000
485.568; 6133.200;  216.350;    0.000
485.704; 6163.200;  232.350;    0.000
485.840; 6344.200;  231.350;    0.000
485.975; 6180.200;  233.350;    0.000
486.111; 6151.200;  207.350;    0.000
486.247; 6341.200;  211.350;    0.000
486.383; 6318.200;  219.350;    0.000
486.518; 6266.200;  213.350;    0.000
486.654; 6420.200;  216.350;    0.000
486.790; 6364.200;  253.350;    0.000
486.926; 6171.200;  229.350;    0.000
487.061; 6303.200;  241.350;    0.000
487.197; 6419.200;  218.350;    0.000
487.333; 6288.200;  221.350;    0.000
487.468; 6150.200;  206.350;    0.000
487.604; 6154.200;  254.350;    0.000
487.740; 6244.200;  240.350;    0.000
487.875; 6218.200;  260.350;    0.000
488.011; 6402.200;  232.350;    0.000
488.146; 6317.200;  206.350;    0.000
488.282; 6281.200;  236.350;    0.000
488.417; 6320.200;  255.350;    0.000
488.553; 6397.200;  221.350;    0.000
488.688; 6283.200;  233.350;    0.000
488.824; 6385.200;  246.350;    0.000
488.960; 6453.200;  267.350;    0.000
489.095; 6448.200;  217.350;    0.000
489.230; 6469.200;  226.350;    0.000
489.366; 6414.200;  232.350;    0.000
489.501; 6361.200;  220.350;    0.000
489.637; 6317.200;  245.350;    0.000
489.772; 6394.200;  228.350;    0.000
489.908; 6365.200;  250.350;    0.000
490.043; 6335.200;  239.350;    0.000
490.178; 6323.200;  213.350;    0.000
490.314; 6523.200;  270.350;    0.000
490.449; 6449.200;  245.350;    0.000
490.585; 6517.200;  218.350;    0.000
490.720; 6424.200;  243.350;    0.000
490.855; 6468.200;  196.350;    0.000
490.991; 6420.200;  208.350;    0.000
491.126; 6585.200;  268.350;    0.000
491.261; 6559.200;  226.350;    0.000
491.396; 6606.200;  201.350;    0.000
491.532; 6492.200;  213.350;    0.000
491.667; 6602.200;  183.350;    0.000
491.802; 6549.200;  239.350;    0.000
491.937; 6628.200;  228.350;    0.000
492.073; 6655.200;  258.350;    0.000
492.208; 6644.200;  218.350;    0.000
492.343; 6751.200;  205.350;    0.000
492.478; 6849.200;  247.350;    0.000
492.613; 6772.200;  217.350;    0.000
492.749; 6604.200;  258.350;    0.000
492.884; 6732.200;  208.350;    0.000
493.019; 6694.200;  248.350;    0.000
493.154; 6653.200;  231.350;    0.000
493.289; 6634.200;  226.350;    0.000
493.424; 6626.200;  216.350;    0.000
493.559; 6614.200;  205.350;    0.000
493.694; 6687.200;  203.350;    0.000
493.829; 6721.200;  231.350;    0.000
493.964; 6621.200;  200.350;    0.000
494.099; 6697.200;  253.350;    0.000
494.234; 6847.200;  244.350;    0.000
494.369; 6722.200;  239.350;    0.000
494.504; 6761.200;  223.350;    0.000
494.639; 6673.200;  263.350;    0.000
494.774; 6715.200;  240.350;    0.000
494.909; 6672.200;  231.350;    0.000
495.044; 6669.200;  195.350;    0.000
495.179; 6685.200;  231.350;    0.000
495.314; 6771.200;  231.350;    0.000
495.449; 6722.200;  239.350;    0.000
495.584; 6772.200;  201.350;    0.000
495.719; 6855.200;  201.350;    0.000
495.854; 6917.200;  201.350;    0.000
495.988; 6890.200;  239.350;    0.000
496.123; 6913.200;  199.350;    0.000
496.258; 7066.200;  256.350;    0.000
496.393; 7096.200;  214.350;    0.000
496.528; 7187.200;  220.350;    0.000
496.663; 7117.200;  207.350;    0.000
496.797; 7147.200;  241.350;    0.000
496.932; 7419.200;  215.350;    0.000
497.067; 7370.200;  240.350;    0.000
497.202; 7374.200;  177.350;    0.000
497.336; 7743.200;  221.350;    0.000
497.471; 7832.200;  228.350;    0.000
497.606; 7930.200;  213.350;    0.000
497.740; 8309.200;  217.350;    0.000
497.875; 8457.200;  182.350;    0.000
498.010; 8712.200;  230.350;    0.000
498.144; 8942.200;  217.350;    0.000
498.279; 9051.200;  194.350;    0.000
498.414; 9291.200;  270.350;    0.000
498.548; 8993.200;  184.350;    0.000
498.683; 9116.200;  188.350;    0.000
498.817; 8971.200;  216.350;    0.000
498.952; 9222.200;  208.350;    0.000
499.087; 9434.200;  236.350;    0.000
499.221; 9383.200;  219.350;    0.000
499.356; 9530.200;  263.350;    0.000
499.490; 9670.200;  221.350;    0.000
499.625; 9807.200;  233.350;    0.000
499.759;10011.200;  245.350;    0.000
499.894;10328.200;  241.350;    0.000
500.028;10543.200;  237.350;    0.000
500.162;10585.200;  282.350;    0.000
500.297;10508.200;  232.350;    0.000
500.431;10450.200;  266.350;    0.000
500.566;10460.200;  254.350;    0.000
500.700;10510.200;  238.350;    0.000
500.835;10417.200;  264.350;    0.000
500.969;10190.200;  165.350;    0.000
501.103; 9811.200;  190.350;    0.000
501.238; 9802.200;  274.350;    0.000
501.372; 9239.200;  270.350;    0.000
501.506; 9031.200;  231.350;    0.000
501.641; 8875.200;  224.350;    0.000
501.775; 8696.200;  224.350;    0.000
501.909; 8387.200;  218.350;    0.000
502.043; 8254.200;  238.350;    0.000
502.178; 8156.200;  289.350;    0.000
502.312; 7920.200;  225.350;    0.000
502.446; 7840.200;  295.350;    0.000
502.580; 7588.200;  200.350;    0.000
502.715; 7657.200;  256.350;    0.000
502.849; 7554.200;  226.350;    0.000
502.983; 7520.200;  250.350;    0.000
503.117; 7386.200;  229.350;    0.000
503.251; 7412.200;  267.350;    0.000
503.385; 7321.200;  237.350;    0.000
503.520; 7133.200;  210.350;    0.000
503.654; 6966.200;  204.350;    0.000
503.788; 6943.200;  236.350;    0.000
503.922; 6858.200;  225.350;    0.000
504.056; 6793.200;  222.350;    0.000
504.190; 6679.200;  220.350;    0.000
504.324; 6673.200;  257.350;    0.000
504.458; 6588.200;  223.350;    0.000
504.592; 6561.200;  252.350;    0.000
504.726; 6447.200;  216.350;    0.000
504.860; 6392.200;  231.350;    0.000
504.994; 6249.200;  228.350;    0.000
505.128; 6380.200;  239.350;    0.000
505.262; 6151.200;  245.350;    0.000
505.396; 6010.200;  231.350;    0.000
505.530; 5960.200;  211.350;    0.000
505.664; 5925.200;  223.350;    0.000
505.798; 5918.200;  239.350;    0.000
505.932; 5880.200;  232.350;    0.000
506.066; 5907.200;  263.350;    0.000
506.199; 5714.200;  231.350;    0.000
506.333; 5653.200;  213.350;    0.000
506.467; 5659.200;  241.350;    0.000
506.601; 5618.200;  233.350;    0.000
506.735; 5546.200;  235.350;    0.000
506.869; 5483.200;  269.350;    0.000
507.002; 5523.200;  244.350;    0.000
507.136; 5456.200;  258.350;    0.000
507.270; 5443.200;  218.350;    0.000
507.404; 5381.200;  191.350;    0.000
507.537; 5342.200;  226.350;    0.000
507.671; 5350.200;  243.350;    0.000
507.805; 5384.200;  234.350;    0.000
507.939; 5380.200;  234.350;    0.000
508.072; 5195.200;  261.350;    0.000
508.206; 5259.200;  220.350;    0.000
508.340; 5355.200;  241.350;    0.000
508.473; 5248.200;  214.350;    0.000
508.607; 5258.200;  232.350;    0.000
508.740; 5152.200;  222.350;    0.000
508.874; 5276.200;  225.350;    0.000
509.008; 5162.200;  258.350;    0.000
509.141; 5216.200;  210.350;    0.000
509.275; 5105.200;  199.350;    0.000
509.408; 5036.200;  260.350;    0.000
509.542; 4980.200;  252.350;    0.000
509.675; 5063.200;  276.350;    0.000
509.809; 5028.200;  266.350;    0.000
509.942; 5093.200;  227.350;    0.000
510.076; 5026.200;  243.350;    0.000
510.209; 5048.200;  221.350;    0.000
510.343; 5038.200;  229.350;    0.000
510.476; 4958.200;  246.350;    0.000
510.610; 4893.200;  211.350;    0.000
510.743; 4953.200;  279.350;    0.000
510.877; 5026.200;  274.350;    0.000
511.010; 4937.200;  252.350;    0.000
511.143; 4911.200;  228.350;    0.000
511.277; 4843.200;  261.350;    0.000
511.410; 4895.200;  217.350;    0.000
511.543; 4865.200;  230.350;    0.000
511.677; 4943.200;  245.350;    0.000
511.810; 4828.200;  237.350;    0.000
511.943; 4876.200;  224.350;    0.000
512.077; 4828.200;  194.350;    0.000
512.210; 4873.200;  212.350;    0.000
512.343; 4814.200;  236.350;    0.000
512.476; 4916.200;  248.350;    0.000
512.610; 4782.200;  249.350;    0.000
512.743; 4684.200;  224.350;    0.000
512.876; 4853.200;  277.350;    0.000
513.009; 4953.200;  261.350;    0.000
513.142; 4852.200;  213.350;    0.000
513.276; 4839.200;  192.350;    0.000
513.409; 4744.200;  267.350;    0.000
513.542; 4841.200;  224.350;    0.000
513.675; 4811.200;  244.350;    0.000
513.808; 4876.200;  218.350;    0.000
513.941; 4764.200;  237.350;    0.000
514.074; 4718.200;  257.350;    0.000
514.207; 4813.200;  245.350;    0.000
514.340; 4710.200;  195.350;    0.000
514.474; 4890.200;  244.350;    0.000
514.607; 4940.200;  230.350;    0.000
514.740; 4983.200;  246.350;    0.000
514.873; 5133.200;  268.350;    0.000
515.006; 5275.200;  253.350;    0.000
515.139; 5269.200;  235.350;    0.000
515.272; 5466.200;  214.350;    0.000
515.404; 5540.200;  228.350;    0.000
515.537; 5551.200;  263.350;    0.000
515.670; 5362.200;  270.350;    0.000
515.803; 5213.200;  243.350;    0.000
515.936; 5071.200;  226.350;    0.000
516.069; 5184.200;  227.350;    0.000
516.202; 5090.200;  259.350;    0.000
516.335; 5121.200;  260.350;    0.000
516.468; 5229.200;  243.350;    0.000
516.600; 5256.200;  258.350;    0.000
516.733; 5304.200;  235.350;    0.000
516.866; 5305.200;  267.350;    0.000
516.999; 5261.200;  251.350;    0.000
517.132; 5473.200;  261.350;    0.000
517.264; 5818.200;  260.350;    0.000
517.397; 5852.200;  231.350;    0.000
517.530; 5457.200;  257.350;    0.000
517.663; 5313.200;  263.350;    0.000
517.795; 5271.200;  250.350;    0.000
517.928; 5319.200;  257.350;    0.000
518.061; 5226.200;  227.350;    0.000
518.193; 5395.200;  252.350;    0.000
518.326; 5983.200;  227.350;    0.000
518.459; 6010.200;  210.350;    0.000
518.591; 5536.200;  214.350;    0.000
518.724; 5233.200;  269.350;    0.000
518.857; 4948.200;  215.350;    0.000
518.989; 4998.200;  259.350;    0.000
519.122; 4903.200;  238.350;    0.000
519.254; 4906.200;  248.350;    0.000
519.387; 4821.200;  246.350;    0.000
519.519; 4746.200;  239.350;    0.000
519.652; 4777.200;  249.350;    0.000
519.784; 4772.200;  238.350;    0.000
519.917; 4725.200;  231.350;    0.000
520.049; 4693.200;  244.350;    0.000
520.182; 4723.200;  205.350;    0.000
520.314; 4697.200;  262.350;    0.000
520.447; 4772.200;  234.350;    0.000
520.579; 4699.200;  273.350;    0.000
520.712; 4571.200;  215.350;    0.000
520.844; 4658.200;  258.350;    0.000
520.976; 4471.200;  242.350;    0.000
521.109; 4580.200;  232.350;    0.000
521.241; 4540.200;  236.350;    0.000
521.373; 4448.200;  227.350;    0.000
521.506; 4451.200;  212.350;    0.000
521.638; 4450.200;  292.350;    0.000
521.770; 4462.200;  259.350;    0.000
521.903; 4354.200;  263.350;    0.000
522.035; 4358.200;  269.350;    0.000
522.167; 4282.200;  289.350;    0.000
522.300; 4375.200;  255.350;    0.000
522.432; 4249.200;  247.350;    0.000
522.564; 4191.200;  239.350;    0.000
522.696; 4173.200;  246.350;    0.000
522.828; 4207.200;  230.350;    0.000
522.961; 4324.200;  239.350;    0.000
523.093; 4187.200;  269.350;    0.000
523.225; 4216.200;  251.350;    0.000
523.357; 4249.200;  244.350;    0.000
523.489; 4196.200;  266.350;    0.000
523.621; 4186.200;  267.350;    0.000
523.753; 4078.200;  234.350;    0.000
523.885; 4096.200;  229.350;    0.000
524.018; 4147.200;  221.350;    0.000
524.150; 4082.200;  264.350;    0.000
524.282; 4111.200;  283.350;    0.000
524.414; 4063.200;  258.350;    0.000
524.546; 4006.200;  286.350;    0.000
524.678; 3978.200;  274.350;    0.000
524.810; 3965.200;  253.350;    0.000
524.942; 3892.200;  183.350;    0.000
525.074; 3972.200;  232.350;    0.000
525.206; 3845.200;  250.350;    0.000
525.338; 3963.200;  228.350;    0.000
525.469; 3997.200;  224.350;    0.000
525.601; 3894.200;  247.350;    0.000
525.733; 3958.200;  199.350;    0.000
525.865; 3967.200;  230.350;    0.000
525.997; 3962.200;  209.350;    0.000
526.129; 3879.200;  211.350;    0.000
526.261; 3973.200;  233.350;    0.000
526.393; 3915.200;  261.350;    0.000
526.524; 3890.200;  206.350;    0.000
526.656; 4011.200;  260.350;    0.000
526.788; 3928.200;  293.350;    0.000
526.920; 3897.200;  208.350;    0.000
527.052; 3876.200;  204.350;    0.000
527.183; 3839.200;  244.350;    0.000
527.315; 3956.200;  237.350;    0.000
527.447; 3888.200;  236.350;    0.000
527.578; 3953.200;  235.350;    0.000
527.710; 3854.200;  253.350;    0.000
527.842; 3850.200;  231.350;    0.000
527.973; 4002.200;  224.350;    0.000
528.105; 3924.200;  237.350;    0.000
528.237; 3955.200;  213.350;    0.000
528.368; 3873.200;  194.350;    0.000
528.500; 3855.200;  195.350;    0.000
528.632; 3797.200;  201.350;    0.000
528.763; 3770.200;  196.350;    0.000
528.895; 3864.200;  204.350;    0.000
529.026; 3805.200;  214.350;    0.000
529.158; 3778.200;  197.350;    0.000
529.289; 3981.200;  230.350;    0.000
529.421; 3869.200;  247.350;    0.000
529.552; 3830.200;  255.350;    0.000
529.684; 3963.200;  270.350;    0.000
529.815; 3903.200;  248.350;    0.000
529.947; 3895.200;  234.350;    0.000
530.078; 3887.200;  223.350;    0.000
530.210; 3865.200;  243.350;    0.000
530.341; 3784.200;  222.350;    0.000
530.472; 3770.200;  217.350;    0.000
530.604; 3922.200;  242.350;    0.000
530.735; 3890.200;  249.350;    0.000
530.867; 3891.200;  257.350;    0.000
530.998; 3922.200;  250.350;    0.000
531.129; 3949.200;  244.350;    0.000
531.260; 3995.200;  276.350;    0.000
531.392; 3887.200;  220.350;    0.000
531.523; 4002.200;  262.350;    0.000
531.654; 4095.200;  264.350;    0.000
531.786; 4063.200;  225.350;    0.000
531.917; 4096.200;  285.350;    0.000
532.048; 4028.200;  239.350;    0.000
532.179; 3961.200;  248.350;    0.000
532.311; 4012.200;  219.350;    0.000
532.442; 4048.200;  264.350;    0.000
532.573; 3866.200;  230.350;    0.000
532.704; 4014.200;  253.350;    0.000
532.835; 3821.200;  239.350;    0.000
532.966; 3928.200;  247.350;    0.000
533.097; 3962.200;  225.350;    0.000
533.229; 3839.200;  282.350;    0.000
533.360; 3837.200;  236.350;    0.000
533.491; 3791.200;  247.350;    0.000
533.622; 4038.200;  265.350;    0.000
533.753; 3913.200;  226.350;    0.000
533.884; 3920.200;  294.350;    0.000
534.015; 3995.200;  215.350;    0.000
534.146; 4032.200;  223.350;    0.000
534.277; 3997.200;  264.350;    0.000
534.408; 3955.200;  232.350;    0.000
534.539; 3960.200;  274.350;    0.000
534.670; 3900.200;  275.350;    0.000
534.801; 3926.200;  261.350;    0.000
534.932; 3855.200;  225.350;    0.000
535.063; 3890.200;  235.350;    0.000
535.194; 3968.200;  300.350;    0.000
535.324; 3964.200;  249.350;    0.000
535.455; 3819.200;  260.350;    0.000
535.586; 3882.200;  288.350;    0.000
535.717; 3793.200;  237.350;    0.000
535.848; 3902.200;  271.350;    0.000
535.979; 3856.200;  234.350;    0.000
536.109; 3902.200;  255.350;    0.000
536.240; 3785.200;  269.350;    0.000
536.371; 3829.200;  232.350;    0.000
536.502; 3845.200;  253.350;    0.000
536.632; 3812.200;  240.350;    0.000
536.763; 3755.200;  251.350;    0.000
536.894; 3753.200;  256.350;    0.000
537.025; 3597.200;  247.350;    0.000
537.155; 3725.200;  272.350;    0.000
537.286; 3812.200;  241.350;    0.000
537.417; 3968.200;  279.350;    0.000
537.547; 3689.200;  229.350;    0.000
537.678; 3677.200;  227.350;    0.000
537.808; 3695.200;  225.350;    0.000
537.939; 3730.200;  250.350;    0.000
538.070; 3762.200;  263.350;    0.000
538.200; 3731.200;  270.350;    0.000
538.331; 3789.200;  249.350;    0.000
538.461; 3742.200;  230.350;    0.000
538.592; 3845.200;  282.350;    0.000
538.722; 3709.200;  253.350;    0.000
538.853; 3714.200;  240.350;    0.000
538.983; 3827.200;  232.350;    0.000
539.114; 3739.200;  248.350;    0.000
539.244; 3717.200;  256.350;    0.000
539.375; 3779.200;  248.350;    0.000
539.505; 3729.200;  235.350;    0.000
539.636; 3758.200;  237.350;    0.000
539.766; 3872.200;  263.350;    0.000
539.896; 3753.200;  217.350;    0.000
540.027; 3770.200;  217.350;    0.000
540.157; 3757.200;  231.350;    0.000
540.287; 3777.200;  210.350;    0.000
540.418; 3840.200;  239.350;    0.000
540.548; 3705.200;  260.350;    0.000
540.678; 3863.200;  228.350;    0.000
540.809; 3831.200;  241.350;    0.000
540.939; 3839.200;  238.350;    0.000
541.069; 3880.200;  245.350;    0.000
541.200; 3743.200;  225.350;    0.000
541.330; 3804.200;  219.350;    0.000
541.460; 3850.200;  254.350;    0.000
541.590; 3920.200;  234.350;    0.000
541.720; 3828.200;  196.350;    0.000
541.851; 3870.200;  200.350;    0.000
541.981; 3962.200;  235.350;    0.000
542.111; 3923.200;  246.350;    0.000
542.241; 3980.200;  214.350;    0.000
542.371; 3962.200;  221.350;    0.000
542.501; 4147.200;  259.350;    0.000
542.631; 4103.200;  213.350;    0.000
542.761; 4104.200;  240.350;    0.000
542.891; 4176.200;  242.350;    0.000
543.021; 4153.200;  230.350;    0.000
543.151; 4212.200;  261.350;    0.000
543.281; 4206.200;  212.350;    0.000
543.411; 4160.200;  229.350;    0.000
543.542; 4090.200;  204.350;    0.000
543.671; 4107.200;  260.350;    0.000
543.801; 3914.200;  236.350;    0.000
543.931; 4023.200;  243.350;    0.000
544.061; 3984.200;  262.350;    0.000
544.191; 4039.200;  223.350;    0.000
544.321; 4070.200;  217.350;    0.000
544.451; 3971.200;  209.350;    0.000
544.581; 4052.200;  213.350;    0.000
544.711; 4232.200;  256.350;    0.000
544.841; 4122.200;  235.350;    0.000
544.970; 4203.200;  260.350;    0.000
545.100; 4202.200;  236.350;    0.000
545.230; 4292.200;  220.350;    0.000
545.360; 4404.200;  219.350;    0.000
545.490; 4135.200;  217.350;    0.000
545.619; 4146.200;  199.350;    0.000
545.749; 4123.200;  183.350;    0.000
545.879; 4090.200;  169.350;    0.000
546.009; 4104.200;  215.350;    0.000
546.138; 4058.200;  228.350;    0.000
546.268; 4025.200;  209.350;    0.000
546.398; 3950.200;  167.350;    0.000
546.527; 4021.200;  178.350;    0.000
546.657; 4014.200;  175.350;    0.000
546.786; 4061.200;  225.350;    0.000
546.916; 4123.200;  196.350;    0.000
547.046; 4069.200;  185.350;    0.000
547.175; 3989.200;  184.350;    0.000
547.305; 4075.200;  197.350;    0.000
547.434; 3907.200;  168.350;    0.000
547.564; 3898.200;  183.350;    0.000
547.693; 4053.200;  204.350;    0.000
547.823; 3883.200;  211.350;    0.000
547.953; 4010.200;  174.350;    0.000
548.082; 4114.200;  217.350;    0.000
548.211; 3875.200;  201.350;    0.000
548.341; 4093.200;  195.350;    0.000
548.470; 4082.200;  225.350;    0.000
548.600; 3963.200;  194.350;    0.000
548.729; 3989.200;  218.350;    0.000
548.859; 3918.200;  202.350;    0.000
548.988; 3933.200;  193.350;    0.000
549.117; 4007.200;  182.350;    0.000
549.247; 4046.200;  198.350;    0.000
549.376; 3903.200;  200.350;    0.000
549.505; 4071.200;  200.350;    0.000
549.635; 4075.200;  224.350;    0.000
549.764; 4018.200;  200.350;    0.000
549.893; 4035.200;  224.350;    0.000
550.023; 4200.200;  207.350;    0.000
550.152; 4140.200;  167.350;    0.000
550.281; 4238.200;  219.350;    0.000
550.410; 4207.200;  217.350;    0.000
550.539; 4202.200;  211.350;    0.000
550.669; 4148.200;  173.350;    0.000
550.798; 4160.200;  211.350;    0.000
550.927; 4251.200;  195.350;    0.000
551.056; 4228.200;  176.350;    0.000
551.185; 4183.200;  203.350;    0.000
551.314; 4136.200;  178.350;    0.000
551.443; 4184.200;  185.350;    0.000
551.573; 4128.200;  167.350;    0.000
551.702; 4180.200;  193.350;    0.000
551.831; 4302.200;  245.350;    0.000
551.960; 4122.200;  190.350;    0.000
552.089; 4328.200;  202.350;    0.000
552.218; 4262.200;  211.350;    0.000
552.347; 4232.200;  184.350;    0.000
552.476; 4281.200;  200.350;    0.000
552.605; 4369.200;  174.350;    0.000
552.734; 4328.200;  206.350;    0.000
552.863; 4343.200;  189.350;    0.000
552.992; 4266.200;  209.350;    0.000
553.121; 4409.200;  201.350;    0.000
553.249; 4359.200;  208.350;    0.000
553.378; 4234.200;  142.350;    0.000
553.507; 4170.200;  208.350;    0.000
553.636; 4271.200;  192.350;    0.000
553.765; 4241.200;  182.350;    0.000
553.894; 4216.200;  183.350;    0.000
554.023; 4175.200;  182.350;    0.000
554.151; 4259.200;  211.350;    0.000
554.280; 4184.200;  179.350;    0.000
554.409; 4187.200;  182.350;    0.000
554.538; 4248.200;  209.350;    0.000
554.666; 4250.200;  182.350;    0.000
554.795; 4126.200;  179.350;    0.000
554.924; 4128.200;  217.350;    0.000
555.052; 4212.200;  220.350;    0.000
555.181; 4194.200;  228.350;    0.000
555.310; 4225.200;  212.350;    0.000
555.439; 4115.200;  199.350;    0.000
555.567; 4188.200;  220.350;    0.000
555.696; 4214.200;  187.350;    0.000
555.824; 4179.200;  189.350;    0.000
555.953; 4193.200;  217.350;    0.000
556.082; 4052.200;  187.350;    0.000
556.210; 4100.200;  245.350;    0.000
556.339; 4155.200;  195.350;    0.000
556.467; 4204.200;  218.350;    0.000
556.596; 4119.200;  198.350;    0.000
556.724; 4122.200;  201.350;    0.000
556.853; 4052.200;  196.350;    0.000
556.981; 4086.200;  175.350;    0.000
557.110; 4088.200;  210.350;    0.000
557.238; 4236.200;  190.350;    0.000
557.367; 4231.200;  192.350;    0.000
557.495; 3974.200;  219.350;    0.000
557.623; 4153.200;  203.350;    0.000
557.752; 4140.200;  166.350;    0.000
557.880; 4190.200;  172.350;    0.000
558.008; 4148.200;  221.350;    0.000
558.137; 4181.200;  211.350;    0.000
558.265; 4159.200;  157.350;    0.000
558.393; 4226.200;  198.350;    0.000
558.522; 4151.200;  209.350;    0.000
558.650; 4252.200;  260.350;    0.000
558.778; 4257.200;  203.350;    0.000
558.906; 4234.200;  210.350;    0.000
559.035; 4119.200;  194.350;    0.000
559.163; 4230.200;  192.350;    0.000
559.291; 4164.200;  215.350;    0.000
559.419; 4199.200;  197.350;    0.000
559.548; 4265.200;  160.350;    0.000
559.676; 4180.200;  200.350;    0.000
559.804; 4333.200;  223.350;    0.000
559.932; 4402.200;  213.350;    0.000
560.060; 4260.200;  224.350;    0.000
560.188; 4225.200;  221.350;    0.000
560.316; 4446.200;  223.350;    0.000
560.444; 4533.200;  159.350;    0.000
560.572; 4403.200;  204.350;    0.000
560.700; 4472.200;  213.350;    0.000
560.828; 4509.200;  216.350;    0.000
560.956; 4589.200;  207.350;    0.000
561.085; 4585.200;  231.350;    0.000
561.212; 4514.200;  197.350;    0.000
561.340; 4546.200;  192.350;    0.000
561.468; 4599.200;  215.350;    0.000
561.596; 4435.200;  215.350;    0.000
561.724; 4573.200;  181.350;    0.000
561.852; 4535.200;  184.350;    0.000
561.980; 4487.200;  217.350;    0.000
562.108; 4602.200;  199.350;    0.000
562.236; 4600.200;  181.350;    0.000
562.364; 4795.200;  234.350;    0.000
562.492; 4712.200;  225.350;    0.000
562.619; 4750.200;  204.350;    0.000
562.747; 4795.200;  223.350;    0.000
562.875; 4736.200;  210.350;    0.000
563.003; 4812.200;  232.350;    0.000
563.130; 4920.200;  224.350;    0.000
563.258; 4885.200;  213.350;    0.000
563.386; 5062.200;  191.350;    0.000
563.514; 5066.200;  252.350;    0.000
563.641; 5092.200;  201.350;    0.000
563.769; 5326.200;  201.350;    0.000
563.897; 5361.200;  176.350;    0.000
564.024; 5407.200;  167.350;    0.000
564.152; 5391.200;  205.350;    0.000
564.280; 5554.200;  222.350;    0.000
564.407; 5593.200;  192.350;    0.000
564.535; 5575.200;  231.350;    0.000
564.662; 5668.200;  197.350;    0.000
564.790; 5688.200;  200.350;    0.000
564.917; 5787.200;  172.350;    0.000
565.045; 5855.200;  187.350;    0.000
565.173; 5924.200;  173.350;    0.000
565.300; 6062.200;  196.350;    0.000
565.428; 6110.200;  195.350;    0.000
565.555; 6184.200;  191.350;    0.000
565.682; 6452.200;  169.350;    0.000
565.810; 6378.200;  198.350;    0.000
565.937; 6543.200;  213.350;    0.000
566.065; 6837.200;  221.350;    0.000
566.192; 6994.200;  173.350;    0.000
566.320; 7066.200;  214.350;    0.000
566.447; 7161.200;  214.350;    0.000
566.574; 7552.200;  188.350;    0.000
566.702; 7695.200;  198.350;    0.000
566.829; 7839.200;  200.350;    0.000
566.956; 7845.200;  194.350;    0.000
567.083; 7923.200;  176.350;    0.000
567.211; 7870.200;  189.350;    0.000
567.338; 7960.200;  184.350;    0.000
567.465; 8038.200;  181.350;    0.000
567.593; 8009.200;  194.350;    0.000
567.720; 7948.200;  193.350;    0.000
567.847; 8199.200;  196.350;    0.000
567.974; 8464.200;  199.350;    0.000
568.101; 9057.200;  150.350;    0.000
568.228;10949.200;  174.350;    0.000
568.356;12228.200;  164.350;    0.000
568.483;12110.200;  163.350;    0.000
568.610;12164.200;  187.350;    0.000
568.737;14183.200;  192.350;    0.000
568.864;16105.200;  218.350;    0.000
568.991;15920.200;  169.350;    0.000
569.118;14365.200;  161.350;    0.000
569.245;12872.200;  161.350;    0.000
569.372;12010.200;  187.350;    0.000
569.499;10977.200;  146.350;    0.000
569.626;10446.200;  172.350;    0.000
569.753; 9789.200;  188.350;    0.000
569.880; 9376.200;  180.350;    0.000
570.007; 8953.200;  187.350;    0.000
570.134; 8593.200;  196.350;    0.000
570.261; 8193.200;  127.350;    0.000
570.388; 7979.200;  189.350;    0.000
570.515; 7688.200;  219.350;    0.000
570.642; 7477.200;  187.350;    0.000
570.768; 7377.200;  175.350;    0.000
570.895; 7261.200;  165.350;    0.000
571.022; 6958.200;  180.350;    0.000
571.149; 6796.200;  209.350;    0.000
571.276; 6683.200;  187.350;    0.000
571.402; 6557.200;  227.350;    0.000
571.529; 6367.200;  166.350;    0.000
571.656; 6379.200;  203.350;    0.000
571.783; 6312.200;  156.350;    0.000
571.909; 6242.200;  195.350;    0.000
572.036; 6061.200;  165.350;    0.000
572.163; 6074.200;  156.350;    0.000
572.289; 5980.200;  193.350;    0.000
572.416; 5886.200;  199.350;    0.000
572.543; 5823.200;  185.350;    0.000
572.669; 5793.200;  180.350;    0.000
572.796; 5699.200;  173.350;    0.000
572.922; 5668.200;  186.350;    0.000
573.049; 5829.200;  185.350;    0.000
573.176; 5550.200;  196.350;    0.000
573.302; 5677.200;  189.350;    0.000
573.429; 5548.200;  186.350;    0.000
573.555; 5442.200;  220.350;    0.000
573.682; 5485.200;  196.350;    0.000
573.808; 5415.200;  201.350;    0.000
573.935; 5385.200;  188.350;    0.000
574.061; 5318.200;  216.350;    0.000
574.188; 5395.200;  161.350;    0.000
574.314; 5403.200;  189.350;    0.000
574.440; 5396.200;  190.350;    0.000
574.567; 5297.200;  201.350;    0.000
574.693; 5289.200;  175.350;    0.000
574.820; 5198.200;  188.350;    0.000
574.946; 5298.200;  182.350;    0.000
575.072; 5210.200;  188.350;    0.000
575.198; 5279.200;  232.350;    0.000
575.325; 5181.200;  159.350;    0.000
575.451; 5269.200;  231.350;    0.000
575.577; 5293.200;  196.350;    0.000
575.704; 5315.200;  177.350;    0.000
575.830; 5172.200;  171.350;    0.000
575.956; 5189.200;  163.350;    0.000
576.082; 5209.200;  197.350;    0.000
576.208; 5137.200;  181.350;    0.000
576.335; 5224.200;  218.350;    0.000
576.461; 5260.200;  207.350;    0.000
576.587; 5183.200;  173.350;    0.000
576.713; 5099.200;  170.350;    0.000
576.839; 5215.200;  186.350;    0.000
576.965; 5380.200;  194.350;    0.000
577.091; 5262.200;  167.350;    0.000
577.217; 5310.200;  212.350;    0.000
577.343; 5158.200;  214.350;    0.000
577.469; 5258.200;  208.350;    0.000
577.596; 5266.200;  188.350;    0.000
577.722; 5215.200;  221.350;    0.000
577.848; 5323.200;  197.350;    0.000
577.974; 5281.200;  222.350;    0.000
578.099; 5323.200;  187.350;    0.000
578.225; 5347.200;  213.350;    0.000
578.351; 5222.200;  190.350;    0.000
578.477; 5366.200;  212.350;    0.000
578.603; 5433.200;  178.350;    0.000
578.729; 5316.200;  193.350;    0.000
578.855; 5390.200;  194.350;    0.000
578.981; 5473.200;  152.350;    0.000
579.107; 5349.200;  175.350;    0.000
579.232; 5421.200;  192.350;    0.000
579.358; 5398.200;  186.350;    0.000
579.484; 5439.200;  186.350;    0.000
579.610; 5479.200;  199.350;    0.000
579.735; 5511.200;  197.350;    0.000
579.861; 5537.200;  203.350;    0.000
579.987; 5561.200;  220.350;    0.000
580.113; 5650.200;  210.350;    0.000
580.238; 5724.200;  189.350;    0.000
580.364; 5764.200;  214.350;    0.000
580.490; 5777.200;  205.350;    0.000
580.615; 5785.200;  231.350;    0.000
580.741; 5791.200;  212.350;    0.000
580.867; 5812.200;  196.350;    0.000
580.992; 5920.200;  214.350;    0.000
581.118; 5991.200;  178.350;    0.000
581.243; 5961.200;  209.350;    0.000
581.369; 6074.200;  173.350;    0.000
581.494; 5990.200;  209.350;    0.000
581.620; 6200.200;  204.350;    0.000
581.745; 6228.200;  168.350;    0.000
581.871; 6309.200;  236.350;    0.000
581.996; 6355.200;  212.350;    0.000
582.122; 6371.200;  192.350;    0.000
582.247; 6426.200;  179.350;    0.000
582.373; 6650.200;  189.350;    0.000
582.498; 6649.200;  217.350;    0.000
582.624; 6782.200;  231.350;    0.000
582.749; 6966.200;  237.350;    0.000
582.874; 6933.200;  205.350;    0.000
583.000; 6921.200;  204.350;    0.000
583.125; 7073.200;  192.350;    0.000
583.250; 7167.200;  229.350;    0.000
583.376; 7349.200;  256.350;    0.000
583.501; 7459.200;  200.350;    0.000
583.626; 7501.200;  207.350;    0.000
583.751; 7757.200;  215.350;    0.000
583.877; 7804.200;  212.350;    0.000
584.002; 8165.200;  227.350;    0.000
584.127; 8078.200;  153.350;    0.000
584.252; 8257.200;  197.350;    0.000
584.377; 8521.200;  183.350;    0.000
584.503; 8702.200;  211.350;    0.000
584.628; 8763.200;  215.350;    0.000
584.753; 9171.200;  194.350;    0.000
584.878; 9355.200;  154.350;    0.000
585.003; 9659.200;  213.350;    0.000
585.128; 9825.200;  199.350;    0.000
585.253;10250.200;  219.350;    0.000
585.378;10440.200;  174.350;    0.000
585.503;10980.200;  202.350;    0.000
585.628;11136.200;  186.350;    0.000
585.753;11515.200;  209.350;    0.000
585.878;11927.200;  167.350;    0.000
586.003;12490.200;  226.350;    0.000
586.128;12912.200;  206.350;    0.000
586.253;13434.200;  198.350;    0.000
586.378;14234.200;  180.350;    0.000
586.503;14932.200;  201.350;    0.000
586.628;15531.200;  206.350;    0.000
586.753;16428.199;  178.350;    0.000
586.878;17363.199;  228.350;    0.000
587.003;18497.199;  199.350;    0.000
587.127;19528.199;  194.350;    0.000
587.252;20884.199;  212.350;    0.000
587.377;22266.199;  172.350;    0.000
587.502;23950.199;  219.350;    0.000
587.627;25949.199;  247.350;    0.000
587.751;27880.199;  184.350;    0.000
587.876;30354.199;  215.350;    0.000
588.001;32733.199;  163.350;    0.000
588.125;35823.199;  185.350;    0.000
588.250;39021.199;  171.350;    0.000
588.375;42766.199;  255.350;    0.000
588.499;46719.199;  185.350;    0.000
588.624;50311.199;  167.350;    0.000
588.749;54122.199;  170.350;    0.000
588.873;53979.199;  173.350;    0.000
588.998;52929.199;  203.350;    0.000
589.122;59216.199;  184.350;    0.000
589.247;63916.199;  217.350;    0.000
589.372;62169.199;  250.350;    0.000
589.496;57138.199;  200.350;    0.000
589.621;55695.199;  199.350;    0.000
589.745;59666.199;  235.350;    0.000
589.870;60020.199;  206.350;    0.000
589.994;55195.199;  194.350;    0.000
590.118;49911.199;  177.350;    0.000
590.243;45362.199;  231.350;    0.000
590.367;40941.199;  173.350;    0.000
590.492;37374.199;  170.350;    0.000
590.616;34160.199;  182.350;    0.000
590.740;31360.199;  178.350;    0.000
590.865;28915.199;  219.350;    0.000
590.989;26871.199;  210.350;    0.000
591.114;25043.199;  194.350;    0.000
591.238;23300.199;  154.350;    0.000
591.362;21850.199;  210.350;    0.000
591.486;20496.199;  215.350;    0.000
591.611;19608.199;  194.350;    0.000
591.735;18530.199;  206.350;    0.000
591.859;17538.199;  188.350;    0.000
591.983;16903.199;  202.350;    0.000
592.107;15992.200;  175.350;    0.000
592.232;15286.200;  214.350;    0.000
592.356;14751.200;  232.350;    0.000
592.480;14199.200;  203.350;    0.000
592.604;13610.200;  204.350;    0.000
592.728;13328.200;  187.350;    0.000
592.852;12761.200;  204.350;    0.000
592.976;12490.200;  163.350;    0.000
593.100;11918.200;  177.350;    0.000
593.224;11749.200;  209.350;    0.000
593.349;11470.200;  255.350;    0.000
593.473;11029.200;  225.350;    0.000
593.597;10741.200;  211.350;    0.000
593.721;10451.200;  222.350;    0.000
593.844;10139.200;  202.350;    0.000
593.968;10059.200;  223.350;    0.000
594.092; 9869.200;  162.350;    0.000
594.216; 9323.200;  211.350;    0.000
594.340; 9336.200;  198.350;    0.000
594.464; 9140.200;  242.350;    0.000
594.588; 9034.200;  213.350;    0.000
594.712; 8591.200;  198.350;    0.000
594.836; 8406.200;  207.350;    0.000
594.959; 8408.200;  192.350;    0.000
595.083; 8244.200;  180.350;    0.000
595.207; 8087.200;  242.350;    0.000
595.331; 7880.200;  172.350;    0.000
595.455; 7611.200;  185.350;    0.000
595.578; 7674.200;  221.350;    0.000
595.702; 7560.200;  233.350;    0.000
595.826; 7162.200;  164.350;    0.000
595.949; 7084.200;  215.350;    0.000
596.073; 7084.200;  198.350;    0.000
596.197; 6955.200;  266.350;    0.000
596.320; 6840.200;  236.350;    0.000
596.444; 6833.200;  215.350;    0.000
596.568; 6602.200;  213.350;    0.000
596.691; 6634.200;  198.350;    0.000
596.815; 6506.200;  210.350;    0.000
596.938; 6396.200;  207.350;    0.000
597.062; 6251.200;  187.350;    0.000
597.186; 6293.200;  234.350;    0.000
597.309; 6237.200;  176.350;    0.000
597.433; 6163.200;  222.350;    0.000
597.556; 6006.200;  219.350;    0.000
597.680; 5994.200;  227.350;    0.000
597.803; 5935.200;  240.350;    0.000
597.926; 5829.200;  227.350;    0.000
598.050; 5676.200;  198.350;    0.000
598.173; 5787.200;  235.350;    0.000
598.297; 5725.200;  233.350;    0.000
598.420; 5652.200;  211.350;    0.000
598.543; 5525.200;  207.350;    0.000
598.667; 5466.200;  232.350;    0.000
598.790; 5456.200;  205.350;    0.000
598.913; 5245.200;  200.350;    0.000
599.037; 5244.200;  193.350;    0.000
599.160; 5285.200;  199.350;    0.000
599.283; 5325.200;  237.350;    0.000
599.406; 5238.200;  168.350;    0.000
599.530; 5175.200;  231.350;    0.000
599.653; 5170.200;  220.350;    0.000
599.776; 5077.200;  203.350;    0.000
599.899; 5119.200;  202.350;    0.000
600.022; 5029.200;  189.350;    0.000
600.145; 5084.200;  175.350;    0.000
600.269; 5139.200;  235.350;    0.000
600.392; 4935.200;  213.350;    0.000
600.515; 4872.200;  236.350;    0.000
600.638; 4919.200;  198.350;    0.000
600.761; 4854.200;  195.350;    0.000
600.884; 4764.200;  221.350;    0.000
601.007; 4784.200;  236.350;    0.000
601.130; 4580.200;  223.350;    0.000
601.253; 4706.200;  250.350;    0.000
601.376; 4755.200;  195.350;    0.000
601.499; 4708.200;  168.350;    0.000
601.622; 4740.200;  221.350;    0.000
601.745; 4542.200;  223.350;    0.000
601.868; 4641.200;  204.350;    0.000
601.991; 4520.200;  207.350;    0.000
602.113; 4586.200;  223.350;    0.000
602.236; 4518.200;  182.350;    0.000
602.359; 4495.200;  235.350;    0.000
602.482; 4535.200;  173.350;    0.000
602.605; 4392.200;  227.350;    0.000
602.728; 4463.200;  227.350;    0.000
602.850; 4353.200;  250.350;    0.000
602.973; 4420.200;  195.350;    0.000
603.096; 4482.200;  270.350;    0.000
603.219; 4280.200;  197.350;    0.000
603.341; 4384.200;  195.350;    0.000
603.464; 4325.200;  204.350;    0.000
603.587; 4376.200;  243.350;    0.000
603.709; 4295.200;  188.350;    0.000
603.832; 4270.200;  214.350;    0.000
603.955; 4282.200;  213.350;    0.000
604.077; 4247.200;  201.350;    0.000
604.200; 4208.200;  209.350;    0.000
604.323; 4190.200;  201.350;    0.000
604.445; 4233.200;  202.350;    0.000
604.568; 4193.200;  230.350;    0.000
604.690; 4112.200;  212.350;    0.000
604.813; 4108.200;  226.350;    0.000
604.935; 4135.200;  216.350;    0.000
605.058; 4115.200;  182.350;    0.000
605.180; 4117.200;  204.350;    0.000
605.303; 4166.200;  199.350;    0.000
605.425; 4056.200;  178.350;    0.000
605.547; 4066.200;  209.350;    0.000
605.670; 4064.200;  206.350;    0.000
605.792; 4053.200;  199.350;    0.000
605.915; 4121.200;  221.350;    0.000
606.037; 3988.200;  222.350;    0.000
606.159; 4011.200;  160.350;    0.000
606.282; 3992.200;  188.350;    0.000
606.404; 4023.200;  205.350;    0.000
606.526; 4047.200;  228.350;    0.000
606.648; 4054.200;  184.350;    0.000
606.771; 3892.200;  195.350;    0.000
606.893; 3882.200;  193.350;    0.000
607.015; 3976.200;  202.350;    0.000
607.137; 3874.200;  189.350;    0.000
607.260; 3917.200;  201.350;    0.000
607.382; 3782.200;  211.350;    0.000
607.504; 3897.200;  206.350;    0.000
607.626; 3970.200;  236.350;    0.000
607.748; 3915.200;  228.350;    0.000
607.870; 3809.200;  212.350;    0.000
607.992; 3797.200;  201.350;    0.000
608.114; 3971.200;  214.350;    0.000
608.237; 3811.200;  235.350;    0.000
608.359; 3770.200;  215.350;    0.000
608.481; 3789.200;  183.350;    0.000
608.603; 3819.200;  206.350;    0.000
608.725; 3756.200;  238.350;    0.000
608.847; 3822.200;  237.350;    0.000
608.969; 3869.200;  227.350;    0.000
609.090; 3839.200;  205.350;    0.000
609.212; 3724.200;  182.350;    0.000
609.334; 3770.200;  210.350;    0.000
609.456; 3811.200;  208.350;    0.000
609.578; 3825.200;  195.350;    0.000
609.700; 3674.200;  196.350;    0.000
609.822; 3594.200;  184.350;    0.000
609.944; 3891.200;  258.350;    0.000
610.065; 3666.200;  219.350;    0.000
610.187; 3615.200;  217.350;    0.000
610.309; 3635.200;  179.350;    0.000
610.431; 3721.200;  189.350;    0.000
610.552; 3704.200;  212.350;    0.000
610.674; 3679.200;  211.350;    0.000
610.796; 3592.200;  168.350;    0.000
610.918; 3682.200;  201.350;    0.000
611.039; 3635.200;  212.350;    0.000
611.161; 3642.200;  207.350;    0.000
611.282; 3664.200;  219.350;    0.000
611.404; 3670.200;  243.350;    0.000
611.526; 3659.200;  180.350;    0.000
611.647; 3722.200;  235.350;    0.000
611.769; 3567.200;  189.350;    0.000
611.890; 3582.200;  201.350;    0.000
612.012; 3519.200;  191.350;    0.000
612.133; 3672.200;  227.350;    0.000
612.255; 3685.200;  191.350;    0.000
612.377; 3572.200;  192.350;    0.000
612.498; 3509.200;  202.350;    0.000
612.619; 3562.200;  207.350;    0.000
612.741; 3636.200;  241.350;    0.000
612.862; 3561.200;  219.350;    0.000
612.984; 3540.200;  203.350;    0.000
613.105; 3583.200;  228.350;    0.000
613.226; 3607.200;  199.350;    0.000
613.348; 3596.200;  238.350;    0.000
613.469; 3581.200;  239.350;    0.000
613.590; 3542.200;  183.350;    0.000
613.712; 3560.200;  245.350;    0.000
613.833; 3546.200;  241.350;    0.000
613.954; 3606.200;  208.350;    0.000
614.076; 3625.200;  181.350;    0.000
614.197; 3589.200;  217.350;    0.000
614.318; 3502.200;  182.350;    0.000
614.439; 3553.200;  204.350;    0.000
614.560; 3661.200;  219.350;    0.000
614.682; 3553.200;  238.350;    0.000
614.803; 3679.200;  240.350;    0.000
614.924; 3655.200;  212.350;    0.000
615.045; 3723.200;  225.350;    0.000
615.166; 3773.200;  227.350;    0.000
615.287; 4199.200;  230.350;    0.000
615.408; 5448.200;  187.350;    0.000
615.529; 5964.200;  211.350;    0.000
615.650; 5386.200;  202.350;    0.000
615.771; 4855.200;  203.350;    0.000
615.892; 5030.200;  222.350;    0.000
616.013; 6488.200;  215.350;    0.000
616.134; 7990.200;  193.350;    0.000
616.255; 7609.200;  242.350;    0.000
616.376; 6208.200;  205.350;    0.000
616.497; 5323.200;  200.350;    0.000
616.618; 4800.200;  177.350;    0.000
616.739; 4493.200;  218.350;    0.000
616.860; 4267.200;  214.350;    0.000
616.981; 4208.200;  208.350;    0.000
617.102; 4060.200;  203.350;    0.000
617.222; 3968.200;  212.350;    0.000
617.343; 3843.200;  162.350;    0.000
617.464; 3850.200;  230.350;    0.000
617.585; 3794.200;  197.350;    0.000
617.705; 3730.200;  209.350;    0.000
617.826; 3634.200;  229.350;    0.000
617.947; 3684.200;  216.350;    0.000
618.068; 3675.200;  192.350;    0.000
618.188; 3621.200;  230.350;    0.000
618.309; 3581.200;  238.350;    0.000
618.430; 3671.200;  242.350;    0.000
618.550; 3578.200;  235.350;    0.000
618.671; 3486.200;  207.350;    0.000
618.791; 3517.200;  228.350;    0.000
618.912; 3619.200;  266.350;    0.000
619.033; 3416.200;  232.350;    0.000
619.153; 3453.200;  207.350;    0.000
619.274; 3393.200;  193.350;    0.000
619.394; 3561.200;  237.350;    0.000
619.515; 3396.200;  216.350;    0.000
619.635; 3376.200;  203.350;    0.000
619.756; 3389.200;  227.350;    0.000
619.876; 3299.200;  244.350;    0.000
619.996; 3327.200;  220.350;    0.000
620.117; 3326.200;  231.350;    0.000
620.237; 3346.200;  235.350;    0.000
620.358; 3377.200;  241.350;    0.000
620.478; 3320.200;  237.350;    0.000
620.598; 3290.200;  255.350;    0.000
620.719; 3241.200;  243.350;    0.000
620.839; 3347.200;  237.350;    0.000
620.959; 3277.200;  216.350;    0.000
621.079; 3300.200;  240.350;    0.000
621.200; 3251.200;  195.350;    0.000
621.320; 3303.200;  287.350;    0.000
621.440; 3306.200;  236.350;    0.000
621.560; 3189.200;  231.350;    0.000
621.681; 3222.200;  177.350;    0.000
621.801; 3280.200;  257.350;    0.000
621.921; 3286.200;  241.350;    0.000
622.041; 3297.200;  239.350;    0.000
622.161; 3289.200;  233.350;    0.000
622.281; 3185.200;  204.350;    0.000
622.401; 3228.200;  204.350;    0.000
622.521; 3143.200;  242.350;    0.000
622.641; 3111.200;  205.350;    0.000
622.761; 3215.200;  254.350;    0.000
622.882; 3109.200;  225.350;    0.000
623.002; 3146.200;  255.350;    0.000
623.121; 3146.200;  244.350;    0.000
623.241; 3160.200;  238.350;    0.000
623.361; 3172.200;  208.350;    0.000
623.481; 3111.200;  194.350;    0.000
623.601; 3231.200;  249.350;    0.000
623.721; 3161.200;  229.350;    0.000
623.841; 3240.200;  244.350;    0.000
623.961; 3234.200;  253.350;    0.000
624.081; 3106.200;  218.350;    0.000
624.201; 3162.200;  218.350;    0.000
624.320; 3049.200;  212.350;    0.000
624.440; 3078.200;  251.350;    0.000
624.560; 3119.200;  244.350;    0.000
624.680; 3091.200;  224.350;    0.000
624.799; 3129.200;  198.350;    0.000
624.919; 3111.200;  215.350;    0.000
625.039; 3033.200;  225.350;    0.000
625.159; 3042.200;  209.350;    0.000
625.278; 3074.200;  211.350;    0.000
625.398; 3131.200;  260.350;    0.000
625.518; 3002.200;  205.350;    0.000
625.637; 3013.200;  240.350;    0.000
625.757; 2997.200;  208.350;    0.000
625.876; 2989.200;  221.350;    0.000
625.996; 2966.200;  245.350;    0.000
626.115; 3065.200;  196.350;    0.000
626.235; 2991.200;  241.350;    0.000
626.354; 2993.200;  231.350;    0.000
626.474; 3059.200;  220.350;    0.000
626.594; 3029.200;  210.350;    0.000
626.713; 3011.200;  229.350;    0.000
626.832; 2990.200;  236.350;    0.000
626.952; 3003.200;  223.350;    0.000
627.071; 2948.200;  211.350;    0.000
627.191; 2937.200;  220.350;    0.000
627.310; 3018.200;  206.350;    0.000
627.429; 2971.200;  223.350;    0.000
627.549; 2976.200;  205.350;    0.000
627.668; 2922.200;  227.350;    0.000
627.787; 3023.200;  221.350;    0.000
627.907; 2897.200;  194.350;    0.000
628.026; 2898.200;  231.350;    0.000
628.145; 2892.200;  210.350;    0.000
628.264; 2967.200;  245.350;    0.000
628.384; 2950.200;  234.350;    0.000
628.503; 2999.200;  210.350;    0.000
628.622; 2955.200;  223.350;    0.000
628.741; 2952.200;  210.350;    0.000
628.860; 2974.200;  222.350;    0.000
628.980; 2887.200;  184.350;    0.000
629.099; 2950.200;  234.350;    0.000
629.218; 3010.200;  157.350;    0.000
629.337; 2918.200;  220.350;    0.000
629.456; 2909.200;  210.350;    0.000
629.575; 2930.200;  239.350;    0.000
629.694; 2923.200;  216.350;    0.000
629.813; 2967.200;  218.350;    0.000
629.932; 2909.200;  175.350;    0.000
630.051; 2879.200;  218.350;    0.000
630.170; 2881.200;  215.350;    0.000
630.289; 2856.200;  203.350;    0.000
630.408; 2852.200;  180.350;    0.000
630.527; 2945.200;  249.350;    0.000
630.646; 2852.200;  186.350;    0.000
630.764; 2915.200;  189.350;    0.000
630.883; 2874.200;  221.350;    0.000
631.002; 2868.200;  191.350;    0.000
631.121; 2943.200;  210.350;    0.000
631.240; 2996.200;  256.350;    0.000
631.359; 2966.200;  246.350;    0.000
631.477; 2969.200;  230.350;    0.000
631.596; 2952.200;  229.350;    0.000
631.715; 2942.200;  242.350;    0.000
631.834; 2940.200;  261.350;    0.000
631.952; 2917.200;  250.350;    0.000
632.071; 2887.200;  218.350;    0.000
632.190; 2820.200;  200.350;    0.000
632.308; 2809.200;  226.350;    0.000
632.427; 2818.200;  234.350;    0.000
632.546; 2855.200;  250.350;    0.000
632.664; 2832.200;  224.350;    0.000
632.783; 2698.200;  211.350;    0.000
632.901; 2813.200;  254.350;    0.000
633.020; 2827.200;  204.350;    0.000
633.138; 2728.200;  228.350;    0.000
633.257; 2776.200;  219.350;    0.000
633.375; 2779.200;  243.350;    0.000
633.494; 2763.200;  242.350;    0.000
633.612; 2784.200;  227.350;    0.000
633.731; 2740.200;  221.350;    0.000
633.849; 2770.200;  239.350;    0.000
633.968; 2806.200;  219.350;    0.000
634.086; 2786.200;  218.350;    0.000
634.204; 2764.200;  203.350;    0.000
634.323; 2760.200;  222.350;    0.000
634.441; 2813.200;  257.350;    0.000
634.559; 2769.200;  201.350;    0.000
634.678; 2733.200;  214.350;    0.000
634.796; 2740.200;  207.350;    0.000
634.914; 2820.200;  226.350;    0.000
635.032; 2753.200;  250.350;    0.000
635.151; 2767.200;  228.350;    0.000
635.269; 2689.200;  188.350;    0.000
635.387; 2680.200;  247.350;    0.000
635.505; 2714.200;  250.350;    0.000
635.623; 2795.200;  230.350;    0.000
635.742; 2658.200;  209.350;    0.000
635.860; 2785.200;  239.350;    0.000
635.978; 2748.200;  213.350;    0.000
636.096; 2723.200;  176.350;    0.000
636.214; 2696.200;  246.350;    0.000
636.332; 2687.200;  224.350;    0.000
636.450; 2625.200;  215.350;    0.000
636.568; 2730.200;  246.350;    0.000
636.686; 2722.200;  225.350;    0.000
636.804; 2702.200;  218.350;    0.000
636.922; 2702.200;  195.350;    0.000
637.040; 2699.200;  213.350;    0.000
637.158; 2737.200;  228.350;    0.000
637.276; 2701.200;  206.350;    0.000
637.394; 2685.200;  224.350;    0.000
637.512; 2609.200;  245.350;    0.000
637.629; 2644.200;  234.350;    0.000
637.747; 2667.200;  233.350;    0.000
637.865; 2621.200;  236.350;    0.000
637.983; 2617.200;  235.350;    0.000
638.101; 2629.200;  232.350;    0.000
638.218; 2594.200;  256.350;    0.000
638.336; 2642.200;  216.350;    0.000
638.454; 2599.200;  255.350;    0.000
638.572; 2663.200;  237.350;    0.000
638.689; 2645.200;  271.350;    0.000
638.807; 2625.200;  243.350;    0.000
638.925; 2671.200;  259.350;    0.000
639.042; 2554.200;  185.350;    0.000
639.160; 2614.200;  250.350;    0.000
639.278; 2561.200;  207.350;    0.000
639.395; 2647.200;  243.350;    0.000
639.513; 2648.200;  235.350;    0.000
639.630; 2613.200;  230.350;    0.000
639.748; 2519.200;  192.350;    0.000
639.865; 2551.200;  219.350;    0.000
639.983; 2598.200;  183.350;    0.000
640.100; 2556.200;  251.350;    0.000
640.218; 2625.200;  246.350;    0.000
640.335; 2582.200;  227.350;    0.000
640.453; 2556.200;  259.350;    0.000
640.570; 2509.200;  251.350;    0.000
640.688; 2530.200;  223.350;    0.000
640.805; 2591.200;  246.350;    0.000
640.922; 2699.200;  249.350;    0.000
641.040; 2570.200;  257.350;    0.000
641.157; 2553.200;  207.350;    0.000
641.274; 2499.200;  241.350;    0.000
641.391; 2574.200;  246.350;    0.000
641.509; 2572.200;  216.350;    0.000
641.626; 2611.200;  252.350;    0.000
641.743; 2611.200;  215.350;    0.000
641.860; 2510.200;  234.350;    0.000
641.978; 2545.200;  216.350;    0.000
642.095; 2466.200;  247.350;    0.000
642.212; 2536.200;  199.350;    0.000
642.329; 2528.200;  237.350;    0.000
642.446; 2527.200;  222.350;    0.000
642.563; 2467.200;  287.350;    0.000
642.681; 2531.200;  261.350;    0.000
642.798; 2446.200;  251.350;    0.000
642.915; 2564.200;  238.350;    0.000
643.032; 2560.200;  246.350;    0.000
643.149; 2480.200;  239.350;    0.000
643.266; 2468.200;  238.350;    0.000
643.383; 2531.200;  231.350;    0.000
643.500; 2542.200;  212.350;    0.000
643.617; 2396.200;  236.350;    0.000
643.734; 2598.200;  239.350;    0.000
643.850; 2516.200;  234.350;    0.000
643.967; 2560.200;  253.350;    0.000
644.084; 2621.200;  253.350;    0.000
644.201; 2508.200;  227.350;    0.000
644.318; 2489.200;  247.350;    0.000
644.435; 2494.200;  264.350;    0.000
644.552; 2498.200;  230.350;    0.000
644.668; 2621.200;  250.350;    0.000
644.785; 2550.200;  235.350;    0.000
644.902; 2501.200;  227.350;    0.000
645.019; 2565.200;  203.350;    0.000
645.135; 2467.200;  210.350;    0.000
645.252; 2499.200;  206.350;    0.000
645.369; 2533.200;  235.350;    0.000
645.485; 2559.200;  223.350;    0.000
645.602; 2523.200;  205.350;    0.000
645.719; 2578.200;  222.350;    0.000
645.835; 2608.200;  246.350;    0.000
645.952; 2583.200;  239.350;    0.000
646.068; 2498.200;  225.350;    0.000
646.185; 2540.200;  248.350;    0.000
646.302; 2557.200;  226.350;    0.000
646.418; 2566.200;  228.350;    0.000
646.535; 2512.200;  219.350;    0.000
646.651; 2471.200;  204.350;    0.000
646.768; 2408.200;  247.350;    0.000
646.884; 2537.200;  228.350;    0.000
647.000; 2571.200;  223.350;    0.000
647.117; 2526.200;  251.350;    0.000
647.233; 2480.200;  223.350;    0.000
647.350; 2564.200;  237.350;    0.000
647.466; 2535.200;  223.350;    0.000
647.582; 2452.200;  243.350;    0.000
647.699; 2613.200;  223.350;    0.000
647.815; 2530.200;  215.350;    0.000
647.931; 2656.200;  214.350;    0.000
648.047; 2516.200;  199.350;    0.000
648.164; 2564.200;  233.350;    0.000
648.280; 2591.200;  231.350;    0.000
648.396; 2683.200;  215.350;    0.000
648.512; 2564.200;  252.350;    0.000
648.629; 2656.200;  237.350;    0.000
648.745; 2576.200;  216.350;    0.000
648.861; 2574.200;  207.350;    0.000
648.977; 2636.200;  247.350;    0.000
649.093; 2504.200;  221.350;    0.000
649.209; 2586.200;  232.350;    0.000
649.325; 2550.200;  245.350;    0.000
649.441; 2577.200;  253.350;    0.000
649.557; 2488.200;  221.350;    0.000
649.673; 2590.200;  182.350;    0.000
649.789; 2573.200;  245.350;    0.000
649.905; 2431.200;  204.350;    0.000
650.021; 2605.200;  270.350;    0.000
650.137; 2548.200;  218.350;    0.000
650.253; 2505.200;  268.350;    0.000
650.369; 2529.200;  222.350;    0.000
650.485; 2512.200;  215.350;    0.000
650.601; 2593.200;  218.350;    0.000
650.717; 2566.200;  208.350;    0.000
650.833; 2551.200;  263.350;    0.000
650.948; 2563.200;  266.350;    0.000
651.064; 2616.200;  271.350;    0.000
651.180; 2519.200;  232.350;    0.000
651.296; 2483.200;  237.350;    0.000
651.411; 2578.200;  233.350;    0.000
651.527; 2492.200;  232.350;    0.000
651.643; 2632.200;  259.350;    0.000
651.759; 2568.200;  257.350;    0.000
651.874; 2502.200;  216.350;    0.000
651.990; 2577.200;  234.350;    0.000
652.105; 2498.200;  195.350;    0.000
652.221; 2544.200;  245.350;    0.000
652.337; 2564.200;  210.350;    0.000
652.452; 2491.200;  259.350;    0.000
652.568; 2607.200;  202.350;    0.000
652.683; 2613.200;  233.350;    0.000
652.799; 2594.200;  230.350;    0.000
652.914; 2536.200;  198.350;    0.000
653.030; 2592.200;  203.350;    0.000
653.145; 2560.200;  228.350;    0.000
653.261; 2595.200;  244.350;    0.000
653.376; 2579.200;  214.350;    0.000
653.492; 2622.200;  246.350;    0.000
653.607; 2614.200;  241.350;    0.000
653.722; 2612.200;  257.350;    0.000
653.838; 2660.200;  265.350;    0.000
653.953; 2722.200;  252.350;    0.000
654.068; 2743.200;  270.350;    0.000
654.184; 2679.200;  248.350;    0.000
654.299; 2710.200;  226.350;    0.000
654.414; 2766.200;  190.350;    0.000
654.530; 2733.200;  263.350;    0.000
654.645; 2726.200;  240.350;    0.000
654.760; 2782.200;  243.350;    0.000
654.875; 2869.200;  210.350;    0.000
654.990; 2937.200;  250.350;    0.000
655.106; 2955.200;  277.350;    0.000
655.221; 2933.200;  249.350;    0.000
655.336; 2921.200;  239.350;    0.000
655.451; 3063.200;  226.350;    0.000
655.566; 3065.200;  236.350;    0.000
655.681; 3166.200;  272.350;    0.000
655.796; 3159.200;  224.350;    0.000
655.911; 3187.200;  247.350;    0.000
656.026; 3450.200;  240.350;    0.000
656.141; 3329.200;  239.350;    0.000
656.256; 3355.200;  241.350;    0.000
656.371; 3494.200;  213.350;    0.000
656.486; 3504.200;  275.350;    0.000
656.601; 3311.200;  225.350;    0.000
656.716; 3343.200;  239.350;    0.000
656.831; 3288.200;  260.350;    0.000
656.946; 3305.200;  250.350;    0.000
657.060; 3242.200;  257.350;    0.000
657.175; 3132.200;  256.350;    0.000
657.290; 3192.200;  255.350;    0.000
657.405; 3188.200;  303.350;    0.000
657.520; 3067.200;  272.350;    0.000
657.634; 3069.200;  268.350;    0.000
657.749; 2992.200;  261.350;    0.000
657.864; 2868.200;  235.350;    0.000
657.979; 2860.200;  257.350;    0.000
658.093; 2904.200;  243.350;    0.000
658.208; 2931.200;  281.350;    0.000
658.323; 2748.200;  240.350;    0.000
658.437; 2874.200;  285.350;    0.000
658.552; 2848.200;  262.350;    0.000
658.666; 2770.200;  269.350;    0.000
658.781; 2712.200;  244.350;    0.000
658.895; 2768.200;  259.350;    0.000
659.010; 2665.200;  254.350;    0.000
659.125; 2704.200;  210.350;    0.000
659.239; 2661.200;  212.350;    0.000
659.353; 2620.200;  269.350;    0.000
659.468; 2662.200;  269.350;    0.000
659.582; 2669.200;  244.350;    0.000
659.697; 2600.200;  262.350;    0.000
659.811; 2601.200;  271.350;    0.000
659.926; 2550.200;  232.350;    0.000
660.040; 2591.200;  250.350;    0.000
660.154; 2605.200;  209.350;    0.000
660.269; 2580.200;  212.350;    0.000
660.383; 2535.200;  237.350;    0.000
660.497; 2545.200;  231.350;    0.000
660.612; 2528.200;  232.350;    0.000
660.726; 2579.200;  276.350;    0.000
660.840; 2508.200;  235.350;    0.000
660.954; 2486.200;  224.350;    0.000
661.068; 2523.200;  241.350;    0.000
661.183; 2426.200;  223.350;    0.000
661.297; 2370.200;  255.350;    0.000
661.411; 2492.200;  223.350;    0.000
661.525; 2443.200;  249.350;    0.000
661.639; 2424.200;  264.350;    0.000
661.753; 2389.200;  225.350;    0.000
661.867; 2437.200;  245.350;    0.000
661.981; 2354.200;  225.350;    0.000
662.095; 2420.200;  262.350;    0.000
662.209; 2336.200;  225.350;    0.000
662.323; 2351.200;  228.350;    0.000
662.437; 2267.200;  230.350;    0.000
662.551; 2399.200;  234.350;    0.000
662.665; 2336.200;  212.350;    0.000
662.779; 2402.200;  254.350;    0.000
662.893; 2392.200;  269.350;    0.000
663.007; 2348.200;  196.350;    0.000
663.121; 2340.200;  262.350;    0.000
663.235; 2244.200;  263.350;    0.000
663.349; 2365.200;  242.350;    0.000
663.462; 2250.200;  234.350;    0.000
663.576; 2248.200;  219.350;    0.000
663.690; 2330.200;  234.350;    0.000
663.804; 2212.200;  205.350;    0.000
663.917; 2179.200;  224.350;    0.000
664.031; 2225.200;  208.350;    0.000
664.145; 2246.200;  241.350;    0.000
664.258; 2249.200;  188.350;    0.000
664.372; 2222.200;  214.350;    0.000
664.486; 2150.200;  203.350;    0.000
664.599; 2233.200;  217.350;    0.000
664.713; 2217.200;  286.350;    0.000
664.827; 2125.200;  199.350;    0.000
664.940; 2243.200;  250.350;    0.000
665.054; 2227.200;  261.350;    0.000
665.167; 2219.200;  258.350;    0.000
665.281; 2173.200;  234.350;    0.000
665.394; 2203.200;  213.350;    0.000
665.508; 2204.200;  222.350;    0.000
665.621; 2142.200;  254.350;    0.000
665.735; 2200.200;  252.350;    0.000
665.848; 2173.200;  248.350;    0.000
665.961; 2194.200;  234.350;    0.000
666.075; 2208.200;  262.350;    0.000
666.188; 2191.200;  270.350;    0.000
666.301; 2206.200;  237.350;    0.000
666.415; 2115.200;  245.350;    0.000
666.528; 2159.200;  248.350;    0.000
666.641; 2202.200;  210.350;    0.000
666.755; 2114.200;  218.350;    0.000
666.868; 2175.200;  224.350;    0.000
666.981; 2112.200;  244.350;    0.000
667.094; 2104.200;  279.350;    0.000
667.207; 2147.200;  190.350;    0.000
667.321; 2143.200;  210.350;    0.000
667.434; 2082.200;  205.350;    0.000
667.547; 2158.200;  253.350;    0.000
667.660; 2130.200;  243.350;    0.000
667.773; 2134.200;  242.350;    0.000
667.886; 2060.200;  218.350;    0.000
667.999; 2115.200;  226.350;    0.000
668.112; 2127.200;  258.350;    0.000
668.225; 2027.200;  243.350;    0.000
668.338; 2093.200;  224.350;    0.000
668.451; 2048.200;  250.350;    0.000
668.564; 2036.200;  260.350;    0.000
668.677; 2018.200;  204.350;    0.000
668.790; 2120.200;  229.350;    0.000
668.903; 2163.200;  269.350;    0.000
669.016; 1956.200;  228.350;    0.000
669.129; 2148.200;  253.350;    0.000
669.242; 1981.200;  245.350;    0.000
669.354; 2028.200;  234.350;    0.000
669.467; 2094.200;  256.350;    0.000
669.580; 2094.200;  223.350;    0.000
669.693; 2016.200;  252.350;    0.000
669.806; 2007.200;  212.350;    0.000
669.918; 1982.200;  228.350;    0.000
670.031; 2001.200;  265.350;    0.000
670.144; 2085.200;  255.350;    0.000
670.256; 2020.200;  229.350;    0.000
670.369; 2062.200;  301.350;    0.000
670.482; 2001.200;  263.350;    0.000
670.594; 2133.200;  246.350;    0.000
670.707; 2095.200;  255.350;    0.000
670.820; 2022.200;  256.350;    0.000
670.932; 1939.200;  210.350;    0.000
671.045; 2031.200;  249.350;    0.000
671.157; 1999.200;  254.350;    0.000
671.270; 2036.200;  265.350;    0.000
671.382; 2007.200;  219.350;    0.000
671.495; 2026.200;  242.350;    0.000
671.607; 2000.200;  266.350;    0.000
671.720; 1934.200;  238.350;    0.000
671.832; 1972.200;  220.350;    0.000
671.944; 2042.200;  251.350;    0.000
672.057; 2047.200;  232.350;    0.000
672.169; 2048.200;  240.350;    0.000
672.281; 2005.200;  270.350;    0.000
672.394; 1968.200;  257.350;    0.000
672.506; 2065.200;  247.350;    0.000
672.618; 2014.200;  229.350;    0.000
672.731; 1958.200;  227.350;    0.000
672.843; 2019.200;  282.350;    0.000
672.955; 1964.200;  262.350;    0.000
673.067; 2037.200;  277.350;    0.000
673.180; 1913.200;  280.350;    0.000
673.292; 2031.200;  241.350;    0.000
673.404; 1970.200;  234.350;    0.000
673.516; 1944.200;  224.350;    0.000
673.628; 2009.200;  272.350;    0.000
673.740; 1919.200;  249.350;    0.000
673.852; 2012.200;  288.350;    0.000
673.964; 2061.200;  278.350;    0.000
674.076; 1976.200;  273.350;    0.000
674.188; 1969.200;  251.350;    0.000
674.300; 1890.200;  244.350;    0.000
674.412; 1966.200;  267.350;    0.000
674.524; 1957.200;  276.350;    0.000
674.636; 1988.200;  234.350;    0.000
674.748; 2039.200;  267.350;    0.000
674.860; 1999.200;  255.350;    0.000
674.972; 1941.200;  253.350;    0.000
675.084; 1959.200;  253.350;    0.000
675.196; 2006.200;  300.350;    0.000
675.307; 1934.200;  307.350;    0.000
675.419; 1934.200;  245.350;    0.000
675.531; 2007.200;  292.350;    0.000
675.643; 1918.200;  244.350;    0.000
675.755; 1927.200;  265.350;    0.000
675.866; 1963.200;  281.350;    0.000
675.978; 1949.200;  266.350;    0.000
676.090; 1962.200;  267.350;    0.000
676.201; 1897.200;  265.350;    0.000
676.313; 1936.200;  222.350;    0.000
676.425; 1960.200;  248.350;    0.000
676.536; 1883.200;  234.350;    0.000
676.648; 2005.200;  261.350;    0.000
676.759; 1971.200;  280.350;    0.000
676.871; 1946.200;  260.350;    0.000
676.983; 1984.200;  277.350;    0.000
677.094; 1922.200;  252.350;    0.000
677.206; 1925.200;  238.350;    0.000
677.317; 1922.200;  269.350;    0.000
677.429; 1873.200;  245.350;    0.000
677.540; 1860.200;  244.350;    0.000
677.651; 1849.200;  225.350;    0.000
677.763; 1855.200;  216.350;    0.000
677.874; 1901.200;  226.350;    0.000
677.986; 1925.200;  234.350;    0.000
678.097; 1820.200;  237.350;    0.000
678.208; 1885.200;  278.350;    0.000
678.320; 1872.200;  243.350;    0.000
678.431; 1855.200;  248.350;    0.000
678.542; 1833.200;  240.350;    0.000
678.653; 1830.200;  250.350;    0.000
678.765; 1849.200;  258.350;    0.000
678.876; 1866.200;  221.350;    0.000
678.987; 1794.200;  229.350;    0.000
679.098; 1813.200;  233.350;    0.000
679.209; 1835.200;  274.350;    0.000
679.320; 1797.200;  216.350;    0.000
679.432; 1889.200;  246.350;    0.000
679.543; 1817.200;  226.350;    0.000
679.654; 1791.200;  232.350;    0.000
679.765; 1758.200;  246.350;    0.000
679.876; 1863.200;  263.350;    0.000
679.987; 1833.200;  216.350;    0.000
680.098; 1911.200;  262.350;    0.000
680.209; 1850.200;  219.350;    0.000
680.320; 1861.200;  232.350;    0.000
680.431; 1816.200;  261.350;    0.000
680.542; 1835.200;  219.350;    0.000
680.653; 1868.200;  238.350;    0.000
680.763; 1801.200;  191.350;    0.000
680.874; 1823.200;  267.350;    0.000
680.985; 1788.200;  240.350;    0.000
681.096; 1822.200;  251.350;    0.000
681.207; 1850.200;  232.350;    0.000
681.318; 1819.200;  211.350;    0.000
681.428; 1800.200;  233.350;    0.000
681.539; 1772.200;  197.350;    0.000
681.650; 1877.200;  197.350;    0.000
681.760; 1799.200;  243.350;    0.000
681.871; 1748.200;  245.350;    0.000
681.982; 1798.200;  218.350;    0.000
682.093; 1826.200;  262.350;    0.000
682.203; 1771.200;  250.350;    0.000
682.314; 1826.200;  239.350;    0.000
682.424; 1826.200;  250.350;    0.000
682.535; 1873.200;  206.350;    0.000
682.646; 1805.200;  302.350;    0.000
682.756; 1796.200;  258.350;    0.000
682.867; 1883.200;  265.350;    0.000
682.977; 1777.200;  218.350;    0.000
683.088; 1833.200;  264.350;    0.000
683.198; 1761.200;  236.350;    0.000
683.308; 1760.200;  246.350;    0.000
683.419; 1784.200;  296.350;    0.000
683.529; 1775.200;  242.350;    0.000
683.640; 1833.200;  245.350;    0.000
683.750; 1811.200;  213.350;    0.000
683.860; 1842.200;  256.350;    0.000
683.971; 1814.200;  251.350;    0.000
684.081; 1838.200;  232.350;    0.000
684.191; 1839.200;  252.350;    0.000
684.301; 1844.200;  214.350;    0.000
684.412; 1875.200;  261.350;    0.000
684.522; 1733.200;  243.350;    0.000
684.632; 1815.200;  257.350;    0.000
684.742; 1768.200;  271.350;    0.000
684.852; 1748.200;  258.350;    0.000
684.963; 1834.200;  262.350;    0.000
685.073; 1767.200;  219.350;    0.000
685.183; 1778.200;  270.350;    0.000
685.293; 1738.200;  233.350;    0.000
685.403; 1836.200;  274.350;    0.000
685.513; 1785.200;  280.350;    0.000
685.623; 1754.200;  267.350;    0.000
685.733; 1733.200;  274.350;    0.000
685.843; 1833.200;  274.350;    0.000
685.953; 1810.200;  244.350;    0.000
686.063; 1781.200;  261.350;    0.000
686.173; 1795.200;  283.350;    0.000
686.283; 1821.200;  260.350;    0.000
686.393; 1743.200;  256.350;    0.000
686.503; 1829.200;  295.350;    0.000
686.612; 1789.200;  294.350;    0.000
686.722; 1866.200;  263.350;    0.000
686.832; 1797.200;  291.350;    0.000
686.942; 1754.200;  229.350;    0.000
687.052; 1851.200;  241.350;    0.000
687.161; 1795.200;  304.350;    0.000
687.271; 1825.200;  223.350;    0.000
687.381; 1721.200;  273.350;    0.000
687.491; 1827.200;  246.350;    0.000
687.600; 1706.200;  242.350;    0.000
687.710; 1756.200;  225.350;    0.000
687.820; 1791.200;  259.350;    0.000
687.929; 1851.200;  232.350;    0.000
688.039; 1764.200;  248.350;    0.000
688.148; 1773.200;  250.350;    0.000
688.258; 1740.200;  240.350;    0.000
688.367; 1792.200;  253.350;    0.000
688.477; 1752.200;  229.350;    0.000
688.586; 1806.200;  259.350;    0.000
688.696; 1819.200;  250.350;    0.000
688.805; 1810.200;  279.350;    0.000
688.915; 1806.200;  250.350;    0.000
689.024; 1740.200;  240.350;    0.000
689.134; 1765.200;  269.350;    0.000
689.243; 1732.200;  214.350;    0.000
689.352; 1775.200;  257.350;    0.000
689.462; 1797.200;  248.350;    0.000
689.571; 1698.200;  233.350;    0.000
689.680; 1727.200;  236.350;    0.000
689.790; 1750.200;  238.350;    0.000
689.899; 1756.200;  232.350;    0.000
690.008; 1815.200;  259.350;    0.000
690.117; 1685.200;  254.350;    0.000
690.227; 1788.200;  251.350;    0.000
690.336; 1781.200;  240.350;    0.000
690.445; 1736.200;  235.350;    0.000
690.554; 1722.200;  243.350;    0.000
690.663; 1747.200;  214.350;    0.000
690.772; 1704.200;  247.350;    0.000
690.881; 1817.200;  249.350;    0.000
690.990; 1766.200;  265.350;    0.000
691.099; 1743.200;  217.350;    0.000
691.209; 1738.200;  272.350;    0.000
691.318; 1768.200;  223.350;    0.000
691.427; 1707.200;  212.350;    0.000
691.536; 1759.200;  260.350;    0.000
691.644; 1770.200;  246.350;    0.000
691.753; 1743.200;  251.350;    0.000
691.862; 1756.200;  239.350;    0.000
691.971; 1802.200;  253.350;    0.000
692.080; 1784.200;  255.350;    0.000
692.189; 1723.200;  228.350;    0.000
692.298; 1702.200;  243.350;    0.000
692.406; 1724.200;  269.350;    0.000
692.515; 1803.200;  254.350;    0.000
692.624; 1688.200;  225.350;    0.000
692.733; 1746.200;  245.350;    0.000
692.842; 1761.200;  259.350;    0.000
692.950; 1702.200;  226.350;    0.000
693.059; 1778.200;  216.350;    0.000
693.168; 1724.200;  266.350;    0.000
693.276; 1735.200;  236.350;    0.000
693.385; 1717.200;  257.350;    0.000
693.494; 1791.200;  268.350;    0.000
693.602; 1763.200;  239.350;    0.000
693.711; 1702.200;  224.350;    0.000
693.819; 1700.200;  263.350;    0.000
693.928; 1693.200;  270.350;    0.000
694.036; 1714.200;  247.350;    0.000
694.145; 1764.200;  261.350;    0.000
694.253; 1715.200;  261.350;    0.000
694.362; 1712.200;  253.350;    0.000
694.470; 1779.200;  270.350;    0.000
694.579; 1683.200;  233.350;    0.000
694.687; 1764.200;  260.350;    0.000
694.795; 1680.200;  228.350;    0.000
694.904; 1724.200;  228.350;    0.000
695.012; 1798.200;  288.350;    0.000
695.120; 1718.200;  230.350;    0.000
695.229; 1830.200;  287.350;    0.000
695.337; 1710.200;  249.350;    0.000
695.445; 1772.200;  283.350;    0.000
695.553; 1761.200;  251.350;    0.000
695.662; 1753.200;  236.350;    0.000
695.770; 1747.200;  267.350;    0.000
695.878; 1779.200;  268.350;    0.000
695.986; 1764.200;  297.350;    0.000
696.094; 1699.200;  275.350;    0.000
696.202; 1667.200;  201.350;    0.000
696.310; 1754.200;  283.350;    0.000
696.419; 1692.200;  261.350;    0.000
696.527; 1732.200;  252.350;    0.000
696.635; 1706.200;  249.350;    0.000
696.743; 1718.200;  236.350;    0.000
696.851; 1739.200;  241.350;    0.000
696.959; 1812.200;  278.350;    0.000
697.067; 1724.200;  239.350;    0.000
697.174; 1751.200;  260.350;    0.000
697.282; 1731.200;  259.350;    0.000
697.390; 1758.200;  302.350;    0.000
697.498; 1714.200;  216.350;    0.000
697.606; 1666.200;  245.350;    0.000
697.714; 1764.200;  279.350;    0.000
697.822; 1778.200;  267.350;    0.000
697.929; 1795.200;  234.350;    0.000
698.037; 1707.200;  255.350;    0.000
698.145; 1667.200;  226.350;    0.000
698.253; 1706.200;  261.350;    0.000
698.360; 1709.200;  299.350;    0.000
698.468; 1672.200;  254.350;    0.000
698.576; 1752.200;  307.350;    0.000
698.683; 1782.200;  280.350;    0.000
698.791; 1715.200;  284.350;    0.000
698.899; 1707.200;  279.350;    0.000
699.006; 1656.200;  264.350;    0.000
699.114; 1730.200;  263.350;    0.000
699.221; 1751.200;  291.350;    0.000
699.329; 1718.200;  309.350;    0.000
699.436; 1686.200;  261.350;    0.000
699.544; 1808.200;  259.350;    0.000
699.651; 1743.200;  251.350;    0.000
699.759; 1746.200;  251.350;    0.000
699.866; 1757.200;  266.350;    0.000
699.974; 1761.200;  264.350;    0.000
700.081; 1714.200;  295.350;    0.000
700.188; 1680.200;  293.350;    0.000
700.296; 1693.200;  233.350;    0.000
700.403; 1727.200;  290.350;    0.000
700.510; 1745.200;  275.350;    0.000
700.618; 1749.200;  273.350;    0.000
700.725; 1738.200;  262.350;    0.000
700.832; 1719.200;  250.350;    0.000
700.940; 1734.200;  300.350;    0.000
701.047; 1763.200;  245.350;    0.000
701.154; 1671.200;  280.350;    0.000
701.261; 1675.200;  270.350;    0.000
701.368; 1746.200;  286.350;    0.000
701.475; 1749.200;  301.350;    0.000
701.582; 1668.200;  286.350;    0.000
701.690; 1694.200;  279.350;    0.000
701.797; 1784.200;  292.350;    0.000
701.904; 1811.200;  314.350;    0.000
702.011; 1733.200;  340.350;    0.000
702.118; 1744.200;  276.350;    0.000
702.225; 1741.200;  351.350;    0.000
702.332; 1742.200;  301.350;    0.000
702.439; 1780.200;  334.350;    0.000
702.546; 1777.200;  325.350;    0.000
702.652; 1720.200;  343.350;    0.000
702.759; 1733.200;  339.350;    0.000
702.866; 1769.200;  344.350;    0.000
702.973; 1824.200;  330.350;    0.000
703.080; 1717.200;  322.350;    0.000
703.187; 1762.200;  327.350;    0.000
703.294; 1755.200;  339.350;    0.000
703.400; 1577.200;  325.350;    0.000
703.507;  508.200;  372.350;    0.000
703.614;  329.200;  348.350;    0.000
703.720;  329.200;  333.350;    0.000
703.827;  346.200;  331.350;    0.000
703.934;  335.200;  330.350;    0.000
704.040;  288.200;  327.350;    0.000
704.147;  325.200;  327.350;    0.000
704.254;  363.200;  354.350;    0.000
704.360;  303.200;  337.350;    0.000
704.467;  324.200;  370.350;    0.000
704.573;  326.200;  367.350;    0.000
704.680;  327.200;  339.350;    0.000
704.786;  320.200;  356.350;    0.000
704.893;  324.200;  352.350;    0.000
704.999;  302.200;  332.350;    0.000
705.106;  321.200;  359.350;    0.000

