
Integration time [ms]:   0.300
Averaging Nr. [scans]: 1
Smoothing Nr. [pixels]: 0
Data measured with spectrometer [name]: NIR
Wave   ;Sample   ;Dark     ;Reference
[nm]   ;[counts] ;[counts] ;[counts] 

691.496;    8.000;  155.525;    0.000
691.696;   14.000;  186.525;    0.000
691.896;  -58.000;  113.525;    0.000
692.096;    1.000;  169.525;    0.000
692.296;  -59.000;  119.525;    0.000
692.496;   15.000;  182.525;    0.000
692.695;  -24.000;  119.525;    0.000
692.895;   20.000;  183.525;    0.000
693.095;  -11.000;  119.525;    0.000
693.295;   -1.000;  156.525;    0.000
693.495;   -2.000;  145.525;    0.000
693.695;   -9.000;  144.525;    0.000
693.894;  -27.000;  174.525;    0.000
694.094;    3.000;  148.525;    0.000
694.294;  -34.000;  114.525;    0.000
694.494;  346.000;  137.525;    0.000
694.693; 3336.000;  112.525;    0.000
694.893; 3589.000;   85.525;    0.000
695.093; 3540.000;  152.525;    0.000
695.293; 3614.000;  159.525;    0.000
695.492; 3654.000;  131.525;    0.000
695.692; 3763.000;  134.525;    0.000
695.891; 3719.000;  161.525;    0.000
696.091; 3699.000;  180.525;    0.000
696.291; 3770.000;  120.525;    0.000
696.490; 3752.000;  146.525;    0.000
696.690; 3770.000;  145.525;    0.000
696.889; 3752.000;  171.525;    0.000
697.089; 3732.000;   98.525;    0.000
697.288; 3812.000;  172.525;    0.000
697.488; 3831.000;  137.525;    0.000
697.687; 3778.000;  171.525;    0.000
697.887; 3871.000;  142.525;    0.000
698.086; 3779.000;  159.525;    0.000
698.286; 3783.000;  122.525;    0.000
698.485; 3904.000;  121.525;    0.000
698.684; 3844.000;   94.525;    0.000
698.884; 3786.000;  131.525;    0.000
699.083; 3786.000;  112.525;    0.000
699.282; 3750.000;  119.525;    0.000
699.482; 3811.000;  117.525;    0.000
699.681; 3831.000;  115.525;    0.000
699.880; 3770.000;  166.525;    0.000
700.080; 3910.000;  194.525;    0.000
700.279; 3856.000;   98.525;    0.000
700.478; 3892.000;  159.525;    0.000
700.677; 3872.000;  134.525;    0.000
700.877; 3890.000;  171.525;    0.000
701.076; 3896.000;  141.525;    0.000
701.275; 3947.000;  119.525;    0.000
701.474; 3909.000;  132.525;    0.000
701.673; 3807.000;  141.525;    0.000
701.872; 3954.000;  158.525;    0.000
702.071; 3915.000;  129.525;    0.000
702.271; 4046.000;  122.525;    0.000
702.470; 4005.000;  158.525;    0.000
702.669; 3916.000;  145.525;    0.000
702.868; 3994.000;  135.525;    0.000
703.067; 4018.000;  169.525;    0.000
703.266; 3888.000;  125.525;    0.000
703.465; 4075.000;  153.525;    0.000
703.664; 3943.000;  113.525;    0.000
703.863; 4012.000;  170.525;    0.000
704.062; 3948.000;  115.525;    0.000
704.260; 3937.000;  133.525;    0.000
704.459; 4012.000;  123.525;    0.000
704.658; 3874.000;  105.525;    0.000
704.857; 4011.000;  125.525;    0.000
705.056; 4031.000;  108.525;    0.000
705.255; 4011.000;  117.525;    0.000
705.454; 4101.000;  126.525;    0.000
705.652; 4094.000;  137.525;    0.000
705.851; 3994.000;   95.525;    0.000
706.050; 4126.000;  120.525;    0.000
706.249; 4052.000;   81.525;    0.000
706.447; 4211.000;  105.525;    0.000
706.646; 4076.000;  107.525;    0.000
706.845; 4094.000;  104.525;    0.000
707.043; 4210.000;  136.525;    0.000
707.242; 4093.000;   89.525;    0.000
707.441; 4074.000;  147.525;    0.000
707.639; 4193.000;  156.525;    0.000
707.838; 4140.000;  114.525;    0.000
708.037; 4068.000;  100.525;    0.000
708.235; 4161.000;  103.525;    0.000
708.434; 4114.000;  102.525;    0.000
708.632; 4083.000;  100.525;    0.000
708.831; 4185.000;  121.525;    0.000
709.029; 4079.000;  102.525;    0.000
709.228; 4063.000;   88.525;    0.000
709.426; 4278.000;  135.525;    0.000
709.625; 4192.000;  128.525;    0.000
709.823; 4227.000;  123.525;    0.000
710.022; 4216.000;  137.525;    0.000
710.220; 4292.000;  134.525;    0.000
710.418; 4210.000;  122.525;    0.000
710.617; 4335.000;   64.525;    0.000
710.815; 4200.000;   94.525;    0.000
711.013; 4267.000;  127.525;    0.000
711.212; 4179.000;  105.525;    0.000
711.410; 4316.000;  117.525;    0.000
711.608; 4316.000;  114.525;    0.000
711.807; 4273.000;  119.525;    0.000
712.005; 4334.000;   92.525;    0.000
712.203; 4316.000;   95.525;    0.000
712.401; 4383.000;  107.525;    0.000
712.599; 4365.000;  127.525;    0.000
712.798; 4423.000;  120.525;    0.000
712.996; 4414.000;   76.525;    0.000
713.194; 4305.000;  118.525;    0.000
713.392; 4388.000;   60.525;    0.000
713.590; 4457.000;   92.525;    0.000
713.788; 4410.000;  110.525;    0.000
713.986; 4462.000;  130.525;    0.000
714.184; 4501.000;   71.525;    0.000
714.382; 4583.000;   86.525;    0.000
714.580; 4545.000;   74.525;    0.000
714.778; 4696.000;  133.525;    0.000
714.976; 4634.000;   81.525;    0.000
715.174; 4801.000;  100.525;    0.000
715.372; 4868.000;  141.525;    0.000
715.570; 5081.000;   73.525;    0.000
715.768; 5473.000;  119.525;    0.000
715.966; 5546.000;   81.525;    0.000
716.164; 5499.000;  130.525;    0.000
716.362; 5327.000;  125.525;    0.000
716.560; 5273.000;  109.525;    0.000
716.758; 5111.000;   96.525;    0.000
716.955; 4994.000;   83.525;    0.000
717.153; 4982.000;   87.525;    0.000
717.351; 4920.000;  123.525;    0.000
717.549; 4837.000;  121.525;    0.000
717.746; 5038.000;  128.525;    0.000
717.944; 4966.000;  132.525;    0.000
718.142; 4838.000;  120.525;    0.000
718.340; 4891.000;   94.525;    0.000
718.537; 4785.000;   95.525;    0.000
718.735; 4876.000;  152.525;    0.000
718.933; 4858.000;  124.525;    0.000
719.130; 4920.000;  114.525;    0.000
719.328; 4680.000;   63.525;    0.000
719.525; 4869.000;  146.525;    0.000
719.723; 4817.000;   96.525;    0.000
719.920; 4898.000;  120.525;    0.000
720.118; 4729.000;   59.525;    0.000
720.316; 4903.000;  116.525;    0.000
720.513; 4851.000;  127.525;    0.000
720.711; 4891.000;  110.525;    0.000
720.908; 4746.000;   92.525;    0.000
721.105; 4765.000;  138.525;    0.000
721.303; 4784.000;   90.525;    0.000
721.500; 4790.000;  126.525;    0.000
721.698; 4898.000;  103.525;    0.000
721.895; 4886.000;  206.525;    0.000
722.092; 4969.000;   63.525;    0.000
722.290; 4855.000;  123.525;    0.000
722.487; 4874.000;  137.525;    0.000
722.684; 4804.000;  126.525;    0.000
722.882; 4806.000;  119.525;    0.000
723.079; 4891.000;  132.525;    0.000
723.276; 4744.000;   98.525;    0.000
723.473; 4828.000;   97.525;    0.000
723.671; 4753.000;   43.525;    0.000
723.868; 4826.000;  142.525;    0.000
724.065; 4884.000;  102.525;    0.000
724.262; 4911.000;  119.525;    0.000
724.459; 4873.000;   73.525;    0.000
724.656; 4903.000;  128.525;    0.000
724.854; 4868.000;  135.525;    0.000
725.051; 4899.000;   81.525;    0.000
725.248; 4900.000;   88.525;    0.000
725.445; 4967.000;  129.525;    0.000
725.642; 4982.000;   76.525;    0.000
725.839; 4977.000;  134.525;    0.000
726.036; 4914.000;  101.525;    0.000
726.233; 5019.000;   68.525;    0.000
726.430; 4950.000;  121.525;    0.000
726.627; 5068.000;  136.525;    0.000
726.824; 5009.000;   87.525;    0.000
727.021; 4992.000;  141.525;    0.000
727.218; 4980.000;   92.525;    0.000
727.414; 5068.000;  121.525;    0.000
727.611; 5009.000;  100.525;    0.000
727.808; 5055.000;  130.525;    0.000
728.005; 5059.000;   83.525;    0.000
728.202; 5039.000;  120.525;    0.000
728.399; 5069.000;   75.525;    0.000
728.595; 4927.000;  148.525;    0.000
728.792; 5042.000;   79.525;    0.000
728.989; 5026.000;   86.525;    0.000
729.186; 5030.000;   80.525;    0.000
729.382; 5127.000;   72.525;    0.000
729.579; 5146.000;  112.525;    0.000
729.776; 5006.000;  106.525;    0.000
729.972; 5040.000;   77.525;    0.000
730.169; 5128.000;  118.525;    0.000
730.366; 4952.000;   92.525;    0.000
730.562; 5048.000;  104.525;    0.000
730.759; 5198.000;   95.525;    0.000
730.955; 5003.000;   85.525;    0.000
731.152; 5067.000;   79.525;    0.000
731.348; 5075.000;   72.525;    0.000
731.545; 5057.000;   56.525;    0.000
731.741; 5136.000;  106.525;    0.000
731.938; 5256.000;  113.525;    0.000
732.134; 5226.000;  106.525;    0.000
732.331; 5202.000;   82.525;    0.000
732.527; 5035.000;   80.525;    0.000
732.724; 5135.000;   97.525;    0.000
732.920; 5105.000;  127.525;    0.000
733.116; 5188.000;  115.525;    0.000
733.313; 5018.000;  153.525;    0.000
733.509; 5164.000;   76.525;    0.000
733.705; 5104.000;  159.525;    0.000
733.902; 5141.000;   82.525;    0.000
734.098; 5173.000;   70.525;    0.000
734.294; 5178.000;  105.525;    0.000
734.490; 5191.000;  110.525;    0.000
734.687; 5147.000;  102.525;    0.000
734.883; 5281.000;   77.525;    0.000
735.079; 5343.000;   93.525;    0.000
735.275; 5222.000;  109.525;    0.000
735.471; 5270.000;   99.525;    0.000
735.667; 5152.000;  107.525;    0.000
735.863; 5243.000;   89.525;    0.000
736.060; 5314.000;  105.525;    0.000
736.256; 5218.000;  113.525;    0.000
736.452; 5310.000;   90.525;    0.000
736.648; 5367.000;   88.525;    0.000
736.844; 5194.000;  129.525;    0.000
737.040; 5396.000;  139.525;    0.000
737.236; 5398.000;  129.525;    0.000
737.432; 5306.000;   67.525;    0.000
737.628; 5464.000;  104.525;    0.000
737.824; 5396.000;  111.525;    0.000
738.019; 5465.000;  116.525;    0.000
738.215; 5422.000;  135.525;    0.000
738.411; 5500.000;  118.525;    0.000
738.607; 5351.000;   58.525;    0.000
738.803; 5391.000;   32.525;    0.000
738.999; 5587.000;  120.525;    0.000
739.195; 5498.000;   76.525;    0.000
739.390; 5601.000;  119.525;    0.000
739.586; 5580.000;   83.525;    0.000
739.782; 5538.000;  134.525;    0.000
739.978; 5642.000;  122.525;    0.000
740.173; 5608.000;   96.525;    0.000
740.369; 5553.000;   86.525;    0.000
740.565; 5631.000;  122.525;    0.000
740.760; 5800.000;   99.525;    0.000
740.956; 5708.000;  137.525;    0.000
741.152; 5745.000;  108.525;    0.000
741.347; 5839.000;   65.525;    0.000
741.543; 5840.000;   73.525;    0.000
741.738; 5965.000;  142.525;    0.000
741.934; 6237.000;  131.525;    0.000
742.129; 6519.000;   66.525;    0.000
742.325; 7082.000;  143.525;    0.000
742.520; 7715.000;  119.525;    0.000
742.716; 7461.000;  109.525;    0.000
742.911; 7031.000;   62.525;    0.000
743.107; 7108.000;  119.525;    0.000
743.302; 6882.000;   78.525;    0.000
743.498; 6836.000;  130.525;    0.000
743.693; 6999.000;   75.525;    0.000
743.888; 7242.000;  135.525;    0.000
744.084; 8189.000;  106.525;    0.000
744.279; 9874.000;  101.525;    0.000
744.474; 9829.000;   91.525;    0.000
744.670; 9214.000;  144.525;    0.000
744.865; 8520.000;  128.525;    0.000
745.060; 8137.000;   63.525;    0.000
745.255; 7652.000;  155.525;    0.000
745.451; 7547.000;  110.525;    0.000
745.646; 7438.000;  150.525;    0.000
745.841; 7409.000;  128.525;    0.000
746.036; 7337.000;  110.525;    0.000
746.231; 7715.000;  126.525;    0.000
746.426; 8090.000;   83.525;    0.000
746.622; 8986.000;  157.525;    0.000
746.817;11463.000;  112.525;    0.000
747.012;12887.000;  115.525;    0.000
747.207;11540.000;  161.525;    0.000
747.402;10458.000;   88.525;    0.000
747.597; 9782.000;  103.525;    0.000
747.792; 9350.000;  152.525;    0.000
747.987; 8762.000;   80.525;    0.000
748.182; 8713.000;   89.525;    0.000
748.377; 8212.000;  104.525;    0.000
748.572; 8068.000;  138.525;    0.000
748.767; 7834.000;  100.525;    0.000
748.961; 7602.000;  106.525;    0.000
749.156; 7267.000;  113.525;    0.000
749.351; 7121.000;  116.525;    0.000
749.546; 6859.000;  107.525;    0.000
749.741; 6922.000;  102.525;    0.000
749.936; 6958.000;  105.525;    0.000
750.130; 6876.000;  111.525;    0.000
750.325; 6783.000;   72.525;    0.000
750.520; 6780.000;   96.525;    0.000
750.715; 6670.000;  135.525;    0.000
750.909; 6654.000;  107.525;    0.000
751.104; 6637.000;  106.525;    0.000
751.299; 6544.000;  144.525;    0.000
751.493; 6411.000;  116.525;    0.000
751.688; 6408.000;   96.525;    0.000
751.882; 6356.000;   92.525;    0.000
752.077; 6283.000;  109.525;    0.000
752.272; 6225.000;   96.525;    0.000
752.466; 6262.000;  110.525;    0.000
752.661; 6087.000;  120.525;    0.000
752.855; 6143.000;   70.525;    0.000
753.050; 6094.000;  129.525;    0.000
753.244; 6155.000;  126.525;    0.000
753.439; 5978.000;  115.525;    0.000
753.633; 6162.000;  120.525;    0.000
753.828; 5964.000;  129.525;    0.000
754.022; 6128.000;  139.525;    0.000
754.216; 5974.000;  121.525;    0.000
754.411; 6046.000;  108.525;    0.000
754.605; 5944.000;   94.525;    0.000
754.799; 5967.000;  125.525;    0.000
754.994; 6023.000;  160.525;    0.000
755.188; 5952.000;  151.525;    0.000
755.382; 5940.000;  102.525;    0.000
755.576; 6027.000;  103.525;    0.000
755.771; 5844.000;   99.525;    0.000
755.965; 5872.000;  158.525;    0.000
756.159; 5869.000;   96.525;    0.000
756.353; 6029.000;  157.525;    0.000
756.547; 5836.000;  132.525;    0.000
756.742; 5847.000;  106.525;    0.000
756.936; 5845.000;  113.525;    0.000
757.130; 5879.000;  114.525;    0.000
757.324; 5929.000;  111.525;    0.000
757.518; 5813.000;  142.525;    0.000
757.712; 5944.000;  137.525;    0.000
757.906; 5969.000;   93.525;    0.000
758.100; 5890.000;  119.525;    0.000
758.294; 5907.000;  132.525;    0.000
758.488; 5945.000;  153.525;    0.000
758.682; 5959.000;  101.525;    0.000
758.876; 5853.000;  129.525;    0.000
759.070; 5996.000;  168.525;    0.000
759.264; 5904.000;   96.525;    0.000
759.458; 5765.000;  117.525;    0.000
759.651; 5858.000;  135.525;    0.000
759.845; 5869.000;  127.525;    0.000
760.039; 5869.000;  120.525;    0.000
760.233; 5765.000;  124.525;    0.000
760.427; 5755.000;  115.525;    0.000
760.620; 5828.000;  130.525;    0.000
760.814; 5893.000;  102.525;    0.000
761.008; 5879.000;  174.525;    0.000
761.202; 5753.000;  132.525;    0.000
761.395; 5866.000;  126.525;    0.000
761.589; 5959.000;  133.525;    0.000
761.783; 5805.000;  147.525;    0.000
761.976; 5906.000;  147.525;    0.000
762.170; 5953.000;  174.525;    0.000
762.363; 5914.000;   97.525;    0.000
762.557; 5750.000;  141.525;    0.000
762.750; 5797.000;  112.525;    0.000
762.944; 5924.000;  110.525;    0.000
763.138; 5975.000;  125.525;    0.000
763.331; 5924.000;  101.525;    0.000
763.524; 5914.000;  101.525;    0.000
763.718; 6033.000;  156.525;    0.000
763.911; 6039.000;  143.525;    0.000
764.105; 5896.000;  139.525;    0.000
764.298; 5881.000;   89.525;    0.000
764.492; 5994.000;  111.525;    0.000
764.685; 5923.000;  136.525;    0.000
764.878; 6000.000;  146.525;    0.000
765.072; 6141.000;  110.525;    0.000
765.265; 6037.000;  141.525;    0.000
765.458; 5936.000;   82.525;    0.000
765.651; 6010.000;  144.525;    0.000
765.845; 6093.000;   79.525;    0.000
766.038; 6073.000;  123.525;    0.000
766.231; 6781.000;  125.525;    0.000
766.424; 9395.000;  131.525;    0.000
766.617; 9734.000;   62.525;    0.000
766.811; 6581.000;  142.525;    0.000
767.004; 6125.000;  134.525;    0.000
767.197; 6291.000;  147.525;    0.000
767.390; 6124.000;  100.525;    0.000
767.583; 6160.000;  121.525;    0.000
767.776; 6051.000;   91.525;    0.000
767.969; 6127.000;  113.525;    0.000
768.162; 6158.000;  170.525;    0.000
768.355; 6235.000;  134.525;    0.000
768.548; 6145.000;  177.525;    0.000
768.741; 6308.000;   96.525;    0.000
768.934; 6302.000;  143.525;    0.000
769.127; 6416.000;  147.525;    0.000
769.320; 6370.000;   93.525;    0.000
769.513; 6423.000;  137.525;    0.000
769.706; 7057.000;   96.525;    0.000
769.898; 9526.000;  118.525;    0.000
770.091; 7881.000;  138.525;    0.000
770.284; 6460.000;  133.525;    0.000
770.477; 6610.000;  137.525;    0.000
770.670; 6539.000;  124.525;    0.000
770.862; 6438.000;  125.525;    0.000
771.055; 6581.000;  135.525;    0.000
771.248; 6647.000;  109.525;    0.000
771.441; 6744.000;  141.525;    0.000
771.633; 6736.000;  142.525;    0.000
771.826; 6648.000;  123.525;    0.000
772.018; 6621.000;  136.525;    0.000
772.211; 6962.000;  145.525;    0.000
772.404; 7031.000;  127.525;    0.000
772.596; 7021.000;  193.525;    0.000
772.789; 6963.000;   64.525;    0.000
772.981; 7159.000;  142.525;    0.000
773.174; 7212.000;  105.525;    0.000
773.366; 7308.000;  166.525;    0.000
773.559; 7371.000;  125.525;    0.000
773.751; 7508.000;  126.525;    0.000
773.944; 7692.000;  147.525;    0.000
774.136; 8021.000;  155.525;    0.000
774.329; 8019.000;  127.525;    0.000
774.521; 8056.000;  133.525;    0.000
774.713; 8417.000;  139.525;    0.000
774.906; 8683.000;  170.525;    0.000
775.098; 9115.000;  144.525;    0.000
775.290; 9478.000;  162.525;    0.000
775.483; 9901.000;  137.525;    0.000
775.675;10363.000;  148.525;    0.000
775.867;11144.000;   81.525;    0.000
776.059;12042.000;  134.525;    0.000
776.251;13156.000;  137.525;    0.000
776.444;14947.000;  155.525;    0.000
776.636;17390.000;  148.525;    0.000
776.828;21541.000;  129.525;    0.000
777.020;29940.000;  133.525;    0.000
777.212;43333.000;  137.525;    0.000
777.404;48120.000;  124.525;    0.000
777.596;45114.000;  142.525;    0.000
777.788;34129.000;  155.525;    0.000
777.980;26449.000;  119.525;    0.000
778.172;21877.000;  129.525;    0.000
778.364;18503.000;  122.525;    0.000
778.556;16474.000;  129.525;    0.000
778.748;14897.000;  178.525;    0.000
778.940;13553.000;  128.525;    0.000
779.132;12517.000;  145.525;    0.000
779.324;11346.000;   89.525;    0.000
779.516;10850.000;  161.525;    0.000
779.708;10171.000;  183.525;    0.000
779.900; 9697.000;  124.525;    0.000
780.091; 9411.000;  143.525;    0.000
780.283; 8886.000;  135.525;    0.000
780.475; 8790.000;  129.525;    0.000
780.667; 8502.000;  178.525;    0.000
780.859; 8197.000;  146.525;    0.000
781.050; 7876.000;  156.525;    0.000
781.242; 7790.000;  138.525;    0.000
781.434; 7530.000;  117.525;    0.000
781.625; 7476.000;  161.525;    0.000
781.817; 7395.000;  127.525;    0.000
782.008; 7165.000;  138.525;    0.000
782.200; 7168.000;  139.525;    0.000
782.392; 7110.000;  179.525;    0.000
782.583; 6807.000;  137.525;    0.000
782.775; 6782.000;  162.525;    0.000
782.966; 6785.000;  159.525;    0.000
783.158; 6735.000;  118.525;    0.000
783.349; 6626.000;  160.525;    0.000
783.541; 6562.000;  139.525;    0.000
783.732; 6594.000;  145.525;    0.000
783.924; 6455.000;  146.525;    0.000
784.115; 6462.000;  125.525;    0.000
784.306; 6396.000;  118.525;    0.000
784.498; 6356.000;  144.525;    0.000
784.689; 6562.000;  145.525;    0.000
784.880; 6276.000;  137.525;    0.000
785.072; 6294.000;  157.525;    0.000
785.263; 6191.000;  149.525;    0.000
785.454; 6369.000;  128.525;    0.000
785.645; 6026.000;  131.525;    0.000
785.837; 6173.000;  137.525;    0.000
786.028; 6104.000;  161.525;    0.000
786.219; 6042.000;  155.525;    0.000
786.410; 6009.000;  146.525;    0.000
786.601; 6088.000;  120.525;    0.000
786.792; 6019.000;  179.525;    0.000
786.984; 6131.000;  113.525;    0.000
787.175; 6138.000;  156.525;    0.000
787.366; 6141.000;  131.525;    0.000
787.557; 6021.000;  138.525;    0.000
787.748; 6110.000;  112.525;    0.000
787.939; 6092.000;  115.525;    0.000
788.130; 6160.000;  150.525;    0.000
788.321; 6117.000;  122.525;    0.000
788.512; 6115.000;  147.525;    0.000
788.703; 6298.000;  126.525;    0.000
788.894; 6185.000;   80.525;    0.000
789.084; 6173.000;  127.525;    0.000
789.275; 6215.000;  141.525;    0.000
789.466; 6340.000;  108.525;    0.000
789.657; 6152.000;  137.525;    0.000
789.848; 6385.000;  126.525;    0.000
790.039; 6087.000;  144.525;    0.000
790.229; 6456.000;  105.525;    0.000
790.420; 6245.000;   96.525;    0.000
790.611; 6113.000;  171.525;    0.000
790.801; 6181.000;   89.525;    0.000
790.992; 6320.000;  140.525;    0.000
791.183; 6295.000;  143.525;    0.000
791.373; 6255.000;  128.525;    0.000
791.564; 6235.000;   96.525;    0.000
791.755; 6295.000;  111.525;    0.000
791.945; 6229.000;  112.525;    0.000
792.136; 6188.000;  124.525;    0.000
792.326; 6148.000;   88.525;    0.000
792.517; 6182.000;  130.525;    0.000
792.707; 6254.000;  144.525;    0.000
792.898; 6283.000;  120.525;    0.000
793.088; 6385.000;  106.525;    0.000
793.279; 6495.000;  104.525;    0.000
793.469; 6408.000;  103.525;    0.000
793.660; 6596.000;  120.525;    0.000
793.850; 6840.000;  106.525;    0.000
794.040; 6827.000;  135.525;    0.000
794.231; 7314.000;   80.525;    0.000
794.421; 7693.000;  120.525;    0.000
794.611; 8645.000;  154.525;    0.000
794.802; 9839.000;  103.525;    0.000
794.992;10456.000;  120.525;    0.000
795.182;10524.000;  156.525;    0.000
795.372; 9887.000;  104.525;    0.000
795.563; 9047.000;  153.525;    0.000
795.753; 8326.000;  112.525;    0.000
795.943; 7897.000;  128.525;    0.000
796.133; 7479.000;  128.525;    0.000
796.323; 7242.000;  152.525;    0.000
796.513; 6998.000;  123.525;    0.000
796.703; 6806.000;  134.525;    0.000
796.893; 6467.000;  120.525;    0.000
797.083; 6450.000;  136.525;    0.000
797.273; 6230.000;  128.525;    0.000
797.463; 6312.000;  140.525;    0.000
797.653; 6158.000;   75.525;    0.000
797.843; 6012.000;  114.525;    0.000
798.033; 6174.000;   90.525;    0.000
798.223; 5870.000;  136.525;    0.000
798.413; 5931.000;  164.525;    0.000
798.603; 5796.000;  150.525;    0.000
798.793; 5735.000;  137.525;    0.000
798.983; 5548.000;  119.525;    0.000
799.172; 5744.000;  136.525;    0.000
799.362; 5580.000;  138.525;    0.000
799.552; 5497.000;  123.525;    0.000
799.742; 5678.000;  117.525;    0.000
799.932; 5319.000;  108.525;    0.000
800.121; 5319.000;  152.525;    0.000
800.311; 5389.000;  117.525;    0.000
800.501; 5393.000;  100.525;    0.000
800.690; 5346.000;  139.525;    0.000
800.880; 5448.000;  138.525;    0.000
801.070; 5380.000;  120.525;    0.000
801.259; 5341.000;  143.525;    0.000
801.449; 5321.000;  110.525;    0.000
801.638; 5234.000;  140.525;    0.000
801.828; 5209.000;  103.525;    0.000
802.017; 5255.000;   78.525;    0.000
802.207; 5315.000;  126.525;    0.000
802.396; 5269.000;  151.525;    0.000
802.586; 5254.000;  106.525;    0.000
802.775; 5211.000;  152.525;    0.000
802.965; 5168.000;  117.525;    0.000
803.154; 5102.000;  171.525;    0.000
803.343; 5061.000;  126.525;    0.000
803.533; 5242.000;  135.525;    0.000
803.722; 5016.000;  144.525;    0.000
803.911; 5059.000;  109.525;    0.000
804.101; 5098.000;  146.525;    0.000
804.290; 5211.000;  115.525;    0.000
804.479; 5094.000;  128.525;    0.000
804.668; 5171.000;  156.525;    0.000
804.857; 5224.000;  151.525;    0.000
805.047; 4976.000;  131.525;    0.000
805.236; 5048.000;  144.525;    0.000
805.425; 4998.000;  160.525;    0.000
805.614; 5052.000;  112.525;    0.000
805.803; 5075.000;  120.525;    0.000
805.992; 5033.000;  148.525;    0.000
806.181; 5127.000;  108.525;    0.000
806.370; 5184.000;  142.525;    0.000
806.559; 5149.000;  116.525;    0.000
806.748; 5060.000;  108.525;    0.000
806.937; 5077.000;  110.525;    0.000
807.126; 5024.000;  126.525;    0.000
807.315; 5013.000;  121.525;    0.000
807.504; 5151.000;  102.525;    0.000
807.693; 5091.000;  134.525;    0.000
807.882; 5147.000;  135.525;    0.000
808.071; 4991.000;  135.525;    0.000
808.260; 5173.000;   93.525;    0.000
808.448; 5046.000;  151.525;    0.000
808.637; 5176.000;  105.525;    0.000
808.826; 5176.000;  178.525;    0.000
809.015; 5174.000;  152.525;    0.000
809.203; 5035.000;  147.525;    0.000
809.392; 5214.000;  144.525;    0.000
809.581; 5167.000;  167.525;    0.000
809.770; 5269.000;  151.525;    0.000
809.958; 5206.000;  128.525;    0.000
810.147; 5106.000;  152.525;    0.000
810.335; 5318.000;  160.525;    0.000
810.524; 5354.000;  130.525;    0.000
810.713; 5377.000;  128.525;    0.000
810.901; 5478.000;  140.525;    0.000
811.090; 5384.000;  152.525;    0.000
811.278; 5420.000;  126.525;    0.000
811.467; 5612.000;  161.525;    0.000
811.655; 5651.000;  184.525;    0.000
811.844; 5742.000;  148.525;    0.000
812.032; 5635.000;  138.525;    0.000
812.220; 5497.000;  157.525;    0.000
812.409; 5547.000;  143.525;    0.000
812.597; 5760.000;  124.525;    0.000
812.785; 5874.000;  170.525;    0.000
812.974; 5680.000;  135.525;    0.000
813.162; 5825.000;  135.525;    0.000
813.350; 5842.000;  182.525;    0.000
813.539; 5831.000;  126.525;    0.000
813.727; 5944.000;  127.525;    0.000
813.915; 5975.000;  140.525;    0.000
814.103; 5981.000;  176.525;    0.000
814.291; 6060.000;  115.525;    0.000
814.479; 6058.000;  119.525;    0.000
814.668; 6105.000;  134.525;    0.000
814.856; 6314.000;  120.525;    0.000
815.044; 6281.000;  164.525;    0.000
815.232; 6571.000;  146.525;    0.000
815.420; 6660.000;  154.525;    0.000
815.608; 6683.000;  137.525;    0.000
815.796; 6730.000;  108.525;    0.000
815.984; 6907.000;  134.525;    0.000
816.172; 7098.000;  123.525;    0.000
816.360; 7399.000;  181.525;    0.000
816.548; 7496.000;  139.525;    0.000
816.736; 7886.000;  138.525;    0.000
816.924; 7990.000;  151.525;    0.000
817.111; 8490.000;  156.525;    0.000
817.299; 9032.000;  147.525;    0.000
817.487; 9649.000;  188.525;    0.000
817.675;10538.000;  129.525;    0.000
817.863;12164.000;  128.525;    0.000
818.050;16028.000;  110.525;    0.000
818.238;27727.000;  166.525;    0.000
818.426;38525.000;  136.525;    0.000
818.613;28724.000;  143.525;    0.000
818.801;24029.000;  150.525;    0.000
818.989;22527.000;  179.525;    0.000
819.176;24186.000;  123.525;    0.000
819.364;34279.000;  148.525;    0.000
819.552;48331.000;   86.525;    0.000
819.739;35931.000;  169.525;    0.000
819.927;26636.000;  130.525;    0.000
820.114;21986.000;  144.525;    0.000
820.302;19756.000;  166.525;    0.000
820.489;17856.000;  145.525;    0.000
820.677;16730.000;  101.525;    0.000
820.864;15705.000;  149.525;    0.000
821.052;16068.000;  130.525;    0.000
821.239;16319.000;  147.525;    0.000
821.426;16779.000;  121.525;    0.000
821.614;19002.000;  187.525;    0.000
821.801;20069.000;  105.525;    0.000
821.988;18013.000;  167.525;    0.000
822.176;17220.000;  130.525;    0.000
822.363;17600.000;  143.525;    0.000
822.550;16184.000;  108.525;    0.000
822.737;14721.000;  109.525;    0.000
822.924;13847.000;  156.525;    0.000
823.112;12879.000;  123.525;    0.000
823.299;12283.000;  128.525;    0.000
823.486;11539.000;  138.525;    0.000
823.673;11077.000;  125.525;    0.000
823.860;10636.000;  138.525;    0.000
824.047;10806.000;  122.525;    0.000
824.234;11552.000;  134.525;    0.000
824.421;11898.000;   95.525;    0.000
824.608;10541.000;  151.525;    0.000
824.795; 9665.000;  117.525;    0.000
824.982; 9200.000;  143.525;    0.000
825.169; 8673.000;   83.525;    0.000
825.356; 8300.000;  126.525;    0.000
825.543; 8067.000;   92.525;    0.000
825.730; 7743.000;  113.525;    0.000
825.917; 7443.000;  142.525;    0.000
826.104; 7331.000;  182.525;    0.000
826.290; 6995.000;  137.525;    0.000
826.477; 6992.000;  126.525;    0.000
826.664; 6572.000;  135.525;    0.000
826.851; 6460.000;  139.525;    0.000
827.038; 6362.000;  135.525;    0.000
827.224; 6278.000;  143.525;    0.000
827.411; 6207.000;  153.525;    0.000
827.598; 6021.000;  122.525;    0.000
827.784; 5875.000;  138.525;    0.000
827.971; 5918.000;  134.525;    0.000
828.157; 5740.000;  152.525;    0.000
828.344; 5484.000;  135.525;    0.000
828.531; 5483.000;  137.525;    0.000
828.717; 5522.000;  117.525;    0.000
828.904; 5508.000;  127.525;    0.000
829.090; 5327.000;  172.525;    0.000
829.277; 5233.000;  144.525;    0.000
829.463; 5144.000;  159.525;    0.000
829.650; 5206.000;  187.525;    0.000
829.836; 5031.000;  138.525;    0.000
830.022; 5062.000;  196.525;    0.000
830.209; 5081.000;  118.525;    0.000
830.395; 4933.000;  148.525;    0.000
830.581; 4910.000;  108.525;    0.000
830.768; 4826.000;  137.525;    0.000
830.954; 4814.000;  162.525;    0.000
831.140; 4659.000;  117.525;    0.000
831.327; 4803.000;  176.525;    0.000
831.513; 4678.000;  162.525;    0.000
831.699; 4802.000;  157.525;    0.000
831.885; 4556.000;  153.525;    0.000
832.071; 4548.000;  123.525;    0.000
832.257; 4540.000;  142.525;    0.000
832.444; 4402.000;  165.525;    0.000
832.630; 4552.000;  159.525;    0.000
832.816; 4499.000;  145.525;    0.000
833.002; 4341.000;  120.525;    0.000
833.188; 4369.000;  145.525;    0.000
833.374; 4334.000;  137.525;    0.000
833.560; 4317.000;  152.525;    0.000
833.746; 4352.000;  139.525;    0.000
833.932; 4251.000;  170.525;    0.000
834.118; 4147.000;  111.525;    0.000
834.303; 4190.000;  141.525;    0.000
834.489; 4227.000;  146.525;    0.000
834.675; 4109.000;  156.525;    0.000
834.861; 4314.000;   87.525;    0.000
835.047; 4242.000;  134.525;    0.000
835.233; 4092.000;   89.525;    0.000
835.418; 4068.000;  145.525;    0.000
835.604; 4097.000;  136.525;    0.000
835.790; 4044.000;  132.525;    0.000
835.976; 4010.000;  161.525;    0.000
836.161; 4143.000;  157.525;    0.000
836.347; 3955.000;  147.525;    0.000
836.533; 4075.000;  116.525;    0.000
836.718; 4117.000;  168.525;    0.000
836.904; 4082.000;  199.525;    0.000
837.089; 4078.000;  165.525;    0.000
837.275; 4052.000;  166.525;    0.000
837.460; 3944.000;  144.525;    0.000
837.646; 3901.000;  164.525;    0.000
837.831; 4000.000;  122.525;    0.000
838.017; 3980.000;  163.525;    0.000
838.202; 3947.000;  139.525;    0.000
838.388; 3915.000;  174.525;    0.000
838.573; 3885.000;  140.525;    0.000
838.759; 4027.000;  167.525;    0.000
838.944; 3853.000;  142.525;    0.000
839.129; 3936.000;  164.525;    0.000
839.315; 4020.000;  129.525;    0.000
839.500; 4015.000;  150.525;    0.000
839.685; 3918.000;  118.525;    0.000
839.870; 3953.000;  177.525;    0.000
840.056; 3979.000;  144.525;    0.000
840.241; 3927.000;  121.525;    0.000
840.426; 4022.000;  131.525;    0.000
840.611; 3964.000;  177.525;    0.000
840.796; 4115.000;  173.525;    0.000
840.981; 3980.000;  156.525;    0.000
841.166; 4100.000;  145.525;    0.000
841.352; 4036.000;  150.525;    0.000
841.537; 4211.000;  143.525;    0.000
841.722; 4202.000;  165.525;    0.000
841.907; 4105.000;  184.525;    0.000
842.092; 4165.000;  171.525;    0.000
842.277; 4247.000;  155.525;    0.000
842.461; 4330.000;  152.525;    0.000
842.646; 4496.000;  107.525;    0.000
842.831; 4493.000;  160.525;    0.000
843.016; 4651.000;  160.525;    0.000
843.201; 4752.000;  164.525;    0.000
843.386; 4886.000;  134.525;    0.000
843.571; 5159.000;  132.525;    0.000
843.755; 5511.000;  158.525;    0.000
843.940; 6008.000;  152.525;    0.000
844.125; 6629.000;  154.525;    0.000
844.310; 7812.000;  147.525;    0.000
844.494; 9870.000;  158.525;    0.000
844.679;13650.000;  173.525;    0.000
844.864;13477.000;  152.525;    0.000
845.048;11051.000;  139.525;    0.000
845.233; 9345.000;  200.525;    0.000
845.418; 8174.000;  139.525;    0.000
845.602; 7310.000;  147.525;    0.000
845.787; 6643.000;  148.525;    0.000
845.971; 6304.000;  170.525;    0.000
846.156; 5559.000;  136.525;    0.000
846.340; 5596.000;  146.525;    0.000
846.525; 5246.000;  188.525;    0.000
846.709; 4952.000;  128.525;    0.000
846.893; 4843.000;  151.525;    0.000
847.078; 4728.000;  164.525;    0.000
847.262; 4597.000;  155.525;    0.000
847.447; 4266.000;  114.525;    0.000
847.631; 4205.000;  148.525;    0.000
847.815; 4214.000;  114.525;    0.000
848.000; 4027.000;  134.525;    0.000
848.184; 4071.000;  154.525;    0.000
848.368; 3958.000;  145.525;    0.000
848.552; 4027.000;  122.525;    0.000
848.736; 3786.000;  139.525;    0.000
848.921; 3864.000;  143.525;    0.000
849.105; 3816.000;  145.525;    0.000
849.289; 3822.000;  173.525;    0.000
849.473; 3746.000;  147.525;    0.000
849.657; 3656.000;  144.525;    0.000
849.841; 3607.000;  168.525;    0.000
850.025; 3543.000;  205.525;    0.000
850.209; 3560.000;  171.525;    0.000
850.393; 3398.000;  130.525;    0.000
850.577; 3535.000;  146.525;    0.000
850.761; 3454.000;  188.525;    0.000
850.945; 3418.000;  137.525;    0.000
851.129; 3451.000;  192.525;    0.000
851.313; 3504.000;  199.525;    0.000
851.497; 3380.000;  165.525;    0.000
851.680; 3468.000;  196.525;    0.000
851.864; 3410.000;  169.525;    0.000
852.048; 3468.000;  156.525;    0.000
852.232; 3415.000;  150.525;    0.000
852.416; 3409.000;  219.525;    0.000
852.599; 3309.000;  168.525;    0.000
852.783; 3384.000;  165.525;    0.000
852.967; 3419.000;  166.525;    0.000
853.150; 3382.000;  191.525;    0.000
853.334; 3289.000;  158.525;    0.000
853.518; 3443.000;  168.525;    0.000
853.701; 3281.000;  125.525;    0.000
853.885; 3344.000;  165.525;    0.000
854.068; 3376.000;  142.525;    0.000
854.252; 3257.000;  167.525;    0.000
854.435; 3348.000;  146.525;    0.000
854.619; 3337.000;  163.525;    0.000
854.802; 3227.000;  167.525;    0.000
854.986; 3297.000;  163.525;    0.000
855.169; 3289.000;  146.525;    0.000
855.353; 3327.000;  183.525;    0.000
855.536; 3279.000;  140.525;    0.000
855.719; 3346.000;  168.525;    0.000
855.903; 3307.000;  170.525;    0.000
856.086; 3313.000;  145.525;    0.000
856.269; 3438.000;  126.525;    0.000
856.452; 3506.000;  142.525;    0.000
856.636; 3492.000;  140.525;    0.000
856.819; 3774.000;  127.525;    0.000
857.002; 3959.000;  165.525;    0.000
857.185; 3854.000;  111.525;    0.000
857.368; 3704.000;  143.525;    0.000
857.552; 3529.000;  174.525;    0.000
857.735; 3630.000;  194.525;    0.000
857.918; 3580.000;  171.525;    0.000
858.101; 3514.000;  142.525;    0.000
858.284; 3577.000;  118.525;    0.000
858.467; 3629.000;  163.525;    0.000
858.650; 3620.000;  149.525;    0.000
858.833; 3763.000;  120.525;    0.000
859.016; 3852.000;  169.525;    0.000
859.199; 3909.000;  121.525;    0.000
859.382; 4317.000;  184.525;    0.000
859.564; 4699.000;  139.525;    0.000
859.747; 4450.000;  126.525;    0.000
859.930; 4309.000;  109.525;    0.000
860.113; 4139.000;  137.525;    0.000
860.296; 4097.000;  182.525;    0.000
860.478; 3928.000;  136.525;    0.000
860.661; 3912.000;  157.525;    0.000
860.844; 3949.000;  129.525;    0.000
861.027; 3872.000;  163.525;    0.000
861.209; 3787.000;  151.525;    0.000
861.392; 3831.000;  124.525;    0.000
861.575; 3815.000;  163.525;    0.000
861.757; 3849.000;  205.525;    0.000
861.940; 3961.000;  180.525;    0.000
862.122; 4018.000;  148.525;    0.000
862.305; 4050.000;  128.525;    0.000
862.487; 4240.000;  172.525;    0.000
862.670; 4507.000;  123.525;    0.000
862.852; 5347.000;  126.525;    0.000
863.035; 6192.000;  174.525;    0.000
863.217; 6240.000;  160.525;    0.000
863.400; 5623.000;  164.525;    0.000
863.582; 5370.000;  118.525;    0.000
863.764; 5102.000;  143.525;    0.000
863.947; 4933.000;  137.525;    0.000
864.129; 4781.000;  166.525;    0.000
864.311; 4682.000;  128.525;    0.000
864.493; 4584.000;  153.525;    0.000
864.676; 4510.000;  156.525;    0.000
864.858; 4453.000;  159.525;    0.000
865.040; 4293.000;  163.525;    0.000
865.222; 4358.000;  138.525;    0.000
865.404; 4539.000;  157.525;    0.000
865.587; 4714.000;  184.525;    0.000
865.769; 4731.000;  178.525;    0.000
865.951; 4835.000;  104.525;    0.000
866.133; 4888.000;  147.525;    0.000
866.315; 4786.000;  141.525;    0.000
866.497; 4828.000;  132.525;    0.000
866.679; 5004.000;  139.525;    0.000
866.861; 5232.000;  118.525;    0.000
867.043; 5317.000;  154.525;    0.000
867.225; 5826.000;  147.525;    0.000
867.407; 6257.000;  158.525;    0.000
867.589; 7111.000;  172.525;    0.000
867.770; 8531.000;  159.525;    0.000
867.952;11655.000;  149.525;    0.000
868.134;14938.000;  156.525;    0.000
868.316;14789.000;  171.525;    0.000
868.498;14388.000;  200.525;    0.000
868.679;12426.000;  174.525;    0.000
868.861;10482.000;  175.525;    0.000
869.043; 9060.000;  174.525;    0.000
869.224; 7953.000;  122.525;    0.000
869.406; 7227.000;  166.525;    0.000
869.588; 6798.000;  143.525;    0.000
869.769; 6416.000;  152.525;    0.000
869.951; 6245.000;  165.525;    0.000
870.132; 6307.000;  115.525;    0.000
870.314; 7020.000;  139.525;    0.000
870.495; 7014.000;  168.525;    0.000
870.677; 6557.000;  188.525;    0.000
870.858; 6203.000;  123.525;    0.000
871.040; 6604.000;  170.525;    0.000
871.221; 7159.000;  148.525;    0.000
871.403; 7020.000;  140.525;    0.000
871.584; 6527.000;  174.525;    0.000
871.765; 6580.000;  168.525;    0.000
871.947; 6951.000;  191.525;    0.000
872.128; 6280.000;  132.525;    0.000
872.309; 5543.000;  140.525;    0.000
872.491; 5030.000;  157.525;    0.000
872.672; 4809.000;  130.525;    0.000
872.853; 4634.000;  148.525;    0.000
873.034; 4529.000;  138.525;    0.000
873.215; 4374.000;  152.525;    0.000
873.396; 4124.000;  149.525;    0.000
873.578; 3887.000;  173.525;    0.000
873.759; 3836.000;  158.525;    0.000
873.940; 3655.000;  147.525;    0.000
874.121; 3636.000;  136.525;    0.000
874.302; 3585.000;  151.525;    0.000
874.483; 3526.000;  137.525;    0.000
874.664; 3559.000;  163.525;    0.000
874.845; 3490.000;  124.525;    0.000
875.026; 3391.000;  134.525;    0.000
875.207; 3395.000;  164.525;    0.000
875.388; 3346.000;  163.525;    0.000
875.568; 3322.000;  176.525;    0.000
875.749; 3250.000;  108.525;    0.000
875.930; 3182.000;  191.525;    0.000
876.111; 3090.000;  170.525;    0.000
876.292; 3074.000;  180.525;    0.000
876.472; 3088.000;  150.525;    0.000
876.653; 3020.000;  162.525;    0.000
876.834; 2968.000;  176.525;    0.000
877.015; 3002.000;  203.525;    0.000
877.195; 3018.000;  178.525;    0.000
877.376; 3027.000;  141.525;    0.000
877.556; 2875.000;  135.525;    0.000
877.737; 2919.000;  174.525;    0.000
877.918; 2874.000;  150.525;    0.000
878.098; 2798.000;  133.525;    0.000
878.279; 2848.000;  129.525;    0.000
878.459; 2752.000;  162.525;    0.000
878.640; 2866.000;  187.525;    0.000
878.820; 2862.000;  151.525;    0.000
879.000; 2832.000;  159.525;    0.000
879.181; 2741.000;  171.525;    0.000
879.361; 2793.000;  167.525;    0.000
879.542; 2764.000;  126.525;    0.000
879.722; 2820.000;  152.525;    0.000
879.902; 2829.000;  144.525;    0.000
880.083; 2821.000;  154.525;    0.000
880.263; 2949.000;  148.525;    0.000
880.443; 2999.000;  185.525;    0.000
880.623; 3495.000;  172.525;    0.000
880.803; 3987.000;  152.525;    0.000
880.984; 3539.000;  165.525;    0.000
881.164; 3191.000;  164.525;    0.000
881.344; 3114.000;  141.525;    0.000
881.524; 3032.000;  160.525;    0.000
881.704; 3140.000;  164.525;    0.000
881.884; 3128.000;  159.525;    0.000
882.064; 3284.000;  158.525;    0.000
882.244; 3366.000;  147.525;    0.000
882.424; 3159.000;  160.525;    0.000
882.604; 3041.000;  150.525;    0.000
882.784; 2971.000;  138.525;    0.000
882.964; 2909.000;  157.525;    0.000
883.144; 2802.000;  128.525;    0.000
883.324; 2906.000;  220.525;    0.000
883.504; 2741.000;  177.525;    0.000
883.683; 2688.000;  159.525;    0.000
883.863; 2793.000;  143.525;    0.000
884.043; 2792.000;  156.525;    0.000
884.223; 2664.000;  152.525;    0.000
884.402; 2715.000;  169.525;    0.000
884.582; 2663.000;  162.525;    0.000
884.762; 2687.000;  172.525;    0.000
884.941; 2625.000;  220.525;    0.000
885.121; 2581.000;  128.525;    0.000
885.301; 2652.000;  141.525;    0.000
885.480; 2638.000;  141.525;    0.000
885.660; 2510.000;  132.525;    0.000
885.839; 2655.000;  146.525;    0.000
886.019; 2561.000;  170.525;    0.000
886.198; 2483.000;  143.525;    0.000
886.378; 2550.000;  159.525;    0.000
886.557; 2452.000;  148.525;    0.000
886.737; 2440.000;  125.525;    0.000
886.916; 2431.000;  177.525;    0.000
887.095; 2486.000;  186.525;    0.000
887.275; 2500.000;  134.525;    0.000
887.454; 2465.000;  148.525;    0.000
887.633; 2395.000;  171.525;    0.000
887.813; 2558.000;  187.525;    0.000
887.992; 2484.000;  157.525;    0.000
888.171; 2397.000;  143.525;    0.000
888.350; 2459.000;  182.525;    0.000
888.530; 2398.000;  142.525;    0.000
888.709; 2390.000;  160.525;    0.000
888.888; 2431.000;  197.525;    0.000
889.067; 2491.000;  126.525;    0.000
889.246; 2438.000;  197.525;    0.000
889.425; 2434.000;  161.525;    0.000
889.604; 2558.000;  180.525;    0.000
889.783; 2442.000;  135.525;    0.000
889.962; 2426.000;  107.525;    0.000
890.141; 2488.000;  167.525;    0.000
890.320; 2504.000;  149.525;    0.000
890.499; 2436.000;  194.525;    0.000
890.678; 2414.000;  138.525;    0.000
890.857; 2376.000;  146.525;    0.000
891.036; 2363.000;  178.525;    0.000
891.214; 2361.000;  151.525;    0.000
891.393; 2367.000;  137.525;    0.000
891.572; 2384.000;  177.525;    0.000
891.751; 2463.000;  149.525;    0.000
891.930; 2380.000;  189.525;    0.000
892.108; 2403.000;  136.525;    0.000
892.287; 2344.000;  129.525;    0.000
892.466; 2411.000;  163.525;    0.000
892.644; 2402.000;  147.525;    0.000
892.823; 2357.000;  127.525;    0.000
893.001; 2440.000;  192.525;    0.000
893.180; 2357.000;  157.525;    0.000
893.359; 2344.000;  176.525;    0.000
893.537; 2388.000;  146.525;    0.000
893.716; 2325.000;  154.525;    0.000
893.894; 2433.000;  166.525;    0.000
894.073; 2455.000;  163.525;    0.000
894.251; 2399.000;  166.525;    0.000
894.429; 2399.000;  149.525;    0.000
894.608; 2475.000;  141.525;    0.000
894.786; 2381.000;  139.525;    0.000
894.964; 2374.000;  180.525;    0.000
895.143; 2426.000;  193.525;    0.000
895.321; 2358.000;  163.525;    0.000
895.499; 2382.000;  163.525;    0.000
895.677; 2423.000;  194.525;    0.000
895.856; 2430.000;  176.525;    0.000
896.034; 2462.000;  173.525;    0.000
896.212; 2446.000;  180.525;    0.000
896.390; 2430.000;  146.525;    0.000
896.568; 2352.000;  167.525;    0.000
896.746; 2336.000;  158.525;    0.000
896.924; 2414.000;  163.525;    0.000
897.102; 2418.000;  170.525;    0.000
897.280; 2372.000;  159.525;    0.000
897.458; 2409.000;  182.525;    0.000
897.636; 2397.000;  151.525;    0.000
897.814; 2480.000;  130.525;    0.000
897.992; 2494.000;  213.525;    0.000
898.170; 2439.000;  164.525;    0.000
898.348; 2419.000;  159.525;    0.000
898.526; 2469.000;  182.525;    0.000
898.704; 2467.000;  209.525;    0.000
898.882; 2448.000;  145.525;    0.000
899.059; 2384.000;  172.525;    0.000
899.237; 2462.000;  172.525;    0.000
899.415; 2461.000;  211.525;    0.000
899.593; 2524.000;  151.525;    0.000
899.770; 2541.000;  147.525;    0.000
899.948; 2609.000;  218.525;    0.000
900.125; 2556.000;  166.525;    0.000
900.303; 2513.000;  146.525;    0.000
900.481; 2571.000;  174.525;    0.000
900.658; 2531.000;  198.525;    0.000
900.836; 2537.000;  125.525;    0.000
901.013; 2479.000;  197.525;    0.000
901.191; 2629.000;  181.525;    0.000
901.368; 2642.000;  185.525;    0.000
901.546; 2718.000;  197.525;    0.000
901.723; 2693.000;  205.525;    0.000
901.901; 2698.000;  187.525;    0.000
902.078; 2707.000;  163.525;    0.000
902.255; 2778.000;  141.525;    0.000
902.433; 2946.000;  183.525;    0.000
902.610; 2933.000;  181.525;    0.000
902.787; 2818.000;  174.525;    0.000
902.964; 2908.000;  174.525;    0.000
903.142; 2992.000;  141.525;    0.000
903.319; 3108.000;  214.525;    0.000
903.496; 3033.000;  187.525;    0.000
903.673; 3222.000;  183.525;    0.000
903.850; 3225.000;  125.525;    0.000
904.027; 3349.000;  197.525;    0.000
904.204; 3385.000;  197.525;    0.000
904.381; 3679.000;  196.525;    0.000
904.558; 4170.000;  176.525;    0.000
904.735; 4641.000;  179.525;    0.000
904.912; 4585.000;  203.525;    0.000
905.089; 4667.000;  159.525;    0.000
905.266; 4342.000;  176.525;    0.000
905.443; 4120.000;  184.525;    0.000
905.620; 3849.000;  168.525;    0.000
905.797; 3625.000;  214.525;    0.000
905.974; 3640.000;  154.525;    0.000
906.151; 3430.000;  132.525;    0.000
906.327; 3449.000;  192.525;    0.000
906.504; 3439.000;  186.525;    0.000
906.681; 3285.000;  171.525;    0.000
906.858; 3255.000;  181.525;    0.000
907.034; 3204.000;  164.525;    0.000
907.211; 3183.000;  184.525;    0.000
907.388; 3064.000;  177.525;    0.000
907.564; 3035.000;  150.525;    0.000
907.741; 3020.000;  195.525;    0.000
907.917; 2981.000;  190.525;    0.000
908.094; 2866.000;  214.525;    0.000
908.271; 2871.000;  173.525;    0.000
908.447; 2862.000;  229.525;    0.000
908.623; 2805.000;  162.525;    0.000
908.800; 2755.000;  195.525;    0.000
908.976; 2680.000;  171.525;    0.000
909.153; 2766.000;  167.525;    0.000
909.329; 2656.000;  227.525;    0.000
909.505; 2687.000;  167.525;    0.000
909.682; 2730.000;  174.525;    0.000
909.858; 2601.000;  158.525;    0.000
910.034; 2634.000;  188.525;    0.000
910.211; 2637.000;  158.525;    0.000
910.387; 2662.000;  208.525;    0.000
910.563; 2578.000;  203.525;    0.000
910.739; 2523.000;  201.525;    0.000
910.915; 2606.000;  170.525;    0.000
911.091; 2563.000;  171.525;    0.000
911.268; 2582.000;  220.525;    0.000
911.444; 2530.000;  202.525;    0.000
911.620; 2558.000;  175.525;    0.000
911.796; 2512.000;  175.525;    0.000
911.972; 2612.000;  164.525;    0.000
912.148; 2542.000;  174.525;    0.000
912.324; 2650.000;  155.525;    0.000
912.500; 2582.000;  156.525;    0.000
912.676; 2549.000;  138.525;    0.000
912.851; 2539.000;  158.525;    0.000
913.027; 2554.000;  161.525;    0.000
913.203; 2654.000;  168.525;    0.000
913.379; 2506.000;  172.525;    0.000
913.555; 2553.000;  193.525;    0.000
913.730; 2576.000;  149.525;    0.000
913.906; 2452.000;  159.525;    0.000
914.082; 2570.000;  184.525;    0.000
914.258; 2574.000;  194.525;    0.000
914.433; 2569.000;  175.525;    0.000
914.609; 2511.000;  175.525;    0.000
914.784; 2481.000;  170.525;    0.000
914.960; 2616.000;  212.525;    0.000
915.136; 2524.000;  157.525;    0.000
915.311; 2565.000;  204.525;    0.000
915.487; 2552.000;  180.525;    0.000
915.662; 2599.000;  203.525;    0.000
915.838; 2575.000;  194.525;    0.000
916.013; 2629.000;  217.525;    0.000
916.189; 2563.000;  196.525;    0.000
916.364; 2591.000;  236.525;    0.000
916.539; 2498.000;  192.525;    0.000
916.715; 2536.000;  181.525;    0.000
916.890; 2545.000;  185.525;    0.000
917.065; 2594.000;  166.525;    0.000
917.240; 2532.000;  182.525;    0.000
917.416; 2558.000;  188.525;    0.000
917.591; 2507.000;  185.525;    0.000
917.766; 2555.000;  187.525;    0.000
917.941; 2546.000;  181.525;    0.000
918.116; 2587.000;  207.525;    0.000
918.292; 2544.000;  140.525;    0.000
918.467; 2604.000;  187.525;    0.000
918.642; 2570.000;  208.525;    0.000
918.817; 2656.000;  203.525;    0.000
918.992; 2482.000;  162.525;    0.000
919.167; 2665.000;  206.525;    0.000
919.342; 2673.000;  188.525;    0.000
919.517; 2746.000;  190.525;    0.000
919.692; 2595.000;  174.525;    0.000
919.867; 2776.000;  181.525;    0.000
920.041; 2745.000;  179.525;    0.000
920.216; 2709.000;  186.525;    0.000
920.391; 2790.000;  209.525;    0.000
920.566; 2810.000;  205.525;    0.000
920.741; 2899.000;  205.525;    0.000
920.915; 2997.000;  206.525;    0.000
921.090; 3237.000;  219.525;    0.000
921.265; 3686.000;  185.525;    0.000
921.439; 4196.000;  171.525;    0.000
921.614; 3866.000;  197.525;    0.000
921.789; 3461.000;  189.525;    0.000
921.963; 3417.000;  210.525;    0.000
922.138; 3058.000;  171.525;    0.000
922.312; 3195.000;  194.525;    0.000
922.487; 3236.000;  231.525;    0.000
922.661; 3305.000;  179.525;    0.000
922.836; 3671.000;  213.525;    0.000
923.010; 3698.000;  182.525;    0.000
923.185; 3532.000;  239.525;    0.000
923.359; 3289.000;  200.525;    0.000
923.534; 3299.000;  232.525;    0.000
923.708; 3336.000;  221.525;    0.000
923.882; 3550.000;  193.525;    0.000
924.057; 3451.000;  204.525;    0.000
924.231; 3331.000;  172.525;    0.000
924.405; 3270.000;  202.525;    0.000
924.579; 3215.000;  207.525;    0.000
924.753; 3174.000;  167.525;    0.000
924.928; 3194.000;  202.525;    0.000
925.102; 3144.000;  200.525;    0.000
925.276; 3120.000;  185.525;    0.000
925.450; 3114.000;  170.525;    0.000
925.624; 3150.000;  176.525;    0.000
925.798; 3324.000;  221.525;    0.000
925.972; 3445.000;  162.525;    0.000
926.146; 3555.000;  207.525;    0.000
926.320; 3912.000;  185.525;    0.000
926.494; 4174.000;  192.525;    0.000
926.668; 4281.000;  179.525;    0.000
926.842; 4479.000;  181.525;    0.000
927.016; 4348.000;  224.525;    0.000
927.190; 4331.000;  193.525;    0.000
927.363; 4100.000;  194.525;    0.000
927.537; 4245.000;  210.525;    0.000
927.711; 3994.000;  153.525;    0.000
927.885; 3761.000;  184.525;    0.000
928.058; 3814.000;  197.525;    0.000
928.232; 3861.000;  219.525;    0.000
928.406; 3621.000;  175.525;    0.000
928.579; 3612.000;  179.525;    0.000
928.753; 3509.000;  208.525;    0.000
928.927; 3454.000;  163.525;    0.000
929.100; 3475.000;  138.525;    0.000
929.274; 3293.000;  160.525;    0.000
929.447; 3299.000;  152.525;    0.000
929.621; 3221.000;  168.525;    0.000
929.794; 3166.000;  152.525;    0.000
929.968; 3168.000;  163.525;    0.000
930.141; 3113.000;  164.525;    0.000
930.315; 3066.000;  170.525;    0.000
930.488; 3007.000;  216.525;    0.000
930.661; 2926.000;  184.525;    0.000
930.835; 3019.000;  156.525;    0.000
931.008; 2955.000;  206.525;    0.000
931.181; 2902.000;  163.525;    0.000
931.354; 2872.000;  198.525;    0.000
931.528; 2884.000;  156.525;    0.000
931.701; 2720.000;  170.525;    0.000
931.874; 2758.000;  167.525;    0.000
932.047; 2674.000;  146.525;    0.000
932.220; 2709.000;  159.525;    0.000
932.393; 2723.000;  186.525;    0.000
932.566; 2677.000;  147.525;    0.000
932.739; 2782.000;  192.525;    0.000
932.912; 2578.000;  197.525;    0.000
933.085; 2745.000;  176.525;    0.000
933.258; 2620.000;  171.525;    0.000
933.431; 2647.000;  150.525;    0.000
933.604; 2698.000;  176.525;    0.000
933.777; 2614.000;  215.525;    0.000
933.950; 2509.000;  164.525;    0.000
934.123; 2505.000;  174.525;    0.000
934.296; 2574.000;  203.525;    0.000
934.468; 2566.000;  208.525;    0.000
934.641; 2444.000;  182.525;    0.000
934.814; 2541.000;  170.525;    0.000
934.987; 2501.000;  183.525;    0.000
935.159; 2514.000;  154.525;    0.000
935.332; 2518.000;  178.525;    0.000
935.505; 2591.000;  213.525;    0.000
935.677; 2491.000;  173.525;    0.000
935.850; 2495.000;  190.525;    0.000
936.022; 2496.000;  205.525;    0.000
936.195; 2560.000;  201.525;    0.000
936.367; 2486.000;  189.525;    0.000
936.540; 2574.000;  179.525;    0.000
936.712; 2576.000;  195.525;    0.000
936.885; 2585.000;  207.525;    0.000
937.057; 2579.000;  163.525;    0.000
937.229; 2684.000;  175.525;    0.000
937.402; 2630.000;  168.525;    0.000
937.574; 2675.000;  136.525;    0.000
937.746; 2771.000;  166.525;    0.000
937.919; 2814.000;  178.525;    0.000
938.091; 2849.000;  192.525;    0.000
938.263; 3122.000;  164.525;    0.000
938.435; 3344.000;  204.525;    0.000
938.608; 3710.000;  153.525;    0.000
938.780; 4294.000;  159.525;    0.000
938.952; 4427.000;  160.525;    0.000
939.124; 4486.000;  156.525;    0.000
939.296; 5039.000;  110.525;    0.000
939.468; 5304.000;  135.525;    0.000
939.640; 4704.000;  144.525;    0.000
939.812; 4158.000;  232.525;    0.000
939.984; 3906.000;  128.525;    0.000
940.156; 3736.000;  195.525;    0.000
940.328; 3419.000;  226.525;    0.000
940.500; 3329.000;  146.525;    0.000
940.672; 3282.000;  190.525;    0.000
940.843; 3092.000;  156.525;    0.000
941.015; 3033.000;  200.525;    0.000
941.187; 2854.000;  159.525;    0.000
941.359; 2941.000;  183.525;    0.000
941.531; 2874.000;  137.525;    0.000
941.702; 2777.000;  186.525;    0.000
941.874; 2711.000;  164.525;    0.000
942.046; 2712.000;  202.525;    0.000
942.217; 2683.000;  146.525;    0.000
942.389; 2782.000;  165.525;    0.000
942.560; 2621.000;  191.525;    0.000
942.732; 2506.000;  240.525;    0.000
942.904; 2585.000;  173.525;    0.000
943.075; 2456.000;  157.525;    0.000
943.247; 2418.000;  155.525;    0.000
943.418; 2383.000;  164.525;    0.000
943.589; 2432.000;  150.525;    0.000
943.761; 2463.000;  143.525;    0.000
943.932; 2341.000;  151.525;    0.000
944.104; 2392.000;  194.525;    0.000
944.275; 2322.000;  154.525;    0.000
944.446; 2295.000;  169.525;    0.000
944.617; 2242.000;  138.525;    0.000
944.789; 2281.000;  158.525;    0.000
944.960; 2241.000;  197.525;    0.000
945.131; 2228.000;  139.525;    0.000
945.302; 2258.000;  169.525;    0.000
945.473; 2222.000;  149.525;    0.000
945.645; 2307.000;  171.525;    0.000
945.816; 2295.000;  167.525;    0.000
945.987; 2379.000;  156.525;    0.000
946.158; 2304.000;  185.525;    0.000
946.329; 2348.000;  201.525;    0.000
946.500; 2304.000;  182.525;    0.000
946.671; 2266.000;  156.525;    0.000
946.842; 2160.000;  190.525;    0.000
947.013; 2237.000;  159.525;    0.000
947.183; 2227.000;  209.525;    0.000
947.354; 2237.000;  171.525;    0.000
947.525; 2144.000;  180.525;    0.000
947.696; 2119.000;  163.525;    0.000
947.867; 2181.000;  168.525;    0.000
948.037; 2128.000;  153.525;    0.000
948.208; 2095.000;  178.525;    0.000
948.379; 2223.000;  192.525;    0.000
948.550; 2098.000;  180.525;    0.000
948.720; 2167.000;  196.525;    0.000
948.891; 2119.000;  173.525;    0.000
949.061; 2162.000;  207.525;    0.000
949.232; 2030.000;  176.525;    0.000
949.403; 2050.000;  152.525;    0.000
949.573; 2112.000;  186.525;    0.000
949.744; 2084.000;  181.525;    0.000
949.914; 2034.000;  174.525;    0.000
950.085; 2070.000;  146.525;    0.000
950.255; 2062.000;  162.525;    0.000
950.425; 2087.000;  189.525;    0.000
950.596; 2061.000;  175.525;    0.000
950.766; 2104.000;  209.525;    0.000
950.936; 2088.000;  201.525;    0.000
951.107; 2060.000;  141.525;    0.000
951.277; 2012.000;  211.525;    0.000
951.447; 2057.000;  218.525;    0.000
951.617; 2069.000;  191.525;    0.000
951.788; 1989.000;  193.525;    0.000
951.958; 2017.000;  217.525;    0.000
952.128; 2071.000;  192.525;    0.000
952.298; 2031.000;  237.525;    0.000
952.468; 2013.000;  194.525;    0.000
952.638; 2025.000;  201.525;    0.000
952.808; 2021.000;  203.525;    0.000
952.978; 1980.000;  216.525;    0.000
953.148; 2036.000;  209.525;    0.000
953.318; 2007.000;  213.525;    0.000
953.488; 1919.000;  161.525;    0.000
953.658; 2037.000;  222.525;    0.000
953.828; 1951.000;  196.525;    0.000
953.998; 1883.000;  227.525;    0.000
954.167; 1996.000;  163.525;    0.000
954.337; 1930.000;  201.525;    0.000
954.507; 1971.000;  227.525;    0.000
954.677; 1942.000;  204.525;    0.000
954.846; 1948.000;  210.525;    0.000
955.016; 1885.000;  198.525;    0.000
955.186; 1896.000;  203.525;    0.000
955.355; 1944.000;  198.525;    0.000
955.525; 1952.000;  198.525;    0.000
955.695; 1897.000;  187.525;    0.000
955.864; 1903.000;  243.525;    0.000
956.034; 1939.000;  192.525;    0.000
956.203; 1913.000;  259.525;    0.000
956.373; 1855.000;  185.525;    0.000
956.542; 1891.000;  230.525;    0.000
956.711; 1856.000;  218.525;    0.000
956.881; 1900.000;  232.525;    0.000
957.050; 1811.000;  246.525;    0.000
957.220; 1918.000;  229.525;    0.000
957.389; 1876.000;  211.525;    0.000
957.558; 1829.000;  173.525;    0.000
957.727; 1893.000;  226.525;    0.000
957.897; 1844.000;  209.525;    0.000
958.066; 1832.000;  217.525;    0.000
958.235; 1773.000;  160.525;    0.000
958.404; 1843.000;  199.525;    0.000
958.573; 1811.000;  223.525;    0.000
958.743; 1751.000;  189.525;    0.000
958.912; 1795.000;  199.525;    0.000
959.081; 1821.000;  216.525;    0.000
959.250; 1804.000;  192.525;    0.000
959.419; 1832.000;  216.525;    0.000
959.588; 1890.000;  209.525;    0.000
959.757; 1766.000;  194.525;    0.000
959.926; 1745.000;  200.525;    0.000
960.094; 1781.000;  174.525;    0.000
960.263; 1721.000;  218.525;    0.000
960.432; 1768.000;  173.525;    0.000
960.601; 1710.000;  177.525;    0.000
960.770; 1717.000;  188.525;    0.000
960.939; 1875.000;  167.525;    0.000
961.107; 1753.000;  195.525;    0.000
961.276; 1783.000;  183.525;    0.000
961.445; 1742.000;  195.525;    0.000
961.613; 1689.000;  198.525;    0.000
961.782; 1744.000;  224.525;    0.000
961.951; 1737.000;  178.525;    0.000
962.119; 1722.000;  214.525;    0.000
962.288; 1694.000;  174.525;    0.000
962.456; 1731.000;  197.525;    0.000
962.625; 1777.000;  212.525;    0.000
962.793; 1791.000;  183.525;    0.000
962.962; 1790.000;  189.525;    0.000
963.130; 1690.000;  151.525;    0.000
963.298; 1726.000;  197.525;    0.000
963.467; 1743.000;  202.525;    0.000
963.635; 1704.000;  172.525;    0.000
963.803; 1754.000;  203.525;    0.000
963.972; 1758.000;  204.525;    0.000
964.140; 1808.000;  193.525;    0.000
964.308; 1646.000;  159.525;    0.000
964.477; 1677.000;  142.525;    0.000
964.645; 1694.000;  202.525;    0.000
964.813; 1678.000;  158.525;    0.000
964.981; 1755.000;  179.525;    0.000
965.149; 1796.000;  176.525;    0.000
965.317; 1781.000;  229.525;    0.000
965.485; 1786.000;  179.525;    0.000
965.653; 1750.000;  205.525;    0.000
965.821; 1614.000;  196.525;    0.000
965.989; 1683.000;  202.525;    0.000
966.157; 1687.000;  199.525;    0.000
966.325; 1738.000;  178.525;    0.000
966.493; 1688.000;  177.525;    0.000
966.661; 1704.000;  172.525;    0.000
966.829; 1730.000;  167.525;    0.000
966.996; 1716.000;  202.525;    0.000
967.164; 1716.000;  175.525;    0.000
967.332; 1767.000;  207.525;    0.000
967.500; 1705.000;  170.525;    0.000
967.667; 1752.000;  222.525;    0.000
967.835; 1729.000;  245.525;    0.000
968.003; 1749.000;  180.525;    0.000
968.170; 1758.000;  222.525;    0.000
968.338; 1727.000;  183.525;    0.000
968.505; 1717.000;  197.525;    0.000
968.673; 1691.000;  209.525;    0.000
968.841; 1647.000;  162.525;    0.000
969.008; 1694.000;  187.525;    0.000
969.175; 1672.000;  204.525;    0.000
969.343; 1751.000;  157.525;    0.000
969.510; 1814.000;  189.525;    0.000
969.678; 1652.000;  153.525;    0.000
969.845; 1768.000;  190.525;    0.000
970.012; 1789.000;  162.525;    0.000
970.180; 1734.000;  223.525;    0.000
970.347; 1754.000;  195.525;    0.000
970.514; 1729.000;  185.525;    0.000
970.681; 1677.000;  187.525;    0.000
970.849; 1701.000;  183.525;    0.000
971.016; 1772.000;  168.525;    0.000
971.183; 1752.000;  160.525;    0.000
971.350; 1689.000;  193.525;    0.000
971.517; 1639.000;  202.525;    0.000
971.684; 1737.000;  242.525;    0.000
971.851; 1759.000;  192.525;    0.000
972.018; 1679.000;  194.525;    0.000
972.185; 1613.000;  193.525;    0.000
972.352; 1716.000;  187.525;    0.000
972.519; 1705.000;  233.525;    0.000
972.686; 1654.000;  186.525;    0.000
972.853; 1698.000;  165.525;    0.000
973.020; 1629.000;  183.525;    0.000
973.186; 1745.000;  186.525;    0.000
973.353; 1757.000;  177.525;    0.000
973.520; 1722.000;  203.525;    0.000
973.687; 1726.000;  211.525;    0.000
973.853; 1623.000;  194.525;    0.000
974.020; 1747.000;  201.525;    0.000
974.187; 1665.000;  187.525;    0.000
974.353; 1690.000;  188.525;    0.000
974.520; 1650.000;  136.525;    0.000
974.687; 1676.000;  169.525;    0.000
974.853; 1700.000;  207.525;    0.000
975.020; 1581.000;  190.525;    0.000
975.186; 1722.000;  182.525;    0.000
975.353; 1604.000;  202.525;    0.000
975.519; 1591.000;  189.525;    0.000
975.685; 1693.000;  176.525;    0.000
975.852; 1593.000;  175.525;    0.000
976.018; 1646.000;  155.525;    0.000
976.184; 1707.000;  179.525;    0.000
976.351; 1666.000;  191.525;    0.000
976.517; 1679.000;  246.525;    0.000
976.683; 1701.000;  222.525;    0.000
976.849; 1706.000;  216.525;    0.000
977.016; 1586.000;  212.525;    0.000
977.182; 1670.000;  192.525;    0.000
977.348; 1554.000;  145.525;    0.000
977.514; 1691.000;  195.525;    0.000
977.680; 1576.000;  210.525;    0.000
977.846; 1634.000;  172.525;    0.000
978.012; 1656.000;  190.525;    0.000
978.178; 1652.000;  201.525;    0.000
978.344; 1544.000;  190.525;    0.000
978.510; 1619.000;  199.525;    0.000
978.676; 1642.000;  174.525;    0.000
978.842; 1591.000;  195.525;    0.000
979.008; 1669.000;  205.525;    0.000
979.174; 1591.000;  187.525;    0.000
979.340; 1658.000;  194.525;    0.000
979.505; 1704.000;  221.525;    0.000
979.671; 1644.000;  178.525;    0.000
979.837; 1643.000;  215.525;    0.000
980.003; 1590.000;  176.525;    0.000
980.168; 1604.000;  185.525;    0.000
980.334; 1631.000;  165.525;    0.000
980.499; 1637.000;  231.525;    0.000
980.665; 1668.000;  238.525;    0.000
980.831; 1586.000;  194.525;    0.000
980.996; 1597.000;  169.525;    0.000
981.162; 1692.000;  199.525;    0.000
981.327; 1647.000;  158.525;    0.000
981.493; 1633.000;  193.525;    0.000
981.658; 1618.000;  181.525;    0.000
981.823; 1653.000;  199.525;    0.000
981.989; 1667.000;  186.525;    0.000
982.154; 1674.000;  225.525;    0.000
982.319; 1735.000;  191.525;    0.000
982.485; 1650.000;  205.525;    0.000
982.650; 1679.000;  234.525;    0.000
982.815; 1688.000;  193.525;    0.000
982.980; 1724.000;  177.525;    0.000
983.146; 1676.000;  212.525;    0.000
983.311; 1582.000;  177.525;    0.000
983.476; 1624.000;  185.525;    0.000
983.641; 1611.000;  149.525;    0.000
983.806; 1637.000;  175.525;    0.000
983.971; 1685.000;  234.525;    0.000
984.136; 1630.000;  191.525;    0.000
984.301; 1661.000;  215.525;    0.000
984.466; 1608.000;  207.525;    0.000
984.631; 1685.000;  206.525;    0.000
984.796; 1597.000;  229.525;    0.000
984.961; 1644.000;  220.525;    0.000
985.126; 1673.000;  204.525;    0.000
985.291; 1643.000;  210.525;    0.000
985.455; 1631.000;  193.525;    0.000
985.620; 1667.000;  207.525;    0.000
985.785; 1605.000;  188.525;    0.000
985.950; 1567.000;  168.525;    0.000
986.114; 1628.000;  239.525;    0.000
986.279; 1632.000;  223.525;    0.000
986.444; 1702.000;  154.525;    0.000
986.608; 1659.000;  232.525;    0.000
986.773; 1722.000;  214.525;    0.000
986.937; 1739.000;  220.525;    0.000
987.102; 1745.000;  224.525;    0.000
987.266; 1618.000;  157.525;    0.000
987.431; 1706.000;  246.525;    0.000
987.595; 1768.000;  203.525;    0.000
987.760; 1632.000;  202.525;    0.000
987.924; 1649.000;  208.525;    0.000
988.088; 1608.000;  169.525;    0.000
988.253; 1650.000;  237.525;    0.000
988.417; 1689.000;  202.525;    0.000
988.581; 1561.000;  215.525;    0.000
988.746; 1665.000;  210.525;    0.000
988.910; 1615.000;  191.525;    0.000
989.074; 1586.000;  197.525;    0.000
989.238; 1631.000;  191.525;    0.000
989.402; 1623.000;  222.525;    0.000
989.566; 1561.000;  221.525;    0.000
989.731; 1562.000;  216.525;    0.000
989.895; 1636.000;  183.525;    0.000
990.059; 1608.000;  150.525;    0.000
990.223; 1606.000;  183.525;    0.000
990.387; 1619.000;  241.525;    0.000
990.551; 1672.000;  198.525;    0.000
990.714; 1575.000;  176.525;    0.000
990.878; 1509.000;  203.525;    0.000
991.042; 1656.000;  146.525;    0.000
991.206; 1648.000;  199.525;    0.000
991.370; 1695.000;  223.525;    0.000
991.534; 1586.000;  158.525;    0.000
991.697; 1629.000;  182.525;    0.000
991.861; 1551.000;  195.525;    0.000
992.025; 1653.000;  206.525;    0.000
992.188; 1608.000;  174.525;    0.000
992.352; 1574.000;  183.525;    0.000
992.516; 1527.000;  181.525;    0.000
992.679; 1594.000;  162.525;    0.000
992.843; 1559.000;  173.525;    0.000
993.006; 1565.000;  189.525;    0.000
993.170; 1538.000;  200.525;    0.000
993.333; 1484.000;  167.525;    0.000
993.497; 1538.000;  217.525;    0.000
993.660; 1500.000;  179.525;    0.000
993.824; 1489.000;  195.525;    0.000
993.987; 1606.000;  186.525;    0.000
994.150; 1581.000;  164.525;    0.000
994.314; 1620.000;  215.525;    0.000
994.477; 1579.000;  186.525;    0.000
994.640; 1577.000;  192.525;    0.000
994.803; 1562.000;  215.525;    0.000
994.967; 1579.000;  208.525;    0.000
995.130; 1619.000;  196.525;    0.000
995.293; 1608.000;  221.525;    0.000
995.456; 1577.000;  164.525;    0.000
995.619; 1546.000;  224.525;    0.000
995.782; 1576.000;  184.525;    0.000
995.945; 1524.000;  220.525;    0.000
996.108; 1579.000;  187.525;    0.000
996.271; 1587.000;  192.525;    0.000
996.434; 1596.000;  162.525;    0.000
996.597; 1519.000;  148.525;    0.000
996.760; 1545.000;  186.525;    0.000
996.923; 1526.000;  154.525;    0.000
997.086; 1478.000;  156.525;    0.000
997.248; 1631.000;  215.525;    0.000
997.411; 1564.000;  160.525;    0.000
997.574; 1477.000;  159.525;    0.000
997.737; 1540.000;  179.525;    0.000
997.899; 1528.000;  184.525;    0.000
998.062; 1536.000;  180.525;    0.000
998.225; 1445.000;  168.525;    0.000
998.387; 1535.000;  192.525;    0.000
998.550; 1525.000;  178.525;    0.000
998.712; 1515.000;  192.525;    0.000
998.875; 1523.000;  230.525;    0.000
999.037; 1515.000;  200.525;    0.000
999.200; 1496.000;  196.525;    0.000
999.362; 1533.000;  173.525;    0.000
999.525; 1552.000;  196.525;    0.000
999.687; 1560.000;  159.525;    0.000
999.849; 1538.000;  180.525;    0.000
1000.012; 1605.000;  210.525;    0.000
1000.174; 1581.000;  175.525;    0.000
1000.336; 1575.000;  174.525;    0.000
1000.499; 1619.000;  180.525;    0.000
1000.661; 1552.000;  204.525;    0.000
1000.823; 1531.000;  181.525;    0.000
1000.985; 1595.000;  178.525;    0.000
1001.147; 1594.000;  215.525;    0.000
1001.309; 1538.000;  212.525;    0.000
1001.471; 1581.000;  192.525;    0.000
1001.633; 1596.000;  207.525;    0.000
1001.796; 1612.000;  211.525;    0.000
1001.958; 1686.000;  200.525;    0.000
1002.119; 1648.000;  210.525;    0.000
1002.281; 1699.000;  204.525;    0.000
1002.443; 1745.000;  230.525;    0.000
1002.605; 1843.000;  178.525;    0.000
1002.767; 1882.000;  228.525;    0.000
1002.929; 1903.000;  199.525;    0.000
1003.091; 2014.000;  220.525;    0.000
1003.252; 2081.000;  219.525;    0.000
1003.414; 2238.000;  213.525;    0.000
1003.576; 2232.000;  202.525;    0.000
1003.738; 2284.000;  184.525;    0.000
1003.899; 2404.000;  218.525;    0.000
1004.061; 2491.000;  210.525;    0.000
1004.222; 2588.000;  179.525;    0.000
1004.384; 2729.000;  183.525;    0.000
1004.546; 2693.000;  206.525;    0.000
1004.707; 2839.000;  191.525;    0.000
1004.869; 2896.000;  197.525;    0.000
1005.030; 2779.000;  186.525;    0.000
1005.191; 2715.000;  188.525;    0.000
1005.353; 2631.000;  215.525;    0.000
1005.514; 2578.000;  184.525;    0.000
1005.675; 2533.000;  209.525;    0.000
1005.837; 2410.000;  239.525;    0.000
1005.998; 2350.000;  218.525;    0.000
1006.159; 2226.000;  212.525;    0.000
1006.321; 2360.000;  220.525;    0.000
1006.482; 2431.000;  201.525;    0.000
1006.643; 2468.000;  222.525;    0.000
1006.804; 2570.000;  191.525;    0.000
1006.965; 2612.000;  214.525;    0.000
1007.126; 2723.000;  214.525;    0.000
1007.287; 2648.000;  243.525;    0.000
1007.448; 2627.000;  251.525;    0.000
1007.609; 2666.000;  244.525;    0.000
1007.770; 2533.000;  211.525;    0.000
1007.931; 2588.000;  225.525;    0.000
1008.092; 2503.000;  188.525;    0.000
1008.253; 2638.000;  224.525;    0.000
1008.414; 2680.000;  198.525;    0.000
1008.575; 2723.000;  244.525;    0.000
1008.736; 2801.000;  219.525;    0.000
1008.896; 2702.000;  206.525;    0.000
1009.057; 2744.000;  258.525;    0.000
1009.218; 2627.000;  209.525;    0.000
1009.379; 2656.000;  204.525;    0.000
1009.539; 2677.000;  242.525;    0.000
1009.700; 2794.000;  205.525;    0.000
1009.860; 2687.000;  211.525;    0.000
1010.021; 2788.000;  219.525;    0.000
1010.182; 2747.000;  206.525;    0.000
1010.342; 2707.000;  219.525;    0.000
1010.503; 2842.000;  231.525;    0.000
1010.663; 2978.000;  260.525;    0.000
1010.823; 2987.000;  200.525;    0.000
1010.984; 3038.000;  189.525;    0.000
1011.144; 3004.000;  234.525;    0.000
1011.305; 3120.000;  212.525;    0.000
1011.465; 3282.000;  202.525;    0.000
1011.625; 3468.000;  236.525;    0.000
1011.785; 3454.000;  203.525;    0.000
1011.946; 3425.000;  195.525;    0.000
1012.106; 3345.000;  176.525;    0.000
1012.266; 3414.000;  211.525;    0.000
1012.426; 3343.000;  244.525;    0.000
1012.586; 3378.000;  202.525;    0.000
1012.746; 3351.000;  234.525;    0.000
1012.906; 3243.000;  246.525;    0.000
1013.066; 3276.000;  232.525;    0.000
1013.226; 3344.000;  248.525;    0.000
1013.386; 3310.000;  231.525;    0.000
1013.546; 3156.000;  233.525;    0.000
1013.706; 3152.000;  211.525;    0.000
1013.866; 3209.000;  240.525;    0.000
1014.026; 3295.000;  188.525;    0.000
1014.186; 3244.000;  186.525;    0.000
1014.346; 3193.000;  203.525;    0.000
1014.505; 3373.000;  238.525;    0.000
1014.665; 3431.000;  206.525;    0.000
1014.825; 3234.000;  200.525;    0.000
1014.985; 3105.000;  215.525;    0.000
1015.144; 3465.000;  250.525;    0.000
1015.304; 3671.000;  195.525;    0.000
1015.464; 3586.000;  237.525;    0.000
1015.623; 3392.000;  232.525;    0.000
1015.783; 3637.000;  220.525;    0.000
1015.942; 4067.000;  219.525;    0.000
1016.102; 3930.000;  202.525;    0.000
1016.261; 3688.000;  225.525;    0.000
1016.420; 4173.000;  246.525;    0.000
1016.580; 4719.000;  226.525;    0.000
1016.739; 4466.000;  214.525;    0.000
1016.899; 4100.000;  205.525;    0.000
1017.058; 4405.000;  217.525;    0.000
1017.217; 4849.000;  199.525;    0.000
1017.376; 4634.000;  219.525;    0.000
1017.536; 3906.000;  209.525;    0.000
1017.695; 4001.000;  213.525;    0.000
1017.854; 4265.000;  187.525;    0.000
1018.013; 4119.000;  222.525;    0.000
1018.172; 3998.000;  204.525;    0.000
1018.331; 3750.000;  195.525;    0.000
1018.490; 4033.000;  213.525;    0.000
1018.649; 4451.000;  216.525;    0.000
1018.808; 4668.000;  227.525;    0.000
1018.967; 4290.000;  206.525;    0.000
1019.126; 4328.000;  206.525;    0.000
1019.285; 4491.000;  219.525;    0.000
1019.444; 4672.000;  218.525;    0.000
1019.603; 4191.000;  206.525;    0.000
1019.762; 3912.000;  189.525;    0.000
1019.921; 4151.000;  217.525;    0.000
1020.079; 4536.000;  200.525;    0.000
1020.238; 4755.000;  219.525;    0.000
1020.397; 4476.000;  227.525;    0.000
1020.555; 4215.000;  207.525;    0.000
1020.714; 4450.000;  253.525;    0.000
1020.873; 4695.000;  230.525;    0.000
1021.031; 4882.000;  232.525;    0.000
1021.190; 4389.000;  226.525;    0.000
1021.348; 4374.000;  224.525;    0.000
1021.507; 4808.000;  215.525;    0.000
1021.665; 5086.000;  233.525;    0.000
1021.824; 4750.000;  196.525;    0.000
1021.982; 4379.000;  215.525;    0.000
1022.141; 4336.000;  200.525;    0.000
1022.299; 5075.000;  200.525;    0.000
1022.457; 5226.000;  179.525;    0.000
1022.616; 4766.000;  226.525;    0.000
1022.774; 4350.000;  216.525;    0.000
1022.932; 4507.000;  212.525;    0.000
1023.090; 5290.000;  220.525;    0.000
1023.249; 5402.000;  194.525;    0.000
1023.407; 4802.000;  227.525;    0.000
1023.565; 4346.000;  190.525;    0.000
1023.723; 4850.000;  190.525;    0.000
1023.881; 5238.000;  214.525;    0.000
1024.039; 5226.000;  179.525;    0.000
1024.197; 4804.000;  274.525;    0.000
1024.355; 4626.000;  269.525;    0.000
1024.513; 4744.000;  259.525;    0.000
1024.671; 5250.000;  211.525;    0.000
1024.829; 5220.000;  230.525;    0.000
1024.987; 4991.000;  239.525;    0.000
1025.145; 4626.000;  231.525;    0.000
1025.302; 4729.000;  212.525;    0.000
1025.460; 5226.000;  224.525;    0.000
1025.618; 5543.000;  217.525;    0.000
1025.776; 5112.000;  232.525;    0.000
1025.933; 4848.000;  212.525;    0.000
1026.091; 4915.000;  214.525;    0.000
1026.249; 5268.000;  224.525;    0.000
1026.406; 5680.000;  219.525;    0.000
1026.564; 5293.000;  262.525;    0.000
1026.721; 4981.000;  206.525;    0.000
1026.879; 4868.000;  227.525;    0.000
1027.036; 5297.000;  234.525;    0.000
1027.194; 5685.000;  256.525;    0.000
1027.351; 5553.000;  229.525;    0.000
1027.509; 5121.000;  253.525;    0.000
1027.666; 4919.000;  248.525;    0.000
1027.823; 5489.000;  215.525;    0.000
1027.981; 5595.000;  248.525;    0.000
1028.138; 5795.000;  257.525;    0.000
1028.295; 5267.000;  215.525;    0.000
1028.452; 4970.000;  236.525;    0.000
1028.609; 5209.000;  240.525;    0.000
1028.767; 5776.000;  258.525;    0.000
1028.924; 6076.000;  211.525;    0.000
1029.081; 5528.000;  226.525;    0.000
1029.238; 5548.000;  228.525;    0.000
1029.395; 5219.000;  264.525;    0.000
1029.552; 5477.000;  227.525;    0.000
1029.709; 5849.000;  232.525;    0.000
1029.866; 6017.000;  223.525;    0.000
1030.023; 5787.000;  220.525;    0.000
1030.180; 5216.000;  222.525;    0.000
1030.337; 5161.000;  224.525;    0.000
1030.494; 5505.000;  228.525;    0.000
1030.650; 5861.000;  242.525;    0.000
1030.807; 6344.000;  214.525;    0.000
1030.964; 5733.000;  207.525;    0.000
1031.121; 5611.000;  236.525;    0.000
1031.277; 5317.000;  206.525;    0.000
1031.434; 5455.000;  249.525;    0.000
1031.591; 6201.000;  253.525;    0.000
1031.747; 6331.000;  240.525;    0.000
1031.904; 6336.000;  212.525;    0.000
1032.060; 6127.000;  185.525;    0.000
1032.217; 5522.000;  201.525;    0.000
1032.373; 6203.000;  207.525;    0.000
1032.530; 6476.000;  226.525;    0.000
1032.686; 7073.000;  226.525;    0.000
1032.843; 7430.000;  203.525;    0.000
1032.999; 6864.000;  233.525;    0.000
1033.155; 7072.000;  232.525;    0.000
1033.312; 6899.000;  239.525;    0.000
1033.468; 7727.000;  207.525;    0.000
1033.624; 8472.000;  238.525;    0.000
1033.780; 8593.000;  255.525;    0.000
1033.937; 9103.000;  188.525;    0.000
1034.093; 7952.000;  244.525;    0.000
1034.249; 8548.000;  182.525;    0.000
1034.405; 8193.000;  251.525;    0.000
1034.561; 8795.000;  250.525;    0.000
1034.717; 9456.000;  208.525;    0.000
1034.873; 9191.000;  210.525;    0.000
1035.029; 9699.000;  245.525;    0.000
1035.185; 9287.000;  230.525;    0.000
1035.341; 8806.000;  209.525;    0.000
1035.497; 9979.000;  244.525;    0.000
1035.653; 9748.000;  229.525;    0.000
1035.809;10206.000;  275.525;    0.000
1035.964;11550.000;  203.525;    0.000
1036.120;10530.000;  215.525;    0.000
1036.276;11008.000;  228.525;    0.000
1036.432;10737.000;  183.525;    0.000
1036.587; 9760.000;  214.525;    0.000
1036.743;10484.000;  240.525;    0.000
1036.899;11090.000;  202.525;    0.000
1037.054;11197.000;  182.525;    0.000
1037.210;12367.000;  228.525;    0.000
1037.365;12869.000;  239.525;    0.000
1037.521;11961.000;  230.525;    0.000
1037.676;12020.000;  217.525;    0.000
1037.832;10939.000;  235.525;    0.000
1037.987;11170.000;  210.525;    0.000
1038.143;11317.000;  206.525;    0.000
1038.298;12943.000;  177.525;    0.000
1038.453;12865.000;  215.525;    0.000
1038.609;13962.000;  210.525;    0.000
1038.764;14368.000;  227.525;    0.000
1038.919;12845.000;  197.525;    0.000
1039.074;13058.000;  183.525;    0.000
1039.229;11801.000;  218.525;    0.000
1039.385;11760.000;  251.525;    0.000
1039.540;11927.000;  222.525;    0.000
1039.695;13431.000;  215.525;    0.000
1039.850;14506.000;  204.525;    0.000
1040.005;16083.000;  241.525;    0.000
1040.160;16721.000;  180.525;    0.000
1040.315;16398.000;  197.525;    0.000
1040.470;15192.000;  180.525;    0.000
1040.625;14694.000;  196.525;    0.000
1040.780;14074.000;  245.525;    0.000
1040.935;13761.000;  204.525;    0.000
1041.089;14322.000;  213.525;    0.000
1041.244;16123.000;  200.525;    0.000
1041.399;17522.000;  212.525;    0.000
1041.554;18292.000;  239.525;    0.000
1041.708;19917.000;  238.525;    0.000
1041.863;20074.000;  213.525;    0.000
1042.018;19094.000;  236.525;    0.000
1042.172;18414.000;  238.525;    0.000
1042.327;17397.000;  254.525;    0.000
1042.481;17465.000;  197.525;    0.000
1042.636;17488.000;  205.525;    0.000
1042.791;18000.000;  218.525;    0.000
1042.945;21276.000;  261.525;    0.000
1043.099;24599.000;  201.525;    0.000
1043.254;24171.000;  191.525;    0.000
1043.408;23769.000;  279.525;    0.000
1043.563;25075.000;  203.525;    0.000
1043.717;24145.000;  229.525;    0.000
1043.871;22514.000;  213.525;    0.000
1044.025;22270.000;  240.525;    0.000
1044.180;21117.000;  220.525;    0.000
1044.334;22604.000;  268.525;    0.000
1044.488;23205.000;  261.525;    0.000
1044.642;23824.000;  205.525;    0.000
1044.796;26430.000;  240.525;    0.000
1044.950;29711.000;  258.525;    0.000
1045.104;31939.000;  218.525;    0.000
1045.258;33089.000;  213.525;    0.000
1045.412;31627.000;  223.525;    0.000
1045.566;30030.000;  240.525;    0.000
1045.720;27878.000;  235.525;    0.000
1045.874;26298.000;  221.525;    0.000
1046.028;24707.000;  247.525;    0.000
1046.182;25536.000;  200.525;    0.000
1046.336;27052.000;  220.525;    0.000
1046.489;27298.000;  228.525;    0.000
1046.643;28486.000;  249.525;    0.000
1046.797;30544.000;  230.525;    0.000
1046.951;31133.000;  234.525;    0.000
1047.104;31983.000;  262.525;    0.000
1047.258;33514.000;  210.525;    0.000
1047.411;36448.000;  235.525;    0.000
1047.565;35049.000;  237.525;    0.000
1047.719;33071.000;  237.525;    0.000
1047.872;33686.000;  225.525;    0.000
1048.026;31628.000;  237.525;    0.000
1048.179;31571.000;  220.525;    0.000
1048.332;31299.000;  219.525;    0.000
1048.486;31490.000;  195.525;    0.000
1048.639;30938.000;  213.525;    0.000
1048.792;32109.000;  245.525;    0.000
1048.946;33720.000;  234.525;    0.000
1049.099;37494.000;  226.525;    0.000
1049.252;37728.000;  282.525;    0.000
1049.406;35016.000;  255.525;    0.000
1049.559;37563.000;  223.525;    0.000
1049.712;40635.000;  253.525;    0.000
1049.865;44172.000;  271.525;    0.000
1050.018;43467.000;  241.525;    0.000
1050.171;37553.000;  202.525;    0.000
1050.324;37014.000;  250.525;    0.000
1050.477;38828.000;  251.525;    0.000
1050.630;42251.000;  216.525;    0.000
1050.783;42536.000;  205.525;    0.000
1050.936;40003.000;  219.525;    0.000
1051.089;37736.000;  247.525;    0.000
1051.242;39183.000;  238.525;    0.000
1051.394;44500.000;  252.525;    0.000
1051.547;46045.000;  245.525;    0.000
1051.700;43304.000;  206.525;    0.000
1051.853;41291.000;  270.525;    0.000
1052.005;43236.000;  245.525;    0.000
1052.158;47915.000;  290.525;    0.000
1052.311;52311.000;  237.525;    0.000
1052.463;48857.000;  271.525;    0.000
1052.616;43208.000;  255.525;    0.000
1052.768;40137.000;  257.525;    0.000
1052.921;38840.000;  289.525;    0.000
1053.073;42798.000;  287.525;    0.000
1053.226;48157.000;  268.525;    0.000
1053.378;55301.000;  294.525;    0.000
1053.531;56355.000;  255.525;    0.000
1053.683;53411.000;  293.525;    0.000
1053.835;45998.000;  274.525;    0.000
1053.988;35675.000;  282.525;    0.000
1054.140; 6399.000;  291.525;    0.000
1054.292; 1498.000;  292.525;    0.000
1054.444; 1246.000;  299.525;    0.000
1054.596; 1086.000;  319.525;    0.000
1054.749;  986.000;  295.525;    0.000
1054.901;  944.000;  266.525;    0.000
1055.053;  914.000;  300.525;    0.000
1055.205;  886.000;  290.525;    0.000
1055.357;  812.000;  304.525;    0.000
1055.509;  810.000;  292.525;    0.000
1055.661;  745.000;  339.525;    0.000
1055.813;  740.000;  306.525;    0.000
1055.965;  742.000;  293.525;    0.000
1056.116;  695.000;  300.525;    0.000
1056.268;  700.000;  306.525;    0.000
1056.420;  691.000;  288.525;    0.000

