
Integration time [ms]:   0.300
Averaging Nr. [scans]: 1
Smoothing Nr. [pixels]: 0
Data measured with spectrometer [name]: VIS
Wave   ;Sample   ;Dark     ;Reference
[nm]   ;[counts] ;[counts] ;[counts] 

450.961;  182.300;  204.125;    0.000
451.100;  215.300;  219.125;    0.000
451.239;  182.300;  196.125;    0.000
451.377;  262.300;  252.125;    0.000
451.516;  226.300;  215.125;    0.000
451.655;  229.300;  214.125;    0.000
451.794;  203.300;  241.125;    0.000
451.932;  257.300;  242.125;    0.000
452.071;  237.300;  204.125;    0.000
452.210;  213.300;  243.125;    0.000
452.348;  218.300;  241.125;    0.000
452.487;  241.300;  246.125;    0.000
452.626;  226.300;  235.125;    0.000
452.764;  220.300;  230.125;    0.000
452.903;  226.300;  199.125;    0.000
453.042;  281.300;  178.125;    0.000
453.180; 3356.300;  291.125;    0.000
453.319; 3277.300;  335.125;    0.000
453.458; 3364.300;  245.125;    0.000
453.596; 3385.300;  325.125;    0.000
453.735; 3418.300;  291.125;    0.000
453.873; 3492.300;  295.125;    0.000
454.012; 3456.300;  291.125;    0.000
454.150; 3496.300;  292.125;    0.000
454.289; 3544.300;  328.125;    0.000
454.427; 3631.300;  295.125;    0.000
454.566; 3590.300;  295.125;    0.000
454.704; 3604.300;  301.125;    0.000
454.843; 3630.300;  278.125;    0.000
454.981; 3664.300;  306.125;    0.000
455.120; 3703.300;  237.125;    0.000
455.258; 3821.300;  325.125;    0.000
455.397; 3792.300;  276.125;    0.000
455.535; 3799.300;  269.125;    0.000
455.674; 3840.300;  259.125;    0.000
455.812; 3913.300;  264.125;    0.000
455.951; 3868.300;  286.125;    0.000
456.089; 3976.300;  302.125;    0.000
456.227; 4103.300;  230.125;    0.000
456.366; 4080.300;  303.125;    0.000
456.504; 4150.300;  316.125;    0.000
456.642; 4186.300;  309.125;    0.000
456.781; 4140.300;  299.125;    0.000
456.919; 4255.300;  281.125;    0.000
457.057; 4126.300;  253.125;    0.000
457.196; 4361.300;  268.125;    0.000
457.334; 4327.300;  292.125;    0.000
457.472; 4408.300;  287.125;    0.000
457.610; 4409.300;  300.125;    0.000
457.749; 4627.300;  342.125;    0.000
457.887; 4590.300;  310.125;    0.000
458.025; 4685.300;  310.125;    0.000
458.163; 4736.300;  323.125;    0.000
458.301; 4824.300;  336.125;    0.000
458.440; 4843.300;  297.125;    0.000
458.578; 4975.300;  295.125;    0.000
458.716; 4946.300;  309.125;    0.000
458.854; 5010.300;  335.125;    0.000
458.992; 5024.300;  244.125;    0.000
459.130; 5235.300;  370.125;    0.000
459.269; 5221.300;  313.125;    0.000
459.407; 5323.300;  370.125;    0.000
459.545; 5365.300;  341.125;    0.000
459.683; 5342.300;  336.125;    0.000
459.821; 5479.300;  311.125;    0.000
459.959; 5534.300;  330.125;    0.000
460.097; 5555.300;  355.125;    0.000
460.235; 5674.300;  348.125;    0.000
460.373; 5655.300;  338.125;    0.000
460.511; 5657.300;  361.125;    0.000
460.649; 5795.300;  295.125;    0.000
460.787; 5715.300;  325.125;    0.000
460.925; 5753.300;  266.125;    0.000
461.063; 5839.300;  365.125;    0.000
461.201; 5788.300;  334.125;    0.000
461.339; 5941.300;  341.125;    0.000
461.477; 5905.300;  304.125;    0.000
461.615; 6104.300;  311.125;    0.000
461.753; 6121.300;  342.125;    0.000
461.891; 6030.300;  333.125;    0.000
462.029; 6128.300;  336.125;    0.000
462.166; 6306.300;  272.125;    0.000
462.304; 6424.300;  313.125;    0.000
462.442; 6460.300;  313.125;    0.000
462.580; 6485.300;  328.125;    0.000
462.718; 6528.300;  358.125;    0.000
462.856; 6567.300;  302.125;    0.000
462.993; 6500.300;  360.125;    0.000
463.131; 6514.300;  280.125;    0.000
463.269; 6446.300;  312.125;    0.000
463.407; 6434.300;  263.125;    0.000
463.545; 6341.300;  253.125;    0.000
463.682; 6266.300;  296.125;    0.000
463.820; 6559.300;  308.125;    0.000
463.958; 6863.300;  300.125;    0.000
464.095; 6931.300;  289.125;    0.000
464.233; 6924.300;  340.125;    0.000
464.371; 6915.300;  300.125;    0.000
464.509; 7109.300;  266.125;    0.000
464.646; 6863.300;  294.125;    0.000
464.784; 6939.300;  284.125;    0.000
464.921; 6932.300;  350.125;    0.000
465.059; 6759.300;  256.125;    0.000
465.197; 6516.300;  289.125;    0.000
465.334; 6525.300;  287.125;    0.000
465.472; 6287.300;  322.125;    0.000
465.609; 6384.300;  311.125;    0.000
465.747; 6403.300;  336.125;    0.000
465.885; 6180.300;  308.125;    0.000
466.022; 6166.300;  299.125;    0.000
466.160; 6169.300;  293.125;    0.000
466.297; 6146.300;  317.125;    0.000
466.435; 6085.300;  336.125;    0.000
466.572; 6036.300;  282.125;    0.000
466.710; 6043.300;  299.125;    0.000
466.847; 6030.300;  288.125;    0.000
466.985; 6149.300;  274.125;    0.000
467.122; 6042.300;  302.125;    0.000
467.260; 5972.300;  271.125;    0.000
467.397; 5963.300;  263.125;    0.000
467.534; 6125.300;  320.125;    0.000
467.672; 6048.300;  309.125;    0.000
467.809; 6079.300;  275.125;    0.000
467.947; 6094.300;  319.125;    0.000
468.084; 5967.300;  309.125;    0.000
468.221; 5968.300;  302.125;    0.000
468.359; 5978.300;  286.125;    0.000
468.496; 6055.300;  293.125;    0.000
468.633; 5955.300;  273.125;    0.000
468.771; 6009.300;  296.125;    0.000
468.908; 6076.300;  277.125;    0.000
469.045; 6177.300;  303.125;    0.000
469.183; 6161.300;  314.125;    0.000
469.320; 6181.300;  278.125;    0.000
469.457; 6260.300;  308.125;    0.000
469.594; 6306.300;  272.125;    0.000
469.732; 6326.300;  321.125;    0.000
469.869; 6388.300;  299.125;    0.000
470.006; 6386.300;  267.125;    0.000
470.143; 6554.300;  298.125;    0.000
470.280; 6401.300;  272.125;    0.000
470.417; 6449.300;  314.125;    0.000
470.555; 6520.300;  305.125;    0.000
470.692; 6483.300;  309.125;    0.000
470.829; 6307.300;  311.125;    0.000
470.966; 6396.300;  260.125;    0.000
471.103; 6468.300;  267.125;    0.000
471.240; 6408.300;  290.125;    0.000
471.377; 6387.300;  290.125;    0.000
471.514; 6459.300;  295.125;    0.000
471.651; 6352.300;  300.125;    0.000
471.789; 6328.300;  281.125;    0.000
471.926; 6400.300;  291.125;    0.000
472.063; 6357.300;  305.125;    0.000
472.200; 6259.300;  285.125;    0.000
472.337; 6226.300;  288.125;    0.000
472.474; 6306.300;  276.125;    0.000
472.611; 6228.300;  309.125;    0.000
472.748; 6216.300;  280.125;    0.000
472.884; 6359.300;  300.125;    0.000
473.021; 6223.300;  280.125;    0.000
473.158; 6115.300;  304.125;    0.000
473.295; 6218.300;  308.125;    0.000
473.432; 6092.300;  294.125;    0.000
473.569; 6181.300;  288.125;    0.000
473.706; 5973.300;  254.125;    0.000
473.843; 6065.300;  282.125;    0.000
473.980; 6223.300;  286.125;    0.000
474.117; 6152.300;  257.125;    0.000
474.253; 6140.300;  298.125;    0.000
474.390; 6112.300;  253.125;    0.000
474.527; 6116.300;  271.125;    0.000
474.664; 6207.300;  257.125;    0.000
474.801; 6176.300;  296.125;    0.000
474.937; 6212.300;  263.125;    0.000
475.074; 6134.300;  262.125;    0.000
475.211; 6256.300;  299.125;    0.000
475.348; 6321.300;  308.125;    0.000
475.484; 6336.300;  278.125;    0.000
475.621; 6304.300;  287.125;    0.000
475.758; 6277.300;  231.125;    0.000
475.894; 6262.300;  295.125;    0.000
476.031; 6188.300;  290.125;    0.000
476.168; 6308.300;  287.125;    0.000
476.304; 6318.300;  331.125;    0.000
476.441; 6316.300;  301.125;    0.000
476.578; 6421.300;  263.125;    0.000
476.714; 6440.300;  261.125;    0.000
476.851; 6458.300;  247.125;    0.000
476.987; 6501.300;  297.125;    0.000
477.124; 6486.300;  296.125;    0.000
477.261; 6542.300;  299.125;    0.000
477.397; 6484.300;  292.125;    0.000
477.534; 6619.300;  289.125;    0.000
477.670; 6760.300;  268.125;    0.000
477.807; 6667.300;  234.125;    0.000
477.943; 6771.300;  279.125;    0.000
478.080; 6758.300;  276.125;    0.000
478.216; 6711.300;  248.125;    0.000
478.353; 6750.300;  296.125;    0.000
478.489; 6853.300;  267.125;    0.000
478.626; 6943.300;  243.125;    0.000
478.762; 6883.300;  252.125;    0.000
478.898; 6985.300;  266.125;    0.000
479.035; 7071.300;  290.125;    0.000
479.171; 7034.300;  247.125;    0.000
479.308; 6943.300;  283.125;    0.000
479.444; 6935.300;  244.125;    0.000
479.580; 6910.300;  259.125;    0.000
479.717; 7041.300;  301.125;    0.000
479.853; 6957.300;  257.125;    0.000
479.989; 6999.300;  249.125;    0.000
480.126; 7133.300;  218.125;    0.000
480.262; 7247.300;  275.125;    0.000
480.398; 7218.300;  246.125;    0.000
480.535; 7062.300;  246.125;    0.000
480.671; 7125.300;  272.125;    0.000
480.807; 7128.300;  281.125;    0.000
480.943; 7055.300;  233.125;    0.000
481.080; 6953.300;  303.125;    0.000
481.216; 7071.300;  229.125;    0.000
481.352; 7042.300;  240.125;    0.000
481.488; 6956.300;  284.125;    0.000
481.624; 7019.300;  236.125;    0.000
481.760; 6998.300;  255.125;    0.000
481.897; 7083.300;  206.125;    0.000
482.033; 7055.300;  254.125;    0.000
482.169; 6954.300;  268.125;    0.000
482.305; 6997.300;  214.125;    0.000
482.441; 6787.300;  225.125;    0.000
482.577; 6803.300;  251.125;    0.000
482.713; 7013.300;  221.125;    0.000
482.849; 6841.300;  218.125;    0.000
482.985; 6954.300;  245.125;    0.000
483.121; 7039.300;  224.125;    0.000
483.258; 7001.300;  249.125;    0.000
483.394; 6942.300;  224.125;    0.000
483.530; 6968.300;  247.125;    0.000
483.665; 7009.300;  256.125;    0.000
483.801; 7009.300;  220.125;    0.000
483.937; 6950.300;  200.125;    0.000
484.073; 7119.300;  272.125;    0.000
484.209; 6956.300;  243.125;    0.000
484.345; 6978.300;  274.125;    0.000
484.481; 7066.300;  264.125;    0.000
484.617; 7195.300;  270.125;    0.000
484.753; 7047.300;  244.125;    0.000
484.889; 7104.300;  293.125;    0.000
485.025; 7151.300;  257.125;    0.000
485.161; 7231.300;  264.125;    0.000
485.296; 7121.300;  247.125;    0.000
485.432; 7087.300;  240.125;    0.000
485.568; 7302.300;  240.125;    0.000
485.704; 7059.300;  232.125;    0.000
485.840; 7165.300;  280.125;    0.000
485.975; 7174.300;  253.125;    0.000
486.111; 7193.300;  250.125;    0.000
486.247; 7107.300;  272.125;    0.000
486.383; 7219.300;  258.125;    0.000
486.518; 7072.300;  256.125;    0.000
486.654; 7179.300;  250.125;    0.000
486.790; 7180.300;  259.125;    0.000
486.926; 7137.300;  256.125;    0.000
487.061; 7149.300;  267.125;    0.000
487.197; 7186.300;  224.125;    0.000
487.333; 7011.300;  265.125;    0.000
487.468; 6986.300;  223.125;    0.000
487.604; 7192.300;  298.125;    0.000
487.740; 7138.300;  261.125;    0.000
487.875; 7209.300;  278.125;    0.000
488.011; 7171.300;  292.125;    0.000
488.146; 7095.300;  239.125;    0.000
488.282; 7166.300;  265.125;    0.000
488.417; 7251.300;  286.125;    0.000
488.553; 7170.300;  271.125;    0.000
488.688; 7173.300;  252.125;    0.000
488.824; 7225.300;  239.125;    0.000
488.960; 7115.300;  266.125;    0.000
489.095; 7101.300;  229.125;    0.000
489.230; 7173.300;  247.125;    0.000
489.366; 7302.300;  260.125;    0.000
489.501; 7214.300;  257.125;    0.000
489.637; 7155.300;  233.125;    0.000
489.772; 7312.300;  254.125;    0.000
489.908; 7234.300;  235.125;    0.000
490.043; 7349.300;  266.125;    0.000
490.178; 7293.300;  228.125;    0.000
490.314; 7333.300;  310.125;    0.000
490.449; 7264.300;  251.125;    0.000
490.585; 7177.300;  221.125;    0.000
490.720; 7262.300;  203.125;    0.000
490.855; 7260.300;  266.125;    0.000
490.991; 7200.300;  249.125;    0.000
491.126; 7286.300;  313.125;    0.000
491.261; 7348.300;  284.125;    0.000
491.396; 7235.300;  225.125;    0.000
491.532; 7114.300;  227.125;    0.000
491.667; 7244.300;  210.125;    0.000
491.802; 7273.300;  214.125;    0.000
491.937; 7490.300;  246.125;    0.000
492.073; 7383.300;  250.125;    0.000
492.208; 7343.300;  267.125;    0.000
492.343; 7326.300;  245.125;    0.000
492.478; 7432.300;  271.125;    0.000
492.613; 7465.300;  253.125;    0.000
492.749; 7585.300;  249.125;    0.000
492.884; 7495.300;  217.125;    0.000
493.019; 7489.300;  244.125;    0.000
493.154; 7442.300;  265.125;    0.000
493.289; 7404.300;  266.125;    0.000
493.424; 7590.300;  226.125;    0.000
493.559; 7367.300;  222.125;    0.000
493.694; 7472.300;  218.125;    0.000
493.829; 7275.300;  246.125;    0.000
493.964; 7182.300;  243.125;    0.000
494.099; 7511.300;  269.125;    0.000
494.234; 7399.300;  249.125;    0.000
494.369; 7488.300;  279.125;    0.000
494.504; 7379.300;  261.125;    0.000
494.639; 7503.300;  289.125;    0.000
494.774; 7393.300;  252.125;    0.000
494.909; 7183.300;  250.125;    0.000
495.044; 7352.300;  207.125;    0.000
495.179; 7453.300;  266.125;    0.000
495.314; 7455.300;  228.125;    0.000
495.449; 7372.300;  262.125;    0.000
495.584; 7313.300;  281.125;    0.000
495.719; 7400.300;  251.125;    0.000
495.854; 7392.300;  237.125;    0.000
495.988; 7371.300;  238.125;    0.000
496.123; 7456.300;  255.125;    0.000
496.258; 7468.300;  264.125;    0.000
496.393; 7440.300;  253.125;    0.000
496.528; 7538.300;  244.125;    0.000
496.663; 7663.300;  267.125;    0.000
496.797; 7646.300;  271.125;    0.000
496.932; 7782.300;  262.125;    0.000
497.067; 7964.300;  260.125;    0.000
497.202; 7963.300;  264.125;    0.000
497.336; 7953.300;  243.125;    0.000
497.471; 8179.300;  251.125;    0.000
497.606; 8227.300;  219.125;    0.000
497.740; 8242.300;  264.125;    0.000
497.875; 8611.300;  252.125;    0.000
498.010; 8572.300;  241.125;    0.000
498.144; 8795.300;  261.125;    0.000
498.279; 9031.300;  221.125;    0.000
498.414; 9083.300;  246.125;    0.000
498.548; 9303.300;  212.125;    0.000
498.683; 9152.300;  260.125;    0.000
498.817; 9491.300;  244.125;    0.000
498.952; 9681.300;  252.125;    0.000
499.087; 9919.300;  251.125;    0.000
499.221;10131.300;  282.125;    0.000
499.356;10400.300;  264.125;    0.000
499.490;10557.300;  280.125;    0.000
499.625;10916.300;  256.125;    0.000
499.759;11069.300;  253.125;    0.000
499.894;11587.300;  261.125;    0.000
500.028;11848.300;  304.125;    0.000
500.162;12018.300;  272.125;    0.000
500.297;12244.300;  274.125;    0.000
500.431;12300.300;  320.125;    0.000
500.566;12371.300;  268.125;    0.000
500.700;12304.300;  280.125;    0.000
500.835;12063.300;  288.125;    0.000
500.969;11692.300;  253.125;    0.000
501.103;11322.300;  234.125;    0.000
501.238;11027.300;  302.125;    0.000
501.372;10712.300;  292.125;    0.000
501.506;10291.300;  222.125;    0.000
501.641;10088.300;  274.125;    0.000
501.775; 9531.300;  245.125;    0.000
501.909; 9373.300;  283.125;    0.000
502.043; 9020.300;  252.125;    0.000
502.178; 8999.300;  293.125;    0.000
502.312; 8918.300;  223.125;    0.000
502.446; 8709.300;  292.125;    0.000
502.580; 8600.300;  253.125;    0.000
502.715; 8586.300;  282.125;    0.000
502.849; 8393.300;  258.125;    0.000
502.983; 8175.300;  267.125;    0.000
503.117; 7992.300;  226.125;    0.000
503.251; 8176.300;  260.125;    0.000
503.385; 7931.300;  291.125;    0.000
503.520; 7822.300;  279.125;    0.000
503.654; 7663.300;  229.125;    0.000
503.788; 7656.300;  259.125;    0.000
503.922; 7552.300;  246.125;    0.000
504.056; 7509.300;  269.125;    0.000
504.190; 7427.300;  265.125;    0.000
504.324; 7339.300;  298.125;    0.000
504.458; 7434.300;  235.125;    0.000
504.592; 7264.300;  275.125;    0.000
504.726; 7236.300;  226.125;    0.000
504.860; 7097.300;  298.125;    0.000
504.994; 7003.300;  253.125;    0.000
505.128; 7051.300;  283.125;    0.000
505.262; 6740.300;  255.125;    0.000
505.396; 6754.300;  219.125;    0.000
505.530; 6704.300;  279.125;    0.000
505.664; 6507.300;  306.125;    0.000
505.798; 6435.300;  297.125;    0.000
505.932; 6456.300;  273.125;    0.000
506.066; 6633.300;  271.125;    0.000
506.199; 6374.300;  273.125;    0.000
506.333; 6259.300;  227.125;    0.000
506.467; 6277.300;  302.125;    0.000
506.601; 6088.300;  254.125;    0.000
506.735; 6272.300;  299.125;    0.000
506.869; 6221.300;  278.125;    0.000
507.002; 6005.300;  259.125;    0.000
507.136; 6008.300;  285.125;    0.000
507.270; 6052.300;  255.125;    0.000
507.404; 5984.300;  273.125;    0.000
507.537; 5896.300;  245.125;    0.000
507.671; 5952.300;  251.125;    0.000
507.805; 5972.300;  286.125;    0.000
507.939; 5824.300;  261.125;    0.000
508.072; 5844.300;  298.125;    0.000
508.206; 5802.300;  238.125;    0.000
508.340; 5838.300;  289.125;    0.000
508.473; 5700.300;  255.125;    0.000
508.607; 5732.300;  266.125;    0.000
508.740; 5726.300;  253.125;    0.000
508.874; 5667.300;  233.125;    0.000
509.008; 5781.300;  274.125;    0.000
509.141; 5722.300;  235.125;    0.000
509.275; 5564.300;  225.125;    0.000
509.408; 5671.300;  254.125;    0.000
509.542; 5605.300;  244.125;    0.000
509.675; 5660.300;  263.125;    0.000
509.809; 5627.300;  271.125;    0.000
509.942; 5546.300;  246.125;    0.000
510.076; 5471.300;  221.125;    0.000
510.209; 5626.300;  270.125;    0.000
510.343; 5542.300;  265.125;    0.000
510.476; 5379.300;  291.125;    0.000
510.610; 5335.300;  251.125;    0.000
510.743; 5635.300;  304.125;    0.000
510.877; 5539.300;  259.125;    0.000
511.010; 5471.300;  274.125;    0.000
511.143; 5413.300;  255.125;    0.000
511.277; 5289.300;  267.125;    0.000
511.410; 5507.300;  270.125;    0.000
511.543; 5405.300;  231.125;    0.000
511.677; 5231.300;  275.125;    0.000
511.810; 5360.300;  265.125;    0.000
511.943; 5418.300;  231.125;    0.000
512.077; 5339.300;  225.125;    0.000
512.210; 5344.300;  235.125;    0.000
512.343; 5413.300;  251.125;    0.000
512.476; 5408.300;  260.125;    0.000
512.610; 5307.300;  289.125;    0.000
512.743; 5363.300;  270.125;    0.000
512.876; 5332.300;  289.125;    0.000
513.009; 5380.300;  293.125;    0.000
513.142; 5402.300;  282.125;    0.000
513.276; 5243.300;  244.125;    0.000
513.409; 5419.300;  277.125;    0.000
513.542; 5386.300;  254.125;    0.000
513.675; 5314.300;  258.125;    0.000
513.808; 5359.300;  243.125;    0.000
513.941; 5267.300;  274.125;    0.000
514.074; 5405.300;  296.125;    0.000
514.207; 5273.300;  267.125;    0.000
514.340; 5291.300;  283.125;    0.000
514.474; 5399.300;  255.125;    0.000
514.607; 5349.300;  291.125;    0.000
514.740; 5508.300;  296.125;    0.000
514.873; 5420.300;  275.125;    0.000
515.006; 5435.300;  313.125;    0.000
515.139; 5647.300;  253.125;    0.000
515.272; 5628.300;  263.125;    0.000
515.404; 5612.300;  258.125;    0.000
515.537; 5660.300;  285.125;    0.000
515.670; 5641.300;  286.125;    0.000
515.803; 5747.300;  266.125;    0.000
515.936; 5660.300;  251.125;    0.000
516.069; 5738.300;  231.125;    0.000
516.202; 5872.300;  278.125;    0.000
516.335; 5968.300;  295.125;    0.000
516.468; 6271.300;  239.125;    0.000
516.600; 7262.300;  229.125;    0.000
516.733; 8919.300;  301.125;    0.000
516.866; 9038.300;  287.125;    0.000
516.999; 8200.300;  265.125;    0.000
517.132; 9881.300;  291.125;    0.000
517.264;13719.300;  262.125;    0.000
517.397;13457.300;  292.125;    0.000
517.530;10203.300;  299.125;    0.000
517.663; 8552.300;  268.125;    0.000
517.795; 7948.300;  323.125;    0.000
517.928; 7593.300;  281.125;    0.000
518.061; 7844.300;  242.125;    0.000
518.193;10051.300;  279.125;    0.000
518.326;15980.300;  288.125;    0.000
518.459;17372.301;  251.125;    0.000
518.591;13106.300;  314.125;    0.000
518.724; 9792.300;  279.125;    0.000
518.857; 8419.300;  245.125;    0.000
518.989; 7660.300;  290.125;    0.000
519.122; 7168.300;  319.125;    0.000
519.254; 6891.300;  295.125;    0.000
519.387; 6514.300;  271.125;    0.000
519.519; 6377.300;  312.125;    0.000
519.652; 6244.300;  289.125;    0.000
519.784; 6106.300;  311.125;    0.000
519.917; 5873.300;  283.125;    0.000
520.049; 5693.300;  281.125;    0.000
520.182; 5750.300;  242.125;    0.000
520.314; 5722.300;  310.125;    0.000
520.447; 5681.300;  215.125;    0.000
520.579; 5616.300;  277.125;    0.000
520.712; 5538.300;  224.125;    0.000
520.844; 5509.300;  293.125;    0.000
520.976; 5375.300;  281.125;    0.000
521.109; 5320.300;  279.125;    0.000
521.241; 5338.300;  318.125;    0.000
521.373; 5223.300;  242.125;    0.000
521.506; 5150.300;  246.125;    0.000
521.638; 5223.300;  312.125;    0.000
521.770; 5052.300;  257.125;    0.000
521.903; 5105.300;  295.125;    0.000
522.035; 5095.300;  283.125;    0.000
522.167; 4875.300;  281.125;    0.000
522.300; 4961.300;  262.125;    0.000
522.432; 4830.300;  272.125;    0.000
522.564; 4876.300;  277.125;    0.000
522.696; 4799.300;  295.125;    0.000
522.828; 4899.300;  284.125;    0.000
522.961; 4746.300;  295.125;    0.000
523.093; 4787.300;  282.125;    0.000
523.225; 4892.300;  270.125;    0.000
523.357; 4775.300;  285.125;    0.000
523.489; 4913.300;  292.125;    0.000
523.621; 4715.300;  285.125;    0.000
523.753; 4739.300;  273.125;    0.000
523.885; 4700.300;  271.125;    0.000
524.018; 4665.300;  276.125;    0.000
524.150; 4656.300;  320.125;    0.000
524.282; 4691.300;  304.125;    0.000
524.414; 4649.300;  302.125;    0.000
524.546; 4474.300;  305.125;    0.000
524.678; 4592.300;  264.125;    0.000
524.810; 4444.300;  258.125;    0.000
524.942; 4531.300;  252.125;    0.000
525.074; 4476.300;  275.125;    0.000
525.206; 4423.300;  286.125;    0.000
525.338; 4470.300;  280.125;    0.000
525.469; 4496.300;  267.125;    0.000
525.601; 4449.300;  266.125;    0.000
525.733; 4418.300;  283.125;    0.000
525.865; 4353.300;  273.125;    0.000
525.997; 4423.300;  286.125;    0.000
526.129; 4420.300;  249.125;    0.000
526.261; 4330.300;  233.125;    0.000
526.393; 4445.300;  257.125;    0.000
526.524; 4416.300;  184.125;    0.000
526.656; 4375.300;  259.125;    0.000
526.788; 4334.300;  268.125;    0.000
526.920; 4365.300;  262.125;    0.000
527.052; 4228.300;  250.125;    0.000
527.183; 4356.300;  264.125;    0.000
527.315; 4287.300;  301.125;    0.000
527.447; 4213.300;  262.125;    0.000
527.578; 4280.300;  267.125;    0.000
527.710; 4370.300;  299.125;    0.000
527.842; 4314.300;  266.125;    0.000
527.973; 4271.300;  240.125;    0.000
528.105; 4268.300;  275.125;    0.000
528.237; 4358.300;  239.125;    0.000
528.368; 4227.300;  275.125;    0.000
528.500; 4361.300;  271.125;    0.000
528.632; 4231.300;  252.125;    0.000
528.763; 4282.300;  253.125;    0.000
528.895; 4165.300;  259.125;    0.000
529.026; 4277.300;  209.125;    0.000
529.158; 4228.300;  291.125;    0.000
529.289; 4169.300;  280.125;    0.000
529.421; 4291.300;  274.125;    0.000
529.552; 4254.300;  253.125;    0.000
529.684; 4296.300;  310.125;    0.000
529.815; 4422.300;  305.125;    0.000
529.947; 4212.300;  234.125;    0.000
530.078; 4185.300;  259.125;    0.000
530.210; 4373.300;  264.125;    0.000
530.341; 4238.300;  267.125;    0.000
530.472; 4227.300;  232.125;    0.000
530.604; 4254.300;  293.125;    0.000
530.735; 4232.300;  275.125;    0.000
530.867; 4316.300;  280.125;    0.000
530.998; 4329.300;  295.125;    0.000
531.129; 4399.300;  274.125;    0.000
531.260; 4315.300;  272.125;    0.000
531.392; 4366.300;  275.125;    0.000
531.523; 4386.300;  244.125;    0.000
531.654; 4302.300;  289.125;    0.000
531.786; 4315.300;  259.125;    0.000
531.917; 4457.300;  286.125;    0.000
532.048; 4305.300;  293.125;    0.000
532.179; 4275.300;  288.125;    0.000
532.311; 4449.300;  296.125;    0.000
532.442; 4325.300;  277.125;    0.000
532.573; 4402.300;  273.125;    0.000
532.704; 4294.300;  308.125;    0.000
532.835; 4265.300;  308.125;    0.000
532.966; 4254.300;  274.125;    0.000
533.097; 4284.300;  310.125;    0.000
533.229; 4221.300;  294.125;    0.000
533.360; 4269.300;  324.125;    0.000
533.491; 4260.300;  278.125;    0.000
533.622; 4241.300;  319.125;    0.000
533.753; 4324.300;  303.125;    0.000
533.884; 4252.300;  269.125;    0.000
534.015; 4308.300;  266.125;    0.000
534.146; 4368.300;  283.125;    0.000
534.277; 4372.300;  299.125;    0.000
534.408; 4374.300;  265.125;    0.000
534.539; 4426.300;  310.125;    0.000
534.670; 4398.300;  319.125;    0.000
534.801; 4216.300;  281.125;    0.000
534.932; 4204.300;  239.125;    0.000
535.063; 4219.300;  276.125;    0.000
535.194; 4203.300;  361.125;    0.000
535.324; 4267.300;  283.125;    0.000
535.455; 4058.300;  282.125;    0.000
535.586; 4224.300;  331.125;    0.000
535.717; 4159.300;  262.125;    0.000
535.848; 4151.300;  308.125;    0.000
535.979; 4217.300;  273.125;    0.000
536.109; 4207.300;  277.125;    0.000
536.240; 4220.300;  293.125;    0.000
536.371; 4095.300;  295.125;    0.000
536.502; 4195.300;  330.125;    0.000
536.632; 4178.300;  280.125;    0.000
536.763; 4167.300;  332.125;    0.000
536.894; 4162.300;  334.125;    0.000
537.025; 4059.300;  295.125;    0.000
537.155; 4119.300;  321.125;    0.000
537.286; 4141.300;  292.125;    0.000
537.417; 4085.300;  314.125;    0.000
537.547; 4081.300;  287.125;    0.000
537.678; 4065.300;  287.125;    0.000
537.808; 4173.300;  278.125;    0.000
537.939; 4058.300;  304.125;    0.000
538.070; 4156.300;  303.125;    0.000
538.200; 4132.300;  279.125;    0.000
538.331; 4018.300;  321.125;    0.000
538.461; 3976.300;  313.125;    0.000
538.592; 4083.300;  290.125;    0.000
538.722; 4098.300;  285.125;    0.000
538.853; 4090.300;  261.125;    0.000
538.983; 4167.300;  280.125;    0.000
539.114; 3996.300;  310.125;    0.000
539.244; 4025.300;  281.125;    0.000
539.375; 4003.300;  292.125;    0.000
539.505; 4073.300;  286.125;    0.000
539.636; 4039.300;  276.125;    0.000
539.766; 4070.300;  287.125;    0.000
539.896; 3970.300;  292.125;    0.000
540.027; 3987.300;  262.125;    0.000
540.157; 4020.300;  269.125;    0.000
540.287; 4109.300;  282.125;    0.000
540.418; 4085.300;  269.125;    0.000
540.548; 4119.300;  328.125;    0.000
540.678; 4067.300;  271.125;    0.000
540.809; 4156.300;  272.125;    0.000
540.939; 4178.300;  299.125;    0.000
541.069; 4142.300;  266.125;    0.000
541.200; 4135.300;  242.125;    0.000
541.330; 4055.300;  257.125;    0.000
541.460; 4036.300;  270.125;    0.000
541.590; 4179.300;  287.125;    0.000
541.720; 4097.300;  255.125;    0.000
541.851; 4027.300;  273.125;    0.000
541.981; 4157.300;  244.125;    0.000
542.111; 4212.300;  263.125;    0.000
542.241; 4159.300;  271.125;    0.000
542.371; 4246.300;  263.125;    0.000
542.501; 4377.300;  274.125;    0.000
542.631; 4334.300;  288.125;    0.000
542.761; 4432.300;  261.125;    0.000
542.891; 4319.300;  253.125;    0.000
543.021; 4361.300;  249.125;    0.000
543.151; 4376.300;  261.125;    0.000
543.281; 4501.300;  256.125;    0.000
543.411; 4312.300;  290.125;    0.000
543.542; 4321.300;  278.125;    0.000
543.671; 4374.300;  238.125;    0.000
543.801; 4358.300;  256.125;    0.000
543.931; 4318.300;  254.125;    0.000
544.061; 4328.300;  237.125;    0.000
544.191; 4370.300;  245.125;    0.000
544.321; 4357.300;  267.125;    0.000
544.451; 4371.300;  262.125;    0.000
544.581; 4353.300;  221.125;    0.000
544.711; 4532.300;  252.125;    0.000
544.841; 4365.300;  264.125;    0.000
544.970; 4470.300;  315.125;    0.000
545.100; 4535.300;  245.125;    0.000
545.230; 4704.300;  276.125;    0.000
545.360; 4618.300;  278.125;    0.000
545.490; 4554.300;  268.125;    0.000
545.619; 4393.300;  237.125;    0.000
545.749; 4449.300;  228.125;    0.000
545.879; 4376.300;  234.125;    0.000
546.009; 4403.300;  287.125;    0.000
546.138; 4393.300;  222.125;    0.000
546.268; 4334.300;  228.125;    0.000
546.398; 4246.300;  244.125;    0.000
546.527; 4360.300;  233.125;    0.000
546.657; 4365.300;  189.125;    0.000
546.786; 4364.300;  247.125;    0.000
546.916; 4297.300;  244.125;    0.000
547.046; 4359.300;  214.125;    0.000
547.175; 4280.300;  242.125;    0.000
547.305; 4260.300;  252.125;    0.000
547.434; 4352.300;  191.125;    0.000
547.564; 4270.300;  208.125;    0.000
547.693; 4289.300;  213.125;    0.000
547.823; 4220.300;  209.125;    0.000
547.953; 4372.300;  250.125;    0.000
548.082; 4326.300;  231.125;    0.000
548.211; 4219.300;  226.125;    0.000
548.341; 4270.300;  254.125;    0.000
548.470; 4342.300;  266.125;    0.000
548.600; 4300.300;  229.125;    0.000
548.729; 4249.300;  225.125;    0.000
548.859; 4257.300;  185.125;    0.000
548.988; 4263.300;  225.125;    0.000
549.117; 4289.300;  241.125;    0.000
549.247; 4418.300;  236.125;    0.000
549.376; 4386.300;  220.125;    0.000
549.505; 4448.300;  254.125;    0.000
549.635; 4317.300;  268.125;    0.000
549.764; 4330.300;  194.125;    0.000
549.893; 4377.300;  232.125;    0.000
550.023; 4307.300;  222.125;    0.000
550.152; 4366.300;  223.125;    0.000
550.281; 4396.300;  210.125;    0.000
550.410; 4365.300;  197.125;    0.000
550.539; 4390.300;  222.125;    0.000
550.669; 4367.300;  245.125;    0.000
550.798; 4397.300;  265.125;    0.000
550.927; 4432.300;  249.125;    0.000
551.056; 4420.300;  184.125;    0.000
551.185; 4433.300;  247.125;    0.000
551.314; 4435.300;  258.125;    0.000
551.443; 4336.300;  224.125;    0.000
551.573; 4480.300;  204.125;    0.000
551.702; 4444.300;  220.125;    0.000
551.831; 4520.300;  287.125;    0.000
551.960; 4499.300;  259.125;    0.000
552.089; 4460.300;  222.125;    0.000
552.218; 4406.300;  254.125;    0.000
552.347; 4538.300;  260.125;    0.000
552.476; 4488.300;  251.125;    0.000
552.605; 4519.300;  229.125;    0.000
552.734; 4646.300;  261.125;    0.000
552.863; 4749.300;  225.125;    0.000
552.992; 4767.300;  202.125;    0.000
553.121; 4778.300;  193.125;    0.000
553.249; 4697.300;  224.125;    0.000
553.378; 4643.300;  274.125;    0.000
553.507; 4640.300;  248.125;    0.000
553.636; 4627.300;  203.125;    0.000
553.765; 4585.300;  224.125;    0.000
553.894; 4560.300;  246.125;    0.000
554.023; 4555.300;  229.125;    0.000
554.151; 4536.300;  216.125;    0.000
554.280; 4451.300;  223.125;    0.000
554.409; 4526.300;  240.125;    0.000
554.538; 4488.300;  277.125;    0.000
554.666; 4495.300;  244.125;    0.000
554.795; 4464.300;  240.125;    0.000
554.924; 4391.300;  257.125;    0.000
555.052; 4333.300;  266.125;    0.000
555.181; 4338.300;  244.125;    0.000
555.310; 4415.300;  262.125;    0.000
555.439; 4530.300;  260.125;    0.000
555.567; 4371.300;  234.125;    0.000
555.696; 4398.300;  237.125;    0.000
555.824; 4355.300;  232.125;    0.000
555.953; 4391.300;  279.125;    0.000
556.082; 4355.300;  234.125;    0.000
556.210; 4439.300;  235.125;    0.000
556.339; 4369.300;  198.125;    0.000
556.467; 4365.300;  216.125;    0.000
556.596; 4293.300;  273.125;    0.000
556.724; 4279.300;  245.125;    0.000
556.853; 4347.300;  241.125;    0.000
556.981; 4266.300;  219.125;    0.000
557.110; 4400.300;  242.125;    0.000
557.238; 4274.300;  202.125;    0.000
557.367; 4203.300;  254.125;    0.000
557.495; 4203.300;  260.125;    0.000
557.623; 4217.300;  207.125;    0.000
557.752; 4288.300;  219.125;    0.000
557.880; 4229.300;  209.125;    0.000
558.008; 4213.300;  243.125;    0.000
558.137; 4335.300;  244.125;    0.000
558.265; 4252.300;  221.125;    0.000
558.393; 4346.300;  297.125;    0.000
558.522; 4246.300;  232.125;    0.000
558.650; 4254.300;  299.125;    0.000
558.778; 4299.300;  210.125;    0.000
558.906; 4278.300;  240.125;    0.000
559.035; 4251.300;  252.125;    0.000
559.163; 4253.300;  246.125;    0.000
559.291; 4193.300;  213.125;    0.000
559.419; 4313.300;  221.125;    0.000
559.548; 4325.300;  208.125;    0.000
559.676; 4325.300;  254.125;    0.000
559.804; 4480.300;  213.125;    0.000
559.932; 4308.300;  208.125;    0.000
560.060; 4346.300;  276.125;    0.000
560.188; 4370.300;  278.125;    0.000
560.316; 4348.300;  217.125;    0.000
560.444; 4392.300;  254.125;    0.000
560.572; 4488.300;  226.125;    0.000
560.700; 4509.300;  282.125;    0.000
560.828; 4459.300;  211.125;    0.000
560.956; 4572.300;  264.125;    0.000
561.085; 4510.300;  295.125;    0.000
561.212; 4468.300;  229.125;    0.000
561.340; 4582.300;  259.125;    0.000
561.468; 4577.300;  253.125;    0.000
561.596; 4546.300;  240.125;    0.000
561.724; 4475.300;  259.125;    0.000
561.852; 4622.300;  224.125;    0.000
561.980; 4461.300;  251.125;    0.000
562.108; 4576.300;  214.125;    0.000
562.236; 4529.300;  258.125;    0.000
562.364; 4647.300;  237.125;    0.000
562.492; 4583.300;  228.125;    0.000
562.619; 4586.300;  223.125;    0.000
562.747; 4654.300;  263.125;    0.000
562.875; 4624.300;  257.125;    0.000
563.003; 4613.300;  216.125;    0.000
563.130; 4691.300;  190.125;    0.000
563.258; 4745.300;  225.125;    0.000
563.386; 4849.300;  259.125;    0.000
563.514; 4918.300;  264.125;    0.000
563.641; 5028.300;  230.125;    0.000
563.769; 5023.300;  257.125;    0.000
563.897; 5088.300;  210.125;    0.000
564.024; 5056.300;  221.125;    0.000
564.152; 5161.300;  256.125;    0.000
564.280; 5164.300;  225.125;    0.000
564.407; 5137.300;  262.125;    0.000
564.535; 5230.300;  235.125;    0.000
564.662; 5208.300;  238.125;    0.000
564.790; 5216.300;  248.125;    0.000
564.917; 5256.300;  214.125;    0.000
565.045; 5320.300;  253.125;    0.000
565.173; 5349.300;  225.125;    0.000
565.300; 5360.300;  261.125;    0.000
565.428; 5464.300;  218.125;    0.000
565.555; 5554.300;  245.125;    0.000
565.682; 5636.300;  242.125;    0.000
565.810; 5724.300;  228.125;    0.000
565.937; 6002.300;  230.125;    0.000
566.065; 5934.300;  251.125;    0.000
566.192; 6063.300;  196.125;    0.000
566.320; 6082.300;  217.125;    0.000
566.447; 6258.300;  224.125;    0.000
566.574; 6313.300;  221.125;    0.000
566.702; 6349.300;  221.125;    0.000
566.829; 6547.300;  252.125;    0.000
566.956; 6569.300;  214.125;    0.000
567.083; 6439.300;  204.125;    0.000
567.211; 6542.300;  216.125;    0.000
567.338; 6676.300;  228.125;    0.000
567.465; 6659.300;  208.125;    0.000
567.593; 6734.300;  205.125;    0.000
567.720; 6673.300;  194.125;    0.000
567.847; 6615.300;  268.125;    0.000
567.974; 6786.300;  198.125;    0.000
568.101; 6983.300;  224.125;    0.000
568.228; 7707.300;  236.125;    0.000
568.356; 7816.300;  207.125;    0.000
568.483; 7567.300;  220.125;    0.000
568.610; 7467.300;  181.125;    0.000
568.737; 8159.300;  216.125;    0.000
568.864; 9137.300;  258.125;    0.000
568.991; 8504.300;  203.125;    0.000
569.118; 7703.300;  232.125;    0.000
569.245; 7099.300;  192.125;    0.000
569.372; 6777.300;  226.125;    0.000
569.499; 6392.300;  211.125;    0.000
569.626; 6318.300;  247.125;    0.000
569.753; 6103.300;  248.125;    0.000
569.880; 5941.300;  226.125;    0.000
570.007; 5914.300;  215.125;    0.000
570.134; 5802.300;  205.125;    0.000
570.261; 5687.300;  187.125;    0.000
570.388; 5547.300;  258.125;    0.000
570.515; 5374.300;  241.125;    0.000
570.642; 5467.300;  211.125;    0.000
570.768; 5359.300;  228.125;    0.000
570.895; 5313.300;  229.125;    0.000
571.022; 5299.300;  203.125;    0.000
571.149; 5253.300;  206.125;    0.000
571.276; 5211.300;  191.125;    0.000
571.402; 5171.300;  218.125;    0.000
571.529; 5084.300;  192.125;    0.000
571.656; 5121.300;  209.125;    0.000
571.783; 4984.300;  181.125;    0.000
571.909; 5027.300;  251.125;    0.000
572.036; 5025.300;  225.125;    0.000
572.163; 4958.300;  214.125;    0.000
572.289; 4872.300;  252.125;    0.000
572.416; 4902.300;  220.125;    0.000
572.543; 4869.300;  225.125;    0.000
572.669; 4842.300;  226.125;    0.000
572.796; 4803.300;  231.125;    0.000
572.922; 4734.300;  258.125;    0.000
573.049; 4781.300;  202.125;    0.000
573.176; 4762.300;  254.125;    0.000
573.302; 4727.300;  215.125;    0.000
573.429; 4727.300;  251.125;    0.000
573.555; 4711.300;  221.125;    0.000
573.682; 4588.300;  227.125;    0.000
573.808; 4635.300;  259.125;    0.000
573.935; 4713.300;  233.125;    0.000
574.061; 4629.300;  241.125;    0.000
574.188; 4559.300;  238.125;    0.000
574.314; 4638.300;  221.125;    0.000
574.440; 4665.300;  221.125;    0.000
574.567; 4724.300;  216.125;    0.000
574.693; 4604.300;  224.125;    0.000
574.820; 4527.300;  199.125;    0.000
574.946; 4637.300;  248.125;    0.000
575.072; 4508.300;  220.125;    0.000
575.198; 4532.300;  262.125;    0.000
575.325; 4504.300;  232.125;    0.000
575.451; 4589.300;  225.125;    0.000
575.577; 4570.300;  216.125;    0.000
575.704; 4588.300;  248.125;    0.000
575.830; 4616.300;  227.125;    0.000
575.956; 4454.300;  206.125;    0.000
576.082; 4450.300;  222.125;    0.000
576.208; 4453.300;  206.125;    0.000
576.335; 4518.300;  256.125;    0.000
576.461; 4588.300;  247.125;    0.000
576.587; 4571.300;  219.125;    0.000
576.713; 4473.300;  215.125;    0.000
576.839; 4518.300;  225.125;    0.000
576.965; 4623.300;  230.125;    0.000
577.091; 4500.300;  235.125;    0.000
577.217; 4515.300;  235.125;    0.000
577.343; 4568.300;  233.125;    0.000
577.469; 4405.300;  242.125;    0.000
577.596; 4517.300;  241.125;    0.000
577.722; 4490.300;  255.125;    0.000
577.848; 4499.300;  235.125;    0.000
577.974; 4432.300;  210.125;    0.000
578.099; 4398.300;  239.125;    0.000
578.225; 4502.300;  258.125;    0.000
578.351; 4625.300;  209.125;    0.000
578.477; 4571.300;  255.125;    0.000
578.603; 4490.300;  213.125;    0.000
578.729; 4599.300;  221.125;    0.000
578.855; 4629.300;  209.125;    0.000
578.981; 4526.300;  206.125;    0.000
579.107; 4547.300;  221.125;    0.000
579.232; 4565.300;  206.125;    0.000
579.358; 4569.300;  226.125;    0.000
579.484; 4512.300;  244.125;    0.000
579.610; 4573.300;  261.125;    0.000
579.735; 4635.300;  270.125;    0.000
579.861; 4538.300;  255.125;    0.000
579.987; 4614.300;  249.125;    0.000
580.113; 4652.300;  260.125;    0.000
580.238; 4546.300;  206.125;    0.000
580.364; 4689.300;  249.125;    0.000
580.490; 4593.300;  225.125;    0.000
580.615; 4681.300;  266.125;    0.000
580.741; 4622.300;  224.125;    0.000
580.867; 4703.300;  251.125;    0.000
580.992; 4710.300;  270.125;    0.000
581.118; 4686.300;  248.125;    0.000
581.243; 4734.300;  251.125;    0.000
581.369; 4667.300;  192.125;    0.000
581.494; 4717.300;  259.125;    0.000
581.620; 4773.300;  245.125;    0.000
581.745; 4799.300;  232.125;    0.000
581.871; 4807.300;  243.125;    0.000
581.996; 4743.300;  216.125;    0.000
582.122; 4840.300;  263.125;    0.000
582.247; 4784.300;  254.125;    0.000
582.373; 4979.300;  232.125;    0.000
582.498; 4901.300;  275.125;    0.000
582.624; 4997.300;  260.125;    0.000
582.749; 5032.300;  251.125;    0.000
582.874; 4968.300;  245.125;    0.000
583.000; 4995.300;  278.125;    0.000
583.125; 5004.300;  211.125;    0.000
583.250; 5062.300;  246.125;    0.000
583.376; 5244.300;  259.125;    0.000
583.501; 5148.300;  254.125;    0.000
583.626; 5133.300;  209.125;    0.000
583.751; 5256.300;  239.125;    0.000
583.877; 5163.300;  255.125;    0.000
584.002; 5414.300;  263.125;    0.000
584.127; 5406.300;  205.125;    0.000
584.252; 5308.300;  196.125;    0.000
584.377; 5468.300;  249.125;    0.000
584.503; 5531.300;  219.125;    0.000
584.628; 5677.300;  243.125;    0.000
584.753; 5637.300;  250.125;    0.000
584.878; 5700.300;  208.125;    0.000
585.003; 5828.300;  234.125;    0.000
585.128; 5919.300;  207.125;    0.000
585.253; 6110.300;  219.125;    0.000
585.378; 6114.300;  205.125;    0.000
585.503; 6324.300;  256.125;    0.000
585.628; 6290.300;  217.125;    0.000
585.753; 6425.300;  213.125;    0.000
585.878; 6431.300;  147.125;    0.000
586.003; 6701.300;  256.125;    0.000
586.128; 6868.300;  214.125;    0.000
586.253; 7159.300;  254.125;    0.000
586.378; 7168.300;  252.125;    0.000
586.503; 7431.300;  219.125;    0.000
586.628; 7740.300;  226.125;    0.000
586.753; 7976.300;  237.125;    0.000
586.878; 8229.300;  185.125;    0.000
587.003; 8804.300;  248.125;    0.000
587.127; 8965.300;  237.125;    0.000
587.252; 9278.300;  221.125;    0.000
587.377; 9990.300;  244.125;    0.000
587.502;10518.300;  260.125;    0.000
587.627;11216.300;  232.125;    0.000
587.751;12010.300;  250.125;    0.000
587.876;13005.300;  234.125;    0.000
588.001;14201.300;  248.125;    0.000
588.125;15893.300;  236.125;    0.000
588.250;18044.301;  192.125;    0.000
588.375;20771.301;  265.125;    0.000
588.499;24364.301;  235.125;    0.000
588.624;30184.301;  212.125;    0.000
588.749;37852.301;  214.125;    0.000
588.873;49090.301;  236.125;    0.000
588.998;58955.301;  230.125;    0.000
589.122;59594.301;  231.125;    0.000
589.247;51460.301;  250.125;    0.000
589.372;46236.301;  247.125;    0.000
589.496;49895.301;  230.125;    0.000
589.621;55517.301;  237.125;    0.000
589.745;50743.301;  277.125;    0.000
589.870;40054.301;  283.125;    0.000
589.994;31580.301;  263.125;    0.000
590.118;26365.301;  239.125;    0.000
590.243;22392.301;  218.125;    0.000
590.367;19501.301;  226.125;    0.000
590.492;17323.301;  269.125;    0.000
590.616;15612.300;  205.125;    0.000
590.740;14454.300;  243.125;    0.000
590.865;13188.300;  281.125;    0.000
590.989;12378.300;  233.125;    0.000
591.114;11645.300;  222.125;    0.000
591.238;11002.300;  204.125;    0.000
591.362;10491.300;  283.125;    0.000
591.486;10068.300;  236.125;    0.000
591.611; 9597.300;  228.125;    0.000
591.735; 9300.300;  249.125;    0.000
591.859; 9073.300;  202.125;    0.000
591.983; 8733.300;  257.125;    0.000
592.107; 8336.300;  230.125;    0.000
592.232; 8302.300;  266.125;    0.000
592.356; 8058.300;  232.125;    0.000
592.480; 7960.300;  245.125;    0.000
592.604; 7746.300;  254.125;    0.000
592.728; 7542.300;  233.125;    0.000
592.852; 7433.300;  213.125;    0.000
592.976; 7313.300;  234.125;    0.000
593.100; 7262.300;  246.125;    0.000
593.224; 7077.300;  305.125;    0.000
593.349; 6891.300;  240.125;    0.000
593.473; 6800.300;  206.125;    0.000
593.597; 6784.300;  243.125;    0.000
593.721; 6805.300;  247.125;    0.000
593.844; 6524.300;  230.125;    0.000
593.968; 6573.300;  226.125;    0.000
594.092; 6394.300;  193.125;    0.000
594.216; 6358.300;  237.125;    0.000
594.340; 6232.300;  235.125;    0.000
594.464; 6156.300;  225.125;    0.000
594.588; 6182.300;  269.125;    0.000
594.712; 5967.300;  242.125;    0.000
594.836; 6015.300;  240.125;    0.000
594.959; 5792.300;  255.125;    0.000
595.083; 5764.300;  258.125;    0.000
595.207; 5631.300;  264.125;    0.000
595.331; 5567.300;  215.125;    0.000
595.455; 5579.300;  234.125;    0.000
595.578; 5438.300;  215.125;    0.000
595.702; 5432.300;  259.125;    0.000
595.826; 5355.300;  232.125;    0.000
595.949; 5359.300;  251.125;    0.000
596.073; 5213.300;  197.125;    0.000
596.197; 5201.300;  239.125;    0.000
596.320; 5122.300;  229.125;    0.000
596.444; 5081.300;  264.125;    0.000
596.568; 4947.300;  207.125;    0.000
596.691; 5098.300;  234.125;    0.000
596.815; 4992.300;  241.125;    0.000
596.938; 4857.300;  244.125;    0.000
597.062; 4846.300;  210.125;    0.000
597.186; 4757.300;  247.125;    0.000
597.309; 4751.300;  215.125;    0.000
597.433; 4800.300;  266.125;    0.000
597.556; 4748.300;  234.125;    0.000
597.680; 4689.300;  261.125;    0.000
597.803; 4672.300;  239.125;    0.000
597.926; 4615.300;  251.125;    0.000
598.050; 4612.300;  227.125;    0.000
598.173; 4632.300;  247.125;    0.000
598.297; 4494.300;  244.125;    0.000
598.420; 4664.300;  243.125;    0.000
598.543; 4655.300;  237.125;    0.000
598.667; 4466.300;  239.125;    0.000
598.790; 4510.300;  217.125;    0.000
598.913; 4529.300;  244.125;    0.000
599.037; 4522.300;  249.125;    0.000
599.160; 4383.300;  222.125;    0.000
599.283; 4517.300;  235.125;    0.000
599.406; 4375.300;  228.125;    0.000
599.530; 4370.300;  234.125;    0.000
599.653; 4413.300;  228.125;    0.000
599.776; 4303.300;  263.125;    0.000
599.899; 4362.300;  197.125;    0.000
600.022; 4305.300;  224.125;    0.000
600.145; 4241.300;  211.125;    0.000
600.269; 4346.300;  246.125;    0.000
600.392; 4365.300;  233.125;    0.000
600.515; 4207.300;  266.125;    0.000
600.638; 4248.300;  246.125;    0.000
600.761; 4282.300;  213.125;    0.000
600.884; 4223.300;  279.125;    0.000
601.007; 4110.300;  268.125;    0.000
601.130; 4087.300;  203.125;    0.000
601.253; 4140.300;  241.125;    0.000
601.376; 4147.300;  248.125;    0.000
601.499; 4165.300;  241.125;    0.000
601.622; 4081.300;  266.125;    0.000
601.745; 4083.300;  237.125;    0.000
601.868; 4118.300;  256.125;    0.000
601.991; 4071.300;  260.125;    0.000
602.113; 4118.300;  246.125;    0.000
602.236; 4078.300;  243.125;    0.000
602.359; 4091.300;  220.125;    0.000
602.482; 4043.300;  236.125;    0.000
602.605; 4067.300;  216.125;    0.000
602.728; 4047.300;  247.125;    0.000
602.850; 4093.300;  255.125;    0.000
602.973; 3987.300;  224.125;    0.000
603.096; 4031.300;  258.125;    0.000
603.219; 4041.300;  222.125;    0.000
603.341; 4017.300;  235.125;    0.000
603.464; 4092.300;  223.125;    0.000
603.587; 3999.300;  250.125;    0.000
603.709; 3953.300;  229.125;    0.000
603.832; 4014.300;  285.125;    0.000
603.955; 3972.300;  225.125;    0.000
604.077; 3974.300;  235.125;    0.000
604.200; 3929.300;  209.125;    0.000
604.323; 4042.300;  240.125;    0.000
604.445; 4039.300;  198.125;    0.000
604.568; 4000.300;  230.125;    0.000
604.690; 3949.300;  225.125;    0.000
604.813; 3974.300;  248.125;    0.000
604.935; 3971.300;  204.125;    0.000
605.058; 3927.300;  191.125;    0.000
605.180; 3942.300;  237.125;    0.000
605.303; 4026.300;  224.125;    0.000
605.425; 4031.300;  244.125;    0.000
605.547; 3893.300;  268.125;    0.000
605.670; 3791.300;  211.125;    0.000
605.792; 3871.300;  266.125;    0.000
605.915; 3795.300;  202.125;    0.000
606.037; 3929.300;  236.125;    0.000
606.159; 3896.300;  234.125;    0.000
606.282; 3949.300;  223.125;    0.000
606.404; 3951.300;  217.125;    0.000
606.526; 3833.300;  221.125;    0.000
606.648; 3728.300;  204.125;    0.000
606.771; 3900.300;  265.125;    0.000
606.893; 3780.300;  211.125;    0.000
607.015; 3849.300;  206.125;    0.000
607.137; 3906.300;  222.125;    0.000
607.260; 3854.300;  228.125;    0.000
607.382; 3860.300;  202.125;    0.000
607.504; 3882.300;  257.125;    0.000
607.626; 3820.300;  249.125;    0.000
607.748; 3721.300;  233.125;    0.000
607.870; 3763.300;  222.125;    0.000
607.992; 3742.300;  227.125;    0.000
608.114; 3875.300;  228.125;    0.000
608.237; 3808.300;  254.125;    0.000
608.359; 3790.300;  216.125;    0.000
608.481; 3723.300;  197.125;    0.000
608.603; 3713.300;  209.125;    0.000
608.725; 3725.300;  220.125;    0.000
608.847; 3848.300;  259.125;    0.000
608.969; 3765.300;  242.125;    0.000
609.090; 3793.300;  218.125;    0.000
609.212; 3690.300;  200.125;    0.000
609.334; 3750.300;  212.125;    0.000
609.456; 3804.300;  231.125;    0.000
609.578; 3766.300;  249.125;    0.000
609.700; 3770.300;  185.125;    0.000
609.822; 3621.300;  200.125;    0.000
609.944; 3809.300;  236.125;    0.000
610.065; 3722.300;  255.125;    0.000
610.187; 3711.300;  208.125;    0.000
610.309; 3721.300;  202.125;    0.000
610.431; 3674.300;  232.125;    0.000
610.552; 3766.300;  232.125;    0.000
610.674; 3705.300;  217.125;    0.000
610.796; 3865.300;  186.125;    0.000
610.918; 3672.300;  211.125;    0.000
611.039; 3703.300;  244.125;    0.000
611.161; 3739.300;  202.125;    0.000
611.282; 3722.300;  212.125;    0.000
611.404; 3864.300;  235.125;    0.000
611.526; 3724.300;  213.125;    0.000
611.647; 3771.300;  248.125;    0.000
611.769; 3619.300;  205.125;    0.000
611.890; 3589.300;  224.125;    0.000
612.012; 3668.300;  189.125;    0.000
612.133; 3598.300;  186.125;    0.000
612.255; 3663.300;  246.125;    0.000
612.377; 3679.300;  230.125;    0.000
612.498; 3714.300;  196.125;    0.000
612.619; 3636.300;  234.125;    0.000
612.741; 3643.300;  221.125;    0.000
612.862; 3725.300;  227.125;    0.000
612.984; 3579.300;  189.125;    0.000
613.105; 3659.300;  232.125;    0.000
613.226; 3590.300;  199.125;    0.000
613.348; 3715.300;  260.125;    0.000
613.469; 3664.300;  217.125;    0.000
613.590; 3605.300;  236.125;    0.000
613.712; 3497.300;  226.125;    0.000
613.833; 3781.300;  231.125;    0.000
613.954; 3609.300;  236.125;    0.000
614.076; 3652.300;  236.125;    0.000
614.197; 3612.300;  228.125;    0.000
614.318; 3610.300;  207.125;    0.000
614.439; 3624.300;  237.125;    0.000
614.560; 3626.300;  202.125;    0.000
614.682; 3624.300;  230.125;    0.000
614.803; 3550.300;  236.125;    0.000
614.924; 3613.300;  257.125;    0.000
615.045; 3728.300;  228.125;    0.000
615.166; 3739.300;  221.125;    0.000
615.287; 3792.300;  199.125;    0.000
615.408; 4191.300;  228.125;    0.000
615.529; 4236.300;  200.125;    0.000
615.650; 3976.300;  224.125;    0.000
615.771; 3895.300;  202.125;    0.000
615.892; 4028.300;  215.125;    0.000
616.013; 4555.300;  246.125;    0.000
616.134; 4896.300;  210.125;    0.000
616.255; 4664.300;  232.125;    0.000
616.376; 4109.300;  241.125;    0.000
616.497; 3910.300;  213.125;    0.000
616.618; 3955.300;  171.125;    0.000
616.739; 3970.300;  221.125;    0.000
616.860; 3774.300;  244.125;    0.000
616.981; 3808.300;  240.125;    0.000
617.102; 3779.300;  234.125;    0.000
617.222; 3769.300;  265.125;    0.000
617.343; 3669.300;  206.125;    0.000
617.464; 3681.300;  246.125;    0.000
617.585; 3604.300;  256.125;    0.000
617.705; 3751.300;  249.125;    0.000
617.826; 3658.300;  218.125;    0.000
617.947; 3646.300;  225.125;    0.000
618.068; 3636.300;  199.125;    0.000
618.188; 3668.300;  202.125;    0.000
618.309; 3691.300;  220.125;    0.000
618.430; 3631.300;  229.125;    0.000
618.550; 3667.300;  252.125;    0.000
618.671; 3560.300;  233.125;    0.000
618.791; 3616.300;  227.125;    0.000
618.912; 3655.300;  236.125;    0.000
619.033; 3517.300;  220.125;    0.000
619.153; 3657.300;  228.125;    0.000
619.274; 3568.300;  208.125;    0.000
619.394; 3600.300;  255.125;    0.000
619.515; 3543.300;  206.125;    0.000
619.635; 3512.300;  204.125;    0.000
619.756; 3486.300;  252.125;    0.000
619.876; 3628.300;  238.125;    0.000
619.996; 3506.300;  249.125;    0.000
620.117; 3661.300;  223.125;    0.000
620.237; 3478.300;  210.125;    0.000
620.358; 3561.300;  264.125;    0.000
620.478; 3532.300;  263.125;    0.000
620.598; 3505.300;  238.125;    0.000
620.719; 3616.300;  225.125;    0.000
620.839; 3493.300;  259.125;    0.000
620.959; 3418.300;  218.125;    0.000
621.079; 3480.300;  253.125;    0.000
621.200; 3464.300;  245.125;    0.000
621.320; 3488.300;  254.125;    0.000
621.440; 3388.300;  233.125;    0.000
621.560; 3407.300;  235.125;    0.000
621.681; 3378.300;  234.125;    0.000
621.801; 3510.300;  240.125;    0.000
621.921; 3492.300;  239.125;    0.000
622.041; 3582.300;  288.125;    0.000
622.161; 3385.300;  229.125;    0.000
622.281; 3447.300;  223.125;    0.000
622.401; 3421.300;  240.125;    0.000
622.521; 3472.300;  267.125;    0.000
622.641; 3437.300;  226.125;    0.000
622.761; 3428.300;  252.125;    0.000
622.882; 3401.300;  207.125;    0.000
623.002; 3432.300;  226.125;    0.000
623.121; 3338.300;  207.125;    0.000
623.241; 3356.300;  215.125;    0.000
623.361; 3338.300;  222.125;    0.000
623.481; 3366.300;  187.125;    0.000
623.601; 3436.300;  283.125;    0.000
623.721; 3371.300;  283.125;    0.000
623.841; 3346.300;  233.125;    0.000
623.961; 3457.300;  215.125;    0.000
624.081; 3335.300;  219.125;    0.000
624.201; 3388.300;  221.125;    0.000
624.320; 3325.300;  215.125;    0.000
624.440; 3293.300;  222.125;    0.000
624.560; 3420.300;  231.125;    0.000
624.680; 3319.300;  225.125;    0.000
624.799; 3300.300;  230.125;    0.000
624.919; 3324.300;  243.125;    0.000
625.039; 3280.300;  203.125;    0.000
625.159; 3354.300;  257.125;    0.000
625.278; 3281.300;  230.125;    0.000
625.398; 3342.300;  195.125;    0.000
625.518; 3246.300;  211.125;    0.000
625.637; 3278.300;  267.125;    0.000
625.757; 3397.300;  228.125;    0.000
625.876; 3262.300;  231.125;    0.000
625.996; 3249.300;  219.125;    0.000
626.115; 3239.300;  235.125;    0.000
626.235; 3303.300;  199.125;    0.000
626.354; 3242.300;  226.125;    0.000
626.474; 3251.300;  225.125;    0.000
626.594; 3318.300;  223.125;    0.000
626.713; 3395.300;  231.125;    0.000
626.832; 3357.300;  287.125;    0.000
626.952; 3223.300;  251.125;    0.000
627.071; 3161.300;  254.125;    0.000
627.191; 3315.300;  193.125;    0.000
627.310; 3257.300;  213.125;    0.000
627.429; 3354.300;  259.125;    0.000
627.549; 3363.300;  243.125;    0.000
627.668; 3264.300;  181.125;    0.000
627.787; 3301.300;  232.125;    0.000
627.907; 3306.300;  222.125;    0.000
628.026; 3293.300;  219.125;    0.000
628.145; 3211.300;  201.125;    0.000
628.264; 3204.300;  198.125;    0.000
628.384; 3256.300;  208.125;    0.000
628.503; 3259.300;  251.125;    0.000
628.622; 3224.300;  195.125;    0.000
628.741; 3305.300;  180.125;    0.000
628.860; 3314.300;  235.125;    0.000
628.980; 3260.300;  222.125;    0.000
629.099; 3359.300;  237.125;    0.000
629.218; 3186.300;  175.125;    0.000
629.337; 3298.300;  194.125;    0.000
629.456; 3261.300;  225.125;    0.000
629.575; 3286.300;  239.125;    0.000
629.694; 3241.300;  230.125;    0.000
629.813; 3233.300;  197.125;    0.000
629.932; 3213.300;  225.125;    0.000
630.051; 3236.300;  238.125;    0.000
630.170; 3271.300;  233.125;    0.000
630.289; 3118.300;  231.125;    0.000
630.408; 3100.300;  204.125;    0.000
630.527; 3178.300;  262.125;    0.000
630.646; 3278.300;  181.125;    0.000
630.764; 3197.300;  218.125;    0.000
630.883; 3181.300;  215.125;    0.000
631.002; 3234.300;  224.125;    0.000
631.121; 3263.300;  209.125;    0.000
631.240; 3199.300;  230.125;    0.000
631.359; 3266.300;  235.125;    0.000
631.477; 3246.300;  223.125;    0.000
631.596; 3299.300;  218.125;    0.000
631.715; 3169.300;  234.125;    0.000
631.834; 3247.300;  215.125;    0.000
631.952; 3193.300;  243.125;    0.000
632.071; 3221.300;  219.125;    0.000
632.190; 3239.300;  235.125;    0.000
632.308; 3120.300;  239.125;    0.000
632.427; 3139.300;  211.125;    0.000
632.546; 3172.300;  233.125;    0.000
632.664; 3090.300;  219.125;    0.000
632.783; 3213.300;  203.125;    0.000
632.901; 3228.300;  221.125;    0.000
633.020; 3163.300;  197.125;    0.000
633.138; 3166.300;  244.125;    0.000
633.257; 3267.300;  205.125;    0.000
633.375; 3150.300;  245.125;    0.000
633.494; 3232.300;  218.125;    0.000
633.612; 3251.300;  222.125;    0.000
633.731; 3229.300;  212.125;    0.000
633.849; 3117.300;  218.125;    0.000
633.968; 3123.300;  236.125;    0.000
634.086; 3142.300;  233.125;    0.000
634.204; 3075.300;  215.125;    0.000
634.323; 3196.300;  230.125;    0.000
634.441; 3238.300;  235.125;    0.000
634.559; 3121.300;  202.125;    0.000
634.678; 3131.300;  218.125;    0.000
634.796; 3079.300;  203.125;    0.000
634.914; 3202.300;  227.125;    0.000
635.032; 3097.300;  279.125;    0.000
635.151; 3124.300;  221.125;    0.000
635.269; 3221.300;  207.125;    0.000
635.387; 3253.300;  195.125;    0.000
635.505; 3139.300;  243.125;    0.000
635.623; 3102.300;  269.125;    0.000
635.742; 3184.300;  232.125;    0.000
635.860; 3108.300;  243.125;    0.000
635.978; 3166.300;  215.125;    0.000
636.096; 3049.300;  225.125;    0.000
636.214; 3111.300;  244.125;    0.000
636.332; 3084.300;  226.125;    0.000
636.450; 3066.300;  227.125;    0.000
636.568; 3123.300;  225.125;    0.000
636.686; 3076.300;  194.125;    0.000
636.804; 3057.300;  234.125;    0.000
636.922; 3000.300;  177.125;    0.000
637.040; 3079.300;  225.125;    0.000
637.158; 3065.300;  194.125;    0.000
637.276; 3140.300;  219.125;    0.000
637.394; 3058.300;  219.125;    0.000
637.512; 3080.300;  210.125;    0.000
637.629; 3089.300;  242.125;    0.000
637.747; 3116.300;  193.125;    0.000
637.865; 2992.300;  219.125;    0.000
637.983; 3023.300;  251.125;    0.000
638.101; 3120.300;  221.125;    0.000
638.218; 3060.300;  193.125;    0.000
638.336; 3030.300;  224.125;    0.000
638.454; 3132.300;  227.125;    0.000
638.572; 3079.300;  245.125;    0.000
638.689; 3066.300;  222.125;    0.000
638.807; 3096.300;  244.125;    0.000
638.925; 3085.300;  238.125;    0.000
639.042; 2988.300;  213.125;    0.000
639.160; 3047.300;  186.125;    0.000
639.278; 2935.300;  203.125;    0.000
639.395; 3108.300;  270.125;    0.000
639.513; 3092.300;  227.125;    0.000
639.630; 3032.300;  200.125;    0.000
639.748; 3011.300;  199.125;    0.000
639.865; 3067.300;  233.125;    0.000
639.983; 3066.300;  181.125;    0.000
640.100; 3030.300;  219.125;    0.000
640.218; 3106.300;  234.125;    0.000
640.335; 2989.300;  233.125;    0.000
640.453; 3051.300;  202.125;    0.000
640.570; 3117.300;  214.125;    0.000
640.688; 3035.300;  215.125;    0.000
640.805; 2967.300;  229.125;    0.000
640.922; 3054.300;  244.125;    0.000
641.040; 3023.300;  233.125;    0.000
641.157; 2968.300;  199.125;    0.000
641.274; 3087.300;  205.125;    0.000
641.391; 3055.300;  244.125;    0.000
641.509; 2981.300;  184.125;    0.000
641.626; 3069.300;  244.125;    0.000
641.743; 2992.300;  221.125;    0.000
641.860; 3025.300;  206.125;    0.000
641.978; 3051.300;  272.125;    0.000
642.095; 3012.300;  218.125;    0.000
642.212; 2964.300;  208.125;    0.000
642.329; 3036.300;  218.125;    0.000
642.446; 2920.300;  197.125;    0.000
642.563; 3077.300;  214.125;    0.000
642.681; 3050.300;  203.125;    0.000
642.798; 3006.300;  236.125;    0.000
642.915; 3072.300;  191.125;    0.000
643.032; 3058.300;  226.125;    0.000
643.149; 2980.300;  231.125;    0.000
643.266; 3109.300;  213.125;    0.000
643.383; 3091.300;  240.125;    0.000
643.500; 2944.300;  185.125;    0.000
643.617; 3031.300;  229.125;    0.000
643.734; 3092.300;  205.125;    0.000
643.850; 3006.300;  222.125;    0.000
643.967; 3079.300;  202.125;    0.000
644.084; 3038.300;  264.125;    0.000
644.201; 2989.300;  214.125;    0.000
644.318; 3092.300;  206.125;    0.000
644.435; 3039.300;  225.125;    0.000
644.552; 3165.300;  203.125;    0.000
644.668; 3075.300;  252.125;    0.000
644.785; 3098.300;  213.125;    0.000
644.902; 3064.300;  233.125;    0.000
645.019; 3095.300;  220.125;    0.000
645.135; 3154.300;  225.125;    0.000
645.252; 3097.300;  218.125;    0.000
645.369; 3081.300;  214.125;    0.000
645.485; 3158.300;  210.125;    0.000
645.602; 3063.300;  198.125;    0.000
645.719; 3073.300;  228.125;    0.000
645.835; 3130.300;  209.125;    0.000
645.952; 3086.300;  213.125;    0.000
646.068; 3139.300;  241.125;    0.000
646.185; 3141.300;  219.125;    0.000
646.302; 3184.300;  246.125;    0.000
646.418; 3233.300;  228.125;    0.000
646.535; 3119.300;  256.125;    0.000
646.651; 3249.300;  222.125;    0.000
646.768; 3108.300;  203.125;    0.000
646.884; 3268.300;  199.125;    0.000
647.000; 3242.300;  194.125;    0.000
647.117; 3203.300;  214.125;    0.000
647.233; 3212.300;  209.125;    0.000
647.350; 3254.300;  235.125;    0.000
647.466; 3330.300;  237.125;    0.000
647.582; 3323.300;  231.125;    0.000
647.699; 3291.300;  219.125;    0.000
647.815; 3250.300;  200.125;    0.000
647.931; 3209.300;  173.125;    0.000
648.047; 3399.300;  184.125;    0.000
648.164; 3433.300;  199.125;    0.000
648.280; 3287.300;  209.125;    0.000
648.396; 3311.300;  220.125;    0.000
648.512; 3382.300;  212.125;    0.000
648.629; 3345.300;  214.125;    0.000
648.745; 3340.300;  197.125;    0.000
648.861; 3413.300;  228.125;    0.000
648.977; 3337.300;  238.125;    0.000
649.093; 3357.300;  208.125;    0.000
649.209; 3414.300;  179.125;    0.000
649.325; 3430.300;  256.125;    0.000
649.441; 3448.300;  224.125;    0.000
649.557; 3396.300;  247.125;    0.000
649.673; 3360.300;  214.125;    0.000
649.789; 3427.300;  213.125;    0.000
649.905; 3403.300;  170.125;    0.000
650.021; 3474.300;  236.125;    0.000
650.137; 3408.300;  229.125;    0.000
650.253; 3406.300;  207.125;    0.000
650.369; 3379.300;  198.125;    0.000
650.485; 3393.300;  225.125;    0.000
650.601; 3507.300;  260.125;    0.000
650.717; 3472.300;  196.125;    0.000
650.833; 3461.300;  219.125;    0.000
650.948; 3555.300;  203.125;    0.000
651.064; 3600.300;  232.125;    0.000
651.180; 3681.300;  252.125;    0.000
651.296; 3588.300;  190.125;    0.000
651.411; 3520.300;  235.125;    0.000
651.527; 3659.300;  227.125;    0.000
651.643; 3566.300;  238.125;    0.000
651.759; 3676.300;  260.125;    0.000
651.874; 3676.300;  217.125;    0.000
651.990; 3654.300;  239.125;    0.000
652.105; 3709.300;  215.125;    0.000
652.221; 3785.300;  237.125;    0.000
652.337; 3660.300;  238.125;    0.000
652.452; 3824.300;  230.125;    0.000
652.568; 3745.300;  201.125;    0.000
652.683; 3840.300;  243.125;    0.000
652.799; 3758.300;  218.125;    0.000
652.914; 3738.300;  189.125;    0.000
653.030; 3918.300;  191.125;    0.000
653.145; 3886.300;  240.125;    0.000
653.261; 3968.300;  225.125;    0.000
653.376; 4063.300;  241.125;    0.000
653.492; 4023.300;  188.125;    0.000
653.607; 4159.300;  219.125;    0.000
653.722; 4163.300;  268.125;    0.000
653.838; 4224.300;  262.125;    0.000
653.953; 4263.300;  188.125;    0.000
654.068; 4305.300;  244.125;    0.000
654.184; 4445.300;  247.125;    0.000
654.299; 4463.300;  228.125;    0.000
654.414; 4508.300;  181.125;    0.000
654.530; 4691.300;  210.125;    0.000
654.645; 4682.300;  240.125;    0.000
654.760; 4810.300;  219.125;    0.000
654.875; 4897.300;  178.125;    0.000
654.990; 5150.300;  222.125;    0.000
655.106; 5243.300;  227.125;    0.000
655.221; 5279.300;  270.125;    0.000
655.336; 5305.300;  199.125;    0.000
655.451; 5464.300;  235.125;    0.000
655.566; 5741.300;  251.125;    0.000
655.681; 5887.300;  253.125;    0.000
655.796; 5993.300;  207.125;    0.000
655.911; 6366.300;  213.125;    0.000
656.026; 6630.300;  247.125;    0.000
656.141; 6968.300;  209.125;    0.000
656.256; 7171.300;  226.125;    0.000
656.371; 7140.300;  201.125;    0.000
656.486; 7091.300;  196.125;    0.000
656.601; 7029.300;  239.125;    0.000
656.716; 6842.300;  234.125;    0.000
656.831; 6623.300;  223.125;    0.000
656.946; 6670.300;  246.125;    0.000
657.060; 6301.300;  230.125;    0.000
657.175; 6282.300;  207.125;    0.000
657.290; 6089.300;  213.125;    0.000
657.405; 6005.300;  319.125;    0.000
657.520; 5735.300;  241.125;    0.000
657.634; 5738.300;  235.125;    0.000
657.749; 5681.300;  275.125;    0.000
657.864; 5356.300;  210.125;    0.000
657.979; 5288.300;  227.125;    0.000
658.093; 5157.300;  206.125;    0.000
658.208; 5097.300;  217.125;    0.000
658.323; 4990.300;  227.125;    0.000
658.437; 4976.300;  217.125;    0.000
658.552; 4738.300;  237.125;    0.000
658.666; 4766.300;  233.125;    0.000
658.781; 4698.300;  248.125;    0.000
658.895; 4669.300;  233.125;    0.000
659.010; 4620.300;  238.125;    0.000
659.125; 4441.300;  206.125;    0.000
659.239; 4541.300;  220.125;    0.000
659.353; 4343.300;  236.125;    0.000
659.468; 4364.300;  238.125;    0.000
659.582; 4308.300;  275.125;    0.000
659.697; 4226.300;  239.125;    0.000
659.811; 4204.300;  232.125;    0.000
659.926; 4159.300;  230.125;    0.000
660.040; 4130.300;  257.125;    0.000
660.154; 4064.300;  221.125;    0.000
660.269; 3963.300;  219.125;    0.000
660.383; 4012.300;  228.125;    0.000
660.497; 3961.300;  243.125;    0.000
660.612; 3971.300;  238.125;    0.000
660.726; 3926.300;  260.125;    0.000
660.840; 3937.300;  239.125;    0.000
660.954; 3822.300;  236.125;    0.000
661.068; 3796.300;  239.125;    0.000
661.183; 3787.300;  245.125;    0.000
661.297; 3685.300;  198.125;    0.000
661.411; 3620.300;  203.125;    0.000
661.525; 3633.300;  244.125;    0.000
661.639; 3516.300;  229.125;    0.000
661.753; 3483.300;  238.125;    0.000
661.867; 3576.300;  237.125;    0.000
661.981; 3498.300;  219.125;    0.000
662.095; 3486.300;  232.125;    0.000
662.209; 3514.300;  236.125;    0.000
662.323; 3395.300;  209.125;    0.000
662.437; 3368.300;  206.125;    0.000
662.551; 3299.300;  217.125;    0.000
662.665; 3419.300;  262.125;    0.000
662.779; 3255.300;  234.125;    0.000
662.893; 3245.300;  222.125;    0.000
663.007; 3210.300;  189.125;    0.000
663.121; 3199.300;  258.125;    0.000
663.235; 3301.300;  191.125;    0.000
663.349; 3107.300;  259.125;    0.000
663.462; 3122.300;  209.125;    0.000
663.576; 3129.300;  244.125;    0.000
663.690; 3161.300;  237.125;    0.000
663.804; 3092.300;  205.125;    0.000
663.917; 3119.300;  207.125;    0.000
664.031; 3045.300;  234.125;    0.000
664.145; 2998.300;  216.125;    0.000
664.258; 3032.300;  202.125;    0.000
664.372; 3002.300;  198.125;    0.000
664.486; 3061.300;  181.125;    0.000
664.599; 2922.300;  229.125;    0.000
664.713; 3001.300;  266.125;    0.000
664.827; 2998.300;  185.125;    0.000
664.940; 2917.300;  225.125;    0.000
665.054; 2954.300;  198.125;    0.000
665.167; 2955.300;  208.125;    0.000
665.281; 2948.300;  231.125;    0.000
665.394; 2853.300;  228.125;    0.000
665.508; 2906.300;  204.125;    0.000
665.621; 2927.300;  263.125;    0.000
665.735; 2955.300;  222.125;    0.000
665.848; 2930.300;  237.125;    0.000
665.961; 2834.300;  180.125;    0.000
666.075; 2827.300;  212.125;    0.000
666.188; 2901.300;  229.125;    0.000
666.301; 2841.300;  247.125;    0.000
666.415; 2849.300;  212.125;    0.000
666.528; 2807.300;  268.125;    0.000
666.641; 2713.300;  210.125;    0.000
666.755; 2668.300;  178.125;    0.000
666.868; 2776.300;  227.125;    0.000
666.981; 2796.300;  250.125;    0.000
667.094; 2781.300;  228.125;    0.000
667.207; 2664.300;  235.125;    0.000
667.321; 2692.300;  171.125;    0.000
667.434; 2676.300;  191.125;    0.000
667.547; 2748.300;  279.125;    0.000
667.660; 2710.300;  210.125;    0.000
667.773; 2698.300;  217.125;    0.000
667.886; 2640.300;  209.125;    0.000
667.999; 2758.300;  239.125;    0.000
668.112; 2616.300;  227.125;    0.000
668.225; 2633.300;  185.125;    0.000
668.338; 2607.300;  222.125;    0.000
668.451; 2646.300;  200.125;    0.000
668.564; 2599.300;  237.125;    0.000
668.677; 2560.300;  207.125;    0.000
668.790; 2684.300;  208.125;    0.000
668.903; 2617.300;  243.125;    0.000
669.016; 2561.300;  190.125;    0.000
669.129; 2655.300;  234.125;    0.000
669.242; 2506.300;  185.125;    0.000
669.354; 2556.300;  224.125;    0.000
669.467; 2598.300;  219.125;    0.000
669.580; 2618.300;  249.125;    0.000
669.693; 2547.300;  187.125;    0.000
669.806; 2531.300;  206.125;    0.000
669.918; 2458.300;  192.125;    0.000
670.031; 2587.300;  235.125;    0.000
670.144; 2501.300;  238.125;    0.000
670.256; 2517.300;  237.125;    0.000
670.369; 2495.300;  237.125;    0.000
670.482; 2447.300;  250.125;    0.000
670.594; 2537.300;  273.125;    0.000
670.707; 2562.300;  223.125;    0.000
670.820; 2490.300;  238.125;    0.000
670.932; 2461.300;  224.125;    0.000
671.045; 2457.300;  219.125;    0.000
671.157; 2516.300;  242.125;    0.000
671.270; 2429.300;  235.125;    0.000
671.382; 2429.300;  213.125;    0.000
671.495; 2534.300;  254.125;    0.000
671.607; 2380.300;  253.125;    0.000
671.720; 2420.300;  169.125;    0.000
671.832; 2370.300;  201.125;    0.000
671.944; 2430.300;  250.125;    0.000
672.057; 2411.300;  187.125;    0.000
672.169; 2432.300;  224.125;    0.000
672.281; 2410.300;  238.125;    0.000
672.394; 2359.300;  250.125;    0.000
672.506; 2439.300;  227.125;    0.000
672.618; 2389.300;  223.125;    0.000
672.731; 2440.300;  210.125;    0.000
672.843; 2471.300;  245.125;    0.000
672.955; 2425.300;  263.125;    0.000
673.067; 2427.300;  239.125;    0.000
673.180; 2374.300;  253.125;    0.000
673.292; 2354.300;  243.125;    0.000
673.404; 2455.300;  226.125;    0.000
673.516; 2380.300;  223.125;    0.000
673.628; 2397.300;  223.125;    0.000
673.740; 2371.300;  216.125;    0.000
673.852; 2415.300;  277.125;    0.000
673.964; 2417.300;  211.125;    0.000
674.076; 2454.300;  241.125;    0.000
674.188; 2430.300;  251.125;    0.000
674.300; 2443.300;  268.125;    0.000
674.412; 2337.300;  260.125;    0.000
674.524; 2408.300;  257.125;    0.000
674.636; 2333.300;  222.125;    0.000
674.748; 2323.300;  227.125;    0.000
674.860; 2411.300;  250.125;    0.000
674.972; 2364.300;  240.125;    0.000
675.084; 2352.300;  262.125;    0.000
675.196; 2348.300;  287.125;    0.000
675.307; 2235.300;  257.125;    0.000
675.419; 2287.300;  231.125;    0.000
675.531; 2420.300;  274.125;    0.000
675.643; 2330.300;  235.125;    0.000
675.755; 2320.300;  275.125;    0.000
675.866; 2279.300;  238.125;    0.000
675.978; 2269.300;  209.125;    0.000
676.090; 2260.300;  239.125;    0.000
676.201; 2279.300;  249.125;    0.000
676.313; 2256.300;  237.125;    0.000
676.425; 2303.300;  263.125;    0.000
676.536; 2286.300;  178.125;    0.000
676.648; 2250.300;  245.125;    0.000
676.759; 2265.300;  244.125;    0.000
676.871; 2268.300;  242.125;    0.000
676.983; 2281.300;  245.125;    0.000
677.094; 2281.300;  209.125;    0.000
677.206; 2233.300;  248.125;    0.000
677.317; 2316.300;  260.125;    0.000
677.429; 2238.300;  237.125;    0.000
677.540; 2244.300;  226.125;    0.000
677.651; 2188.300;  226.125;    0.000
677.763; 2236.300;  194.125;    0.000
677.874; 2200.300;  230.125;    0.000
677.986; 2191.300;  202.125;    0.000
678.097; 2098.300;  229.125;    0.000
678.208; 2280.300;  263.125;    0.000
678.320; 2168.300;  243.125;    0.000
678.431; 2200.300;  229.125;    0.000
678.542; 2151.300;  231.125;    0.000
678.653; 2255.300;  224.125;    0.000
678.765; 2202.300;  255.125;    0.000
678.876; 2224.300;  175.125;    0.000
678.987; 2226.300;  204.125;    0.000
679.098; 2189.300;  227.125;    0.000
679.209; 2177.300;  228.125;    0.000
679.320; 2197.300;  223.125;    0.000
679.432; 2152.300;  219.125;    0.000
679.543; 2135.300;  210.125;    0.000
679.654; 2170.300;  249.125;    0.000
679.765; 2142.300;  222.125;    0.000
679.876; 2168.300;  219.125;    0.000
679.987; 2146.300;  213.125;    0.000
680.098; 2167.300;  237.125;    0.000
680.209; 2141.300;  188.125;    0.000
680.320; 2227.300;  243.125;    0.000
680.431; 2068.300;  227.125;    0.000
680.542; 2137.300;  212.125;    0.000
680.653; 2215.300;  266.125;    0.000
680.763; 2092.300;  198.125;    0.000
680.874; 2113.300;  211.125;    0.000
680.985; 2108.300;  207.125;    0.000
681.096; 2112.300;  244.125;    0.000
681.207; 2161.300;  209.125;    0.000
681.318; 2160.300;  215.125;    0.000
681.428; 2102.300;  199.125;    0.000
681.539; 2168.300;  175.125;    0.000
681.650; 2114.300;  224.125;    0.000
681.760; 2072.300;  216.125;    0.000
681.871; 2034.300;  187.125;    0.000
681.982; 2053.300;  237.125;    0.000
682.093; 2084.300;  213.125;    0.000
682.203; 2097.300;  190.125;    0.000
682.314; 2032.300;  230.125;    0.000
682.424; 2119.300;  223.125;    0.000
682.535; 2050.300;  172.125;    0.000
682.646; 2158.300;  268.125;    0.000
682.756; 2074.300;  249.125;    0.000
682.867; 2196.300;  225.125;    0.000
682.977; 2171.300;  211.125;    0.000
683.088; 2107.300;  238.125;    0.000
683.198; 2071.300;  202.125;    0.000
683.308; 2071.300;  196.125;    0.000
683.419; 2088.300;  230.125;    0.000
683.529; 2099.300;  213.125;    0.000
683.640; 2159.300;  225.125;    0.000
683.750; 2067.300;  203.125;    0.000
683.860; 2049.300;  200.125;    0.000
683.971; 2102.300;  269.125;    0.000
684.081; 2025.300;  204.125;    0.000
684.191; 2045.300;  228.125;    0.000
684.301; 2045.300;  219.125;    0.000
684.412; 2088.300;  222.125;    0.000
684.522; 2099.300;  242.125;    0.000
684.632; 2132.300;  234.125;    0.000
684.742; 2034.300;  240.125;    0.000
684.852; 2080.300;  229.125;    0.000
684.963; 2060.300;  237.125;    0.000
685.073; 2013.300;  205.125;    0.000
685.183; 2114.300;  241.125;    0.000
685.293; 2061.300;  202.125;    0.000
685.403; 2086.300;  232.125;    0.000
685.513; 2090.300;  244.125;    0.000
685.623; 2068.300;  224.125;    0.000
685.733; 2027.300;  236.125;    0.000
685.843; 2072.300;  235.125;    0.000
685.953; 2167.300;  216.125;    0.000
686.063; 2091.300;  214.125;    0.000
686.173; 1980.300;  198.125;    0.000
686.283; 2037.300;  250.125;    0.000
686.393; 2062.300;  227.125;    0.000
686.503; 2085.300;  244.125;    0.000
686.612; 2031.300;  247.125;    0.000
686.722; 2068.300;  265.125;    0.000
686.832; 2062.300;  213.125;    0.000
686.942; 2093.300;  241.125;    0.000
687.052; 2058.300;  238.125;    0.000
687.161; 2085.300;  233.125;    0.000
687.271; 2072.300;  232.125;    0.000
687.381; 2087.300;  220.125;    0.000
687.491; 2108.300;  206.125;    0.000
687.600; 2081.300;  283.125;    0.000
687.710; 1990.300;  212.125;    0.000
687.820; 1996.300;  226.125;    0.000
687.929; 2095.300;  202.125;    0.000
688.039; 2010.300;  225.125;    0.000
688.148; 2018.300;  235.125;    0.000
688.258; 2029.300;  224.125;    0.000
688.367; 2032.300;  239.125;    0.000
688.477; 2027.300;  193.125;    0.000
688.586; 1955.300;  226.125;    0.000
688.696; 2045.300;  185.125;    0.000
688.805; 1978.300;  190.125;    0.000
688.915; 2046.300;  209.125;    0.000
689.024; 2049.300;  214.125;    0.000
689.134; 2029.300;  205.125;    0.000
689.243; 2000.300;  190.125;    0.000
689.352; 2073.300;  233.125;    0.000
689.462; 1977.300;  196.125;    0.000
689.571; 1996.300;  227.125;    0.000
689.680; 2014.300;  206.125;    0.000
689.790; 2010.300;  193.125;    0.000
689.899; 1982.300;  204.125;    0.000
690.008; 1950.300;  228.125;    0.000
690.117; 2042.300;  207.125;    0.000
690.227; 1955.300;  231.125;    0.000
690.336; 1929.300;  222.125;    0.000
690.445; 1907.300;  198.125;    0.000
690.554; 1933.300;  202.125;    0.000
690.663; 2005.300;  217.125;    0.000
690.772; 1985.300;  213.125;    0.000
690.881; 2086.300;  225.125;    0.000
690.990; 1977.300;  217.125;    0.000
691.099; 1958.300;  205.125;    0.000
691.209; 1966.300;  220.125;    0.000
691.318; 1990.300;  216.125;    0.000
691.427; 2007.300;  188.125;    0.000
691.536; 2016.300;  224.125;    0.000
691.644; 1985.300;  212.125;    0.000
691.753; 1947.300;  216.125;    0.000
691.862; 1975.300;  250.125;    0.000
691.971; 1971.300;  210.125;    0.000
692.080; 2016.300;  232.125;    0.000
692.189; 2012.300;  218.125;    0.000
692.298; 1985.300;  220.125;    0.000
692.406; 1943.300;  261.125;    0.000
692.515; 2023.300;  253.125;    0.000
692.624; 1958.300;  224.125;    0.000
692.733; 1916.300;  209.125;    0.000
692.842; 1962.300;  214.125;    0.000
692.950; 1917.300;  206.125;    0.000
693.059; 1939.300;  180.125;    0.000
693.168; 1977.300;  220.125;    0.000
693.276; 1992.300;  196.125;    0.000
693.385; 2011.300;  203.125;    0.000
693.494; 1972.300;  263.125;    0.000
693.602; 1983.300;  222.125;    0.000
693.711; 1936.300;  178.125;    0.000
693.819; 1954.300;  230.125;    0.000
693.928; 2005.300;  187.125;    0.000
694.036; 2044.300;  219.125;    0.000
694.145; 1943.300;  223.125;    0.000
694.253; 2004.300;  241.125;    0.000
694.362; 1969.300;  229.125;    0.000
694.470; 1980.300;  223.125;    0.000
694.579; 1984.300;  195.125;    0.000
694.687; 1965.300;  257.125;    0.000
694.795; 1988.300;  230.125;    0.000
694.904; 1924.300;  196.125;    0.000
695.012; 1936.300;  247.125;    0.000
695.120; 1916.300;  215.125;    0.000
695.229; 2070.300;  244.125;    0.000
695.337; 2008.300;  197.125;    0.000
695.445; 2020.300;  270.125;    0.000
695.553; 2008.300;  241.125;    0.000
695.662; 1926.300;  249.125;    0.000
695.770; 1931.300;  244.125;    0.000
695.878; 1962.300;  236.125;    0.000
695.986; 1932.300;  253.125;    0.000
696.094; 1932.300;  242.125;    0.000
696.202; 1917.300;  174.125;    0.000
696.310; 1937.300;  230.125;    0.000
696.419; 1851.300;  218.125;    0.000
696.527; 1962.300;  226.125;    0.000
696.635; 1942.300;  217.125;    0.000
696.743; 1946.300;  221.125;    0.000
696.851; 2040.300;  259.125;    0.000
696.959; 1983.300;  245.125;    0.000
697.067; 1987.300;  235.125;    0.000
697.174; 1947.300;  238.125;    0.000
697.282; 1911.300;  208.125;    0.000
697.390; 2038.300;  265.125;    0.000
697.498; 1995.300;  202.125;    0.000
697.606; 1937.300;  219.125;    0.000
697.714; 1919.300;  245.125;    0.000
697.822; 2019.300;  222.125;    0.000
697.929; 1953.300;  194.125;    0.000
698.037; 1901.300;  223.125;    0.000
698.145; 2008.300;  213.125;    0.000
698.253; 1949.300;  234.125;    0.000
698.360; 1997.300;  211.125;    0.000
698.468; 1936.300;  241.125;    0.000
698.576; 1972.300;  249.125;    0.000
698.683; 1990.300;  268.125;    0.000
698.791; 1984.300;  223.125;    0.000
698.899; 1956.300;  251.125;    0.000
699.006; 1936.300;  216.125;    0.000
699.114; 1906.300;  256.125;    0.000
699.221; 1893.300;  226.125;    0.000
699.329; 1910.300;  255.125;    0.000
699.436; 1914.300;  213.125;    0.000
699.544; 1920.300;  258.125;    0.000
699.651; 1951.300;  214.125;    0.000
699.759; 1954.300;  229.125;    0.000
699.866; 1979.300;  239.125;    0.000
699.974; 1869.300;  224.125;    0.000
700.081; 1970.300;  227.125;    0.000
700.188; 1983.300;  267.125;    0.000
700.296; 1911.300;  222.125;    0.000
700.403; 1961.300;  225.125;    0.000
700.510; 1924.300;  248.125;    0.000
700.618; 1919.300;  223.125;    0.000
700.725; 1943.300;  243.125;    0.000
700.832; 1867.300;  239.125;    0.000
700.940; 1934.300;  284.125;    0.000
701.047; 1936.300;  216.125;    0.000
701.154; 1931.300;  249.125;    0.000
701.261; 1919.300;  229.125;    0.000
701.368; 1957.300;  247.125;    0.000
701.475; 1905.300;  208.125;    0.000
701.582; 1942.300;  262.125;    0.000
701.690; 1925.300;  224.125;    0.000
701.797; 1947.300;  294.125;    0.000
701.904; 2014.300;  303.125;    0.000
702.011; 1950.300;  278.125;    0.000
702.118; 1951.300;  279.125;    0.000
702.225; 1980.300;  342.125;    0.000
702.332; 1965.300;  281.125;    0.000
702.439; 2035.300;  313.125;    0.000
702.546; 1951.300;  295.125;    0.000
702.652; 1953.300;  293.125;    0.000
702.759; 1976.300;  333.125;    0.000
702.866; 1992.300;  272.125;    0.000
702.973; 1999.300;  310.125;    0.000
703.080; 2001.300;  313.125;    0.000
703.187; 1952.300;  316.125;    0.000
703.294; 1982.300;  328.125;    0.000
703.400; 1828.300;  312.125;    0.000
703.507;  511.300;  349.125;    0.000
703.614;  314.300;  298.125;    0.000
703.720;  322.300;  300.125;    0.000
703.827;  329.300;  346.125;    0.000
703.934;  346.300;  308.125;    0.000
704.040;  291.300;  300.125;    0.000
704.147;  337.300;  317.125;    0.000
704.254;  355.300;  350.125;    0.000
704.360;  304.300;  285.125;    0.000
704.467;  347.300;  334.125;    0.000
704.573;  329.300;  330.125;    0.000
704.680;  312.300;  312.125;    0.000
704.786;  315.300;  305.125;    0.000
704.893;  308.300;  330.125;    0.000
704.999;  327.300;  315.125;    0.000
705.106;  368.300;  327.125;    0.000

