
Integration time [ms]:   0.300
Averaging Nr. [scans]: 1
Smoothing Nr. [pixels]: 0
Data measured with spectrometer [name]: UV2
Wave   ;Sample   ;Dark     ;Reference
[nm]   ;[counts] ;[counts] ;[counts] 

353.533;  191.700;  178.050;    0.000
353.597;  233.700;  251.050;    0.000
353.660;  195.700;  213.050;    0.000
353.723;  219.700;  185.050;    0.000
353.786;  181.700;  191.050;    0.000
353.850;  247.700;  238.050;    0.000
353.913;  212.700;  181.050;    0.000
353.976;  207.700;  190.050;    0.000
354.039;  193.700;  184.050;    0.000
354.102;  226.700;  231.050;    0.000
354.166;  199.700;  188.050;    0.000
354.229;  213.700;  224.050;    0.000
354.292;  175.700;  186.050;    0.000
354.355;  228.700;  175.050;    0.000
354.418;  178.700;  191.050;    0.000
354.481;  197.700;  181.050;    0.000
354.545;  694.700;  193.050;    0.000
354.608;  797.700;  210.050;    0.000
354.671;  717.700;  183.050;    0.000
354.734;  786.700;  189.050;    0.000
354.797;  762.700;  168.050;    0.000
354.860;  806.700;  178.050;    0.000
354.923;  814.700;  236.050;    0.000
354.986;  768.700;  181.050;    0.000
355.050;  870.700;  168.050;    0.000
355.113;  838.700;  201.050;    0.000
355.176;  818.700;  206.050;    0.000
355.239;  890.700;  213.050;    0.000
355.302;  853.700;  198.050;    0.000
355.365;  908.700;  199.050;    0.000
355.428;  940.700;  200.050;    0.000
355.491;  912.700;  232.050;    0.000
355.554;  862.700;  184.050;    0.000
355.617;  914.700;  214.050;    0.000
355.680;  951.700;  191.050;    0.000
355.743;  893.700;  161.050;    0.000
355.806;  933.700;  153.050;    0.000
355.869; 1004.700;  221.050;    0.000
355.932;  924.700;  152.050;    0.000
355.995;  957.700;  195.050;    0.000
356.058;  982.700;  172.050;    0.000
356.121;  990.700;  186.050;    0.000
356.184; 1045.700;  196.050;    0.000
356.247;  993.700;  183.050;    0.000
356.310;  990.700;  159.050;    0.000
356.373;  940.700;  183.050;    0.000
356.436; 1042.700;  176.050;    0.000
356.498;  978.700;  191.050;    0.000
356.561; 1012.700;  145.050;    0.000
356.624;  994.700;  187.050;    0.000
356.687; 1045.700;  181.050;    0.000
356.750; 1048.700;  227.050;    0.000
356.813; 1124.700;  147.050;    0.000
356.876; 1007.700;  184.050;    0.000
356.939; 1044.700;  141.050;    0.000
357.001; 1068.700;  188.050;    0.000
357.064; 1045.700;  173.050;    0.000
357.127; 1045.700;  159.050;    0.000
357.190; 1057.700;  185.050;    0.000
357.253; 1077.700;  180.050;    0.000
357.316; 1075.700;  199.050;    0.000
357.378; 1038.700;  196.050;    0.000
357.441; 1108.700;  175.050;    0.000
357.504; 1072.700;  164.050;    0.000
357.567; 1010.700;  145.050;    0.000
357.629; 1097.700;  205.050;    0.000
357.692; 1050.700;  175.050;    0.000
357.755; 1071.700;  205.050;    0.000
357.818; 1001.700;  141.050;    0.000
357.880; 1062.700;  170.050;    0.000
357.943; 1054.700;  152.050;    0.000
358.006; 1038.700;  145.050;    0.000
358.069; 1085.700;  164.050;    0.000
358.131; 1074.700;  148.050;    0.000
358.194; 1076.700;  122.050;    0.000
358.257; 1068.700;  147.050;    0.000
358.319; 1082.700;  156.050;    0.000
358.382; 1118.700;  193.050;    0.000
358.445; 1068.700;  155.050;    0.000
358.507; 1067.700;  160.050;    0.000
358.570; 1167.700;  159.050;    0.000
358.633; 1094.700;  163.050;    0.000
358.695; 1144.700;  174.050;    0.000
358.758; 1145.700;  127.050;    0.000
358.821; 1151.700;  165.050;    0.000
358.883; 1073.700;  145.050;    0.000
358.946; 1154.700;  127.050;    0.000
359.008; 1135.700;  180.050;    0.000
359.071; 1088.700;  173.050;    0.000
359.134; 1163.700;  150.050;    0.000
359.196; 1162.700;  158.050;    0.000
359.259; 1134.700;  159.050;    0.000
359.321; 1115.700;  159.050;    0.000
359.384; 1173.700;  182.050;    0.000
359.446; 1161.700;  140.050;    0.000
359.509; 1158.700;  146.050;    0.000
359.571; 1184.700;  133.050;    0.000
359.634; 1131.700;   93.050;    0.000
359.696; 1114.700;  142.050;    0.000
359.759; 1152.700;  161.050;    0.000
359.821; 1126.700;  110.050;    0.000
359.884; 1163.700;  114.050;    0.000
359.946; 1191.700;  180.050;    0.000
360.009; 1220.700;  158.050;    0.000
360.071; 1169.700;  116.050;    0.000
360.134; 1172.700;  170.050;    0.000
360.196; 1187.700;  128.050;    0.000
360.259; 1199.700;  157.050;    0.000
360.321; 1249.700;  122.050;    0.000
360.384; 1194.700;  119.050;    0.000
360.446; 1191.700;  122.050;    0.000
360.508; 1199.700;  195.050;    0.000
360.571; 1135.700;  128.050;    0.000
360.633; 1244.700;  172.050;    0.000
360.696; 1222.700;  115.050;    0.000
360.758; 1261.700;  162.050;    0.000
360.820; 1237.700;  149.050;    0.000
360.883; 1223.700;  151.050;    0.000
360.945; 1211.700;  149.050;    0.000
361.007; 1208.700;  135.050;    0.000
361.070; 1202.700;  162.050;    0.000
361.132; 1290.700;  198.050;    0.000
361.194; 1227.700;  141.050;    0.000
361.257; 1203.700;  154.050;    0.000
361.319; 1197.700;  147.050;    0.000
361.381; 1296.700;  154.050;    0.000
361.443; 1232.700;  144.050;    0.000
361.506; 1189.700;  164.050;    0.000
361.568; 1225.700;  148.050;    0.000
361.630; 1288.700;  127.050;    0.000
361.693; 1251.700;  158.050;    0.000
361.755; 1263.700;  161.050;    0.000
361.817; 1330.700;  173.050;    0.000
361.879; 1244.700;  159.050;    0.000
361.941; 1295.700;  153.050;    0.000
362.004; 1241.700;  148.050;    0.000
362.066; 1287.700;  150.050;    0.000
362.128; 1252.700;  132.050;    0.000
362.190; 1263.700;  207.050;    0.000
362.252; 1231.700;  142.050;    0.000
362.315; 1376.700;  153.050;    0.000
362.377; 1299.700;  164.050;    0.000
362.439; 1311.700;  155.050;    0.000
362.501; 1259.700;  157.050;    0.000
362.563; 1229.700;  188.050;    0.000
362.625; 1295.700;  194.050;    0.000
362.688; 1305.700;  159.050;    0.000
362.750; 1301.700;  205.050;    0.000
362.812; 1321.700;  148.050;    0.000
362.874; 1282.700;  173.050;    0.000
362.936; 1311.700;  152.050;    0.000
362.998; 1278.700;  145.050;    0.000
363.060; 1304.700;  184.050;    0.000
363.122; 1352.700;  147.050;    0.000
363.184; 1356.700;  136.050;    0.000
363.246; 1321.700;  171.050;    0.000
363.308; 1270.700;  154.050;    0.000
363.370; 1353.700;  175.050;    0.000
363.432; 1365.700;  139.050;    0.000
363.494; 1305.700;  163.050;    0.000
363.556; 1276.700;  117.050;    0.000
363.618; 1370.700;  126.050;    0.000
363.680; 1394.700;  147.050;    0.000
363.742; 1338.700;  161.050;    0.000
363.804; 1342.700;  159.050;    0.000
363.866; 1333.700;  170.050;    0.000
363.928; 1340.700;  122.050;    0.000
363.990; 1350.700;  167.050;    0.000
364.052; 1324.700;  180.050;    0.000
364.114; 1282.700;  119.050;    0.000
364.176; 1344.700;  184.050;    0.000
364.238; 1321.700;  180.050;    0.000
364.300; 1392.700;  159.050;    0.000
364.362; 1333.700;  163.050;    0.000
364.424; 1304.700;  139.050;    0.000
364.486; 1349.700;  189.050;    0.000
364.548; 1376.700;  167.050;    0.000
364.609; 1371.700;  165.050;    0.000
364.671; 1380.700;  171.050;    0.000
364.733; 1383.700;  165.050;    0.000
364.795; 1390.700;  122.050;    0.000
364.857; 1325.700;  147.050;    0.000
364.919; 1307.700;  104.050;    0.000
364.981; 1333.700;  143.050;    0.000
365.042; 1361.700;  166.050;    0.000
365.104; 1328.700;  162.050;    0.000
365.166; 1306.700;  155.050;    0.000
365.228; 1337.700;  179.050;    0.000
365.290; 1352.700;  133.050;    0.000
365.351; 1298.700;  142.050;    0.000
365.413; 1311.700;  144.050;    0.000
365.475; 1416.700;  139.050;    0.000
365.537; 1288.700;  181.050;    0.000
365.598; 1375.700;  166.050;    0.000
365.660; 1348.700;  130.050;    0.000
365.722; 1359.700;  177.050;    0.000
365.784; 1439.700;  149.050;    0.000
365.845; 1359.700;  156.050;    0.000
365.907; 1311.700;  122.050;    0.000
365.969; 1421.700;  140.050;    0.000
366.030; 1431.700;  156.050;    0.000
366.092; 1397.700;  140.050;    0.000
366.154; 1411.700;  169.050;    0.000
366.215; 1459.700;  170.050;    0.000
366.277; 1410.700;  143.050;    0.000
366.339; 1389.700;  139.050;    0.000
366.400; 1358.700;  139.050;    0.000
366.462; 1425.700;  140.050;    0.000
366.524; 1413.700;  150.050;    0.000
366.585; 1298.700;  163.050;    0.000
366.647; 1366.700;  193.050;    0.000
366.708; 1342.700;  135.050;    0.000
366.770; 1444.700;  165.050;    0.000
366.832; 1498.700;  168.050;    0.000
366.893; 1408.700;  157.050;    0.000
366.955; 1386.700;  132.050;    0.000
367.016; 1410.700;  127.050;    0.000
367.078; 1437.700;  146.050;    0.000
367.139; 1362.700;  129.050;    0.000
367.201; 1465.700;  148.050;    0.000
367.262; 1382.700;  165.050;    0.000
367.324; 1420.700;  171.050;    0.000
367.385; 1434.700;  118.050;    0.000
367.447; 1468.700;  144.050;    0.000
367.508; 1472.700;  135.050;    0.000
367.570; 1414.700;  160.050;    0.000
367.631; 1381.700;  157.050;    0.000
367.693; 1460.700;  168.050;    0.000
367.754; 1419.700;  139.050;    0.000
367.816; 1445.700;  141.050;    0.000
367.877; 1490.700;  195.050;    0.000
367.939; 1446.700;  166.050;    0.000
368.000; 1469.700;  127.050;    0.000
368.062; 1485.700;  143.050;    0.000
368.123; 1416.700;  156.050;    0.000
368.184; 1438.700;  179.050;    0.000
368.246; 1428.700;  168.050;    0.000
368.307; 1424.700;  203.050;    0.000
368.369; 1406.700;  149.050;    0.000
368.430; 1423.700;  121.050;    0.000
368.491; 1378.700;  131.050;    0.000
368.553; 1453.700;  161.050;    0.000
368.614; 1453.700;  157.050;    0.000
368.675; 1404.700;  152.050;    0.000
368.737; 1465.700;  168.050;    0.000
368.798; 1428.700;  147.050;    0.000
368.859; 1490.700;  174.050;    0.000
368.921; 1450.700;  168.050;    0.000
368.982; 1499.700;  151.050;    0.000
369.043; 1478.700;  169.050;    0.000
369.104; 1427.700;  149.050;    0.000
369.166; 1470.700;  178.050;    0.000
369.227; 1408.700;  149.050;    0.000
369.288; 1495.700;  131.050;    0.000
369.349; 1486.700;  128.050;    0.000
369.411; 1465.700;  198.050;    0.000
369.472; 1572.700;  156.050;    0.000
369.533; 1509.700;  142.050;    0.000
369.594; 1507.700;  125.050;    0.000
369.656; 1518.700;  153.050;    0.000
369.717; 1458.700;  124.050;    0.000
369.778; 1509.700;  163.050;    0.000
369.839; 1472.700;  130.050;    0.000
369.900; 1521.700;  170.050;    0.000
369.961; 1496.700;  142.050;    0.000
370.023; 1548.700;  197.050;    0.000
370.084; 1534.700;  151.050;    0.000
370.145; 1507.700;  128.050;    0.000
370.206; 1472.700;  152.050;    0.000
370.267; 1493.700;  154.050;    0.000
370.328; 1481.700;  154.050;    0.000
370.389; 1450.700;  173.050;    0.000
370.451; 1499.700;  191.050;    0.000
370.512; 1487.700;  155.050;    0.000
370.573; 1572.700;  134.050;    0.000
370.634; 1566.700;  160.050;    0.000
370.695; 1506.700;  124.050;    0.000
370.756; 1555.700;  169.050;    0.000
370.817; 1517.700;  169.050;    0.000
370.878; 1489.700;  200.050;    0.000
370.939; 1484.700;  157.050;    0.000
371.000; 1544.700;  131.050;    0.000
371.061; 1525.700;  136.050;    0.000
371.122; 1600.700;  176.050;    0.000
371.183; 1528.700;   81.050;    0.000
371.244; 1529.700;  156.050;    0.000
371.305; 1563.700;  131.050;    0.000
371.366; 1518.700;  161.050;    0.000
371.427; 1461.700;  127.050;    0.000
371.488; 1509.700;  184.050;    0.000
371.549; 1530.700;  159.050;    0.000
371.610; 1497.700;  147.050;    0.000
371.671; 1488.700;  132.050;    0.000
371.732; 1524.700;  163.050;    0.000
371.793; 1572.700;  179.050;    0.000
371.853; 1548.700;  179.050;    0.000
371.914; 1536.700;  149.050;    0.000
371.975; 1547.700;  117.050;    0.000
372.036; 1503.700;  141.050;    0.000
372.097; 1585.700;  101.050;    0.000
372.158; 1509.700;  115.050;    0.000
372.219; 1517.700;  174.050;    0.000
372.280; 1549.700;  134.050;    0.000
372.340; 1587.700;  180.050;    0.000
372.401; 1554.700;  166.050;    0.000
372.462; 1542.700;  171.050;    0.000
372.523; 1590.700;  132.050;    0.000
372.584; 1562.700;  182.050;    0.000
372.645; 1537.700;  149.050;    0.000
372.705; 1580.700;  182.050;    0.000
372.766; 1606.700;  145.050;    0.000
372.827; 1484.700;  161.050;    0.000
372.888; 1634.700;  156.050;    0.000
372.948; 1602.700;  158.050;    0.000
373.009; 1623.700;  178.050;    0.000
373.070; 1548.700;  166.050;    0.000
373.131; 1507.700;  154.050;    0.000
373.191; 1638.700;  193.050;    0.000
373.252; 1630.700;  148.050;    0.000
373.313; 1529.700;  152.050;    0.000
373.373; 1605.700;  156.050;    0.000
373.434; 1623.700;  166.050;    0.000
373.495; 1548.700;  152.050;    0.000
373.555; 1584.700;  145.050;    0.000
373.616; 1566.700;  141.050;    0.000
373.677; 1584.700;  169.050;    0.000
373.737; 1553.700;  166.050;    0.000
373.798; 1581.700;  151.050;    0.000
373.859; 1543.700;  170.050;    0.000
373.919; 1590.700;  206.050;    0.000
373.980; 1609.700;  140.050;    0.000
374.041; 1572.700;  148.050;    0.000
374.101; 1610.700;  165.050;    0.000
374.162; 1627.700;  166.050;    0.000
374.222; 1548.700;  156.050;    0.000
374.283; 1650.700;  161.050;    0.000
374.343; 1641.700;  185.050;    0.000
374.404; 1576.700;  148.050;    0.000
374.465; 1591.700;  162.050;    0.000
374.525; 1583.700;  177.050;    0.000
374.586; 1640.700;  164.050;    0.000
374.646; 1648.700;  180.050;    0.000
374.707; 1645.700;  203.050;    0.000
374.767; 1667.700;  148.050;    0.000
374.828; 1635.700;  142.050;    0.000
374.888; 1687.700;  187.050;    0.000
374.949; 1679.700;  137.050;    0.000
375.009; 1682.700;  155.050;    0.000
375.070; 1687.700;  165.050;    0.000
375.130; 1753.700;  168.050;    0.000
375.190; 1769.700;  157.050;    0.000
375.251; 1745.700;  206.050;    0.000
375.311; 1662.700;  141.050;    0.000
375.372; 1661.700;  144.050;    0.000
375.432; 1686.700;  153.050;    0.000
375.493; 1652.700;  168.050;    0.000
375.553; 1650.700;  146.050;    0.000
375.613; 1606.700;  142.050;    0.000
375.674; 1740.700;  153.050;    0.000
375.734; 1702.700;  166.050;    0.000
375.794; 1651.700;  145.050;    0.000
375.855; 1656.700;  162.050;    0.000
375.915; 1698.700;  162.050;    0.000
375.975; 1685.700;  144.050;    0.000
376.036; 1680.700;  128.050;    0.000
376.096; 1709.700;  122.050;    0.000
376.156; 1657.700;  140.050;    0.000
376.217; 1748.700;  158.050;    0.000
376.277; 1666.700;  163.050;    0.000
376.337; 1643.700;  139.050;    0.000
376.398; 1670.700;  176.050;    0.000
376.458; 1732.700;  143.050;    0.000
376.518; 1625.700;  136.050;    0.000
376.578; 1684.700;  177.050;    0.000
376.639; 1749.700;  163.050;    0.000
376.699; 1642.700;  183.050;    0.000
376.759; 1725.700;  169.050;    0.000
376.819; 1728.700;  147.050;    0.000
376.880; 1701.700;  188.050;    0.000
376.940; 1790.700;  185.050;    0.000
377.000; 1606.700;  131.050;    0.000
377.060; 1730.700;  182.050;    0.000
377.120; 1723.700;  165.050;    0.000
377.180; 1706.700;  169.050;    0.000
377.241; 1670.700;  146.050;    0.000
377.301; 1840.700;  183.050;    0.000
377.361; 1666.700;  124.050;    0.000
377.421; 1705.700;  186.050;    0.000
377.481; 1702.700;  178.050;    0.000
377.541; 1830.700;  140.050;    0.000
377.601; 1801.700;  175.050;    0.000
377.661; 1772.700;  169.050;    0.000
377.722; 1780.700;  144.050;    0.000
377.782; 1760.700;  182.050;    0.000
377.842; 1792.700;  161.050;    0.000
377.902; 1860.700;  151.050;    0.000
377.962; 1759.700;  134.050;    0.000
378.022; 1705.700;  153.050;    0.000
378.082; 1771.700;  178.050;    0.000
378.142; 1859.700;  118.050;    0.000
378.202; 1813.700;  153.050;    0.000
378.262; 1769.700;  166.050;    0.000
378.322; 1772.700;  174.050;    0.000
378.382; 1797.700;  148.050;    0.000
378.442; 1831.700;  190.050;    0.000
378.502; 1778.700;  136.050;    0.000
378.562; 1786.700;  130.050;    0.000
378.622; 1925.700;  188.050;    0.000
378.682; 1910.700;  163.050;    0.000
378.742; 1893.700;  150.050;    0.000
378.802; 1788.700;  127.050;    0.000
378.862; 1942.700;  186.050;    0.000
378.921; 1902.700;  203.050;    0.000
378.981; 1884.700;  177.050;    0.000
379.041; 1916.700;  134.050;    0.000
379.101; 1967.700;  167.050;    0.000
379.161; 1846.700;  130.050;    0.000
379.221; 1930.700;  169.050;    0.000
379.281; 1893.700;  162.050;    0.000
379.341; 1891.700;  134.050;    0.000
379.401; 1933.700;  151.050;    0.000
379.460; 1970.700;  190.050;    0.000
379.520; 1890.700;  158.050;    0.000
379.580; 1900.700;  162.050;    0.000
379.640; 1917.700;  146.050;    0.000
379.700; 1970.700;  167.050;    0.000
379.759; 2096.700;  194.050;    0.000
379.819; 1980.700;  176.050;    0.000
379.879; 1893.700;  140.050;    0.000
379.939; 2032.700;  184.050;    0.000
379.999; 1986.700;  165.050;    0.000
380.058; 2013.700;  194.050;    0.000
380.118; 1987.700;  137.050;    0.000
380.178; 1978.700;  139.050;    0.000
380.237; 2045.700;  139.050;    0.000
380.297; 2090.700;  160.050;    0.000
380.357; 2052.700;  194.050;    0.000
380.417; 2079.700;  174.050;    0.000
380.476; 2108.700;  153.050;    0.000
380.536; 2080.700;  169.050;    0.000
380.596; 2032.700;  159.050;    0.000
380.655; 2067.700;  178.050;    0.000
380.715; 2069.700;  196.050;    0.000
380.775; 2165.700;  202.050;    0.000
380.834; 2119.700;  186.050;    0.000
380.894; 2171.700;  167.050;    0.000
380.954; 2037.700;  150.050;    0.000
381.013; 2182.700;  187.050;    0.000
381.073; 2102.700;  114.050;    0.000
381.132; 2127.700;  176.050;    0.000
381.192; 2105.700;  197.050;    0.000
381.252; 2082.700;  172.050;    0.000
381.311; 2192.700;  155.050;    0.000
381.371; 2186.700;  172.050;    0.000
381.430; 2137.700;  143.050;    0.000
381.490; 2154.700;  136.050;    0.000
381.549; 2194.700;  131.050;    0.000
381.609; 2183.700;  203.050;    0.000
381.668; 2124.700;  135.050;    0.000
381.728; 2316.700;  163.050;    0.000
381.787; 2228.700;  195.050;    0.000
381.847; 2254.700;  185.050;    0.000
381.906; 2317.700;  187.050;    0.000
381.966; 2397.700;  153.050;    0.000
382.025; 2331.700;  175.050;    0.000
382.085; 2335.700;  195.050;    0.000
382.144; 2438.700;  210.050;    0.000
382.204; 2456.700;  201.050;    0.000
382.263; 2438.700;  178.050;    0.000
382.323; 2511.700;  151.050;    0.000
382.382; 2435.700;  147.050;    0.000
382.441; 2568.700;  144.050;    0.000
382.501; 2553.700;  156.050;    0.000
382.560; 2614.700;  160.050;    0.000
382.619; 2737.700;  173.050;    0.000
382.679; 2921.700;  167.050;    0.000
382.738; 2937.700;  189.050;    0.000
382.798; 3204.700;  181.050;    0.000
382.857; 3530.700;  161.050;    0.000
382.916; 3772.700;  162.050;    0.000
382.976; 3920.700;  169.050;    0.000
383.035; 3680.700;  174.050;    0.000
383.094; 3873.700;  178.050;    0.000
383.154; 4288.700;  188.050;    0.000
383.213; 5127.700;  162.050;    0.000
383.272; 4707.700;  144.050;    0.000
383.331; 3931.700;  144.050;    0.000
383.391; 3632.700;  198.050;    0.000
383.450; 3581.700;  185.050;    0.000
383.509; 3577.700;  132.050;    0.000
383.568; 3703.700;  171.050;    0.000
383.628; 3783.700;  171.050;    0.000
383.687; 4161.700;  172.050;    0.000
383.746; 4916.700;  144.050;    0.000
383.805; 5496.700;  177.050;    0.000
383.864; 5495.700;  145.050;    0.000
383.924; 4391.700;  203.050;    0.000
383.983; 3606.700;  153.050;    0.000
384.042; 3313.700;  171.050;    0.000
384.101; 3119.700;  186.050;    0.000
384.160; 3013.700;  132.050;    0.000
384.219; 2879.700;  157.050;    0.000
384.279; 2742.700;  166.050;    0.000
384.338; 2608.700;  141.050;    0.000
384.397; 2603.700;  142.050;    0.000
384.456; 2602.700;  155.050;    0.000
384.515; 2533.700;  158.050;    0.000
384.574; 2476.700;  208.050;    0.000
384.633; 2537.700;  158.050;    0.000
384.692; 2493.700;  162.050;    0.000
384.751; 2408.700;  179.050;    0.000
384.810; 2424.700;  150.050;    0.000
384.869; 2361.700;  147.050;    0.000
384.929; 2408.700;  132.050;    0.000
384.988; 2446.700;  166.050;    0.000
385.047; 2317.700;  161.050;    0.000
385.106; 2409.700;  180.050;    0.000
385.165; 2384.700;  123.050;    0.000
385.224; 2449.700;  153.050;    0.000
385.283; 2348.700;  158.050;    0.000
385.342; 2432.700;  184.050;    0.000
385.401; 2418.700;  191.050;    0.000
385.459; 2445.700;  143.050;    0.000
385.518; 2460.700;  152.050;    0.000
385.577; 2427.700;  134.050;    0.000
385.636; 2359.700;  187.050;    0.000
385.695; 2394.700;  141.050;    0.000
385.754; 2414.700;  143.050;    0.000
385.813; 2391.700;  145.050;    0.000
385.872; 2381.700;  116.050;    0.000
385.931; 2401.700;  147.050;    0.000
385.990; 2382.700;  170.050;    0.000
386.049; 2390.700;  189.050;    0.000
386.107; 2391.700;  122.050;    0.000
386.166; 2390.700;  155.050;    0.000
386.225; 2302.700;  173.050;    0.000
386.284; 2360.700;  138.050;    0.000
386.343; 2370.700;  216.050;    0.000
386.402; 2343.700;  162.050;    0.000
386.460; 2404.700;  131.050;    0.000
386.519; 2290.700;  122.050;    0.000
386.578; 2355.700;  140.050;    0.000
386.637; 2322.700;  169.050;    0.000
386.696; 2341.700;  176.050;    0.000
386.754; 2307.700;  127.050;    0.000
386.813; 2314.700;  138.050;    0.000
386.872; 2275.700;  135.050;    0.000
386.931; 2284.700;  170.050;    0.000
386.989; 2340.700;  167.050;    0.000
387.048; 2363.700;  131.050;    0.000
387.107; 2378.700;  176.050;    0.000
387.165; 2305.700;  139.050;    0.000
387.224; 2373.700;  150.050;    0.000
387.283; 2303.700;  169.050;    0.000
387.342; 2365.700;  191.050;    0.000
387.400; 2304.700;  131.050;    0.000
387.459; 2306.700;  139.050;    0.000
387.517; 2350.700;  214.050;    0.000
387.576; 2261.700;  146.050;    0.000
387.635; 2286.700;  161.050;    0.000
387.693; 2271.700;  197.050;    0.000
387.752; 2326.700;  159.050;    0.000
387.811; 2310.700;  144.050;    0.000
387.869; 2346.700;  172.050;    0.000
387.928; 2292.700;  160.050;    0.000
387.986; 2297.700;  192.050;    0.000
388.045; 2266.700;  121.050;    0.000
388.103; 2278.700;  129.050;    0.000
388.162; 2308.700;  169.050;    0.000
388.221; 2213.700;  171.050;    0.000
388.279; 2196.700;  135.050;    0.000
388.338; 2282.700;  222.050;    0.000
388.396; 2272.700;  168.050;    0.000
388.455; 2307.700;  178.050;    0.000
388.513; 2252.700;  151.050;    0.000
388.572; 2311.700;  147.050;    0.000
388.630; 2246.700;  158.050;    0.000
388.689; 2159.700;  163.050;    0.000
388.747; 2275.700;  180.050;    0.000
388.806; 2133.700;  119.050;    0.000
388.864; 2175.700;  159.050;    0.000
388.922; 2266.700;  152.050;    0.000
388.981; 2155.700;  125.050;    0.000
389.039; 2177.700;  151.050;    0.000
389.098; 2270.700;  151.050;    0.000
389.156; 2251.700;  175.050;    0.000
389.214; 2236.700;  133.050;    0.000
389.273; 2321.700;  142.050;    0.000
389.331; 2222.700;  179.050;    0.000
389.390; 2224.700;  179.050;    0.000
389.448; 2295.700;  159.050;    0.000
389.506; 2249.700;  140.050;    0.000
389.565; 2308.700;  160.050;    0.000
389.623; 2292.700;  181.050;    0.000
389.681; 2315.700;  181.050;    0.000
389.740; 2253.700;  187.050;    0.000
389.798; 2184.700;  163.050;    0.000
389.856; 2357.700;  185.050;    0.000
389.914; 2307.700;  170.050;    0.000
389.973; 2269.700;  150.050;    0.000
390.031; 2198.700;  149.050;    0.000
390.089; 2249.700;  191.050;    0.000
390.147; 2210.700;  126.050;    0.000
390.206; 2235.700;  174.050;    0.000
390.264; 2288.700;  164.050;    0.000
390.322; 2196.700;  150.050;    0.000
390.380; 2270.700;  137.050;    0.000
390.439; 2182.700;  176.050;    0.000
390.497; 2183.700;  188.050;    0.000
390.555; 2209.700;  143.050;    0.000
390.613; 2235.700;  174.050;    0.000
390.671; 2330.700;  208.050;    0.000
390.729; 2236.700;  135.050;    0.000
390.788; 2285.700;  169.050;    0.000
390.846; 2226.700;  173.050;    0.000
390.904; 2273.700;  176.050;    0.000
390.962; 2312.700;  179.050;    0.000
391.020; 2303.700;  201.050;    0.000
391.078; 2270.700;  192.050;    0.000
391.136; 2260.700;  170.050;    0.000
391.194; 2228.700;  163.050;    0.000
391.253; 2255.700;  203.050;    0.000
391.311; 2173.700;  170.050;    0.000
391.369; 2252.700;  191.050;    0.000
391.427; 2225.700;  226.050;    0.000
391.485; 2299.700;  181.050;    0.000
391.543; 2295.700;  177.050;    0.000
391.601; 2272.700;  150.050;    0.000
391.659; 2323.700;  201.050;    0.000
391.717; 2340.700;  166.050;    0.000
391.775; 2249.700;  200.050;    0.000
391.833; 2321.700;  180.050;    0.000
391.891; 2331.700;  172.050;    0.000
391.949; 2299.700;  174.050;    0.000
392.007; 2307.700;  194.050;    0.000
392.065; 2384.700;  161.050;    0.000
392.123; 2322.700;  159.050;    0.000
392.180; 2411.700;  193.050;    0.000
392.238; 2391.700;  188.050;    0.000
392.296; 2255.700;  206.050;    0.000
392.354; 2309.700;  170.050;    0.000
392.412; 2282.700;  207.050;    0.000
392.470; 2337.700;  168.050;    0.000
392.528; 2355.700;  185.050;    0.000
392.586; 2311.700;  154.050;    0.000
392.644; 2278.700;  190.050;    0.000
392.701; 2420.700;  195.050;    0.000
392.759; 2264.700;  229.050;    0.000
392.817; 2345.700;  176.050;    0.000
392.875; 2279.700;  198.050;    0.000
392.933; 2330.700;  174.050;    0.000
392.991; 2465.700;  237.050;    0.000
393.048; 2203.700;  212.050;    0.000
393.106; 2360.700;  191.050;    0.000
393.164; 2325.700;  136.050;    0.000
393.222; 2368.700;  164.050;    0.000
393.279; 2468.700;  208.050;    0.000
393.337; 2329.700;  203.050;    0.000
393.395; 2415.700;  191.050;    0.000
393.453; 2362.700;  153.050;    0.000
393.510; 2373.700;  171.050;    0.000
393.568; 2383.700;  203.050;    0.000
393.626; 2360.700;  169.050;    0.000
393.684; 2391.700;  201.050;    0.000
393.741; 2404.700;  172.050;    0.000
393.799; 2428.700;  149.050;    0.000
393.857; 2307.700;  151.050;    0.000
393.914; 2353.700;  192.050;    0.000
393.972; 2373.700;  176.050;    0.000
394.030; 2401.700;  165.050;    0.000
394.087; 2357.700;  192.050;    0.000
394.145; 2313.700;  183.050;    0.000
394.202; 2440.700;  161.050;    0.000
394.260; 2410.700;  135.050;    0.000
394.318; 2482.700;  188.050;    0.000
394.375; 2368.700;  163.050;    0.000
394.433; 2286.700;  151.050;    0.000
394.490; 2309.700;  190.050;    0.000
394.548; 2394.700;  157.050;    0.000
394.605; 2406.700;  205.050;    0.000
394.663; 2385.700;  173.050;    0.000
394.720; 2412.700;  171.050;    0.000
394.778; 2454.700;  190.050;    0.000
394.836; 2490.700;  134.050;    0.000
394.893; 2416.700;  142.050;    0.000
394.951; 2428.700;  192.050;    0.000
395.008; 2397.700;  149.050;    0.000
395.065; 2462.700;  194.050;    0.000
395.123; 2470.700;  160.050;    0.000
395.180; 2467.700;  178.050;    0.000
395.238; 2507.700;  191.050;    0.000
395.295; 2488.700;  160.050;    0.000
395.353; 2470.700;  162.050;    0.000
395.410; 2554.700;  165.050;    0.000
395.468; 2491.700;  190.050;    0.000
395.525; 2553.700;  173.050;    0.000
395.582; 2485.700;  161.050;    0.000
395.640; 2490.700;  200.050;    0.000
395.697; 2566.700;  198.050;    0.000
395.754; 2481.700;  136.050;    0.000
395.812; 2524.700;  172.050;    0.000
395.869; 2538.700;  172.050;    0.000
395.927; 2502.700;  145.050;    0.000
395.984; 2592.700;  220.050;    0.000
396.041; 2426.700;  137.050;    0.000
396.098; 2461.700;  161.050;    0.000
396.156; 2562.700;  159.050;    0.000
396.213; 2544.700;  200.050;    0.000
396.270; 2569.700;  209.050;    0.000
396.328; 2524.700;  162.050;    0.000
396.385; 2608.700;  186.050;    0.000
396.442; 2492.700;  177.050;    0.000
396.499; 2551.700;  183.050;    0.000
396.557; 2512.700;  182.050;    0.000
396.614; 2483.700;  186.050;    0.000
396.671; 2555.700;  144.050;    0.000
396.728; 2565.700;  176.050;    0.000
396.785; 2629.700;  169.050;    0.000
396.843; 2581.700;  134.050;    0.000
396.900; 2527.700;  184.050;    0.000
396.957; 2597.700;  197.050;    0.000
397.014; 2630.700;  187.050;    0.000
397.071; 2564.700;  186.050;    0.000
397.128; 2598.700;  200.050;    0.000
397.186; 2713.700;  175.050;    0.000
397.243; 2598.700;  154.050;    0.000
397.300; 2642.700;  191.050;    0.000
397.357; 2633.700;  238.050;    0.000
397.414; 2600.700;  161.050;    0.000
397.471; 2568.700;  135.050;    0.000
397.528; 2562.700;  158.050;    0.000
397.585; 2612.700;  159.050;    0.000
397.642; 2622.700;  180.050;    0.000
397.699; 2659.700;  170.050;    0.000
397.756; 2597.700;  175.050;    0.000
397.814; 2642.700;  182.050;    0.000
397.871; 2621.700;  173.050;    0.000
397.928; 2590.700;  173.050;    0.000
397.985; 2663.700;  176.050;    0.000
398.042; 2632.700;  189.050;    0.000
398.099; 2712.700;  160.050;    0.000
398.156; 2636.700;  218.050;    0.000
398.212; 2794.700;  194.050;    0.000
398.269; 2617.700;  199.050;    0.000
398.326; 2613.700;  188.050;    0.000
398.383; 2681.700;  187.050;    0.000
398.440; 2713.700;  174.050;    0.000
398.497; 2744.700;  214.050;    0.000
398.554; 2718.700;  181.050;    0.000
398.611; 2710.700;  195.050;    0.000
398.668; 2676.700;  145.050;    0.000
398.725; 2764.700;  178.050;    0.000
398.782; 2829.700;  210.050;    0.000
398.839; 2794.700;  216.050;    0.000
398.895; 2768.700;  189.050;    0.000
398.952; 2707.700;  206.050;    0.000
399.009; 2887.700;  142.050;    0.000
399.066; 2814.700;  192.050;    0.000
399.123; 2896.700;  181.050;    0.000
399.180; 2929.700;  200.050;    0.000
399.236; 2903.700;  156.050;    0.000
399.293; 3035.700;  194.050;    0.000
399.350; 2968.700;  167.050;    0.000
399.407; 2973.700;  192.050;    0.000
399.463; 3000.700;  161.050;    0.000
399.520; 3075.700;  149.050;    0.000
399.577; 3111.700;  156.050;    0.000
399.634; 3193.700;  195.050;    0.000
399.690; 3134.700;  163.050;    0.000
399.747; 3135.700;  192.050;    0.000
399.804; 3073.700;  212.050;    0.000
399.861; 3017.700;  203.050;    0.000
399.917; 3070.700;  221.050;    0.000
399.974; 3052.700;  221.050;    0.000
400.031; 3157.700;  195.050;    0.000
400.087; 3036.700;  159.050;    0.000
400.144; 3022.700;  201.050;    0.000
400.201; 3032.700;  206.050;    0.000
400.257; 2923.700;  168.050;    0.000
400.314; 2952.700;  183.050;    0.000
400.370; 2993.700;  209.050;    0.000
400.427; 2956.700;  192.050;    0.000
400.484; 2891.700;  150.050;    0.000
400.540; 2949.700;  213.050;    0.000
400.597; 2879.700;  161.050;    0.000
400.653; 2912.700;  170.050;    0.000
400.710; 2965.700;  173.050;    0.000
400.766; 2969.700;  204.050;    0.000
400.823; 2820.700;  194.050;    0.000
400.879; 2891.700;  188.050;    0.000
400.936; 2927.700;  172.050;    0.000
400.993; 2846.700;  154.050;    0.000
401.049; 2914.700;  157.050;    0.000
401.105; 2913.700;  214.050;    0.000
401.162; 2963.700;  195.050;    0.000
401.218; 2895.700;  195.050;    0.000
401.275; 2898.700;  182.050;    0.000
401.331; 2956.700;  188.050;    0.000
401.388; 2916.700;  194.050;    0.000
401.444; 2859.700;  175.050;    0.000
401.501; 2889.700;  169.050;    0.000
401.557; 2864.700;  176.050;    0.000
401.614; 2907.700;  153.050;    0.000
401.670; 2917.700;  178.050;    0.000
401.726; 2921.700;  179.050;    0.000
401.783; 2818.700;  198.050;    0.000
401.839; 2957.700;  179.050;    0.000
401.895; 2881.700;  154.050;    0.000
401.952; 2922.700;  138.050;    0.000
402.008; 2944.700;  135.050;    0.000
402.064; 2826.700;  154.050;    0.000
402.121; 2924.700;  199.050;    0.000
402.177; 2972.700;  126.050;    0.000
402.233; 2944.700;  190.050;    0.000
402.290; 2983.700;  175.050;    0.000
402.346; 2900.700;  200.050;    0.000
402.402; 2995.700;  191.050;    0.000
402.458; 3027.700;  172.050;    0.000
402.515; 2937.700;  186.050;    0.000
402.571; 2889.700;  189.050;    0.000
402.627; 3005.700;  151.050;    0.000
402.683; 2839.700;  187.050;    0.000
402.740; 2935.700;  147.050;    0.000
402.796; 2890.700;  176.050;    0.000
402.852; 2958.700;  200.050;    0.000
402.908; 2970.700;  201.050;    0.000
402.964; 2999.700;  153.050;    0.000
403.021; 3083.700;  165.050;    0.000
403.077; 3050.700;  195.050;    0.000
403.133; 2978.700;  139.050;    0.000
403.189; 3110.700;  166.050;    0.000
403.245; 2999.700;  194.050;    0.000
403.301; 3073.700;  210.050;    0.000
403.357; 3096.700;  187.050;    0.000
403.414; 2998.700;  195.050;    0.000
403.470; 3016.700;  150.050;    0.000
403.526; 2925.700;  158.050;    0.000
403.582; 3114.700;  184.050;    0.000
403.638; 3029.700;  171.050;    0.000
403.694; 3030.700;  197.050;    0.000
403.750; 3171.700;  196.050;    0.000
403.806; 3092.700;  192.050;    0.000
403.862; 3116.700;  169.050;    0.000
403.918; 3096.700;  199.050;    0.000
403.974; 3084.700;  156.050;    0.000
404.030; 3037.700;  193.050;    0.000
404.086; 3095.700;  161.050;    0.000
404.142; 3063.700;  172.050;    0.000
404.198; 3207.700;  195.050;    0.000
404.254; 3043.700;  167.050;    0.000
404.310; 3138.700;  156.050;    0.000
404.366; 3031.700;  144.050;    0.000
404.422; 3147.700;  161.050;    0.000
404.478; 3067.700;  179.050;    0.000
404.534; 3105.700;  163.050;    0.000
404.590; 3080.700;  183.050;    0.000
404.646; 3027.700;  155.050;    0.000
404.701; 3099.700;  142.050;    0.000
404.757; 3135.700;  175.050;    0.000
404.813; 3130.700;  153.050;    0.000
404.869; 3139.700;  199.050;    0.000
404.925; 3265.700;  153.050;    0.000
404.981; 3099.700;  174.050;    0.000
405.037; 3115.700;  185.050;    0.000
405.092; 3180.700;  166.050;    0.000
405.148; 3113.700;  161.050;    0.000
405.204; 3098.700;  170.050;    0.000
405.260; 3027.700;  154.050;    0.000
405.316; 3065.700;  128.050;    0.000
405.371; 3153.700;  142.050;    0.000
405.427; 3132.700;  196.050;    0.000
405.483; 3146.700;  172.050;    0.000
405.539; 3143.700;  182.050;    0.000
405.594; 3150.700;  153.050;    0.000
405.650; 3138.700;  124.050;    0.000
405.706; 3095.700;  189.050;    0.000
405.761; 3176.700;  165.050;    0.000
405.817; 3145.700;  152.050;    0.000
405.873; 3142.700;  174.050;    0.000
405.928; 3200.700;  167.050;    0.000
405.984; 3201.700;  210.050;    0.000
406.040; 3199.700;  160.050;    0.000
406.095; 3178.700;  163.050;    0.000
406.151; 3224.700;  208.050;    0.000
406.207; 3247.700;  177.050;    0.000
406.262; 3190.700;  176.050;    0.000
406.318; 3223.700;  157.050;    0.000
406.374; 3252.700;  141.050;    0.000
406.429; 3267.700;  189.050;    0.000
406.485; 3269.700;  190.050;    0.000
406.540; 3198.700;  155.050;    0.000
406.596; 3297.700;  182.050;    0.000
406.651; 3333.700;  200.050;    0.000
406.707; 3293.700;  130.050;    0.000
406.763; 3308.700;  174.050;    0.000
406.818; 3384.700;  151.050;    0.000
406.874; 3326.700;  122.050;    0.000
406.929; 3386.700;  153.050;    0.000
406.985; 3392.700;  198.050;    0.000
407.040; 3429.700;  174.050;    0.000
407.095; 3515.700;  161.050;    0.000
407.151; 3446.700;  184.050;    0.000
407.206; 3466.700;  188.050;    0.000
407.262; 3559.700;  180.050;    0.000
407.317; 3588.700;  186.050;    0.000
407.373; 3667.700;  200.050;    0.000
407.428; 3570.700;  211.050;    0.000
407.484; 3562.700;  193.050;    0.000
407.539; 3517.700;  167.050;    0.000
407.594; 3601.700;  178.050;    0.000
407.650; 3447.700;  171.050;    0.000
407.705; 3640.700;  153.050;    0.000
407.760; 3612.700;  196.050;    0.000
407.816; 3624.700;  205.050;    0.000
407.871; 3634.700;  232.050;    0.000
407.926; 3589.700;  215.050;    0.000
407.982; 3411.700;  154.050;    0.000
408.037; 3487.700;  217.050;    0.000
408.092; 3513.700;  190.050;    0.000
408.148; 3668.700;  181.050;    0.000
408.203; 3542.700;  203.050;    0.000
408.258; 3513.700;  154.050;    0.000
408.314; 3627.700;  198.050;    0.000
408.369; 3468.700;  156.050;    0.000
408.424; 3473.700;  216.050;    0.000
408.479; 3454.700;  191.050;    0.000
408.534; 3440.700;  200.050;    0.000
408.590; 3439.700;  182.050;    0.000
408.645; 3455.700;  141.050;    0.000
408.700; 3452.700;  209.050;    0.000
408.755; 3436.700;  205.050;    0.000
408.810; 3461.700;  171.050;    0.000
408.866; 3531.700;  200.050;    0.000
408.921; 3431.700;  188.050;    0.000
408.976; 3487.700;  156.050;    0.000
409.031; 3429.700;  164.050;    0.000
409.086; 3408.700;  155.050;    0.000
409.141; 3487.700;  205.050;    0.000
409.196; 3549.700;  173.050;    0.000
409.252; 3439.700;  179.050;    0.000
409.307; 3366.700;  131.050;    0.000
409.362; 3449.700;  173.050;    0.000
409.417; 3423.700;  120.050;    0.000
409.472; 3450.700;  198.050;    0.000
409.527; 3517.700;  153.050;    0.000
409.582; 3420.700;  177.050;    0.000
409.637; 3406.700;  184.050;    0.000
409.692; 3491.700;  203.050;    0.000
409.747; 3434.700;  158.050;    0.000
409.802; 3456.700;  212.050;    0.000
409.857; 3379.700;  192.050;    0.000
409.912; 3450.700;  179.050;    0.000
409.967; 3381.700;  177.050;    0.000
410.022; 3484.700;  204.050;    0.000
410.077; 3413.700;  175.050;    0.000
410.132; 3425.700;  207.050;    0.000
410.187; 3296.700;  169.050;    0.000
410.242; 3468.700;  186.050;    0.000
410.297; 3469.700;  185.050;    0.000
410.351; 3494.700;  191.050;    0.000
410.406; 3426.700;  215.050;    0.000
410.461; 3533.700;  190.050;    0.000
410.516; 3467.700;  172.050;    0.000
410.571; 3526.700;  190.050;    0.000
410.626; 3434.700;  189.050;    0.000
410.681; 3498.700;  191.050;    0.000
410.736; 3482.700;  166.050;    0.000
410.790; 3381.700;  179.050;    0.000
410.845; 3414.700;  196.050;    0.000
410.900; 3440.700;  168.050;    0.000
410.955; 3420.700;  173.050;    0.000
411.010; 3500.700;  162.050;    0.000
411.064; 3458.700;  205.050;    0.000
411.119; 3442.700;  203.050;    0.000
411.174; 3423.700;  207.050;    0.000
411.229; 3485.700;  218.050;    0.000
411.283; 3457.700;  218.050;    0.000
411.338; 3362.700;  180.050;    0.000
411.393; 3462.700;  191.050;    0.000
411.447; 3467.700;  207.050;    0.000
411.502; 3438.700;  204.050;    0.000
411.557; 3392.700;  208.050;    0.000
411.612; 3456.700;  191.050;    0.000
411.666; 3514.700;  233.050;    0.000
411.721; 3379.700;  193.050;    0.000
411.776; 3418.700;  195.050;    0.000
411.830; 3401.700;  229.050;    0.000
411.885; 3419.700;  181.050;    0.000
411.939; 3574.700;  214.050;    0.000
411.994; 3481.700;  140.050;    0.000
412.049; 3434.700;  205.050;    0.000
412.103; 3548.700;  232.050;    0.000
412.158; 3423.700;  228.050;    0.000
412.212; 3524.700;  204.050;    0.000
412.267; 3508.700;  203.050;    0.000
412.322; 3584.700;  212.050;    0.000
412.376; 3445.700;  195.050;    0.000
412.431; 3501.700;  197.050;    0.000
412.485; 3389.700;  235.050;    0.000
412.540; 3455.700;  197.050;    0.000
412.594; 3517.700;  199.050;    0.000
412.649; 3460.700;  195.050;    0.000
412.703; 3386.700;  214.050;    0.000
412.758; 3480.700;  213.050;    0.000
412.812; 3393.700;  154.050;    0.000
412.866; 3414.700;  159.050;    0.000
412.921; 3441.700;  207.050;    0.000
412.975; 3320.700;  194.050;    0.000
413.030; 3453.700;  214.050;    0.000
413.084; 3454.700;  174.050;    0.000
413.139; 3386.700;  211.050;    0.000
413.193; 3490.700;  223.050;    0.000
413.247; 3447.700;  198.050;    0.000
413.302; 3448.700;  184.050;    0.000
413.356; 3452.700;  194.050;    0.000
413.410; 3336.700;  219.050;    0.000
413.465; 3398.700;  209.050;    0.000
413.519; 3461.700;  178.050;    0.000
413.573; 3423.700;  189.050;    0.000
413.628; 3375.700;  184.050;    0.000
413.682; 3291.700;  189.050;    0.000
413.736; 3380.700;  196.050;    0.000
413.791; 3438.700;  208.050;    0.000
413.845; 3351.700;  206.050;    0.000
413.899; 3427.700;  193.050;    0.000
413.953; 3423.700;  176.050;    0.000
414.008; 3359.700;  163.050;    0.000
414.062; 3386.700;  195.050;    0.000
414.116; 3339.700;  176.050;    0.000
414.170; 3443.700;  218.050;    0.000
414.225; 3321.700;  183.050;    0.000
414.279; 3425.700;  191.050;    0.000
414.333; 3552.700;  215.050;    0.000
414.387; 3501.700;  187.050;    0.000
414.441; 3435.700;  182.050;    0.000
414.496; 3400.700;  205.050;    0.000
414.550; 3588.700;  203.050;    0.000
414.604; 3425.700;  223.050;    0.000
414.658; 3396.700;  159.050;    0.000
414.712; 3535.700;  194.050;    0.000
414.766; 3485.700;  232.050;    0.000
414.820; 3459.700;  235.050;    0.000
414.874; 3460.700;  169.050;    0.000
414.928; 3461.700;  207.050;    0.000
414.982; 3507.700;  174.050;    0.000
415.037; 3370.700;  173.050;    0.000
415.091; 3433.700;  219.050;    0.000
415.145; 3515.700;  174.050;    0.000
415.199; 3486.700;  207.050;    0.000
415.253; 3459.700;  228.050;    0.000
415.307; 3382.700;  182.050;    0.000
415.361; 3510.700;  219.050;    0.000
415.415; 3489.700;  218.050;    0.000
415.469; 3488.700;  233.050;    0.000
415.523; 3437.700;  203.050;    0.000
415.577; 3426.700;  186.050;    0.000
415.631; 3484.700;  215.050;    0.000
415.684; 3482.700;  212.050;    0.000
415.738; 3387.700;  206.050;    0.000
415.792; 3504.700;  219.050;    0.000
415.846; 3426.700;  208.050;    0.000
415.900; 3429.700;  203.050;    0.000
415.954; 3550.700;  237.050;    0.000
416.008; 3473.700;  242.050;    0.000
416.062; 3393.700;  197.050;    0.000
416.116; 3518.700;  189.050;    0.000
416.169; 3366.700;  199.050;    0.000
416.223; 3372.700;  230.050;    0.000
416.277; 3430.700;  226.050;    0.000
416.331; 3406.700;  254.050;    0.000
416.385; 3378.700;  204.050;    0.000
416.439; 3384.700;  201.050;    0.000
416.492; 3479.700;  238.050;    0.000
416.546; 3386.700;  234.050;    0.000
416.600; 3424.700;  244.050;    0.000
416.654; 3508.700;  233.050;    0.000
416.707; 3405.700;  214.050;    0.000
416.761; 3417.700;  214.050;    0.000
416.815; 3398.700;  192.050;    0.000
416.869; 3345.700;  225.050;    0.000
416.922; 3463.700;  214.050;    0.000
416.976; 3342.700;  206.050;    0.000
417.030; 3378.700;  226.050;    0.000
417.083; 3428.700;  207.050;    0.000
417.137; 3436.700;  236.050;    0.000
417.191; 3413.700;  208.050;    0.000
417.244; 3434.700;  260.050;    0.000
417.298; 3414.700;  222.050;    0.000
417.352; 3429.700;  191.050;    0.000
417.405; 3431.700;  229.050;    0.000
417.459; 3442.700;  249.050;    0.000
417.512; 3446.700;  259.050;    0.000
417.566; 3360.700;  220.050;    0.000
417.620; 3396.700;  229.050;    0.000
417.673; 3415.700;  190.050;    0.000
417.727; 3374.700;  204.050;    0.000
417.780; 3402.700;  223.050;    0.000
417.834; 3333.700;  213.050;    0.000
417.887; 3449.700;  238.050;    0.000
417.941; 3323.700;  244.050;    0.000
417.994; 3436.700;  247.050;    0.000
418.048; 3402.700;  225.050;    0.000
418.101; 3436.700;  210.050;    0.000
418.155; 3434.700;  224.050;    0.000
418.208; 3497.700;  229.050;    0.000
418.262; 3425.700;  255.050;    0.000
418.315; 3440.700;  248.050;    0.000
418.369; 3421.700;  212.050;    0.000
418.422; 3552.700;  241.050;    0.000
418.476; 3380.700;  220.050;    0.000
418.529; 3434.700;  257.050;    0.000
418.582; 3311.700;  203.050;    0.000
418.636; 3378.700;  221.050;    0.000
418.689; 3493.700;  202.050;    0.000
418.743; 3449.700;  227.050;    0.000
418.796; 3400.700;  226.050;    0.000
418.849; 3471.700;  199.050;    0.000
418.903; 3424.700;  234.050;    0.000
418.956; 3464.700;  236.050;    0.000
419.009; 3424.700;  305.050;    0.000
419.063; 3385.700;  216.050;    0.000
419.116; 3463.700;  245.050;    0.000
419.169; 3387.700;  208.050;    0.000
419.222; 3405.700;  233.050;    0.000
419.276; 3477.700;  244.050;    0.000
419.329; 3472.700;  197.050;    0.000
419.382; 3453.700;  222.050;    0.000
419.435; 3455.700;  199.050;    0.000
419.489; 3472.700;  226.050;    0.000
419.542; 3358.700;  223.050;    0.000
419.595; 3347.700;  204.050;    0.000
419.648; 3358.700;  234.050;    0.000
419.701; 3397.700;  211.050;    0.000
419.755; 3349.700;  184.050;    0.000
419.808; 3400.700;  223.050;    0.000
419.861; 3281.700;  197.050;    0.000
419.914; 3300.700;  258.050;    0.000
419.967; 3336.700;  205.050;    0.000
420.020; 3352.700;  195.050;    0.000
420.073; 3303.700;  191.050;    0.000
420.127; 3378.700;  256.050;    0.000
420.180; 3229.700;  232.050;    0.000
420.233; 3283.700;  200.050;    0.000
420.286; 3125.700;  207.050;    0.000
420.339; 3293.700;  223.050;    0.000
420.392; 3274.700;  243.050;    0.000
420.445; 3364.700;  195.050;    0.000
420.498; 3221.700;  239.050;    0.000
420.551; 3210.700;  201.050;    0.000
420.604; 3304.700;  245.050;    0.000
420.657; 3270.700;  221.050;    0.000
420.710; 3197.700;  223.050;    0.000
420.763; 3254.700;  241.050;    0.000
420.816; 3272.700;  198.050;    0.000
420.869; 3321.700;  210.050;    0.000
420.922; 3208.700;  206.050;    0.000
420.975; 3196.700;  239.050;    0.000
421.028; 3166.700;  248.050;    0.000
421.081; 3191.700;  236.050;    0.000
421.134; 3222.700;  208.050;    0.000
421.187; 3279.700;  216.050;    0.000
421.239; 3133.700;  199.050;    0.000
421.292; 3256.700;  255.050;    0.000
421.345; 3223.700;  241.050;    0.000
421.398; 3254.700;  221.050;    0.000
421.451; 3205.700;  237.050;    0.000
421.504; 3142.700;  225.050;    0.000
421.557; 3187.700;  213.050;    0.000
421.609; 3155.700;  178.050;    0.000
421.662; 3154.700;  206.050;    0.000
421.715; 3194.700;  212.050;    0.000
421.768; 3210.700;  236.050;    0.000
421.821; 3209.700;  228.050;    0.000
421.873; 3197.700;  200.050;    0.000
421.926; 3248.700;  226.050;    0.000
421.979; 3240.700;  221.050;    0.000
422.032; 3162.700;  219.050;    0.000
422.084; 3188.700;  253.050;    0.000
422.137; 3098.700;  195.050;    0.000
422.190; 3109.700;  192.050;    0.000
422.243; 3165.700;  236.050;    0.000
422.295; 3044.700;  205.050;    0.000
422.348; 3191.700;  198.050;    0.000
422.401; 3164.700;  245.050;    0.000
422.453; 3232.700;  241.050;    0.000
422.506; 3190.700;  255.050;    0.000
422.559; 3149.700;  188.050;    0.000
422.611; 3187.700;  236.050;    0.000
422.664; 3199.700;  218.050;    0.000
422.716; 3191.700;  210.050;    0.000
422.769; 3152.700;  209.050;    0.000
422.822; 3238.700;  213.050;    0.000
422.874; 3075.700;  227.050;    0.000
422.927; 3267.700;  272.050;    0.000
422.979; 3057.700;  204.050;    0.000
423.032; 3133.700;  210.050;    0.000
423.084; 3200.700;  236.050;    0.000
423.137; 3135.700;  223.050;    0.000
423.189; 3185.700;  253.050;    0.000
423.242; 3126.700;  185.050;    0.000
423.294; 3112.700;  232.050;    0.000
423.347; 3013.700;  213.050;    0.000
423.399; 3155.700;  227.050;    0.000
423.452; 3220.700;  236.050;    0.000
423.504; 3048.700;  232.050;    0.000
423.557; 3055.700;  195.050;    0.000
423.609; 3230.700;  238.050;    0.000
423.662; 3015.700;  207.050;    0.000
423.714; 3067.700;  231.050;    0.000
423.766; 3169.700;  211.050;    0.000
423.819; 3019.700;  207.050;    0.000
423.871; 3052.700;  228.050;    0.000
423.923; 3157.700;  223.050;    0.000
423.976; 3091.700;  217.050;    0.000
424.028; 2998.700;  231.050;    0.000
424.081; 3065.700;  219.050;    0.000
424.133; 3101.700;  255.050;    0.000
424.185; 3064.700;  199.050;    0.000
424.238; 3073.700;  238.050;    0.000
424.290; 3052.700;  209.050;    0.000
424.342; 3046.700;  213.050;    0.000
424.394; 3144.700;  215.050;    0.000
424.447; 3133.700;  265.050;    0.000
424.499; 2982.700;  238.050;    0.000
424.551; 3119.700;  256.050;    0.000
424.603; 3078.700;  222.050;    0.000
424.656; 3059.700;  227.050;    0.000
424.708; 2958.700;  250.050;    0.000
424.760; 3028.700;  228.050;    0.000
424.812; 3081.700;  249.050;    0.000
424.864; 3114.700;  222.050;    0.000
424.917; 3009.700;  235.050;    0.000
424.969; 3090.700;  266.050;    0.000
425.021; 2957.700;  233.050;    0.000
425.073; 3058.700;  194.050;    0.000
425.125; 2994.700;  256.050;    0.000
425.177; 3080.700;  225.050;    0.000
425.229; 3142.700;  242.050;    0.000
425.282; 3016.700;  236.050;    0.000
425.334; 2972.700;  250.050;    0.000
425.386; 2950.700;  231.050;    0.000
425.438; 3075.700;  216.050;    0.000
425.490; 2972.700;  240.050;    0.000
425.542; 2899.700;  231.050;    0.000
425.594; 3015.700;  206.050;    0.000
425.646; 3038.700;  201.050;    0.000
425.698; 2969.700;  193.050;    0.000
425.750; 3045.700;  241.050;    0.000
425.802; 2915.700;  199.050;    0.000
425.854; 2963.700;  216.050;    0.000
425.906; 3004.700;  220.050;    0.000
425.958; 3028.700;  200.050;    0.000
426.010; 3018.700;  214.050;    0.000
426.062; 3019.700;  245.050;    0.000
426.114; 2885.700;  241.050;    0.000
426.166; 2945.700;  241.050;    0.000
426.218; 2901.700;  255.050;    0.000
426.270; 2938.700;  228.050;    0.000
426.321; 2867.700;  222.050;    0.000
426.373; 2926.700;  218.050;    0.000
426.425; 2916.700;  258.050;    0.000
426.477; 2942.700;  225.050;    0.000
426.529; 2966.700;  223.050;    0.000
426.581; 2889.700;  198.050;    0.000
426.633; 2922.700;  228.050;    0.000
426.684; 2915.700;  210.050;    0.000
426.736; 2910.700;  208.050;    0.000
426.788; 2884.700;  231.050;    0.000
426.840; 2924.700;  212.050;    0.000
426.892; 3024.700;  221.050;    0.000
426.943; 2859.700;  240.050;    0.000
426.995; 2880.700;  243.050;    0.000
427.047; 2859.700;  231.050;    0.000
427.099; 2861.700;  189.050;    0.000
427.150; 2827.700;  212.050;    0.000
427.202; 2929.700;  219.050;    0.000
427.254; 2835.700;  203.050;    0.000
427.306; 2821.700;  217.050;    0.000
427.357; 2944.700;  232.050;    0.000
427.409; 2869.700;  251.050;    0.000
427.461; 2872.700;  185.050;    0.000
427.512; 2785.700;  239.050;    0.000
427.564; 2800.700;  208.050;    0.000
427.616; 2835.700;  233.050;    0.000
427.667; 2894.700;  223.050;    0.000
427.719; 2807.700;  206.050;    0.000
427.770; 2774.700;  195.050;    0.000
427.822; 2851.700;  223.050;    0.000
427.874; 2821.700;  232.050;    0.000
427.925; 2788.700;  209.050;    0.000
427.977; 2793.700;  208.050;    0.000
428.028; 2816.700;  187.050;    0.000
428.080; 2913.700;  209.050;    0.000
428.131; 2918.700;  237.050;    0.000
428.183; 2833.700;  200.050;    0.000
428.234; 2880.700;  215.050;    0.000
428.286; 2829.700;  229.050;    0.000
428.337; 2804.700;  206.050;    0.000
428.389; 2856.700;  216.050;    0.000
428.440; 2836.700;  287.050;    0.000
428.492; 2855.700;  269.050;    0.000
428.543; 2708.700;  234.050;    0.000
428.595; 2851.700;  214.050;    0.000
428.646; 2699.700;  229.050;    0.000
428.697; 2739.700;  249.050;    0.000
428.749; 2813.700;  250.050;    0.000
428.800; 2809.700;  242.050;    0.000
428.852; 2801.700;  232.050;    0.000
428.903; 2751.700;  196.050;    0.000
428.954; 2839.700;  226.050;    0.000
429.006; 2820.700;  232.050;    0.000
429.057; 2780.700;  188.050;    0.000
429.108; 2720.700;  237.050;    0.000
429.160; 2743.700;  221.050;    0.000
429.211; 2783.700;  222.050;    0.000
429.262; 2709.700;  215.050;    0.000
429.314; 2695.700;  225.050;    0.000
429.365; 2771.700;  220.050;    0.000
429.416; 2773.700;  242.050;    0.000
429.467; 2775.700;  220.050;    0.000
429.519; 2726.700;  217.050;    0.000
429.570; 2799.700;  248.050;    0.000
429.621; 2817.700;  233.050;    0.000
429.672; 2710.700;  220.050;    0.000
429.724; 2741.700;  179.050;    0.000
429.775; 2742.700;  218.050;    0.000
429.826; 2765.700;  197.050;    0.000
429.877; 2696.700;  206.050;    0.000
429.928; 2696.700;  229.050;    0.000
429.980; 2768.700;  207.050;    0.000
430.031; 2764.700;  264.050;    0.000
430.082; 2680.700;  210.050;    0.000
430.133; 2663.700;  218.050;    0.000
430.184; 2693.700;  246.050;    0.000
430.235; 2693.700;  201.050;    0.000
430.286; 2793.700;  207.050;    0.000
430.337; 2669.700;  224.050;    0.000
430.388; 2655.700;  216.050;    0.000
430.439; 2762.700;  210.050;    0.000
430.490; 2794.700;  208.050;    0.000
430.542; 2630.700;  211.050;    0.000
430.593; 2638.700;  203.050;    0.000
430.644; 2699.700;  235.050;    0.000
430.695; 2712.700;  200.050;    0.000
430.746; 2780.700;  215.050;    0.000
430.797; 2642.700;  235.050;    0.000
430.848; 2688.700;  197.050;    0.000
430.898; 2705.700;  209.050;    0.000
430.949; 2597.700;  231.050;    0.000
431.000; 2775.700;  227.050;    0.000
431.051; 2708.700;  225.050;    0.000
431.102; 2723.700;  180.050;    0.000
431.153; 2690.700;  248.050;    0.000
431.204; 2646.700;  185.050;    0.000
431.255; 2609.700;  199.050;    0.000
431.306; 2723.700;  228.050;    0.000
431.357; 2707.700;  237.050;    0.000
431.408; 2676.700;  223.050;    0.000
431.458; 2730.700;  240.050;    0.000
431.509; 2716.700;  207.050;    0.000
431.560; 2669.700;  219.050;    0.000
431.611; 2689.700;  206.050;    0.000
431.662; 2787.700;  253.050;    0.000
431.713; 2650.700;  199.050;    0.000
431.763; 2735.700;  197.050;    0.000
431.814; 2700.700;  205.050;    0.000
431.865; 2748.700;  218.050;    0.000
431.916; 2667.700;  202.050;    0.000
431.966; 2738.700;  203.050;    0.000
432.017; 2743.700;  244.050;    0.000
432.068; 2625.700;  246.050;    0.000
432.118; 2749.700;  212.050;    0.000
432.169; 2679.700;  214.050;    0.000
432.220; 2744.700;  241.050;    0.000
432.271; 2723.700;  237.050;    0.000
432.321; 2784.700;  246.050;    0.000
432.372; 2696.700;  257.050;    0.000
432.423; 2567.700;  198.050;    0.000
432.473; 2735.700;  202.050;    0.000
432.524; 2667.700;  242.050;    0.000
432.574; 2679.700;  202.050;    0.000
432.625; 2653.700;  212.050;    0.000
432.676; 2651.700;  242.050;    0.000
432.726; 2621.700;  268.050;    0.000
432.777; 2653.700;  228.050;    0.000
432.827; 2649.700;  230.050;    0.000
432.878; 2672.700;  221.050;    0.000
432.928; 2661.700;  218.050;    0.000
432.979; 2620.700;  243.050;    0.000
433.029; 2682.700;  217.050;    0.000
433.080; 2752.700;  208.050;    0.000
433.130; 2605.700;  236.050;    0.000
433.181; 2596.700;  282.050;    0.000
433.231; 2681.700;  257.050;    0.000
433.282; 2714.700;  268.050;    0.000
433.332; 2735.700;  241.050;    0.000
433.383; 2676.700;  271.050;    0.000
433.433; 2689.700;  262.050;    0.000
433.484; 2682.700;  266.050;    0.000
433.534; 2666.700;  217.050;    0.000
433.585; 2697.700;  230.050;    0.000
433.635; 2601.700;  245.050;    0.000
433.685; 2670.700;  250.050;    0.000
433.736; 2696.700;  308.050;    0.000
433.786; 2618.700;  242.050;    0.000
433.836; 2640.700;  256.050;    0.000
433.887; 2702.700;  250.050;    0.000
433.937; 2680.700;  250.050;    0.000
433.987; 2571.700;  219.050;    0.000
434.038; 2610.700;  248.050;    0.000
434.088; 2607.700;  231.050;    0.000
434.138; 2696.700;  266.050;    0.000
434.189; 2671.700;  240.050;    0.000
434.239; 2731.700;  245.050;    0.000
434.289; 2752.700;  285.050;    0.000
434.339; 2667.700;  255.050;    0.000
434.389; 2629.700;  242.050;    0.000
434.440; 2733.700;  273.050;    0.000
434.490; 2747.700;  272.050;    0.000
434.540; 2685.700;  264.050;    0.000
434.590; 2707.700;  233.050;    0.000
434.640; 2796.700;  244.050;    0.000
434.691; 2674.700;  226.050;    0.000
434.741; 2701.700;  253.050;    0.000
434.791; 2746.700;  269.050;    0.000
434.841; 2747.700;  252.050;    0.000
434.891; 2733.700;  281.050;    0.000
434.941; 2844.700;  296.050;    0.000
434.991; 2808.700;  264.050;    0.000
435.042; 2708.700;  262.050;    0.000
435.092; 2793.700;  237.050;    0.000
435.142; 2686.700;  232.050;    0.000
435.192; 2697.700;  251.050;    0.000
435.242; 2725.700;  251.050;    0.000
435.292; 2659.700;  246.050;    0.000
435.342; 2634.700;  236.050;    0.000
435.392; 2758.700;  273.050;    0.000
435.442; 2638.700;  273.050;    0.000
435.492; 2664.700;  273.050;    0.000
435.542; 2607.700;  242.050;    0.000
435.592; 2638.700;  213.050;    0.000
435.642; 2606.700;  248.050;    0.000
435.692; 2624.700;  242.050;    0.000
435.742; 2657.700;  222.050;    0.000
435.792; 2553.700;  260.050;    0.000
435.842; 2584.700;  266.050;    0.000
435.891; 2668.700;  227.050;    0.000
435.941; 2555.700;  228.050;    0.000
435.991; 2610.700;  282.050;    0.000
436.041; 2592.700;  231.050;    0.000
436.091; 2621.700;  250.050;    0.000
436.141; 2547.700;  221.050;    0.000
436.191; 2479.700;  223.050;    0.000
436.241; 2576.700;  250.050;    0.000
436.290; 2583.700;  243.050;    0.000
436.340; 2578.700;  236.050;    0.000
436.390; 2479.700;  260.050;    0.000
436.440; 2605.700;  253.050;    0.000
436.490; 2521.700;  236.050;    0.000
436.539; 2535.700;  249.050;    0.000
436.589; 2492.700;  231.050;    0.000
436.639; 2527.700;  237.050;    0.000
436.689; 2570.700;  222.050;    0.000
436.738; 2548.700;  263.050;    0.000
436.788; 2537.700;  230.050;    0.000
436.838; 2445.700;  281.050;    0.000
436.887; 2549.700;  230.050;    0.000
436.937; 2578.700;  250.050;    0.000
436.987; 2475.700;  251.050;    0.000
437.036; 2572.700;  238.050;    0.000
437.086; 2464.700;  234.050;    0.000
437.136; 2426.700;  250.050;    0.000
437.185; 2528.700;  228.050;    0.000
437.235; 2535.700;  309.050;    0.000
437.285; 2477.700;  246.050;    0.000
437.334; 2499.700;  262.050;    0.000
437.384; 2578.700;  228.050;    0.000
437.433; 2499.700;  241.050;    0.000
437.483; 2577.700;  220.050;    0.000
437.532; 2460.700;  252.050;    0.000
437.582; 2537.700;  270.050;    0.000
437.631; 2426.700;  251.050;    0.000
437.681; 2451.700;  284.050;    0.000
437.730; 2464.700;  239.050;    0.000
437.780; 2423.700;  221.050;    0.000
437.829; 2358.700;  254.050;    0.000
437.879; 2500.700;  221.050;    0.000
437.928; 2425.700;  205.050;    0.000
437.978; 2439.700;  223.050;    0.000
438.027; 2597.700;  262.050;    0.000
438.077; 2480.700;  280.050;    0.000
438.126; 2487.700;  254.050;    0.000
438.176; 2344.700;  230.050;    0.000
438.225; 2435.700;  227.050;    0.000
438.274; 2410.700;  264.050;    0.000
438.324; 2449.700;  233.050;    0.000
438.373; 2425.700;  238.050;    0.000
438.422; 2413.700;  260.050;    0.000
438.472; 2427.700;  223.050;    0.000
438.521; 2388.700;  213.050;    0.000
438.570; 2380.700;  236.050;    0.000
438.620; 2476.700;  282.050;    0.000
438.669; 2360.700;  209.050;    0.000
438.718; 2465.700;  245.050;    0.000
438.768; 2325.700;  238.050;    0.000
438.817; 2403.700;  259.050;    0.000
438.866; 2471.700;  232.050;    0.000
438.915; 2451.700;  288.050;    0.000
438.965; 2394.700;  228.050;    0.000
439.014; 2384.700;  246.050;    0.000
439.063; 2491.700;  287.050;    0.000
439.112; 2411.700;  217.050;    0.000
439.162; 2451.700;  275.050;    0.000
439.211; 2510.700;  287.050;    0.000
439.260; 2411.700;  238.050;    0.000
439.309; 2525.700;  225.050;    0.000
439.358; 2431.700;  248.050;    0.000
439.407; 2419.700;  237.050;    0.000
439.456; 2404.700;  223.050;    0.000
439.506; 2469.700;  266.050;    0.000
439.555; 2460.700;  260.050;    0.000
439.604; 2471.700;  233.050;    0.000
439.653; 2399.700;  242.050;    0.000
439.702; 2385.700;  255.050;    0.000
439.751; 2434.700;  202.050;    0.000
439.800; 2435.700;  247.050;    0.000
439.849; 2491.700;  250.050;    0.000
439.898; 2429.700;  216.050;    0.000
439.947; 2396.700;  231.050;    0.000
439.996; 2544.700;  272.050;    0.000
440.045; 2403.700;  217.050;    0.000
440.094; 2485.700;  220.050;    0.000
440.143; 2490.700;  245.050;    0.000
440.192; 2483.700;  267.050;    0.000
440.241; 2377.700;  263.050;    0.000
440.290; 2491.700;  246.050;    0.000
440.339; 2498.700;  225.050;    0.000
440.388; 2416.700;  256.050;    0.000
440.437; 2395.700;  253.050;    0.000
440.486; 2466.700;  249.050;    0.000
440.535; 2543.700;  232.050;    0.000
440.583; 2516.700;  220.050;    0.000
440.632; 2489.700;  239.050;    0.000
440.681; 2461.700;  236.050;    0.000
440.730; 2504.700;  282.050;    0.000
440.779; 2563.700;  245.050;    0.000
440.828; 2503.700;  213.050;    0.000
440.876; 2434.700;  231.050;    0.000
440.925; 2476.700;  271.050;    0.000
440.974; 2537.700;  240.050;    0.000
441.023; 2481.700;  214.050;    0.000
441.072; 2453.700;  236.050;    0.000
441.120; 2592.700;  271.050;    0.000
441.169; 2543.700;  281.050;    0.000
441.218; 2620.700;  255.050;    0.000
441.267; 2618.700;  272.050;    0.000
441.315; 2634.700;  229.050;    0.000
441.364; 2523.700;  241.050;    0.000
441.413; 2547.700;  224.050;    0.000
441.461; 2539.700;  241.050;    0.000
441.510; 2642.700;  289.050;    0.000
441.559; 2610.700;  222.050;    0.000
441.607; 2589.700;  242.050;    0.000
441.656; 2541.700;  255.050;    0.000
441.705; 2657.700;  260.050;    0.000
441.753; 2564.700;  290.050;    0.000
441.802; 2582.700;  264.050;    0.000
441.850; 2552.700;  224.050;    0.000
441.899; 2608.700;  275.050;    0.000
441.948; 2580.700;  227.050;    0.000
441.996; 2613.700;  216.050;    0.000
442.045; 2552.700;  271.050;    0.000
442.093; 2553.700;  227.050;    0.000
442.142; 2563.700;  273.050;    0.000
442.190; 2535.700;  257.050;    0.000
442.239; 2584.700;  269.050;    0.000
442.287; 2555.700;  257.050;    0.000
442.336; 2640.700;  237.050;    0.000
442.384; 2587.700;  214.050;    0.000
442.433; 2517.700;  272.050;    0.000
442.481; 2615.700;  258.050;    0.000
442.529; 2531.700;  242.050;    0.000
442.578; 2467.700;  278.050;    0.000
442.626; 2579.700;  264.050;    0.000
442.675; 2472.700;  293.050;    0.000
442.723; 2537.700;  244.050;    0.000
442.771; 2525.700;  232.050;    0.000
442.820; 2567.700;  266.050;    0.000
442.868; 2621.700;  253.050;    0.000
442.917; 2603.700;  250.050;    0.000
442.965; 2530.700;  279.050;    0.000
443.013; 2612.700;  253.050;    0.000
443.062; 2651.700;  282.050;    0.000
443.110; 2582.700;  258.050;    0.000
443.158; 2535.700;  246.050;    0.000
443.206; 2568.700;  255.050;    0.000
443.255; 2577.700;  296.050;    0.000
443.303; 2639.700;  272.050;    0.000
443.351; 2682.700;  270.050;    0.000
443.399; 2589.700;  258.050;    0.000
443.448; 2621.700;  265.050;    0.000
443.496; 2532.700;  219.050;    0.000
443.544; 2569.700;  205.050;    0.000
443.592; 2562.700;  266.050;    0.000
443.640; 2660.700;  260.050;    0.000
443.689; 2626.700;  232.050;    0.000
443.737; 2657.700;  281.050;    0.000
443.785; 2604.700;  248.050;    0.000
443.833; 2700.700;  286.050;    0.000
443.881; 2541.700;  225.050;    0.000
443.929; 2662.700;  255.050;    0.000
443.977; 2584.700;  248.050;    0.000
444.025; 2575.700;  255.050;    0.000
444.074; 2627.700;  266.050;    0.000
444.122; 2726.700;  266.050;    0.000
444.170; 2682.700;  207.050;    0.000
444.218; 2733.700;  253.050;    0.000
444.266; 2737.700;  263.050;    0.000
444.314; 2681.700;  272.050;    0.000
444.362; 2762.700;  272.050;    0.000
444.410; 2680.700;  255.050;    0.000
444.458; 2746.700;  288.050;    0.000
444.506; 2696.700;  263.050;    0.000
444.554; 2680.700;  243.050;    0.000
444.602; 2794.700;  285.050;    0.000
444.650; 2821.700;  273.050;    0.000
444.698; 2766.700;  221.050;    0.000
444.746; 2789.700;  243.050;    0.000
444.793; 2761.700;  217.050;    0.000
444.841; 2802.700;  262.050;    0.000
444.889; 2800.700;  264.050;    0.000
444.937; 2726.700;  226.050;    0.000
444.985; 2772.700;  257.050;    0.000
445.033; 2770.700;  264.050;    0.000
445.081; 2716.700;  264.050;    0.000
445.129; 2563.700;  187.050;    0.000
445.176; 2744.700;  212.050;    0.000
445.224; 2767.700;  198.050;    0.000
445.272; 2784.700;  265.050;    0.000
445.320; 2729.700;  239.050;    0.000
445.368; 2781.700;  245.050;    0.000
445.415; 2733.700;  215.050;    0.000
445.463; 2687.700;  202.050;    0.000
445.511; 2789.700;  234.050;    0.000
445.559; 2692.700;  269.050;    0.000
445.606; 2674.700;  214.050;    0.000
445.654; 2674.700;  227.050;    0.000
445.702; 2659.700;  276.050;    0.000
445.749; 2788.700;  256.050;    0.000
445.797; 2749.700;  236.050;    0.000
445.845; 2722.700;  230.050;    0.000
445.892; 2762.700;  233.050;    0.000
445.940; 2675.700;  257.050;    0.000
445.988; 2697.700;  253.050;    0.000
446.035; 2780.700;  265.050;    0.000
446.083; 2740.700;  254.050;    0.000
446.130; 2716.700;  228.050;    0.000
446.178; 2697.700;  256.050;    0.000
446.226; 2688.700;  238.050;    0.000
446.273; 2769.700;  228.050;    0.000
446.321; 2793.700;  220.050;    0.000
446.368; 2791.700;  249.050;    0.000
446.416; 2796.700;  221.050;    0.000
446.463; 2767.700;  232.050;    0.000
446.511; 2760.700;  243.050;    0.000
446.558; 2790.700;  217.050;    0.000
446.606; 2743.700;  256.050;    0.000
446.653; 2807.700;  238.050;    0.000
446.701; 2841.700;  259.050;    0.000
446.748; 2861.700;  227.050;    0.000
446.796; 2900.700;  236.050;    0.000
446.843; 2897.700;  241.050;    0.000
446.891; 2799.700;  292.050;    0.000
446.938; 2884.700;  219.050;    0.000
446.985; 2960.700;  255.050;    0.000
447.033; 2917.700;  237.050;    0.000
447.080; 2900.700;  278.050;    0.000
447.128; 2893.700;  237.050;    0.000
447.175; 3091.700;  247.050;    0.000
447.222; 3015.700;  235.050;    0.000
447.270; 3090.700;  274.050;    0.000
447.317; 3031.700;  222.050;    0.000
447.364; 3022.700;  230.050;    0.000
447.411; 3081.700;  297.050;    0.000
447.459; 3203.700;  243.050;    0.000
447.506; 3020.700;  202.050;    0.000
447.553; 3185.700;  232.050;    0.000
447.601; 3256.700;  262.050;    0.000
447.648; 3258.700;  254.050;    0.000
447.695; 3321.700;  287.050;    0.000
447.742; 3313.700;  232.050;    0.000
447.789; 3280.700;  257.050;    0.000
447.837; 3381.700;  260.050;    0.000
447.884; 3402.700;  272.050;    0.000
447.931; 3464.700;  241.050;    0.000
447.978; 3482.700;  241.050;    0.000
448.025; 3527.700;  264.050;    0.000
448.072; 3592.700;  279.050;    0.000
448.120; 3590.700;  263.050;    0.000
448.167; 3595.700;  284.050;    0.000
448.214; 3516.700;  252.050;    0.000
448.261; 3417.700;  247.050;    0.000
448.308; 3365.700;  249.050;    0.000
448.355; 3486.700;  263.050;    0.000
448.402; 3339.700;  251.050;    0.000
448.449; 3177.700;  257.050;    0.000
448.496; 3166.700;  243.050;    0.000
448.543; 3172.700;  274.050;    0.000
448.590; 3110.700;  299.050;    0.000
448.637; 3141.700;  259.050;    0.000
448.684; 3144.700;  266.050;    0.000
448.731; 3066.700;  261.050;    0.000
448.778; 3035.700;  292.050;    0.000
448.825; 3044.700;  253.050;    0.000
448.872; 2942.700;  253.050;    0.000
448.919; 2957.700;  218.050;    0.000
448.966; 2950.700;  254.050;    0.000
449.013; 2917.700;  263.050;    0.000
449.060; 2927.700;  282.050;    0.000
449.107; 2850.700;  244.050;    0.000
449.154; 2894.700;  236.050;    0.000
449.200; 2930.700;  226.050;    0.000
449.247; 2786.700;  273.050;    0.000
449.294; 2825.700;  270.050;    0.000
449.341; 2756.700;  283.050;    0.000
449.388; 2764.700;  261.050;    0.000
449.435; 2676.700;  254.050;    0.000
449.481; 2794.700;  318.050;    0.000
449.528; 2698.700;  274.050;    0.000
449.575; 2669.700;  251.050;    0.000
449.622; 2737.700;  276.050;    0.000
449.668; 2689.700;  242.050;    0.000
449.715; 2610.700;  286.050;    0.000
449.762; 2638.700;  268.050;    0.000
449.809; 2792.700;  285.050;    0.000
449.855; 2666.700;  277.050;    0.000
449.902; 2646.700;  246.050;    0.000
449.949; 2692.700;  268.050;    0.000
449.995; 2664.700;  289.050;    0.000
450.042; 2681.700;  256.050;    0.000
450.089; 2644.700;  290.050;    0.000
450.135; 2638.700;  300.050;    0.000
450.182; 2577.700;  317.050;    0.000
450.229; 2583.700;  282.050;    0.000
450.275; 2662.700;  307.050;    0.000
450.322; 2597.700;  260.050;    0.000
450.368; 2600.700;  315.050;    0.000
450.415; 2684.700;  306.050;    0.000
450.462; 2611.700;  314.050;    0.000
450.508; 2568.700;  303.050;    0.000
450.555; 2532.700;  281.050;    0.000
450.601; 2611.700;  291.050;    0.000
450.648; 2457.700;  288.050;    0.000
450.694; 2581.700;  290.050;    0.000
450.741; 2561.700;  303.050;    0.000
450.787; 2513.700;  298.050;    0.000
450.834; 2579.700;  265.050;    0.000
450.880; 2578.700;  273.050;    0.000
450.927; 2554.700;  312.050;    0.000
450.973; 2490.700;  303.050;    0.000
451.019; 2540.700;  222.050;    0.000
451.066; 2485.700;  284.050;    0.000
451.112; 2522.700;  296.050;    0.000
451.159; 2372.700;  299.050;    0.000
451.205; 2446.700;  311.050;    0.000
451.251; 2445.700;  306.050;    0.000
451.298; 2474.700;  281.050;    0.000
451.344; 2510.700;  311.050;    0.000
451.390; 2557.700;  331.050;    0.000
451.437; 2488.700;  303.050;    0.000
451.483; 2448.700;  284.050;    0.000
451.529; 2418.700;  310.050;    0.000
451.576; 2406.700;  301.050;    0.000
451.622; 2506.700;  275.050;    0.000
451.668; 2403.700;  269.050;    0.000
451.714; 2411.700;  277.050;    0.000
451.761; 2520.700;  298.050;    0.000
451.807; 2450.700;  316.050;    0.000
451.853; 2484.700;  301.050;    0.000
451.899; 2333.700;  292.050;    0.000
451.945; 2461.700;  324.050;    0.000
451.992; 2495.700;  292.050;    0.000
452.038; 2444.700;  261.050;    0.000
452.084; 2393.700;  286.050;    0.000
452.130; 2518.700;  301.050;    0.000
452.176; 2370.700;  287.050;    0.000
452.222; 2393.700;  265.050;    0.000
452.268; 2365.700;  268.050;    0.000
452.315; 2400.700;  272.050;    0.000
452.361; 2394.700;  258.050;    0.000
452.407; 2378.700;  279.050;    0.000
452.453; 2392.700;  252.050;    0.000
452.499; 2412.700;  305.050;    0.000
452.545; 2329.700;  263.050;    0.000
452.591; 2384.700;  284.050;    0.000
452.637; 2424.700;  289.050;    0.000
452.683; 2327.700;  249.050;    0.000
452.729; 2379.700;  290.050;    0.000
452.775; 2356.700;  315.050;    0.000
452.821; 2335.700;  271.050;    0.000
452.867; 2381.700;  258.050;    0.000
452.913; 2343.700;  256.050;    0.000
452.959; 2341.700;  266.050;    0.000
453.005; 2373.700;  299.050;    0.000
453.051; 2395.700;  299.050;    0.000
453.097; 2394.700;  268.050;    0.000
453.142; 2355.700;  251.050;    0.000
453.188; 2332.700;  284.050;    0.000
453.234; 2322.700;  285.050;    0.000
453.280; 2417.700;  263.050;    0.000
453.326; 2308.700;  273.050;    0.000
453.372; 2281.700;  253.050;    0.000
453.418; 2385.700;  269.050;    0.000
453.463; 2286.700;  250.050;    0.000
453.509; 2344.700;  289.050;    0.000
453.555; 2333.700;  262.050;    0.000
453.601; 2366.700;  274.050;    0.000
453.647; 2342.700;  306.050;    0.000
453.692; 2328.700;  264.050;    0.000
453.738; 2293.700;  312.050;    0.000
453.784; 2358.700;  300.050;    0.000
453.829; 2406.700;  284.050;    0.000
453.875; 2348.700;  270.050;    0.000
453.921; 2217.700;  237.050;    0.000
453.967; 2224.700;  263.050;    0.000
454.012; 2350.700;  295.050;    0.000
454.058; 2310.700;  293.050;    0.000
454.104; 2357.700;  264.050;    0.000
454.149; 2352.700;  282.050;    0.000
454.195; 2189.700;  277.050;    0.000
454.240; 2326.700;  307.050;    0.000
454.286; 2292.700;  282.050;    0.000
454.332; 2322.700;  291.050;    0.000
454.377; 2237.700;  302.050;    0.000
454.423; 2330.700;  276.050;    0.000
454.468; 2264.700;  281.050;    0.000
454.514; 2299.700;  290.050;    0.000
454.559; 2334.700;  289.050;    0.000
454.605; 2266.700;  258.050;    0.000
454.650; 2272.700;  281.050;    0.000
454.696; 2287.700;  308.050;    0.000
454.741; 2333.700;  288.050;    0.000
454.787; 2338.700;  284.050;    0.000
454.832; 2236.700;  306.050;    0.000
454.878; 2303.700;  288.050;    0.000
454.923; 2229.700;  287.050;    0.000
454.969; 2264.700;  325.050;    0.000
455.014; 2368.700;  323.050;    0.000
455.060; 2321.700;  290.050;    0.000
455.105; 2247.700;  285.050;    0.000
455.150; 2404.700;  303.050;    0.000
455.196; 2353.700;  282.050;    0.000
455.241; 2269.700;  281.050;    0.000
455.286; 2286.700;  290.050;    0.000
455.332; 2265.700;  280.050;    0.000
455.377; 2265.700;  243.050;    0.000
455.422; 2224.700;  308.050;    0.000
455.468; 2232.700;  308.050;    0.000
455.513; 2304.700;  290.050;    0.000
455.558; 2262.700;  211.050;    0.000
455.604; 2316.700;  289.050;    0.000
455.649; 2257.700;  297.050;    0.000
455.694; 2283.700;  287.050;    0.000
455.739; 2261.700;  296.050;    0.000
455.785; 2344.700;  315.050;    0.000
455.830; 2317.700;  328.050;    0.000
455.875; 2264.700;  310.050;    0.000
455.920; 2237.700;  261.050;    0.000
455.965; 2290.700;  277.050;    0.000
456.010; 2297.700;  317.050;    0.000
456.056; 2218.700;  299.050;    0.000
456.101; 2277.700;  262.050;    0.000
456.146; 2326.700;  318.050;    0.000
456.191; 2274.700;  274.050;    0.000
456.236; 2260.700;  274.050;    0.000
456.281; 2224.700;  275.050;    0.000
456.326; 2278.700;  256.050;    0.000
456.371; 2290.700;  260.050;    0.000
456.416; 2316.700;  304.050;    0.000
456.461; 2287.700;  278.050;    0.000
456.507; 2243.700;  299.050;    0.000
456.552; 2284.700;  305.050;    0.000
456.597; 2242.700;  271.050;    0.000
456.642; 2275.700;  273.050;    0.000
456.687; 2275.700;  290.050;    0.000
456.732; 2331.700;  327.050;    0.000
456.776; 2291.700;  284.050;    0.000
456.821; 2356.700;  321.050;    0.000
456.866; 2287.700;  272.050;    0.000
456.911; 2231.700;  232.050;    0.000
456.956; 2345.700;  263.050;    0.000
457.001; 2179.700;  277.050;    0.000
457.046; 2201.700;  284.050;    0.000
457.091; 2297.700;  269.050;    0.000
457.136; 2221.700;  269.050;    0.000
457.181; 2290.700;  275.050;    0.000
457.225; 2311.700;  310.050;    0.000
457.270; 2264.700;  295.050;    0.000
457.315; 2246.700;  284.050;    0.000
457.360; 2220.700;  264.050;    0.000
457.405; 2218.700;  273.050;    0.000
457.450; 2271.700;  284.050;    0.000
457.494; 2215.700;  273.050;    0.000
457.539; 2158.700;  287.050;    0.000
457.584; 2283.700;  279.050;    0.000
457.629; 2278.700;  288.050;    0.000
457.673; 2277.700;  297.050;    0.000
457.718; 2247.700;  270.050;    0.000
457.763; 2358.700;  295.050;    0.000
457.807; 2341.700;  321.050;    0.000
457.852; 2362.700;  293.050;    0.000
457.897; 2390.700;  282.050;    0.000
457.941; 2327.700;  320.050;    0.000
457.986; 2382.700;  295.050;    0.000
458.031; 2276.700;  314.050;    0.000
458.075; 2422.700;  280.050;    0.000
458.120; 2320.700;  314.050;    0.000
458.165; 2317.700;  289.050;    0.000
458.209; 2364.700;  289.050;    0.000
458.254; 2375.700;  272.050;    0.000
458.298; 2394.700;  305.050;    0.000
458.343; 2281.700;  284.050;    0.000
458.387; 2320.700;  340.050;    0.000
458.432; 2411.700;  306.050;    0.000
458.476; 2413.700;  311.050;    0.000
458.521; 2390.700;  304.050;    0.000
458.565; 2450.700;  329.050;    0.000
458.610; 2419.700;  287.050;    0.000
458.654; 2417.700;  300.050;    0.000
458.699; 2438.700;  295.050;    0.000
458.743; 2446.700;  269.050;    0.000
458.788; 2350.700;  294.050;    0.000
458.832; 2475.700;  301.050;    0.000
458.877; 2450.700;  303.050;    0.000
458.921; 2416.700;  259.050;    0.000
458.965; 2462.700;  308.050;    0.000
459.010; 2416.700;  330.050;    0.000
459.054; 2459.700;  298.050;    0.000
459.099; 2504.700;  303.050;    0.000
459.143; 2459.700;  333.050;    0.000
459.187; 2428.700;  291.050;    0.000
459.231; 2465.700;  316.050;    0.000
459.276; 2509.700;  294.050;    0.000
459.320; 2527.700;  291.050;    0.000
459.364; 2501.700;  318.050;    0.000
459.409; 2483.700;  325.050;    0.000
459.453; 2470.700;  293.050;    0.000
459.497; 2520.700;  354.050;    0.000
459.541; 2603.700;  313.050;    0.000
459.586; 2416.700;  282.050;    0.000
459.630; 2545.700;  286.050;    0.000
459.674; 2526.700;  292.050;    0.000
459.718; 2543.700;  280.050;    0.000
459.762; 2545.700;  304.050;    0.000
459.807; 2479.700;  352.050;    0.000
459.851; 2486.700;  300.050;    0.000
459.895; 2572.700;  311.050;    0.000
459.939; 2547.700;  303.050;    0.000
459.983; 2532.700;  299.050;    0.000
460.027; 2505.700;  307.050;    0.000
460.071; 2556.700;  313.050;    0.000
460.115; 2577.700;  325.050;    0.000
460.159; 2581.700;  331.050;    0.000
460.204; 2511.700;  301.050;    0.000
460.248; 2580.700;  329.050;    0.000
460.292; 2545.700;  310.050;    0.000
460.336; 2598.700;  304.050;    0.000
460.380; 2548.700;  313.050;    0.000
460.424; 2559.700;  300.050;    0.000
460.468; 2619.700;  338.050;    0.000
460.512; 2578.700;  310.050;    0.000
460.556; 2640.700;  337.050;    0.000
460.599; 2611.700;  310.050;    0.000
460.643; 2615.700;  303.050;    0.000
460.687; 2613.700;  316.050;    0.000
460.731; 2506.700;  292.050;    0.000
460.775; 2607.700;  294.050;    0.000
460.819; 2715.700;  310.050;    0.000
460.863; 2619.700;  349.050;    0.000
460.907; 2598.700;  265.050;    0.000
460.951; 2592.700;  325.050;    0.000
460.995; 2567.700;  338.050;    0.000
461.038; 2677.700;  304.050;    0.000
461.082; 2603.700;  312.050;    0.000
461.126; 2570.700;  358.050;    0.000
461.170; 2609.700;  306.050;    0.000
461.214; 2619.700;  330.050;    0.000
461.257; 2610.700;  311.050;    0.000
461.301; 2695.700;  303.050;    0.000
461.345; 2586.700;  310.050;    0.000
461.389; 2592.700;  296.050;    0.000
461.432; 2703.700;  304.050;    0.000
461.476; 2668.700;  305.050;    0.000
461.520; 2645.700;  319.050;    0.000
461.563; 2646.700;  294.050;    0.000
461.607; 2595.700;  295.050;    0.000
461.651; 2659.700;  335.050;    0.000
461.694; 2627.700;  276.050;    0.000
461.738; 2566.700;  327.050;    0.000
461.782; 2600.700;  288.050;    0.000
461.825; 2643.700;  319.050;    0.000
461.869; 2711.700;  305.050;    0.000
461.913; 2661.700;  281.050;    0.000
461.956; 2766.700;  281.050;    0.000
462.000; 2729.700;  339.050;    0.000
462.043; 2753.700;  347.050;    0.000
462.087; 2667.700;  314.050;    0.000
462.130; 2734.700;  332.050;    0.000
462.174; 2738.700;  332.050;    0.000
462.217; 2718.700;  299.050;    0.000
462.261; 2752.700;  323.050;    0.000
462.304; 2759.700;  286.050;    0.000
462.348; 2792.700;  305.050;    0.000
462.391; 2710.700;  293.050;    0.000
462.435; 2764.700;  365.050;    0.000
462.478; 2687.700;  329.050;    0.000
462.522; 2779.700;  316.050;    0.000
462.565; 2753.700;  328.050;    0.000
462.608; 2832.700;  350.050;    0.000
462.652; 2823.700;  328.050;    0.000
462.695; 2963.700;  358.050;    0.000
462.739; 2897.700;  317.050;    0.000
462.782; 2870.700;  329.050;    0.000
462.825; 2871.700;  368.050;    0.000
462.869; 2995.700;  343.050;    0.000
462.912; 2875.700;  404.050;    0.000
462.955; 2872.700;  328.050;    0.000
462.998; 2958.700;  340.050;    0.000
463.042; 2867.700;  361.050;    0.000
463.085; 2933.700;  337.050;    0.000
463.128; 2949.700;  373.050;    0.000
463.172; 2835.700;  347.050;    0.000
463.215;  388.700;  305.050;    0.000
463.258;  319.700;  324.050;    0.000
463.301;  312.700;  296.050;    0.000
463.344;  336.700;  332.050;    0.000
463.388;  321.700;  309.050;    0.000
463.431;  305.700;  298.050;    0.000
463.474;  323.700;  351.050;    0.000
463.517;  311.700;  319.050;    0.000
463.560;  349.700;  325.050;    0.000
463.603;  314.700;  330.050;    0.000
463.646;  348.700;  332.050;    0.000
463.690;  347.700;  325.050;    0.000
463.733;  343.700;  323.050;    0.000
463.776;  294.700;  276.050;    0.000
463.819;  336.700;  320.050;    0.000
463.862;  283.700;  275.050;    0.000

