
Integration time [ms]:   1.000
Averaging Nr. [scans]: 1
Smoothing Nr. [pixels]: 0
Data measured with spectrometer [name]: UV1
Wave   ;Sample   ;Dark     ;Reference
[nm]   ;[counts] ;[counts] ;[counts] 

236.381;  162.450;    0.000;    0.000
236.451;  168.450;    0.000;    0.000
236.520;  181.450;    0.000;    0.000
236.590;  207.450;    0.000;    0.000
236.660;  170.450;    0.000;    0.000
236.730;  192.450;    0.000;    0.000
236.799;  197.450;    0.000;    0.000
236.869;  151.450;    0.000;    0.000
236.939;  152.450;    0.000;    0.000
237.009;  158.450;    0.000;    0.000
237.078;  179.450;    0.000;    0.000
237.148;  173.450;    0.000;    0.000
237.218;  206.450;    0.000;    0.000
237.287;  161.450;    0.000;    0.000
237.357;  170.450;    0.000;    0.000
237.427;  150.450;    0.000;    0.000
237.496;  473.450;    0.000;    0.000
237.566;  398.450;    0.000;    0.000
237.636;  387.450;    0.000;    0.000
237.705;  420.450;    0.000;    0.000
237.775;  338.450;    0.000;    0.000
237.845;  397.450;    0.000;    0.000
237.914;  410.450;    0.000;    0.000
237.984;  408.450;    0.000;    0.000
238.054;  351.450;    0.000;    0.000
238.123;  400.450;    0.000;    0.000
238.193;  363.450;    0.000;    0.000
238.263;  420.450;    0.000;    0.000
238.332;  391.450;    0.000;    0.000
238.402;  408.450;    0.000;    0.000
238.471;  385.450;    0.000;    0.000
238.541;  330.450;    0.000;    0.000
238.611;  377.450;    0.000;    0.000
238.680;  376.450;    0.000;    0.000
238.750;  389.450;    0.000;    0.000
238.819;  395.450;    0.000;    0.000
238.889;  406.450;    0.000;    0.000
238.958;  401.450;    0.000;    0.000
239.028;  401.450;    0.000;    0.000
239.097;  365.450;    0.000;    0.000
239.167;  436.450;    0.000;    0.000
239.237;  396.450;    0.000;    0.000
239.306;  385.450;    0.000;    0.000
239.376;  391.450;    0.000;    0.000
239.445;  407.450;    0.000;    0.000
239.515;  395.450;    0.000;    0.000
239.584;  403.450;    0.000;    0.000
239.654;  363.450;    0.000;    0.000
239.723;  394.450;    0.000;    0.000
239.793;  366.450;    0.000;    0.000
239.862;  378.450;    0.000;    0.000
239.932;  382.450;    0.000;    0.000
240.001;  364.450;    0.000;    0.000
240.070;  384.450;    0.000;    0.000
240.140;  396.450;    0.000;    0.000
240.209;  356.450;    0.000;    0.000
240.279;  338.450;    0.000;    0.000
240.348;  395.450;    0.000;    0.000
240.418;  407.450;    0.000;    0.000
240.487;  397.450;    0.000;    0.000
240.556;  399.450;    0.000;    0.000
240.626;  446.450;    0.000;    0.000
240.695;  348.450;    0.000;    0.000
240.765;  420.450;    0.000;    0.000
240.834;  365.450;    0.000;    0.000
240.903;  382.450;    0.000;    0.000
240.973;  346.450;    0.000;    0.000
241.042;  399.450;    0.000;    0.000
241.112;  401.450;    0.000;    0.000
241.181;  389.450;    0.000;    0.000
241.250;  332.450;    0.000;    0.000
241.320;  424.450;    0.000;    0.000
241.389;  392.450;    0.000;    0.000
241.458;  417.450;    0.000;    0.000
241.528;  391.450;    0.000;    0.000
241.597;  363.450;    0.000;    0.000
241.666;  387.450;    0.000;    0.000
241.736;  453.450;    0.000;    0.000
241.805;  363.450;    0.000;    0.000
241.874;  382.450;    0.000;    0.000
241.943;  394.450;    0.000;    0.000
242.013;  398.450;    0.000;    0.000
242.082;  381.450;    0.000;    0.000
242.151;  348.450;    0.000;    0.000
242.221;  324.450;    0.000;    0.000
242.290;  398.450;    0.000;    0.000
242.359;  346.450;    0.000;    0.000
242.428;  435.450;    0.000;    0.000
242.498;  363.450;    0.000;    0.000
242.567;  391.450;    0.000;    0.000
242.636;  334.450;    0.000;    0.000
242.705;  422.450;    0.000;    0.000
242.774;  378.450;    0.000;    0.000
242.844;  356.450;    0.000;    0.000
242.913;  380.450;    0.000;    0.000
242.982;  372.450;    0.000;    0.000
243.051;  370.450;    0.000;    0.000
243.120;  394.450;    0.000;    0.000
243.190;  339.450;    0.000;    0.000
243.259;  363.450;    0.000;    0.000
243.328;  393.450;    0.000;    0.000
243.397;  392.450;    0.000;    0.000
243.466;  406.450;    0.000;    0.000
243.535;  384.450;    0.000;    0.000
243.605;  366.450;    0.000;    0.000
243.674;  387.450;    0.000;    0.000
243.743;  423.450;    0.000;    0.000
243.812;  346.450;    0.000;    0.000
243.881;  351.450;    0.000;    0.000
243.950;  358.450;    0.000;    0.000
244.019;  392.450;    0.000;    0.000
244.088;  392.450;    0.000;    0.000
244.158;  380.450;    0.000;    0.000
244.227;  384.450;    0.000;    0.000
244.296;  356.450;    0.000;    0.000
244.365;  387.450;    0.000;    0.000
244.434;  355.450;    0.000;    0.000
244.503;  403.450;    0.000;    0.000
244.572;  375.450;    0.000;    0.000
244.641;  351.450;    0.000;    0.000
244.710;  430.450;    0.000;    0.000
244.779;  376.450;    0.000;    0.000
244.848;  346.450;    0.000;    0.000
244.917;  390.450;    0.000;    0.000
244.986;  356.450;    0.000;    0.000
245.055;  412.450;    0.000;    0.000
245.124;  399.450;    0.000;    0.000
245.193;  376.450;    0.000;    0.000
245.262;  338.450;    0.000;    0.000
245.331;  349.450;    0.000;    0.000
245.400;  325.450;    0.000;    0.000
245.469;  392.450;    0.000;    0.000
245.538;  399.450;    0.000;    0.000
245.607;  382.450;    0.000;    0.000
245.676;  371.450;    0.000;    0.000
245.745;  381.450;    0.000;    0.000
245.814;  397.450;    0.000;    0.000
245.883;  430.450;    0.000;    0.000
245.952;  386.450;    0.000;    0.000
246.021;  370.450;    0.000;    0.000
246.090;  413.450;    0.000;    0.000
246.159;  413.450;    0.000;    0.000
246.227;  372.450;    0.000;    0.000
246.296;  398.450;    0.000;    0.000
246.365;  376.450;    0.000;    0.000
246.434;  405.450;    0.000;    0.000
246.503;  393.450;    0.000;    0.000
246.572;  427.450;    0.000;    0.000
246.641;  396.450;    0.000;    0.000
246.710;  373.450;    0.000;    0.000
246.779;  407.450;    0.000;    0.000
246.847;  403.450;    0.000;    0.000
246.916;  400.450;    0.000;    0.000
246.985;  387.450;    0.000;    0.000
247.054;  379.450;    0.000;    0.000
247.123;  366.450;    0.000;    0.000
247.192;  394.450;    0.000;    0.000
247.260;  383.450;    0.000;    0.000
247.329;  390.450;    0.000;    0.000
247.398;  344.450;    0.000;    0.000
247.467;  350.450;    0.000;    0.000
247.536;  442.450;    0.000;    0.000
247.604;  414.450;    0.000;    0.000
247.673;  378.450;    0.000;    0.000
247.742;  343.450;    0.000;    0.000
247.811;  430.450;    0.000;    0.000
247.879;  384.450;    0.000;    0.000
247.948;  384.450;    0.000;    0.000
248.017;  418.450;    0.000;    0.000
248.086;  414.450;    0.000;    0.000
248.154;  392.450;    0.000;    0.000
248.223;  413.450;    0.000;    0.000
248.292;  425.450;    0.000;    0.000
248.361;  434.450;    0.000;    0.000
248.429;  392.450;    0.000;    0.000
248.498;  373.450;    0.000;    0.000
248.567;  373.450;    0.000;    0.000
248.635;  379.450;    0.000;    0.000
248.704;  436.450;    0.000;    0.000
248.773;  421.450;    0.000;    0.000
248.841;  409.450;    0.000;    0.000
248.910;  359.450;    0.000;    0.000
248.979;  384.450;    0.000;    0.000
249.047;  357.450;    0.000;    0.000
249.116;  379.450;    0.000;    0.000
249.185;  397.450;    0.000;    0.000
249.253;  384.450;    0.000;    0.000
249.322;  373.450;    0.000;    0.000
249.390;  371.450;    0.000;    0.000
249.459;  402.450;    0.000;    0.000
249.528;  385.450;    0.000;    0.000
249.596;  351.450;    0.000;    0.000
249.665;  369.450;    0.000;    0.000
249.733;  386.450;    0.000;    0.000
249.802;  410.450;    0.000;    0.000
249.871;  371.450;    0.000;    0.000
249.939;  360.450;    0.000;    0.000
250.008;  393.450;    0.000;    0.000
250.076;  338.450;    0.000;    0.000
250.145;  338.450;    0.000;    0.000
250.213;  368.450;    0.000;    0.000
250.282;  329.450;    0.000;    0.000
250.350;  339.450;    0.000;    0.000
250.419;  366.450;    0.000;    0.000
250.487;  384.450;    0.000;    0.000
250.556;  381.450;    0.000;    0.000
250.624;  357.450;    0.000;    0.000
250.693;  336.450;    0.000;    0.000
250.761;  376.450;    0.000;    0.000
250.830;  379.450;    0.000;    0.000
250.898;  359.450;    0.000;    0.000
250.967;  323.450;    0.000;    0.000
251.035;  321.450;    0.000;    0.000
251.104;  361.450;    0.000;    0.000
251.172;  346.450;    0.000;    0.000
251.241;  350.450;    0.000;    0.000
251.309;  364.450;    0.000;    0.000
251.378;  363.450;    0.000;    0.000
251.446;  331.450;    0.000;    0.000
251.514;  342.450;    0.000;    0.000
251.583;  360.450;    0.000;    0.000
251.651;  295.450;    0.000;    0.000
251.720;  380.450;    0.000;    0.000
251.788;  334.450;    0.000;    0.000
251.856;  292.450;    0.000;    0.000
251.925;  323.450;    0.000;    0.000
251.993;  352.450;    0.000;    0.000
252.062;  359.450;    0.000;    0.000
252.130;  378.450;    0.000;    0.000
252.198;  329.450;    0.000;    0.000
252.267;  332.450;    0.000;    0.000
252.335;  303.450;    0.000;    0.000
252.403;  274.450;    0.000;    0.000
252.472;  330.450;    0.000;    0.000
252.540;  311.450;    0.000;    0.000
252.608;  335.450;    0.000;    0.000
252.677;  300.450;    0.000;    0.000
252.745;  370.450;    0.000;    0.000
252.813;  284.450;    0.000;    0.000
252.881;  260.450;    0.000;    0.000
252.950;  300.450;    0.000;    0.000
253.018;  319.450;    0.000;    0.000
253.086;  270.450;    0.000;    0.000
253.155;  317.450;    0.000;    0.000
253.223;  307.450;    0.000;    0.000
253.291;  331.450;    0.000;    0.000
253.359;  290.450;    0.000;    0.000
253.428;  302.450;    0.000;    0.000
253.496;  311.450;    0.000;    0.000
253.564;  242.450;    0.000;    0.000
253.632;  288.450;    0.000;    0.000
253.700;  332.450;    0.000;    0.000
253.769;  314.450;    0.000;    0.000
253.837;  332.450;    0.000;    0.000
253.905;  326.450;    0.000;    0.000
253.973;  319.450;    0.000;    0.000
254.041;  301.450;    0.000;    0.000
254.110;  316.450;    0.000;    0.000
254.178;  271.450;    0.000;    0.000
254.246;  268.450;    0.000;    0.000
254.314;  338.450;    0.000;    0.000
254.382;  321.450;    0.000;    0.000
254.450;  235.450;    0.000;    0.000
254.518;  310.450;    0.000;    0.000
254.587;  255.450;    0.000;    0.000
254.655;  312.450;    0.000;    0.000
254.723;  269.450;    0.000;    0.000
254.791;  316.450;    0.000;    0.000
254.859;  298.450;    0.000;    0.000
254.927;  312.450;    0.000;    0.000
254.995;  273.450;    0.000;    0.000
255.063;  313.450;    0.000;    0.000
255.131;  295.450;    0.000;    0.000
255.199;  258.450;    0.000;    0.000
255.267;  237.450;    0.000;    0.000
255.336;  333.450;    0.000;    0.000
255.404;  247.450;    0.000;    0.000
255.472;  300.450;    0.000;    0.000
255.540;  292.450;    0.000;    0.000
255.608;  331.450;    0.000;    0.000
255.676;  277.450;    0.000;    0.000
255.744;  312.450;    0.000;    0.000
255.812;  275.450;    0.000;    0.000
255.880;  311.450;    0.000;    0.000
255.948;  314.450;    0.000;    0.000
256.016;  337.450;    0.000;    0.000
256.084;  319.450;    0.000;    0.000
256.152;  282.450;    0.000;    0.000
256.220;  302.450;    0.000;    0.000
256.288;  314.450;    0.000;    0.000
256.356;  271.450;    0.000;    0.000
256.424;  268.450;    0.000;    0.000
256.491;  256.450;    0.000;    0.000
256.559;  274.450;    0.000;    0.000
256.627;  278.450;    0.000;    0.000
256.695;  266.450;    0.000;    0.000
256.763;  313.450;    0.000;    0.000
256.831;  267.450;    0.000;    0.000
256.899;  312.450;    0.000;    0.000
256.967;  260.450;    0.000;    0.000
257.035;  292.450;    0.000;    0.000
257.103;  305.450;    0.000;    0.000
257.171;  272.450;    0.000;    0.000
257.238;  213.450;    0.000;    0.000
257.306;  305.450;    0.000;    0.000
257.374;  323.450;    0.000;    0.000
257.442;  267.450;    0.000;    0.000
257.510;  291.450;    0.000;    0.000
257.578;  305.450;    0.000;    0.000
257.646;  313.450;    0.000;    0.000
257.713;  266.450;    0.000;    0.000
257.781;  268.450;    0.000;    0.000
257.849;  328.450;    0.000;    0.000
257.917;  303.450;    0.000;    0.000
257.985;  283.450;    0.000;    0.000
258.052;  300.450;    0.000;    0.000
258.120;  295.450;    0.000;    0.000
258.188;  279.450;    0.000;    0.000
258.256;  270.450;    0.000;    0.000
258.324;  272.450;    0.000;    0.000
258.391;  319.450;    0.000;    0.000
258.459;  332.450;    0.000;    0.000
258.527;  290.450;    0.000;    0.000
258.595;  304.450;    0.000;    0.000
258.662;  285.450;    0.000;    0.000
258.730;  304.450;    0.000;    0.000
258.798;  297.450;    0.000;    0.000
258.865;  330.450;    0.000;    0.000
258.933;  311.450;    0.000;    0.000
259.001;  339.450;    0.000;    0.000
259.069;  295.450;    0.000;    0.000
259.136;  375.450;    0.000;    0.000
259.204;  360.450;    0.000;    0.000
259.272;  332.450;    0.000;    0.000
259.339;  308.450;    0.000;    0.000
259.407;  388.450;    0.000;    0.000
259.475;  314.450;    0.000;    0.000
259.542;  321.450;    0.000;    0.000
259.610;  333.450;    0.000;    0.000
259.677;  369.450;    0.000;    0.000
259.745;  327.450;    0.000;    0.000
259.813;  358.450;    0.000;    0.000
259.880;  357.450;    0.000;    0.000
259.948;  335.450;    0.000;    0.000
260.016;  347.450;    0.000;    0.000
260.083;  362.450;    0.000;    0.000
260.151;  336.450;    0.000;    0.000
260.218;  367.450;    0.000;    0.000
260.286;  352.450;    0.000;    0.000
260.353;  382.450;    0.000;    0.000
260.421;  318.450;    0.000;    0.000
260.489;  355.450;    0.000;    0.000
260.556;  372.450;    0.000;    0.000
260.624;  349.450;    0.000;    0.000
260.691;  370.450;    0.000;    0.000
260.759;  386.450;    0.000;    0.000
260.826;  350.450;    0.000;    0.000
260.894;  401.450;    0.000;    0.000
260.961;  355.450;    0.000;    0.000
261.029;  396.450;    0.000;    0.000
261.096;  396.450;    0.000;    0.000
261.164;  382.450;    0.000;    0.000
261.231;  399.450;    0.000;    0.000
261.299;  430.450;    0.000;    0.000
261.366;  357.450;    0.000;    0.000
261.434;  409.450;    0.000;    0.000
261.501;  412.450;    0.000;    0.000
261.568;  446.450;    0.000;    0.000
261.636;  426.450;    0.000;    0.000
261.703;  445.450;    0.000;    0.000
261.771;  387.450;    0.000;    0.000
261.838;  439.450;    0.000;    0.000
261.906;  408.450;    0.000;    0.000
261.973;  434.450;    0.000;    0.000
262.040;  455.450;    0.000;    0.000
262.108;  430.450;    0.000;    0.000
262.175;  452.450;    0.000;    0.000
262.243;  431.450;    0.000;    0.000
262.310;  414.450;    0.000;    0.000
262.377;  454.450;    0.000;    0.000
262.445;  456.450;    0.000;    0.000
262.512;  459.450;    0.000;    0.000
262.579;  464.450;    0.000;    0.000
262.647;  472.450;    0.000;    0.000
262.714;  474.450;    0.000;    0.000
262.781;  483.450;    0.000;    0.000
262.849;  442.450;    0.000;    0.000
262.916;  467.450;    0.000;    0.000
262.983;  467.450;    0.000;    0.000
263.051;  438.450;    0.000;    0.000
263.118;  474.450;    0.000;    0.000
263.185;  476.450;    0.000;    0.000
263.252;  480.450;    0.000;    0.000
263.320;  484.450;    0.000;    0.000
263.387;  444.450;    0.000;    0.000
263.454;  500.450;    0.000;    0.000
263.522;  469.450;    0.000;    0.000
263.589;  507.450;    0.000;    0.000
263.656;  479.450;    0.000;    0.000
263.723;  477.450;    0.000;    0.000
263.790;  549.450;    0.000;    0.000
263.858;  483.450;    0.000;    0.000
263.925;  510.450;    0.000;    0.000
263.992;  488.450;    0.000;    0.000
264.059;  539.450;    0.000;    0.000
264.126;  553.450;    0.000;    0.000
264.194;  520.450;    0.000;    0.000
264.261;  526.450;    0.000;    0.000
264.328;  511.450;    0.000;    0.000
264.395;  528.450;    0.000;    0.000
264.462;  485.450;    0.000;    0.000
264.529;  513.450;    0.000;    0.000
264.597;  532.450;    0.000;    0.000
264.664;  530.450;    0.000;    0.000
264.731;  559.450;    0.000;    0.000
264.798;  547.450;    0.000;    0.000
264.865;  585.450;    0.000;    0.000
264.932;  561.450;    0.000;    0.000
264.999;  572.450;    0.000;    0.000
265.066;  562.450;    0.000;    0.000
265.133;  558.450;    0.000;    0.000
265.201;  581.450;    0.000;    0.000
265.268;  555.450;    0.000;    0.000
265.335;  585.450;    0.000;    0.000
265.402;  550.450;    0.000;    0.000
265.469;  564.450;    0.000;    0.000
265.536;  541.450;    0.000;    0.000
265.603;  562.450;    0.000;    0.000
265.670;  581.450;    0.000;    0.000
265.737;  552.450;    0.000;    0.000
265.804;  635.450;    0.000;    0.000
265.871;  597.450;    0.000;    0.000
265.938;  590.450;    0.000;    0.000
266.005;  619.450;    0.000;    0.000
266.072;  633.450;    0.000;    0.000
266.139;  598.450;    0.000;    0.000
266.206;  571.450;    0.000;    0.000
266.273;  574.450;    0.000;    0.000
266.340;  574.450;    0.000;    0.000
266.407;  583.450;    0.000;    0.000
266.474;  622.450;    0.000;    0.000
266.541;  598.450;    0.000;    0.000
266.608;  554.450;    0.000;    0.000
266.675;  680.450;    0.000;    0.000
266.742;  604.450;    0.000;    0.000
266.808;  618.450;    0.000;    0.000
266.875;  662.450;    0.000;    0.000
266.942;  614.450;    0.000;    0.000
267.009;  625.450;    0.000;    0.000
267.076;  633.450;    0.000;    0.000
267.143;  672.450;    0.000;    0.000
267.210;  608.450;    0.000;    0.000
267.277;  620.450;    0.000;    0.000
267.344;  641.450;    0.000;    0.000
267.410;  603.450;    0.000;    0.000
267.477;  689.450;    0.000;    0.000
267.544;  681.450;    0.000;    0.000
267.611;  697.450;    0.000;    0.000
267.678;  617.450;    0.000;    0.000
267.745;  606.450;    0.000;    0.000
267.811;  621.450;    0.000;    0.000
267.878;  645.450;    0.000;    0.000
267.945;  641.450;    0.000;    0.000
268.012;  653.450;    0.000;    0.000
268.079;  648.450;    0.000;    0.000
268.145;  667.450;    0.000;    0.000
268.212;  651.450;    0.000;    0.000
268.279;  633.450;    0.000;    0.000
268.346;  683.450;    0.000;    0.000
268.412;  639.450;    0.000;    0.000
268.479;  674.450;    0.000;    0.000
268.546;  638.450;    0.000;    0.000
268.613;  655.450;    0.000;    0.000
268.679;  636.450;    0.000;    0.000
268.746;  700.450;    0.000;    0.000
268.813;  664.450;    0.000;    0.000
268.879;  654.450;    0.000;    0.000
268.946;  676.450;    0.000;    0.000
269.013;  681.450;    0.000;    0.000
269.079;  675.450;    0.000;    0.000
269.146;  621.450;    0.000;    0.000
269.213;  662.450;    0.000;    0.000
269.280;  693.450;    0.000;    0.000
269.346;  673.450;    0.000;    0.000
269.413;  654.450;    0.000;    0.000
269.479;  661.450;    0.000;    0.000
269.546;  664.450;    0.000;    0.000
269.613;  655.450;    0.000;    0.000
269.679;  667.450;    0.000;    0.000
269.746;  656.450;    0.000;    0.000
269.813;  641.450;    0.000;    0.000
269.879;  609.450;    0.000;    0.000
269.946;  642.450;    0.000;    0.000
270.012;  676.450;    0.000;    0.000
270.079;  637.450;    0.000;    0.000
270.145;  659.450;    0.000;    0.000
270.212;  623.450;    0.000;    0.000
270.279;  666.450;    0.000;    0.000
270.345;  663.450;    0.000;    0.000
270.412;  681.450;    0.000;    0.000
270.478;  648.450;    0.000;    0.000
270.545;  680.450;    0.000;    0.000
270.611;  680.450;    0.000;    0.000
270.678;  626.450;    0.000;    0.000
270.744;  579.450;    0.000;    0.000
270.811;  669.450;    0.000;    0.000
270.877;  605.450;    0.000;    0.000
270.944;  617.450;    0.000;    0.000
271.010;  664.450;    0.000;    0.000
271.077;  720.450;    0.000;    0.000
271.143;  667.450;    0.000;    0.000
271.210;  665.450;    0.000;    0.000
271.276;  639.450;    0.000;    0.000
271.342;  651.450;    0.000;    0.000
271.409;  647.450;    0.000;    0.000
271.475;  648.450;    0.000;    0.000
271.542;  665.450;    0.000;    0.000
271.608;  664.450;    0.000;    0.000
271.675;  610.450;    0.000;    0.000
271.741;  678.450;    0.000;    0.000
271.807;  649.450;    0.000;    0.000
271.874;  647.450;    0.000;    0.000
271.940;  703.450;    0.000;    0.000
272.007;  710.450;    0.000;    0.000
272.073;  668.450;    0.000;    0.000
272.139;  663.450;    0.000;    0.000
272.206;  746.450;    0.000;    0.000
272.272;  688.450;    0.000;    0.000
272.338;  626.450;    0.000;    0.000
272.405;  679.450;    0.000;    0.000
272.471;  648.450;    0.000;    0.000
272.537;  688.450;    0.000;    0.000
272.604;  667.450;    0.000;    0.000
272.670;  700.450;    0.000;    0.000
272.736;  626.450;    0.000;    0.000
272.802;  693.450;    0.000;    0.000
272.869;  603.450;    0.000;    0.000
272.935;  674.450;    0.000;    0.000
273.001;  655.450;    0.000;    0.000
273.068;  674.450;    0.000;    0.000
273.134;  631.450;    0.000;    0.000
273.200;  722.450;    0.000;    0.000
273.266;  740.450;    0.000;    0.000
273.333;  676.450;    0.000;    0.000
273.399;  632.450;    0.000;    0.000
273.465;  690.450;    0.000;    0.000
273.531;  682.450;    0.000;    0.000
273.597;  729.450;    0.000;    0.000
273.664;  697.450;    0.000;    0.000
273.730;  693.450;    0.000;    0.000
273.796;  656.450;    0.000;    0.000
273.862;  676.450;    0.000;    0.000
273.928;  689.450;    0.000;    0.000
273.995;  647.450;    0.000;    0.000
274.061;  749.450;    0.000;    0.000
274.127;  697.450;    0.000;    0.000
274.193;  699.450;    0.000;    0.000
274.259;  771.450;    0.000;    0.000
274.325;  706.450;    0.000;    0.000
274.391;  709.450;    0.000;    0.000
274.457;  699.450;    0.000;    0.000
274.524;  764.450;    0.000;    0.000
274.590;  712.450;    0.000;    0.000
274.656;  736.450;    0.000;    0.000
274.722;  671.450;    0.000;    0.000
274.788;  710.450;    0.000;    0.000
274.854;  731.450;    0.000;    0.000
274.920;  679.450;    0.000;    0.000
274.986;  719.450;    0.000;    0.000
275.052;  752.450;    0.000;    0.000
275.118;  730.450;    0.000;    0.000
275.184;  706.450;    0.000;    0.000
275.250;  800.450;    0.000;    0.000
275.316;  728.450;    0.000;    0.000
275.382;  761.450;    0.000;    0.000
275.448;  802.450;    0.000;    0.000
275.514;  720.450;    0.000;    0.000
275.580;  757.450;    0.000;    0.000
275.646;  769.450;    0.000;    0.000
275.712;  799.450;    0.000;    0.000
275.778;  758.450;    0.000;    0.000
275.844;  787.450;    0.000;    0.000
275.910;  761.450;    0.000;    0.000
275.976;  871.450;    0.000;    0.000
276.042;  744.450;    0.000;    0.000
276.108;  854.450;    0.000;    0.000
276.174;  786.450;    0.000;    0.000
276.240;  795.450;    0.000;    0.000
276.306;  782.450;    0.000;    0.000
276.372;  813.450;    0.000;    0.000
276.437;  856.450;    0.000;    0.000
276.503;  894.450;    0.000;    0.000
276.569;  888.450;    0.000;    0.000
276.635;  852.450;    0.000;    0.000
276.701;  913.450;    0.000;    0.000
276.767;  895.450;    0.000;    0.000
276.833;  890.450;    0.000;    0.000
276.899;  975.450;    0.000;    0.000
276.964;  961.450;    0.000;    0.000
277.030;  981.450;    0.000;    0.000
277.096;  946.450;    0.000;    0.000
277.162; 1050.450;    0.000;    0.000
277.228; 1074.450;    0.000;    0.000
277.293; 1047.450;    0.000;    0.000
277.359; 1107.450;    0.000;    0.000
277.425; 1204.450;    0.000;    0.000
277.491; 1134.450;    0.000;    0.000
277.557; 1246.450;    0.000;    0.000
277.622; 1732.450;    0.000;    0.000
277.688; 1982.450;    0.000;    0.000
277.754; 1873.450;    0.000;    0.000
277.820; 1982.450;    0.000;    0.000
277.885; 2274.450;    0.000;    0.000
277.951; 2857.450;    0.000;    0.000
278.017; 2812.450;    0.000;    0.000
278.083; 2285.450;    0.000;    0.000
278.148; 2190.450;    0.000;    0.000
278.214; 2202.450;    0.000;    0.000
278.280; 2251.450;    0.000;    0.000
278.345; 2299.450;    0.000;    0.000
278.411; 1891.450;    0.000;    0.000
278.477; 1978.450;    0.000;    0.000
278.542; 2084.450;    0.000;    0.000
278.608; 2190.450;    0.000;    0.000
278.674; 2446.450;    0.000;    0.000
278.739; 2632.450;    0.000;    0.000
278.805; 2912.450;    0.000;    0.000
278.871; 3283.450;    0.000;    0.000
278.936; 3888.450;    0.000;    0.000
279.002; 5176.450;    0.000;    0.000
279.067; 7061.450;    0.000;    0.000
279.133; 7641.450;    0.000;    0.000
279.199; 7218.450;    0.000;    0.000
279.264; 7195.450;    0.000;    0.000
279.330; 7925.450;    0.000;    0.000
279.395; 9777.450;    0.000;    0.000
279.461;11907.450;    0.000;    0.000
279.527;13246.450;    0.000;    0.000
279.592;13554.450;    0.000;    0.000
279.658;12567.450;    0.000;    0.000
279.723;11327.450;    0.000;    0.000
279.789;11660.450;    0.000;    0.000
279.854;11444.450;    0.000;    0.000
279.920; 9480.450;    0.000;    0.000
279.985; 8782.450;    0.000;    0.000
280.051; 8412.450;    0.000;    0.000
280.116; 9313.450;    0.000;    0.000
280.182;11437.450;    0.000;    0.000
280.247;13303.450;    0.000;    0.000
280.313;12820.450;    0.000;    0.000
280.378;10385.450;    0.000;    0.000
280.444; 7857.450;    0.000;    0.000
280.509; 6167.450;    0.000;    0.000
280.574; 5136.450;    0.000;    0.000
280.640; 4455.450;    0.000;    0.000
280.705; 3983.450;    0.000;    0.000
280.771; 3553.450;    0.000;    0.000
280.836; 3294.450;    0.000;    0.000
280.902; 3041.450;    0.000;    0.000
280.967; 2854.450;    0.000;    0.000
281.032; 2666.450;    0.000;    0.000
281.098; 2489.450;    0.000;    0.000
281.163; 2364.450;    0.000;    0.000
281.229; 2315.450;    0.000;    0.000
281.294; 2198.450;    0.000;    0.000
281.359; 2162.450;    0.000;    0.000
281.425; 2067.450;    0.000;    0.000
281.490; 1921.450;    0.000;    0.000
281.555; 1868.450;    0.000;    0.000
281.621; 1778.450;    0.000;    0.000
281.686; 1738.450;    0.000;    0.000
281.751; 1704.450;    0.000;    0.000
281.816; 1573.450;    0.000;    0.000
281.882; 1659.450;    0.000;    0.000
281.947; 1578.450;    0.000;    0.000
282.012; 1508.450;    0.000;    0.000
282.078; 1583.450;    0.000;    0.000
282.143; 1397.450;    0.000;    0.000
282.208; 1400.450;    0.000;    0.000
282.273; 1404.450;    0.000;    0.000
282.339; 1391.450;    0.000;    0.000
282.404; 1350.450;    0.000;    0.000
282.469; 1313.450;    0.000;    0.000
282.534; 1349.450;    0.000;    0.000
282.600; 1335.450;    0.000;    0.000
282.665; 1336.450;    0.000;    0.000
282.730; 1318.450;    0.000;    0.000
282.795; 1283.450;    0.000;    0.000
282.860; 1301.450;    0.000;    0.000
282.926; 1298.450;    0.000;    0.000
282.991; 1327.450;    0.000;    0.000
283.056; 1196.450;    0.000;    0.000
283.121; 1294.450;    0.000;    0.000
283.186; 1209.450;    0.000;    0.000
283.251; 1214.450;    0.000;    0.000
283.316; 1236.450;    0.000;    0.000
283.382; 1155.450;    0.000;    0.000
283.447; 1204.450;    0.000;    0.000
283.512; 1125.450;    0.000;    0.000
283.577; 1202.450;    0.000;    0.000
283.642; 1157.450;    0.000;    0.000
283.707; 1170.450;    0.000;    0.000
283.772; 1183.450;    0.000;    0.000
283.837; 1123.450;    0.000;    0.000
283.902; 1088.450;    0.000;    0.000
283.967; 1167.450;    0.000;    0.000
284.032; 1156.450;    0.000;    0.000
284.097; 1200.450;    0.000;    0.000
284.163; 1134.450;    0.000;    0.000
284.228; 1193.450;    0.000;    0.000
284.293; 1184.450;    0.000;    0.000
284.358; 1217.450;    0.000;    0.000
284.423; 1157.450;    0.000;    0.000
284.488; 1212.450;    0.000;    0.000
284.553; 1261.450;    0.000;    0.000
284.618; 1175.450;    0.000;    0.000
284.683; 1307.450;    0.000;    0.000
284.748; 1367.450;    0.000;    0.000
284.812; 1455.450;    0.000;    0.000
284.877; 1591.450;    0.000;    0.000
284.942; 1756.450;    0.000;    0.000
285.007; 2100.450;    0.000;    0.000
285.072; 2596.450;    0.000;    0.000
285.137; 3546.450;    0.000;    0.000
285.202; 5212.450;    0.000;    0.000
285.267; 5383.450;    0.000;    0.000
285.332; 4179.450;    0.000;    0.000
285.397; 3045.450;    0.000;    0.000
285.462; 2410.450;    0.000;    0.000
285.527; 2053.450;    0.000;    0.000
285.591; 1876.450;    0.000;    0.000
285.656; 1596.450;    0.000;    0.000
285.721; 1485.450;    0.000;    0.000
285.786; 1426.450;    0.000;    0.000
285.851; 1301.450;    0.000;    0.000
285.916; 1317.450;    0.000;    0.000
285.981; 1265.450;    0.000;    0.000
286.045; 1267.450;    0.000;    0.000
286.110; 1226.450;    0.000;    0.000
286.175; 1239.450;    0.000;    0.000
286.240; 1189.450;    0.000;    0.000
286.305; 1225.450;    0.000;    0.000
286.369; 1198.450;    0.000;    0.000
286.434; 1178.450;    0.000;    0.000
286.499; 1146.450;    0.000;    0.000
286.564; 1103.450;    0.000;    0.000
286.628; 1169.450;    0.000;    0.000
286.693; 1114.450;    0.000;    0.000
286.758; 1108.450;    0.000;    0.000
286.823; 1148.450;    0.000;    0.000
286.887; 1100.450;    0.000;    0.000
286.952; 1083.450;    0.000;    0.000
287.017; 1100.450;    0.000;    0.000
287.082; 1083.450;    0.000;    0.000
287.146; 1057.450;    0.000;    0.000
287.211; 1119.450;    0.000;    0.000
287.276; 1056.450;    0.000;    0.000
287.340; 1105.450;    0.000;    0.000
287.405; 1114.450;    0.000;    0.000
287.470; 1059.450;    0.000;    0.000
287.534; 1122.450;    0.000;    0.000
287.599; 1059.450;    0.000;    0.000
287.663; 1135.450;    0.000;    0.000
287.728; 1046.450;    0.000;    0.000
287.793; 1164.450;    0.000;    0.000
287.857; 1090.450;    0.000;    0.000
287.922; 1058.450;    0.000;    0.000
287.987; 1068.450;    0.000;    0.000
288.051; 1002.450;    0.000;    0.000
288.116; 1073.450;    0.000;    0.000
288.180; 1026.450;    0.000;    0.000
288.245; 1064.450;    0.000;    0.000
288.309; 1055.450;    0.000;    0.000
288.374; 1018.450;    0.000;    0.000
288.439; 1057.450;    0.000;    0.000
288.503;  986.450;    0.000;    0.000
288.568; 1075.450;    0.000;    0.000
288.632; 1086.450;    0.000;    0.000
288.697; 1098.450;    0.000;    0.000
288.761; 1045.450;    0.000;    0.000
288.826;  984.450;    0.000;    0.000
288.890; 1074.450;    0.000;    0.000
288.955; 1110.450;    0.000;    0.000
289.019; 1008.450;    0.000;    0.000
289.084; 1029.450;    0.000;    0.000
289.148;  969.450;    0.000;    0.000
289.212; 1042.450;    0.000;    0.000
289.277; 1032.450;    0.000;    0.000
289.341; 1013.450;    0.000;    0.000
289.406; 1037.450;    0.000;    0.000
289.470; 1021.450;    0.000;    0.000
289.535; 1058.450;    0.000;    0.000
289.599; 1051.450;    0.000;    0.000
289.663; 1079.450;    0.000;    0.000
289.728; 1095.450;    0.000;    0.000
289.792; 1065.450;    0.000;    0.000
289.857; 1080.450;    0.000;    0.000
289.921; 1000.450;    0.000;    0.000
289.985; 1060.450;    0.000;    0.000
290.050; 1030.450;    0.000;    0.000
290.114; 1045.450;    0.000;    0.000
290.178; 1031.450;    0.000;    0.000
290.243;  999.450;    0.000;    0.000
290.307; 1057.450;    0.000;    0.000
290.371; 1030.450;    0.000;    0.000
290.436; 1121.450;    0.000;    0.000
290.500;  970.450;    0.000;    0.000
290.564; 1106.450;    0.000;    0.000
290.629; 1023.450;    0.000;    0.000
290.693; 1088.450;    0.000;    0.000
290.757; 1061.450;    0.000;    0.000
290.821; 1026.450;    0.000;    0.000
290.886; 1076.450;    0.000;    0.000
290.950; 1070.450;    0.000;    0.000
291.014; 1095.450;    0.000;    0.000
291.078; 1091.450;    0.000;    0.000
291.143; 1124.450;    0.000;    0.000
291.207; 1059.450;    0.000;    0.000
291.271; 1090.450;    0.000;    0.000
291.335; 1106.450;    0.000;    0.000
291.399; 1140.450;    0.000;    0.000
291.464; 1175.450;    0.000;    0.000
291.528; 1252.450;    0.000;    0.000
291.592; 1226.450;    0.000;    0.000
291.656; 1208.450;    0.000;    0.000
291.720; 1217.450;    0.000;    0.000
291.784; 1148.450;    0.000;    0.000
291.849; 1219.450;    0.000;    0.000
291.913; 1118.450;    0.000;    0.000
291.977; 1205.450;    0.000;    0.000
292.041; 1147.450;    0.000;    0.000
292.105; 1199.450;    0.000;    0.000
292.169; 1178.450;    0.000;    0.000
292.233; 1212.450;    0.000;    0.000
292.297; 1229.450;    0.000;    0.000
292.361; 1258.450;    0.000;    0.000
292.425; 1208.450;    0.000;    0.000
292.490; 1330.450;    0.000;    0.000
292.554; 1335.450;    0.000;    0.000
292.618; 1337.450;    0.000;    0.000
292.682; 1484.450;    0.000;    0.000
292.746; 1559.450;    0.000;    0.000
292.810; 1858.450;    0.000;    0.000
292.874; 2364.450;    0.000;    0.000
292.938; 2547.450;    0.000;    0.000
293.002; 2439.450;    0.000;    0.000
293.066; 2298.450;    0.000;    0.000
293.130; 2168.450;    0.000;    0.000
293.194; 2131.450;    0.000;    0.000
293.258; 1934.450;    0.000;    0.000
293.322; 1966.450;    0.000;    0.000
293.386; 1936.450;    0.000;    0.000
293.450; 2033.450;    0.000;    0.000
293.514; 2140.450;    0.000;    0.000
293.577; 2582.450;    0.000;    0.000
293.641; 3366.450;    0.000;    0.000
293.705; 4027.450;    0.000;    0.000
293.769; 3869.450;    0.000;    0.000
293.833; 3285.450;    0.000;    0.000
293.897; 3090.450;    0.000;    0.000
293.961; 2748.450;    0.000;    0.000
294.025; 2628.450;    0.000;    0.000
294.089; 2403.450;    0.000;    0.000
294.152; 2245.450;    0.000;    0.000
294.216; 2186.450;    0.000;    0.000
294.280; 1957.450;    0.000;    0.000
294.344; 1817.450;    0.000;    0.000
294.408; 1940.450;    0.000;    0.000
294.472; 1747.450;    0.000;    0.000
294.536; 1726.450;    0.000;    0.000
294.599; 1701.450;    0.000;    0.000
294.663; 1573.450;    0.000;    0.000
294.727; 1659.450;    0.000;    0.000
294.791; 1586.450;    0.000;    0.000
294.855; 1614.450;    0.000;    0.000
294.918; 1535.450;    0.000;    0.000
294.982; 1463.450;    0.000;    0.000
295.046; 1586.450;    0.000;    0.000
295.110; 1518.450;    0.000;    0.000
295.173; 1478.450;    0.000;    0.000
295.237; 1418.450;    0.000;    0.000
295.301; 1368.450;    0.000;    0.000
295.364; 1360.450;    0.000;    0.000
295.428; 1408.450;    0.000;    0.000
295.492; 1456.450;    0.000;    0.000
295.556; 1392.450;    0.000;    0.000
295.619; 1387.450;    0.000;    0.000
295.683; 1371.450;    0.000;    0.000
295.747; 1329.450;    0.000;    0.000
295.810; 1379.450;    0.000;    0.000
295.874; 1355.450;    0.000;    0.000
295.938; 1354.450;    0.000;    0.000
296.001; 1316.450;    0.000;    0.000
296.065; 1255.450;    0.000;    0.000
296.128; 1328.450;    0.000;    0.000
296.192; 1286.450;    0.000;    0.000
296.256; 1278.450;    0.000;    0.000
296.319; 1333.450;    0.000;    0.000
296.383; 1232.450;    0.000;    0.000
296.447; 1249.450;    0.000;    0.000
296.510; 1288.450;    0.000;    0.000
296.574; 1296.450;    0.000;    0.000
296.637; 1225.450;    0.000;    0.000
296.701; 1275.450;    0.000;    0.000
296.764; 1187.450;    0.000;    0.000
296.828; 1311.450;    0.000;    0.000
296.891; 1253.450;    0.000;    0.000
296.955; 1269.450;    0.000;    0.000
297.018; 1238.450;    0.000;    0.000
297.082; 1258.450;    0.000;    0.000
297.145; 1232.450;    0.000;    0.000
297.209; 1197.450;    0.000;    0.000
297.272; 1181.450;    0.000;    0.000
297.336; 1254.450;    0.000;    0.000
297.399; 1250.450;    0.000;    0.000
297.463; 1277.450;    0.000;    0.000
297.526; 1231.450;    0.000;    0.000
297.590; 1219.450;    0.000;    0.000
297.653; 1240.450;    0.000;    0.000
297.717; 1256.450;    0.000;    0.000
297.780; 1207.450;    0.000;    0.000
297.843; 1254.450;    0.000;    0.000
297.907; 1192.450;    0.000;    0.000
297.970; 1149.450;    0.000;    0.000
298.034; 1277.450;    0.000;    0.000
298.097; 1250.450;    0.000;    0.000
298.160; 1234.450;    0.000;    0.000
298.224; 1191.450;    0.000;    0.000
298.287; 1175.450;    0.000;    0.000
298.350; 1227.450;    0.000;    0.000
298.414; 1248.450;    0.000;    0.000
298.477; 1182.450;    0.000;    0.000
298.540; 1184.450;    0.000;    0.000
298.604; 1246.450;    0.000;    0.000
298.667; 1218.450;    0.000;    0.000
298.730; 1251.450;    0.000;    0.000
298.794; 1206.450;    0.000;    0.000
298.857; 1261.450;    0.000;    0.000
298.920; 1168.450;    0.000;    0.000
298.984; 1220.450;    0.000;    0.000
299.047; 1216.450;    0.000;    0.000
299.110; 1146.450;    0.000;    0.000
299.173; 1197.450;    0.000;    0.000
299.237; 1271.450;    0.000;    0.000
299.300; 1193.450;    0.000;    0.000
299.363; 1175.450;    0.000;    0.000
299.426; 1166.450;    0.000;    0.000
299.489; 1139.450;    0.000;    0.000
299.553; 1234.450;    0.000;    0.000
299.616; 1219.450;    0.000;    0.000
299.679; 1204.450;    0.000;    0.000
299.742; 1176.450;    0.000;    0.000
299.805; 1154.450;    0.000;    0.000
299.868; 1244.450;    0.000;    0.000
299.932; 1222.450;    0.000;    0.000
299.995; 1243.450;    0.000;    0.000
300.058; 1169.450;    0.000;    0.000
300.121; 1178.450;    0.000;    0.000
300.184; 1169.450;    0.000;    0.000
300.247; 1170.450;    0.000;    0.000
300.310; 1162.450;    0.000;    0.000
300.374; 1115.450;    0.000;    0.000
300.437; 1172.450;    0.000;    0.000
300.500; 1159.450;    0.000;    0.000
300.563; 1200.450;    0.000;    0.000
300.626; 1214.450;    0.000;    0.000
300.689; 1214.450;    0.000;    0.000
300.752; 1187.450;    0.000;    0.000
300.815; 1208.450;    0.000;    0.000
300.878; 1163.450;    0.000;    0.000
300.941; 1196.450;    0.000;    0.000
301.004; 1144.450;    0.000;    0.000
301.067; 1154.450;    0.000;    0.000
301.130; 1219.450;    0.000;    0.000
301.193; 1176.450;    0.000;    0.000
301.256; 1201.450;    0.000;    0.000
301.319; 1175.450;    0.000;    0.000
301.382; 1188.450;    0.000;    0.000
301.445; 1204.450;    0.000;    0.000
301.508; 1137.450;    0.000;    0.000
301.571; 1171.450;    0.000;    0.000
301.634; 1130.450;    0.000;    0.000
301.697; 1225.450;    0.000;    0.000
301.760; 1195.450;    0.000;    0.000
301.823; 1195.450;    0.000;    0.000
301.885; 1212.450;    0.000;    0.000
301.948; 1234.450;    0.000;    0.000
302.011; 1211.450;    0.000;    0.000
302.074; 1228.450;    0.000;    0.000
302.137; 1198.450;    0.000;    0.000
302.200; 1251.450;    0.000;    0.000
302.263; 1220.450;    0.000;    0.000
302.326; 1226.450;    0.000;    0.000
302.388; 1229.450;    0.000;    0.000
302.451; 1140.450;    0.000;    0.000
302.514; 1130.450;    0.000;    0.000
302.577; 1257.450;    0.000;    0.000
302.640; 1166.450;    0.000;    0.000
302.703; 1241.450;    0.000;    0.000
302.765; 1133.450;    0.000;    0.000
302.828; 1296.450;    0.000;    0.000
302.891; 1219.450;    0.000;    0.000
302.954; 1214.450;    0.000;    0.000
303.016; 1243.450;    0.000;    0.000
303.079; 1249.450;    0.000;    0.000
303.142; 1225.450;    0.000;    0.000
303.205; 1256.450;    0.000;    0.000
303.267; 1240.450;    0.000;    0.000
303.330; 1308.450;    0.000;    0.000
303.393; 1181.450;    0.000;    0.000
303.456; 1245.450;    0.000;    0.000
303.518; 1241.450;    0.000;    0.000
303.581; 1185.450;    0.000;    0.000
303.644; 1253.450;    0.000;    0.000
303.706; 1269.450;    0.000;    0.000
303.769; 1287.450;    0.000;    0.000
303.832; 1241.450;    0.000;    0.000
303.894; 1285.450;    0.000;    0.000
303.957; 1265.450;    0.000;    0.000
304.020; 1227.450;    0.000;    0.000
304.082; 1246.450;    0.000;    0.000
304.145; 1265.450;    0.000;    0.000
304.207; 1279.450;    0.000;    0.000
304.270; 1243.450;    0.000;    0.000
304.333; 1294.450;    0.000;    0.000
304.395; 1358.450;    0.000;    0.000
304.458; 1287.450;    0.000;    0.000
304.520; 1354.450;    0.000;    0.000
304.583; 1346.450;    0.000;    0.000
304.646; 1332.450;    0.000;    0.000
304.708; 1232.450;    0.000;    0.000
304.771; 1288.450;    0.000;    0.000
304.833; 1304.450;    0.000;    0.000
304.896; 1356.450;    0.000;    0.000
304.958; 1281.450;    0.000;    0.000
305.021; 1269.450;    0.000;    0.000
305.083; 1309.450;    0.000;    0.000
305.146; 1371.450;    0.000;    0.000
305.208; 1341.450;    0.000;    0.000
305.271; 1341.450;    0.000;    0.000
305.333; 1383.450;    0.000;    0.000
305.396; 1419.450;    0.000;    0.000
305.458; 1394.450;    0.000;    0.000
305.520; 1385.450;    0.000;    0.000
305.583; 1385.450;    0.000;    0.000
305.645; 1412.450;    0.000;    0.000
305.708; 1362.450;    0.000;    0.000
305.770; 1372.450;    0.000;    0.000
305.833; 1329.450;    0.000;    0.000
305.895; 1345.450;    0.000;    0.000
305.957; 1317.450;    0.000;    0.000
306.020; 1390.450;    0.000;    0.000
306.082; 1403.450;    0.000;    0.000
306.144; 1379.450;    0.000;    0.000
306.207; 1313.450;    0.000;    0.000
306.269; 1405.450;    0.000;    0.000
306.331; 1312.450;    0.000;    0.000
306.394; 1376.450;    0.000;    0.000
306.456; 1348.450;    0.000;    0.000
306.518; 1455.450;    0.000;    0.000
306.581; 1389.450;    0.000;    0.000
306.643; 1445.450;    0.000;    0.000
306.705; 1425.450;    0.000;    0.000
306.768; 1379.450;    0.000;    0.000
306.830; 1410.450;    0.000;    0.000
306.892; 1423.450;    0.000;    0.000
306.954; 1491.450;    0.000;    0.000
307.017; 1411.450;    0.000;    0.000
307.079; 1362.450;    0.000;    0.000
307.141; 1476.450;    0.000;    0.000
307.203; 1432.450;    0.000;    0.000
307.266; 1430.450;    0.000;    0.000
307.328; 1524.450;    0.000;    0.000
307.390; 1542.450;    0.000;    0.000
307.452; 1439.450;    0.000;    0.000
307.514; 1523.450;    0.000;    0.000
307.577; 1514.450;    0.000;    0.000
307.639; 1515.450;    0.000;    0.000
307.701; 1482.450;    0.000;    0.000
307.763; 1528.450;    0.000;    0.000
307.825; 1496.450;    0.000;    0.000
307.887; 1586.450;    0.000;    0.000
307.949; 1612.450;    0.000;    0.000
308.012; 1536.450;    0.000;    0.000
308.074; 1515.450;    0.000;    0.000
308.136; 1531.450;    0.000;    0.000
308.198; 1518.450;    0.000;    0.000
308.260; 1571.450;    0.000;    0.000
308.322; 1545.450;    0.000;    0.000
308.384; 1576.450;    0.000;    0.000
308.446; 1488.450;    0.000;    0.000
308.508; 1614.450;    0.000;    0.000
308.570; 1586.450;    0.000;    0.000
308.632; 1605.450;    0.000;    0.000
308.694; 1577.450;    0.000;    0.000
308.756; 1631.450;    0.000;    0.000
308.818; 1660.450;    0.000;    0.000
308.880; 1650.450;    0.000;    0.000
308.942; 1661.450;    0.000;    0.000
309.004; 1673.450;    0.000;    0.000
309.066; 1700.450;    0.000;    0.000
309.128; 1687.450;    0.000;    0.000
309.190; 1698.450;    0.000;    0.000
309.252; 1745.450;    0.000;    0.000
309.314; 1733.450;    0.000;    0.000
309.376; 1729.450;    0.000;    0.000
309.438; 1744.450;    0.000;    0.000
309.500; 1786.450;    0.000;    0.000
309.562; 1735.450;    0.000;    0.000
309.624; 1745.450;    0.000;    0.000
309.686; 1791.450;    0.000;    0.000
309.747; 1879.450;    0.000;    0.000
309.809; 1854.450;    0.000;    0.000
309.871; 1806.450;    0.000;    0.000
309.933; 1747.450;    0.000;    0.000
309.995; 1740.450;    0.000;    0.000
310.057; 1782.450;    0.000;    0.000
310.119; 1756.450;    0.000;    0.000
310.180; 1720.450;    0.000;    0.000
310.242; 1702.450;    0.000;    0.000
310.304; 1723.450;    0.000;    0.000
310.366; 1760.450;    0.000;    0.000
310.428; 1691.450;    0.000;    0.000
310.489; 1667.450;    0.000;    0.000
310.551; 1706.450;    0.000;    0.000
310.613; 1688.450;    0.000;    0.000
310.675; 1695.450;    0.000;    0.000
310.737; 1670.450;    0.000;    0.000
310.798; 1640.450;    0.000;    0.000
310.860; 1694.450;    0.000;    0.000
310.922; 1683.450;    0.000;    0.000
310.983; 1612.450;    0.000;    0.000
311.045; 1608.450;    0.000;    0.000
311.107; 1701.450;    0.000;    0.000
311.169; 1586.450;    0.000;    0.000
311.230; 1640.450;    0.000;    0.000
311.292; 1645.450;    0.000;    0.000
311.354; 1615.450;    0.000;    0.000
311.415; 1673.450;    0.000;    0.000
311.477; 1662.450;    0.000;    0.000
311.539; 1729.450;    0.000;    0.000
311.600; 1681.450;    0.000;    0.000
311.662; 1670.450;    0.000;    0.000
311.724; 1629.450;    0.000;    0.000
311.785; 1620.450;    0.000;    0.000
311.847; 1613.450;    0.000;    0.000
311.908; 1627.450;    0.000;    0.000
311.970; 1714.450;    0.000;    0.000
312.032; 1625.450;    0.000;    0.000
312.093; 1653.450;    0.000;    0.000
312.155; 1733.450;    0.000;    0.000
312.216; 1696.450;    0.000;    0.000
312.278; 1688.450;    0.000;    0.000
312.339; 1669.450;    0.000;    0.000
312.401; 1695.450;    0.000;    0.000
312.462; 1627.450;    0.000;    0.000
312.524; 1607.450;    0.000;    0.000
312.585; 1693.450;    0.000;    0.000
312.647; 1665.450;    0.000;    0.000
312.708; 1664.450;    0.000;    0.000
312.770; 1740.450;    0.000;    0.000
312.831; 1666.450;    0.000;    0.000
312.893; 1707.450;    0.000;    0.000
312.954; 1637.450;    0.000;    0.000
313.016; 1649.450;    0.000;    0.000
313.077; 1677.450;    0.000;    0.000
313.139; 1684.450;    0.000;    0.000
313.200; 1646.450;    0.000;    0.000
313.261; 1819.450;    0.000;    0.000
313.323; 1703.450;    0.000;    0.000
313.384; 1673.450;    0.000;    0.000
313.446; 1747.450;    0.000;    0.000
313.507; 1702.450;    0.000;    0.000
313.568; 1692.450;    0.000;    0.000
313.630; 1724.450;    0.000;    0.000
313.691; 1705.450;    0.000;    0.000
313.752; 1638.450;    0.000;    0.000
313.814; 1798.450;    0.000;    0.000
313.875; 1771.450;    0.000;    0.000
313.936; 1731.450;    0.000;    0.000
313.998; 1723.450;    0.000;    0.000
314.059; 1762.450;    0.000;    0.000
314.120; 1676.450;    0.000;    0.000
314.182; 1730.450;    0.000;    0.000
314.243; 1650.450;    0.000;    0.000
314.304; 1760.450;    0.000;    0.000
314.365; 1770.450;    0.000;    0.000
314.427; 1755.450;    0.000;    0.000
314.488; 1680.450;    0.000;    0.000
314.549; 1754.450;    0.000;    0.000
314.610; 1719.450;    0.000;    0.000
314.672; 1690.450;    0.000;    0.000
314.733; 1782.450;    0.000;    0.000
314.794; 1701.450;    0.000;    0.000
314.855; 1760.450;    0.000;    0.000
314.917; 1736.450;    0.000;    0.000
314.978; 1738.450;    0.000;    0.000
315.039; 1662.450;    0.000;    0.000
315.100; 1775.450;    0.000;    0.000
315.161; 1779.450;    0.000;    0.000
315.222; 1771.450;    0.000;    0.000
315.283; 1824.450;    0.000;    0.000
315.345; 1828.450;    0.000;    0.000
315.406; 1784.450;    0.000;    0.000
315.467; 1802.450;    0.000;    0.000
315.528; 1796.450;    0.000;    0.000
315.589; 1749.450;    0.000;    0.000
315.650; 1689.450;    0.000;    0.000
315.711; 1769.450;    0.000;    0.000
315.772; 1716.450;    0.000;    0.000
315.833; 1757.450;    0.000;    0.000
315.894; 1737.450;    0.000;    0.000
315.955; 1761.450;    0.000;    0.000
316.016; 1803.450;    0.000;    0.000
316.078; 1833.450;    0.000;    0.000
316.139; 1735.450;    0.000;    0.000
316.200; 1687.450;    0.000;    0.000
316.261; 1695.450;    0.000;    0.000
316.322; 1734.450;    0.000;    0.000
316.383; 1815.450;    0.000;    0.000
316.444; 1850.450;    0.000;    0.000
316.504; 1788.450;    0.000;    0.000
316.565; 1800.450;    0.000;    0.000
316.626; 1726.450;    0.000;    0.000
316.687; 1746.450;    0.000;    0.000
316.748; 1818.450;    0.000;    0.000
316.809; 1723.450;    0.000;    0.000
316.870; 1829.450;    0.000;    0.000
316.931; 1840.450;    0.000;    0.000
316.992; 1814.450;    0.000;    0.000
317.053; 1748.450;    0.000;    0.000
317.114; 1820.450;    0.000;    0.000
317.175; 1885.450;    0.000;    0.000
317.235; 1797.450;    0.000;    0.000
317.296; 1808.450;    0.000;    0.000
317.357; 1835.450;    0.000;    0.000
317.418; 1825.450;    0.000;    0.000
317.479; 1815.450;    0.000;    0.000
317.540; 1853.450;    0.000;    0.000
317.601; 1847.450;    0.000;    0.000
317.661; 1800.450;    0.000;    0.000
317.722; 1821.450;    0.000;    0.000
317.783; 1732.450;    0.000;    0.000
317.844; 1779.450;    0.000;    0.000
317.904; 1870.450;    0.000;    0.000
317.965; 1829.450;    0.000;    0.000
318.026; 1867.450;    0.000;    0.000
318.087; 1843.450;    0.000;    0.000
318.148; 1824.450;    0.000;    0.000
318.208; 1826.450;    0.000;    0.000
318.269; 1787.450;    0.000;    0.000
318.330; 1872.450;    0.000;    0.000
318.390; 1856.450;    0.000;    0.000
318.451; 1877.450;    0.000;    0.000
318.512; 1822.450;    0.000;    0.000
318.572; 1912.450;    0.000;    0.000
318.633; 1853.450;    0.000;    0.000
318.694; 1859.450;    0.000;    0.000
318.754; 1793.450;    0.000;    0.000
318.815; 1846.450;    0.000;    0.000
318.876; 1827.450;    0.000;    0.000
318.936; 1771.450;    0.000;    0.000
318.997; 1822.450;    0.000;    0.000
319.058; 1897.450;    0.000;    0.000
319.118; 1878.450;    0.000;    0.000
319.179; 1822.450;    0.000;    0.000
319.239; 1814.450;    0.000;    0.000
319.300; 1876.450;    0.000;    0.000
319.361; 1833.450;    0.000;    0.000
319.421; 1780.450;    0.000;    0.000
319.482; 1712.450;    0.000;    0.000
319.542; 1792.450;    0.000;    0.000
319.603; 1757.450;    0.000;    0.000
319.663; 1813.450;    0.000;    0.000
319.724; 1699.450;    0.000;    0.000
319.784; 1751.450;    0.000;    0.000
319.845; 1859.450;    0.000;    0.000
319.905; 1861.450;    0.000;    0.000
319.966; 1909.450;    0.000;    0.000
320.026; 1928.450;    0.000;    0.000
320.087; 1832.450;    0.000;    0.000
320.147; 1862.450;    0.000;    0.000
320.208; 1849.450;    0.000;    0.000
320.268; 1791.450;    0.000;    0.000
320.329; 1873.450;    0.000;    0.000
320.389; 1831.450;    0.000;    0.000
320.449; 1860.450;    0.000;    0.000
320.510; 1929.450;    0.000;    0.000
320.570; 1858.450;    0.000;    0.000
320.631; 1851.450;    0.000;    0.000
320.691; 1786.450;    0.000;    0.000
320.751; 1787.450;    0.000;    0.000
320.812; 1809.450;    0.000;    0.000
320.872; 1912.450;    0.000;    0.000
320.932; 1980.450;    0.000;    0.000
320.993; 1860.450;    0.000;    0.000
321.053; 1910.450;    0.000;    0.000
321.113; 1847.450;    0.000;    0.000
321.174; 1827.450;    0.000;    0.000
321.234; 1791.450;    0.000;    0.000
321.294; 1855.450;    0.000;    0.000
321.355; 1866.450;    0.000;    0.000
321.415; 1904.450;    0.000;    0.000
321.475; 1854.450;    0.000;    0.000
321.535; 1860.450;    0.000;    0.000
321.596; 1918.450;    0.000;    0.000
321.656; 1958.450;    0.000;    0.000
321.716; 1911.450;    0.000;    0.000
321.776; 1874.450;    0.000;    0.000
321.837; 1821.450;    0.000;    0.000
321.897; 1888.450;    0.000;    0.000
321.957; 1914.450;    0.000;    0.000
322.017; 1898.450;    0.000;    0.000
322.077; 1968.450;    0.000;    0.000
322.138; 1899.450;    0.000;    0.000
322.198; 1955.450;    0.000;    0.000
322.258; 2018.450;    0.000;    0.000
322.318; 1952.450;    0.000;    0.000
322.378; 1987.450;    0.000;    0.000
322.438; 1894.450;    0.000;    0.000
322.499; 1950.450;    0.000;    0.000
322.559; 1912.450;    0.000;    0.000
322.619; 2005.450;    0.000;    0.000
322.679; 2016.450;    0.000;    0.000
322.739; 1934.450;    0.000;    0.000
322.799; 2016.450;    0.000;    0.000
322.859; 1987.450;    0.000;    0.000
322.919; 1947.450;    0.000;    0.000
322.979; 1953.450;    0.000;    0.000
323.039; 1942.450;    0.000;    0.000
323.099; 1917.450;    0.000;    0.000
323.159; 1934.450;    0.000;    0.000
323.219; 1794.450;    0.000;    0.000
323.279; 1885.450;    0.000;    0.000
323.339; 1938.450;    0.000;    0.000
323.399; 1977.450;    0.000;    0.000
323.459; 1928.450;    0.000;    0.000
323.519; 2008.450;    0.000;    0.000
323.579; 2007.450;    0.000;    0.000
323.639; 2098.450;    0.000;    0.000
323.699; 2097.450;    0.000;    0.000
323.759; 2169.450;    0.000;    0.000
323.819; 2047.450;    0.000;    0.000
323.879; 2106.450;    0.000;    0.000
323.939; 1998.450;    0.000;    0.000
323.999; 2071.450;    0.000;    0.000
324.059; 2051.450;    0.000;    0.000
324.119; 1932.450;    0.000;    0.000
324.178; 2034.450;    0.000;    0.000
324.238; 1980.450;    0.000;    0.000
324.298; 2000.450;    0.000;    0.000
324.358; 2012.450;    0.000;    0.000
324.418; 2083.450;    0.000;    0.000
324.478; 2014.450;    0.000;    0.000
324.538; 2001.450;    0.000;    0.000
324.597; 1997.450;    0.000;    0.000
324.657; 1997.450;    0.000;    0.000
324.717; 1978.450;    0.000;    0.000
324.777; 1916.450;    0.000;    0.000
324.837; 2011.450;    0.000;    0.000
324.896; 1947.450;    0.000;    0.000
324.956; 1983.450;    0.000;    0.000
325.016; 1936.450;    0.000;    0.000
325.076; 1939.450;    0.000;    0.000
325.135; 2036.450;    0.000;    0.000
325.195; 1938.450;    0.000;    0.000
325.255; 1958.450;    0.000;    0.000
325.315; 1961.450;    0.000;    0.000
325.374; 1972.450;    0.000;    0.000
325.434; 1955.450;    0.000;    0.000
325.494; 1992.450;    0.000;    0.000
325.553; 1902.450;    0.000;    0.000
325.613; 1957.450;    0.000;    0.000
325.673; 1883.450;    0.000;    0.000
325.732; 1986.450;    0.000;    0.000
325.792; 1927.450;    0.000;    0.000
325.852; 1928.450;    0.000;    0.000
325.911; 1875.450;    0.000;    0.000
325.971; 1934.450;    0.000;    0.000
326.031; 1894.450;    0.000;    0.000
326.090; 1924.450;    0.000;    0.000
326.150; 1851.450;    0.000;    0.000
326.209; 1892.450;    0.000;    0.000
326.269; 1982.450;    0.000;    0.000
326.328; 1950.450;    0.000;    0.000
326.388; 1937.450;    0.000;    0.000
326.448; 2114.450;    0.000;    0.000
326.507; 2047.450;    0.000;    0.000
326.567; 1996.450;    0.000;    0.000
326.626; 1980.450;    0.000;    0.000
326.686; 1959.450;    0.000;    0.000
326.745; 1948.450;    0.000;    0.000
326.805; 1952.450;    0.000;    0.000
326.864; 1907.450;    0.000;    0.000
326.924; 1943.450;    0.000;    0.000
326.983; 1966.450;    0.000;    0.000
327.043; 1981.450;    0.000;    0.000
327.102; 1927.450;    0.000;    0.000
327.161; 2010.450;    0.000;    0.000
327.221; 2004.450;    0.000;    0.000
327.280; 1932.450;    0.000;    0.000
327.340; 1995.450;    0.000;    0.000
327.399; 2150.450;    0.000;    0.000
327.459; 2004.450;    0.000;    0.000
327.518; 2051.450;    0.000;    0.000
327.577; 2007.450;    0.000;    0.000
327.637; 1960.450;    0.000;    0.000
327.696; 1912.450;    0.000;    0.000
327.755; 1937.450;    0.000;    0.000
327.815; 1916.450;    0.000;    0.000
327.874; 2004.450;    0.000;    0.000
327.933; 2071.450;    0.000;    0.000
327.993; 1993.450;    0.000;    0.000
328.052; 2037.450;    0.000;    0.000
328.111; 2017.450;    0.000;    0.000
328.171; 2005.450;    0.000;    0.000
328.230; 2030.450;    0.000;    0.000
328.289; 2031.450;    0.000;    0.000
328.349; 2039.450;    0.000;    0.000
328.408; 2029.450;    0.000;    0.000
328.467; 2045.450;    0.000;    0.000
328.526; 2044.450;    0.000;    0.000
328.586; 2126.450;    0.000;    0.000
328.645; 2048.450;    0.000;    0.000
328.704; 1975.450;    0.000;    0.000
328.763; 1969.450;    0.000;    0.000
328.822; 2081.450;    0.000;    0.000
328.882; 2136.450;    0.000;    0.000
328.941; 2097.450;    0.000;    0.000
329.000; 2078.450;    0.000;    0.000
329.059; 2079.450;    0.000;    0.000
329.118; 2081.450;    0.000;    0.000
329.177; 2165.450;    0.000;    0.000
329.237; 2203.450;    0.000;    0.000
329.296; 2124.450;    0.000;    0.000
329.355; 2104.450;    0.000;    0.000
329.414; 2143.450;    0.000;    0.000
329.473; 2085.450;    0.000;    0.000
329.532; 2138.450;    0.000;    0.000
329.591; 2139.450;    0.000;    0.000
329.650; 2267.450;    0.000;    0.000
329.709; 2246.450;    0.000;    0.000
329.768; 2295.450;    0.000;    0.000
329.827; 2402.450;    0.000;    0.000
329.886; 2462.450;    0.000;    0.000
329.945; 2468.450;    0.000;    0.000
330.004; 2478.450;    0.000;    0.000
330.063; 2462.450;    0.000;    0.000
330.122; 2572.450;    0.000;    0.000
330.181; 2742.450;    0.000;    0.000
330.240; 2797.450;    0.000;    0.000
330.299; 2654.450;    0.000;    0.000
330.358; 2402.450;    0.000;    0.000
330.417; 2345.450;    0.000;    0.000
330.476; 2378.450;    0.000;    0.000
330.535; 2277.450;    0.000;    0.000
330.594; 2172.450;    0.000;    0.000
330.653; 2188.450;    0.000;    0.000
330.712; 2201.450;    0.000;    0.000
330.771; 2200.450;    0.000;    0.000
330.830; 2143.450;    0.000;    0.000
330.889; 2237.450;    0.000;    0.000
330.948; 2259.450;    0.000;    0.000
331.006; 2129.450;    0.000;    0.000
331.065; 2073.450;    0.000;    0.000
331.124; 2064.450;    0.000;    0.000
331.183; 2113.450;    0.000;    0.000
331.242; 2106.450;    0.000;    0.000
331.301; 2069.450;    0.000;    0.000
331.359; 2129.450;    0.000;    0.000
331.418; 2089.450;    0.000;    0.000
331.477; 2069.450;    0.000;    0.000
331.536; 2094.450;    0.000;    0.000
331.595; 2055.450;    0.000;    0.000
331.653; 2041.450;    0.000;    0.000
331.712; 1933.450;    0.000;    0.000
331.771; 2053.450;    0.000;    0.000
331.830; 2018.450;    0.000;    0.000
331.888; 2032.450;    0.000;    0.000
331.947; 1987.450;    0.000;    0.000
332.006; 2073.450;    0.000;    0.000
332.065; 2029.450;    0.000;    0.000
332.123; 2038.450;    0.000;    0.000
332.182; 2077.450;    0.000;    0.000
332.241; 2138.450;    0.000;    0.000
332.299; 2071.450;    0.000;    0.000
332.358; 2101.450;    0.000;    0.000
332.417; 2090.450;    0.000;    0.000
332.475; 2165.450;    0.000;    0.000
332.534; 2138.450;    0.000;    0.000
332.592; 2020.450;    0.000;    0.000
332.651; 2037.450;    0.000;    0.000
332.710; 2038.450;    0.000;    0.000
332.768; 2069.450;    0.000;    0.000
332.827; 1978.450;    0.000;    0.000
332.885; 1959.450;    0.000;    0.000
332.944; 1989.450;    0.000;    0.000
333.003; 2046.450;    0.000;    0.000
333.061; 2043.450;    0.000;    0.000
333.120; 2098.450;    0.000;    0.000
333.178; 2176.450;    0.000;    0.000
333.237; 2139.450;    0.000;    0.000
333.295; 2206.450;    0.000;    0.000
333.354; 2164.450;    0.000;    0.000
333.412; 2136.450;    0.000;    0.000
333.471; 2253.450;    0.000;    0.000
333.529; 2282.450;    0.000;    0.000
333.588; 2364.450;    0.000;    0.000
333.646; 2293.450;    0.000;    0.000
333.705; 2401.450;    0.000;    0.000
333.763; 2283.450;    0.000;    0.000
333.822; 2278.450;    0.000;    0.000
333.880; 2311.450;    0.000;    0.000
333.938; 2281.450;    0.000;    0.000
333.997; 2281.450;    0.000;    0.000
334.055; 2324.450;    0.000;    0.000
334.114; 2298.450;    0.000;    0.000
334.172; 2244.450;    0.000;    0.000
334.230; 2125.450;    0.000;    0.000
334.289; 2225.450;    0.000;    0.000
334.347; 2257.450;    0.000;    0.000
334.405; 2250.450;    0.000;    0.000
334.464; 2267.450;    0.000;    0.000
334.522; 2149.450;    0.000;    0.000
334.580; 2209.450;    0.000;    0.000
334.639; 2177.450;    0.000;    0.000
334.697; 2110.450;    0.000;    0.000
334.755; 2110.450;    0.000;    0.000
334.814; 2215.450;    0.000;    0.000
334.872; 2185.450;    0.000;    0.000
334.930; 2141.450;    0.000;    0.000
334.988; 2210.450;    0.000;    0.000
335.047; 2190.450;    0.000;    0.000
335.105; 2238.450;    0.000;    0.000
335.163; 2287.450;    0.000;    0.000
335.221; 2139.450;    0.000;    0.000
335.280; 2266.450;    0.000;    0.000
335.338; 2214.450;    0.000;    0.000
335.396; 2138.450;    0.000;    0.000
335.454; 2128.450;    0.000;    0.000
335.512; 2160.450;    0.000;    0.000
335.570; 2130.450;    0.000;    0.000
335.629; 2280.450;    0.000;    0.000
335.687; 2338.450;    0.000;    0.000
335.745; 2399.450;    0.000;    0.000
335.803; 2365.450;    0.000;    0.000
335.861; 2430.450;    0.000;    0.000
335.919; 2427.450;    0.000;    0.000
335.977; 2402.450;    0.000;    0.000
336.035; 2318.450;    0.000;    0.000
336.094; 2415.450;    0.000;    0.000
336.152; 2442.450;    0.000;    0.000
336.210; 2462.450;    0.000;    0.000
336.268; 2440.450;    0.000;    0.000
336.326; 2486.450;    0.000;    0.000
336.384; 2414.450;    0.000;    0.000
336.442; 2400.450;    0.000;    0.000
336.500; 2356.450;    0.000;    0.000
336.558; 2285.450;    0.000;    0.000
336.616; 2376.450;    0.000;    0.000
336.674; 2244.450;    0.000;    0.000
336.732; 2339.450;    0.000;    0.000
336.790; 2315.450;    0.000;    0.000
336.848; 2293.450;    0.000;    0.000
336.906; 2345.450;    0.000;    0.000
336.964; 2295.450;    0.000;    0.000
337.022; 2408.450;    0.000;    0.000
337.080; 2416.450;    0.000;    0.000
337.138; 2405.450;    0.000;    0.000
337.195; 2317.450;    0.000;    0.000
337.253; 2402.450;    0.000;    0.000
337.311; 2437.450;    0.000;    0.000
337.369; 2285.450;    0.000;    0.000
337.427; 2265.450;    0.000;    0.000
337.485; 2205.450;    0.000;    0.000
337.543; 2290.450;    0.000;    0.000
337.601; 2177.450;    0.000;    0.000
337.658; 2249.450;    0.000;    0.000
337.716; 2253.450;    0.000;    0.000
337.774; 2203.450;    0.000;    0.000
337.832; 2210.450;    0.000;    0.000
337.890; 2209.450;    0.000;    0.000
337.947; 2205.450;    0.000;    0.000
338.005; 2215.450;    0.000;    0.000
338.063; 2202.450;    0.000;    0.000
338.121; 2232.450;    0.000;    0.000
338.178; 2239.450;    0.000;    0.000
338.236; 2349.450;    0.000;    0.000
338.294; 2396.450;    0.000;    0.000
338.352; 2300.450;    0.000;    0.000
338.409; 2275.450;    0.000;    0.000
338.467; 2260.450;    0.000;    0.000
338.525; 2271.450;    0.000;    0.000
338.583; 2229.450;    0.000;    0.000
338.640; 2197.450;    0.000;    0.000
338.698; 2242.450;    0.000;    0.000
338.756; 2241.450;    0.000;    0.000
338.813; 2374.450;    0.000;    0.000
338.871; 2377.450;    0.000;    0.000
338.928; 2437.450;    0.000;    0.000
338.986; 2514.450;    0.000;    0.000
339.044; 2403.450;    0.000;    0.000
339.101; 2318.450;    0.000;    0.000
339.159; 2325.450;    0.000;    0.000
339.216; 2327.450;    0.000;    0.000
339.274; 2268.450;    0.000;    0.000
339.332; 2226.450;    0.000;    0.000
339.389; 2304.450;    0.000;    0.000
339.447; 2237.450;    0.000;    0.000
339.504; 2314.450;    0.000;    0.000
339.562; 2265.450;    0.000;    0.000
339.619; 2262.450;    0.000;    0.000
339.677; 2307.450;    0.000;    0.000
339.734; 2253.450;    0.000;    0.000
339.792; 2290.450;    0.000;    0.000
339.849; 2259.450;    0.000;    0.000
339.907; 2352.450;    0.000;    0.000
339.964; 2348.450;    0.000;    0.000
340.022; 2341.450;    0.000;    0.000
340.079; 2306.450;    0.000;    0.000
340.137; 2218.450;    0.000;    0.000
340.194; 2321.450;    0.000;    0.000
340.252; 2341.450;    0.000;    0.000
340.309; 2347.450;    0.000;    0.000
340.366; 2242.450;    0.000;    0.000
340.424; 2314.450;    0.000;    0.000
340.481; 2309.450;    0.000;    0.000
340.538; 2311.450;    0.000;    0.000
340.596; 2330.450;    0.000;    0.000
340.653; 2454.450;    0.000;    0.000
340.711; 2364.450;    0.000;    0.000
340.768; 2409.450;    0.000;    0.000
340.825; 2464.450;    0.000;    0.000
340.883; 2370.450;    0.000;    0.000
340.940; 2320.450;    0.000;    0.000
340.997; 2257.450;    0.000;    0.000
341.054; 2297.450;    0.000;    0.000
341.112; 2297.450;    0.000;    0.000
341.169; 2496.450;    0.000;    0.000
341.226; 2407.450;    0.000;    0.000
341.284; 2459.450;    0.000;    0.000
341.341; 2347.450;    0.000;    0.000
341.398; 2447.450;    0.000;    0.000
341.455; 2429.450;    0.000;    0.000
341.512; 2494.450;    0.000;    0.000
341.570; 2512.450;    0.000;    0.000
341.627; 2442.450;    0.000;    0.000
341.684; 2490.450;    0.000;    0.000
341.741; 2523.450;    0.000;    0.000
341.798; 2372.450;    0.000;    0.000
341.856; 2469.450;    0.000;    0.000
341.913; 2510.450;    0.000;    0.000
341.970; 2478.450;    0.000;    0.000
342.027; 2502.450;    0.000;    0.000
342.084; 2623.450;    0.000;    0.000
342.141; 2559.450;    0.000;    0.000
342.198; 2556.450;    0.000;    0.000
342.255; 2556.450;    0.000;    0.000
342.313; 2466.450;    0.000;    0.000
342.370; 2420.450;    0.000;    0.000
342.427; 2372.450;    0.000;    0.000
342.484; 2319.450;    0.000;    0.000
342.541; 2223.450;    0.000;    0.000
342.598; 2274.450;    0.000;    0.000
342.655; 2325.450;    0.000;    0.000
342.712; 2339.450;    0.000;    0.000
342.769; 2252.450;    0.000;    0.000
342.826; 2242.450;    0.000;    0.000
342.883; 2198.450;    0.000;    0.000
342.940; 2269.450;    0.000;    0.000
342.997; 2358.450;    0.000;    0.000
343.054; 2239.450;    0.000;    0.000
343.111; 2306.450;    0.000;    0.000
343.168; 2304.450;    0.000;    0.000
343.225; 2399.450;    0.000;    0.000
343.282; 2318.450;    0.000;    0.000
343.339; 2456.450;    0.000;    0.000
343.395; 2320.450;    0.000;    0.000
343.452; 2291.450;    0.000;    0.000
343.509; 2374.450;    0.000;    0.000
343.566; 2408.450;    0.000;    0.000
343.623; 2301.450;    0.000;    0.000
343.680; 2361.450;    0.000;    0.000
343.737; 2296.450;    0.000;    0.000
343.794; 2382.450;    0.000;    0.000
343.850; 2291.450;    0.000;    0.000
343.907; 2251.450;    0.000;    0.000
343.964; 2361.450;    0.000;    0.000
344.021; 2399.450;    0.000;    0.000
344.078; 2398.450;    0.000;    0.000
344.134; 2428.450;    0.000;    0.000
344.191; 2456.450;    0.000;    0.000
344.248; 2465.450;    0.000;    0.000
344.305; 2456.450;    0.000;    0.000
344.361; 2434.450;    0.000;    0.000
344.418; 2455.450;    0.000;    0.000
344.475; 2449.450;    0.000;    0.000
344.532; 2417.450;    0.000;    0.000
344.588; 2385.450;    0.000;    0.000
344.645; 2486.450;    0.000;    0.000
344.702; 2388.450;    0.000;    0.000
344.758; 2467.450;    0.000;    0.000
344.815; 2453.450;    0.000;    0.000
344.872; 2447.450;    0.000;    0.000
344.928; 2446.450;    0.000;    0.000
344.985; 2457.450;    0.000;    0.000
345.042; 2586.450;    0.000;    0.000
345.098; 2443.450;    0.000;    0.000
345.155; 2454.450;    0.000;    0.000
345.212; 2438.450;    0.000;    0.000
345.268; 2513.450;    0.000;    0.000
345.325; 2456.450;    0.000;    0.000
345.381; 2592.450;    0.000;    0.000
345.438; 2562.450;    0.000;    0.000
345.495; 2638.450;    0.000;    0.000
345.551; 2569.450;    0.000;    0.000
345.608; 2523.450;    0.000;    0.000
345.664; 2375.450;    0.000;    0.000
345.721; 2468.450;    0.000;    0.000
345.777; 2358.450;    0.000;    0.000
345.834; 2331.450;    0.000;    0.000
345.890; 2386.450;    0.000;    0.000
345.947; 2424.450;    0.000;    0.000
346.003; 2399.450;    0.000;    0.000
346.060; 2306.450;    0.000;    0.000
346.116; 2266.450;    0.000;    0.000
346.173; 2336.450;    0.000;    0.000
346.229; 2325.450;    0.000;    0.000
346.285; 2228.450;    0.000;    0.000
346.342; 2448.450;    0.000;    0.000
346.398; 2390.450;    0.000;    0.000
346.455; 2373.450;    0.000;    0.000
346.511; 2527.450;    0.000;    0.000
346.567; 2455.450;    0.000;    0.000
346.624; 2551.450;    0.000;    0.000
346.680; 2582.450;    0.000;    0.000
346.737; 2559.450;    0.000;    0.000
346.793; 2648.450;    0.000;    0.000
346.849; 2636.450;    0.000;    0.000
346.906; 2728.450;    0.000;    0.000
346.962; 2640.450;    0.000;    0.000
347.018; 2624.450;    0.000;    0.000
347.074; 2653.450;    0.000;    0.000
347.131; 2627.450;    0.000;    0.000
347.187; 2599.450;    0.000;    0.000
347.243; 2617.450;    0.000;    0.000
347.300; 2605.450;    0.000;    0.000
347.356; 2531.450;    0.000;    0.000
347.412; 2482.450;    0.000;    0.000
347.468; 2494.450;    0.000;    0.000
347.524; 2395.450;    0.000;    0.000
347.581; 2485.450;    0.000;    0.000
347.637; 2474.450;    0.000;    0.000
347.693; 2504.450;    0.000;    0.000
347.749; 2514.450;    0.000;    0.000
347.805; 2504.450;    0.000;    0.000
347.862; 2427.450;    0.000;    0.000
347.918; 2404.450;    0.000;    0.000
347.974; 2461.450;    0.000;    0.000
348.030; 2462.450;    0.000;    0.000
348.086; 2427.450;    0.000;    0.000
348.142; 2422.450;    0.000;    0.000
348.198; 2417.450;    0.000;    0.000
348.254; 2493.450;    0.000;    0.000
348.311; 2364.450;    0.000;    0.000
348.367; 2470.450;    0.000;    0.000
348.423; 2318.450;    0.000;    0.000
348.479; 2357.450;    0.000;    0.000
348.535; 2367.450;    0.000;    0.000
348.591; 2421.450;    0.000;    0.000
348.647; 2434.450;    0.000;    0.000
348.703; 2386.450;    0.000;    0.000
348.759; 2337.450;    0.000;    0.000
348.815; 2410.450;    0.000;    0.000
348.871; 2397.450;    0.000;    0.000
348.927; 2382.450;    0.000;    0.000
348.983; 2462.450;    0.000;    0.000
349.039; 2367.450;    0.000;    0.000
349.095; 2410.450;    0.000;    0.000
349.151; 2419.450;    0.000;    0.000
349.207; 2432.450;    0.000;    0.000
349.263; 2480.450;    0.000;    0.000
349.319; 2430.450;    0.000;    0.000
349.374; 2542.450;    0.000;    0.000
349.430; 2454.450;    0.000;    0.000
349.486; 2527.450;    0.000;    0.000
349.542; 2531.450;    0.000;    0.000
349.598; 2570.450;    0.000;    0.000
349.654; 2414.450;    0.000;    0.000
349.710; 2468.450;    0.000;    0.000
349.766; 2452.450;    0.000;    0.000
349.821; 2482.450;    0.000;    0.000
349.877; 2482.450;    0.000;    0.000
349.933; 2488.450;    0.000;    0.000
349.989; 2397.450;    0.000;    0.000
350.045; 2441.450;    0.000;    0.000
350.100; 2550.450;    0.000;    0.000
350.156; 2450.450;    0.000;    0.000
350.212; 2409.450;    0.000;    0.000
350.268; 2483.450;    0.000;    0.000
350.323; 2481.450;    0.000;    0.000
350.379; 2400.450;    0.000;    0.000
350.435; 2382.450;    0.000;    0.000
350.491; 2343.450;    0.000;    0.000
350.546; 2464.450;    0.000;    0.000
350.602; 2403.450;    0.000;    0.000
350.658; 2435.450;    0.000;    0.000
350.713; 2452.450;    0.000;    0.000
350.769; 2444.450;    0.000;    0.000
350.825; 2337.450;    0.000;    0.000
350.880; 2404.450;    0.000;    0.000
350.936; 2426.450;    0.000;    0.000
350.992; 2411.450;    0.000;    0.000
351.047; 2369.450;    0.000;    0.000
351.103; 2479.450;    0.000;    0.000
351.158; 2401.450;    0.000;    0.000
351.214; 2358.450;    0.000;    0.000
351.270; 2378.450;    0.000;    0.000
351.325; 2271.450;    0.000;    0.000
351.381; 2362.450;    0.000;    0.000
351.436; 2433.450;    0.000;    0.000
351.492; 2584.450;    0.000;    0.000
351.547; 2510.450;    0.000;    0.000
351.603; 2620.450;    0.000;    0.000
351.658; 2560.450;    0.000;    0.000
351.714; 2491.450;    0.000;    0.000
351.769; 2529.450;    0.000;    0.000
351.825; 2468.450;    0.000;    0.000
351.880; 2529.450;    0.000;    0.000
351.936; 2573.450;    0.000;    0.000
351.991; 2686.450;    0.000;    0.000
352.047; 2619.450;    0.000;    0.000
352.102; 2537.450;    0.000;    0.000
352.158; 2479.450;    0.000;    0.000
352.213; 2471.450;    0.000;    0.000
352.268; 2492.450;    0.000;    0.000
352.324; 2356.450;    0.000;    0.000
352.379; 2463.450;    0.000;    0.000
352.434; 2490.450;    0.000;    0.000
352.490; 2544.450;    0.000;    0.000
352.545; 2495.450;    0.000;    0.000
352.601; 2549.450;    0.000;    0.000
352.656; 2474.450;    0.000;    0.000
352.711; 2334.450;    0.000;    0.000
352.767; 2369.450;    0.000;    0.000
352.822; 2360.450;    0.000;    0.000
352.877; 2345.450;    0.000;    0.000
352.932; 2440.450;    0.000;    0.000
352.988; 2432.450;    0.000;    0.000
353.043; 2517.450;    0.000;    0.000
353.098; 2547.450;    0.000;    0.000
353.153; 2461.450;    0.000;    0.000
353.209; 2483.450;    0.000;    0.000
353.264; 2347.450;    0.000;    0.000
353.319; 2349.450;    0.000;    0.000
353.374; 2332.450;    0.000;    0.000
353.430; 2369.450;    0.000;    0.000
353.485; 2376.450;    0.000;    0.000
353.540; 2434.450;    0.000;    0.000
353.595; 2341.450;    0.000;    0.000
353.650; 2407.450;    0.000;    0.000
353.705; 2337.450;    0.000;    0.000
353.761; 2405.450;    0.000;    0.000
353.816; 2402.450;    0.000;    0.000
353.871; 2303.450;    0.000;    0.000
353.926; 2352.450;    0.000;    0.000
353.981; 2317.450;    0.000;    0.000
354.036; 2287.450;    0.000;    0.000
354.091; 2298.450;    0.000;    0.000
354.146; 2268.450;    0.000;    0.000
354.201; 2269.450;    0.000;    0.000
354.256; 2301.450;    0.000;    0.000
354.311; 2322.450;    0.000;    0.000
354.367; 2412.450;    0.000;    0.000
354.422; 2355.450;    0.000;    0.000
354.477; 2425.450;    0.000;    0.000
354.532; 2437.450;    0.000;    0.000
354.587; 2378.450;    0.000;    0.000
354.642; 2339.450;    0.000;    0.000
354.697; 2452.450;    0.000;    0.000
354.751; 2411.450;    0.000;    0.000
354.806; 2445.450;    0.000;    0.000
354.861; 2430.450;    0.000;    0.000
354.916; 2414.450;    0.000;    0.000
354.971; 2397.450;    0.000;    0.000
355.026; 2316.450;    0.000;    0.000
355.081; 2299.450;    0.000;    0.000
355.136; 2284.450;    0.000;    0.000
355.191; 2330.450;    0.000;    0.000
355.246; 2313.450;    0.000;    0.000
355.301; 2271.450;    0.000;    0.000
355.355; 2348.450;    0.000;    0.000
355.410; 2339.450;    0.000;    0.000
355.465; 2330.450;    0.000;    0.000
355.520; 2279.450;    0.000;    0.000
355.575; 2384.450;    0.000;    0.000
355.630; 2267.450;    0.000;    0.000
355.684; 2298.450;    0.000;    0.000
355.739; 2316.450;    0.000;    0.000
355.794; 2312.450;    0.000;    0.000
355.849; 2347.450;    0.000;    0.000
355.904; 2300.450;    0.000;    0.000
355.958; 2312.450;    0.000;    0.000
356.013; 2207.450;    0.000;    0.000
356.068; 2363.450;    0.000;    0.000
356.123; 2336.450;    0.000;    0.000
356.177; 2425.450;    0.000;    0.000
356.232; 2491.450;    0.000;    0.000
356.287; 2420.450;    0.000;    0.000
356.341; 2480.450;    0.000;    0.000
356.396; 2423.450;    0.000;    0.000
356.451; 2447.450;    0.000;    0.000
356.505; 2442.450;    0.000;    0.000
356.560; 2375.450;    0.000;    0.000
356.615; 2427.450;    0.000;    0.000
356.669; 2468.450;    0.000;    0.000
356.724; 2322.450;    0.000;    0.000
356.778; 2410.450;    0.000;    0.000
356.833; 2276.450;    0.000;    0.000
356.888; 2356.450;    0.000;    0.000
356.942; 2357.450;    0.000;    0.000
356.997; 2298.450;    0.000;    0.000
357.051; 2248.450;    0.000;    0.000
357.106; 2321.450;    0.000;    0.000
357.160; 2201.450;    0.000;    0.000
357.215; 2241.450;    0.000;    0.000
357.269; 2354.450;    0.000;    0.000
357.324; 2337.450;    0.000;    0.000
357.378; 2259.450;    0.000;    0.000
357.433; 2225.450;    0.000;    0.000
357.487; 2373.450;    0.000;    0.000
357.542; 2232.450;    0.000;    0.000
357.596; 2341.450;    0.000;    0.000
357.651; 2242.450;    0.000;    0.000
357.705; 2347.450;    0.000;    0.000
357.760; 2209.450;    0.000;    0.000
357.814; 2325.450;    0.000;    0.000
357.868; 2247.450;    0.000;    0.000
357.923; 2292.450;    0.000;    0.000
357.977; 2192.450;    0.000;    0.000
358.032; 2305.450;    0.000;    0.000
358.086; 2247.450;    0.000;    0.000
358.140; 2378.450;    0.000;    0.000
358.195; 2243.450;    0.000;    0.000
358.249; 2301.450;    0.000;    0.000
358.303; 2297.450;    0.000;    0.000
358.358; 2174.450;    0.000;    0.000
358.412; 2176.450;    0.000;    0.000
358.466; 2230.450;    0.000;    0.000
358.521; 2101.450;    0.000;    0.000
358.575; 2275.450;    0.000;    0.000
358.629; 2278.450;    0.000;    0.000
358.683; 2193.450;    0.000;    0.000
358.738; 2174.450;    0.000;    0.000
358.792; 2221.450;    0.000;    0.000
358.846; 2290.450;    0.000;    0.000
358.900; 2266.450;    0.000;    0.000
358.954; 2317.450;    0.000;    0.000
359.009; 2306.450;    0.000;    0.000
359.063; 2229.450;    0.000;    0.000
359.117; 2224.450;    0.000;    0.000
359.171; 2260.450;    0.000;    0.000
359.225; 2199.450;    0.000;    0.000
359.280; 2262.450;    0.000;    0.000
359.334; 2259.450;    0.000;    0.000
359.388; 2283.450;    0.000;    0.000
359.442; 2271.450;    0.000;    0.000
359.496; 2158.450;    0.000;    0.000
359.550; 2164.450;    0.000;    0.000
359.604; 2196.450;    0.000;    0.000
359.658; 2182.450;    0.000;    0.000
359.712; 2150.450;    0.000;    0.000
359.766; 2186.450;    0.000;    0.000
359.820; 2153.450;    0.000;    0.000
359.875; 2221.450;    0.000;    0.000
359.929; 2180.450;    0.000;    0.000
359.983; 2238.450;    0.000;    0.000
360.037; 2186.450;    0.000;    0.000
360.091; 2153.450;    0.000;    0.000
360.145; 2225.450;    0.000;    0.000
360.199; 2133.450;    0.000;    0.000
360.253; 2154.450;    0.000;    0.000
360.306; 2204.450;    0.000;    0.000
360.360; 2095.450;    0.000;    0.000
360.414; 2123.450;    0.000;    0.000
360.468; 2199.450;    0.000;    0.000
360.522; 2166.450;    0.000;    0.000
360.576; 2161.450;    0.000;    0.000
360.630; 2276.450;    0.000;    0.000
360.684; 2236.450;    0.000;    0.000
360.738; 2178.450;    0.000;    0.000
360.792; 2166.450;    0.000;    0.000
360.846; 2145.450;    0.000;    0.000
360.899; 2331.450;    0.000;    0.000
360.953; 2219.450;    0.000;    0.000
361.007; 2310.450;    0.000;    0.000
361.061; 2154.450;    0.000;    0.000
361.115; 2203.450;    0.000;    0.000
361.168; 2170.450;    0.000;    0.000
361.222; 2222.450;    0.000;    0.000
361.276; 2188.450;    0.000;    0.000
361.330; 2298.450;    0.000;    0.000
361.384; 2170.450;    0.000;    0.000
361.437; 2194.450;    0.000;    0.000
361.491; 2264.450;    0.000;    0.000
361.545; 2155.450;    0.000;    0.000
361.599; 2204.450;    0.000;    0.000
361.652; 2134.450;    0.000;    0.000
361.706; 2112.450;    0.000;    0.000
361.760; 2139.450;    0.000;    0.000
361.813; 2126.450;    0.000;    0.000
361.867; 2187.450;    0.000;    0.000
361.921; 2182.450;    0.000;    0.000
361.974; 2127.450;    0.000;    0.000
362.028; 2144.450;    0.000;    0.000
362.082; 2108.450;    0.000;    0.000
362.135; 2136.450;    0.000;    0.000
362.189; 2106.450;    0.000;    0.000
362.242; 2208.450;    0.000;    0.000
362.296; 2133.450;    0.000;    0.000
362.350; 2057.450;    0.000;    0.000
362.403; 2101.450;    0.000;    0.000
362.457; 2142.450;    0.000;    0.000
362.510; 2125.450;    0.000;    0.000
362.564; 2045.450;    0.000;    0.000
362.617; 2059.450;    0.000;    0.000
362.671; 2043.450;    0.000;    0.000
362.724; 2080.450;    0.000;    0.000
362.778; 2027.450;    0.000;    0.000
362.831; 2143.450;    0.000;    0.000
362.885; 2082.450;    0.000;    0.000
362.938; 1966.450;    0.000;    0.000
362.992;  421.450;    0.000;    0.000
363.045;  350.450;    0.000;    0.000
363.099;  304.450;    0.000;    0.000
363.152;  320.450;    0.000;    0.000
363.205;  302.450;    0.000;    0.000
363.259;  275.450;    0.000;    0.000
363.312;  326.450;    0.000;    0.000
363.366;  319.450;    0.000;    0.000
363.419;  325.450;    0.000;    0.000
363.472;  292.450;    0.000;    0.000
363.526;  322.450;    0.000;    0.000
363.579;  300.450;    0.000;    0.000
363.632;  310.450;    0.000;    0.000
363.686;  317.450;    0.000;    0.000
363.739;  269.450;    0.000;    0.000
363.792;  304.450;    0.000;    0.000

