
Integration time [ms]:   0.300
Averaging Nr. [scans]: 1
Smoothing Nr. [pixels]: 0
Data measured with spectrometer [name]: UV1
Wave   ;Sample   ;Dark     ;Reference
[nm]   ;[counts] ;[counts] ;[counts] 

236.381;  152.900;  149.925;    0.000
236.451;  217.900;  206.925;    0.000
236.520;  167.900;  212.925;    0.000
236.590;  190.900;  189.925;    0.000
236.660;  198.900;  184.925;    0.000
236.730;  188.900;  186.925;    0.000
236.799;  193.900;  191.925;    0.000
236.869;  226.900;  184.925;    0.000
236.939;  173.900;  176.925;    0.000
237.009;  189.900;  184.925;    0.000
237.078;  186.900;  189.925;    0.000
237.148;  165.900;  217.925;    0.000
237.218;  197.900;  192.925;    0.000
237.287;  167.900;  182.925;    0.000
237.357;  167.900;  196.925;    0.000
237.427;  191.900;  144.925;    0.000
237.496;  695.900;  224.925;    0.000
237.566;  647.900;  210.925;    0.000
237.636;  588.900;  165.925;    0.000
237.705;  694.900;  214.925;    0.000
237.775;  620.900;  194.925;    0.000
237.845;  702.900;  214.925;    0.000
237.914;  590.900;  191.925;    0.000
237.984;  666.900;  218.925;    0.000
238.054;  639.900;  187.925;    0.000
238.123;  666.900;  179.925;    0.000
238.193;  691.900;  177.925;    0.000
238.263;  595.900;  225.925;    0.000
238.332;  627.900;  197.925;    0.000
238.402;  632.900;  183.925;    0.000
238.471;  649.900;  181.925;    0.000
238.541;  624.900;  200.925;    0.000
238.611;  596.900;  170.925;    0.000
238.680;  620.900;  170.925;    0.000
238.750;  672.900;  175.925;    0.000
238.819;  629.900;  180.925;    0.000
238.889;  594.900;  190.925;    0.000
238.958;  602.900;  207.925;    0.000
239.028;  616.900;  201.925;    0.000
239.097;  628.900;  181.925;    0.000
239.167;  707.900;  222.925;    0.000
239.237;  609.900;  221.925;    0.000
239.306;  579.900;  147.925;    0.000
239.376;  618.900;  188.925;    0.000
239.445;  656.900;  198.925;    0.000
239.515;  642.900;  191.925;    0.000
239.584;  665.900;  178.925;    0.000
239.654;  612.900;  147.925;    0.000
239.723;  581.900;  212.925;    0.000
239.793;  648.900;  185.925;    0.000
239.862;  613.900;  157.925;    0.000
239.932;  563.900;  181.925;    0.000
240.001;  582.900;  163.925;    0.000
240.070;  655.900;  194.925;    0.000
240.140;  636.900;  202.925;    0.000
240.209;  589.900;  180.925;    0.000
240.279;  596.900;  188.925;    0.000
240.348;  653.900;  189.925;    0.000
240.418;  610.900;  143.925;    0.000
240.487;  570.900;  195.925;    0.000
240.556;  637.900;  170.925;    0.000
240.626;  598.900;  172.925;    0.000
240.695;  637.900;  202.925;    0.000
240.765;  609.900;  191.925;    0.000
240.834;  615.900;  177.925;    0.000
240.903;  589.900;  189.925;    0.000
240.973;  653.900;  196.925;    0.000
241.042;  601.900;  183.925;    0.000
241.112;  615.900;  189.925;    0.000
241.181;  620.900;  186.925;    0.000
241.250;  543.900;  168.925;    0.000
241.320;  669.900;  200.925;    0.000
241.389;  609.900;  185.925;    0.000
241.458;  662.900;  194.925;    0.000
241.528;  574.900;  165.925;    0.000
241.597;  570.900;  200.925;    0.000
241.666;  603.900;  184.925;    0.000
241.736;  619.900;  176.925;    0.000
241.805;  587.900;  165.925;    0.000
241.874;  605.900;  200.925;    0.000
241.943;  639.900;  184.925;    0.000
242.013;  610.900;  212.925;    0.000
242.082;  568.900;  200.925;    0.000
242.151;  604.900;  196.925;    0.000
242.221;  567.900;  182.925;    0.000
242.290;  624.900;  222.925;    0.000
242.359;  537.900;  142.925;    0.000
242.428;  576.900;  180.925;    0.000
242.498;  536.900;  180.925;    0.000
242.567;  642.900;  181.925;    0.000
242.636;  590.900;  203.925;    0.000
242.705;  589.900;  209.925;    0.000
242.774;  558.900;  172.925;    0.000
242.844;  586.900;  218.925;    0.000
242.913;  597.900;  188.925;    0.000
242.982;  581.900;  193.925;    0.000
243.051;  575.900;  202.925;    0.000
243.120;  591.900;  174.925;    0.000
243.190;  565.900;  165.925;    0.000
243.259;  557.900;  206.925;    0.000
243.328;  557.900;  166.925;    0.000
243.397;  546.900;  167.925;    0.000
243.466;  604.900;  163.925;    0.000
243.535;  593.900;  162.925;    0.000
243.605;  521.900;  159.925;    0.000
243.674;  575.900;  171.925;    0.000
243.743;  545.900;  189.925;    0.000
243.812;  564.900;  169.925;    0.000
243.881;  569.900;  145.925;    0.000
243.950;  519.900;  197.925;    0.000
244.019;  624.900;  189.925;    0.000
244.088;  611.900;  200.925;    0.000
244.158;  606.900;  208.925;    0.000
244.227;  521.900;  154.925;    0.000
244.296;  520.900;  142.925;    0.000
244.365;  560.900;  198.925;    0.000
244.434;  564.900;  162.925;    0.000
244.503;  539.900;  186.925;    0.000
244.572;  545.900;  143.925;    0.000
244.641;  534.900;  145.925;    0.000
244.710;  568.900;  159.925;    0.000
244.779;  542.900;  175.925;    0.000
244.848;  542.900;  163.925;    0.000
244.917;  579.900;  157.925;    0.000
244.986;  561.900;  166.925;    0.000
245.055;  556.900;  211.925;    0.000
245.124;  575.900;  155.925;    0.000
245.193;  599.900;  187.925;    0.000
245.262;  512.900;  152.925;    0.000
245.331;  537.900;  177.925;    0.000
245.400;  542.900;  157.925;    0.000
245.469;  594.900;  195.925;    0.000
245.538;  584.900;  199.925;    0.000
245.607;  578.900;  194.925;    0.000
245.676;  525.900;  170.925;    0.000
245.745;  585.900;  208.925;    0.000
245.814;  535.900;  185.925;    0.000
245.883;  558.900;  165.925;    0.000
245.952;  565.900;  151.925;    0.000
246.021;  531.900;  171.925;    0.000
246.090;  549.900;  174.925;    0.000
246.159;  514.900;  192.925;    0.000
246.227;  551.900;  178.925;    0.000
246.296;  535.900;  159.925;    0.000
246.365;  524.900;  189.925;    0.000
246.434;  587.900;  205.925;    0.000
246.503;  547.900;  174.925;    0.000
246.572;  542.900;  203.925;    0.000
246.641;  520.900;  169.925;    0.000
246.710;  510.900;  186.925;    0.000
246.779;  544.900;  196.925;    0.000
246.847;  562.900;  209.925;    0.000
246.916;  505.900;  177.925;    0.000
246.985;  554.900;  188.925;    0.000
247.054;  517.900;  189.925;    0.000
247.123;  524.900;  196.925;    0.000
247.192;  531.900;  210.925;    0.000
247.260;  489.900;  164.925;    0.000
247.329;  513.900;  204.925;    0.000
247.398;  535.900;  204.925;    0.000
247.467;  572.900;  160.925;    0.000
247.536;  520.900;  193.925;    0.000
247.604;  551.900;  208.925;    0.000
247.673;  511.900;  168.925;    0.000
247.742;  540.900;  182.925;    0.000
247.811;  566.900;  186.925;    0.000
247.879;  530.900;  166.925;    0.000
247.948;  496.900;  192.925;    0.000
248.017;  456.900;  178.925;    0.000
248.086;  506.900;  193.925;    0.000
248.154;  463.900;  191.925;    0.000
248.223;  509.900;  207.925;    0.000
248.292;  562.900;  168.925;    0.000
248.361;  514.900;  211.925;    0.000
248.429;  515.900;  196.925;    0.000
248.498;  514.900;  163.925;    0.000
248.567;  483.900;  159.925;    0.000
248.635;  513.900;  194.925;    0.000
248.704;  537.900;  205.925;    0.000
248.773;  508.900;  190.925;    0.000
248.841;  517.900;  179.925;    0.000
248.910;  512.900;  193.925;    0.000
248.979;  489.900;  167.925;    0.000
249.047;  529.900;  166.925;    0.000
249.116;  484.900;  191.925;    0.000
249.185;  527.900;  203.925;    0.000
249.253;  524.900;  140.925;    0.000
249.322;  553.900;  173.925;    0.000
249.390;  545.900;  165.925;    0.000
249.459;  540.900;  173.925;    0.000
249.528;  454.900;  203.925;    0.000
249.596;  464.900;  204.925;    0.000
249.665;  467.900;  176.925;    0.000
249.733;  501.900;  178.925;    0.000
249.802;  500.900;  190.925;    0.000
249.871;  517.900;  171.925;    0.000
249.939;  466.900;  160.925;    0.000
250.008;  500.900;  220.925;    0.000
250.076;  505.900;  211.925;    0.000
250.145;  534.900;  145.925;    0.000
250.213;  439.900;  177.925;    0.000
250.282;  495.900;  186.925;    0.000
250.350;  444.900;  170.925;    0.000
250.419;  505.900;  195.925;    0.000
250.487;  513.900;  194.925;    0.000
250.556;  480.900;  178.925;    0.000
250.624;  480.900;  193.925;    0.000
250.693;  410.900;  167.925;    0.000
250.761;  465.900;  253.925;    0.000
250.830;  493.900;  241.925;    0.000
250.898;  470.900;  161.925;    0.000
250.967;  444.900;  178.925;    0.000
251.035;  503.900;  189.925;    0.000
251.104;  485.900;  166.925;    0.000
251.172;  491.900;  178.925;    0.000
251.241;  451.900;  174.925;    0.000
251.309;  496.900;  197.925;    0.000
251.378;  478.900;  172.925;    0.000
251.446;  451.900;  157.925;    0.000
251.514;  500.900;  197.925;    0.000
251.583;  464.900;  191.925;    0.000
251.651;  432.900;  154.925;    0.000
251.720;  491.900;  198.925;    0.000
251.788;  506.900;  226.925;    0.000
251.856;  450.900;  164.925;    0.000
251.925;  454.900;  181.925;    0.000
251.993;  454.900;  203.925;    0.000
252.062;  508.900;  211.925;    0.000
252.130;  469.900;  185.925;    0.000
252.198;  471.900;  190.925;    0.000
252.267;  485.900;  176.925;    0.000
252.335;  477.900;  179.925;    0.000
252.403;  468.900;  173.925;    0.000
252.472;  501.900;  172.925;    0.000
252.540;  446.900;  187.925;    0.000
252.608;  467.900;  204.925;    0.000
252.677;  387.900;  179.925;    0.000
252.745;  488.900;  192.925;    0.000
252.813;  469.900;  168.925;    0.000
252.881;  449.900;  157.925;    0.000
252.950;  484.900;  188.925;    0.000
253.018;  440.900;  191.925;    0.000
253.086;  406.900;  164.925;    0.000
253.155;  423.900;  172.925;    0.000
253.223;  427.900;  168.925;    0.000
253.291;  442.900;  190.925;    0.000
253.359;  454.900;  205.925;    0.000
253.428;  481.900;  228.925;    0.000
253.496;  468.900;  170.925;    0.000
253.564;  422.900;  164.925;    0.000
253.632;  427.900;  159.925;    0.000
253.700;  433.900;  166.925;    0.000
253.769;  405.900;  172.925;    0.000
253.837;  436.900;  157.925;    0.000
253.905;  419.900;  168.925;    0.000
253.973;  408.900;  179.925;    0.000
254.041;  427.900;  187.925;    0.000
254.110;  435.900;  186.925;    0.000
254.178;  390.900;  156.925;    0.000
254.246;  438.900;  132.925;    0.000
254.314;  450.900;  191.925;    0.000
254.382;  418.900;  189.925;    0.000
254.450;  432.900;  163.925;    0.000
254.518;  405.900;  172.925;    0.000
254.587;  403.900;  162.925;    0.000
254.655;  479.900;  191.925;    0.000
254.723;  431.900;  184.925;    0.000
254.791;  488.900;  169.925;    0.000
254.859;  469.900;  186.925;    0.000
254.927;  450.900;  207.925;    0.000
254.995;  446.900;  143.925;    0.000
255.063;  440.900;  198.925;    0.000
255.131;  466.900;  168.925;    0.000
255.199;  477.900;  183.925;    0.000
255.267;  431.900;  159.925;    0.000
255.336;  467.900;  197.925;    0.000
255.404;  450.900;  177.925;    0.000
255.472;  449.900;  204.925;    0.000
255.540;  431.900;  169.925;    0.000
255.608;  456.900;  141.925;    0.000
255.676;  446.900;  176.925;    0.000
255.744;  489.900;  184.925;    0.000
255.812;  405.900;  158.925;    0.000
255.880;  496.900;  202.925;    0.000
255.948;  470.900;  184.925;    0.000
256.016;  499.900;  192.925;    0.000
256.084;  481.900;  204.925;    0.000
256.152;  467.900;  191.925;    0.000
256.220;  534.900;  187.925;    0.000
256.288;  495.900;  176.925;    0.000
256.356;  494.900;  146.925;    0.000
256.424;  493.900;  164.925;    0.000
256.491;  506.900;  161.925;    0.000
256.559;  497.900;  167.925;    0.000
256.627;  500.900;  180.925;    0.000
256.695;  471.900;  159.925;    0.000
256.763;  487.900;  166.925;    0.000
256.831;  553.900;  166.925;    0.000
256.899;  527.900;  161.925;    0.000
256.967;  538.900;  116.925;    0.000
257.035;  548.900;  195.925;    0.000
257.103;  590.900;  227.925;    0.000
257.171;  559.900;  147.925;    0.000
257.238;  514.900;  158.925;    0.000
257.306;  533.900;  188.925;    0.000
257.374;  562.900;  153.925;    0.000
257.442;  543.900;  159.925;    0.000
257.510;  546.900;  201.925;    0.000
257.578;  561.900;  137.925;    0.000
257.646;  533.900;  172.925;    0.000
257.713;  553.900;  164.925;    0.000
257.781;  586.900;  163.925;    0.000
257.849;  621.900;  174.925;    0.000
257.917;  591.900;  164.925;    0.000
257.985;  613.900;  126.925;    0.000
258.052;  659.900;  158.925;    0.000
258.120;  661.900;  151.925;    0.000
258.188;  645.900;  169.925;    0.000
258.256;  670.900;  110.925;    0.000
258.324;  637.900;  193.925;    0.000
258.391;  664.900;  157.925;    0.000
258.459;  725.900;  193.925;    0.000
258.527;  725.900;  150.925;    0.000
258.595;  661.900;  173.925;    0.000
258.662;  633.900;  168.925;    0.000
258.730;  694.900;  190.925;    0.000
258.798;  719.900;  164.925;    0.000
258.865;  677.900;  165.925;    0.000
258.933;  765.900;  162.925;    0.000
259.001;  699.900;  174.925;    0.000
259.069;  731.900;  139.925;    0.000
259.136;  750.900;  160.925;    0.000
259.204;  755.900;  174.925;    0.000
259.272;  767.900;  161.925;    0.000
259.339;  700.900;  157.925;    0.000
259.407;  838.900;  159.925;    0.000
259.475;  727.900;  134.925;    0.000
259.542;  790.900;  179.925;    0.000
259.610;  814.900;  172.925;    0.000
259.677;  812.900;  152.925;    0.000
259.745;  753.900;  131.925;    0.000
259.813;  844.900;  185.925;    0.000
259.880;  873.900;  183.925;    0.000
259.948;  819.900;  168.925;    0.000
260.016;  796.900;  160.925;    0.000
260.083;  909.900;  163.925;    0.000
260.151;  864.900;  162.925;    0.000
260.218;  911.900;  171.925;    0.000
260.286;  870.900;  154.925;    0.000
260.353;  944.900;  182.925;    0.000
260.421;  919.900;  187.925;    0.000
260.489;  908.900;  185.925;    0.000
260.556;  914.900;  165.925;    0.000
260.624;  935.900;  185.925;    0.000
260.691;  940.900;  175.925;    0.000
260.759;  948.900;  201.925;    0.000
260.826;  902.900;  150.925;    0.000
260.894;  977.900;  142.925;    0.000
260.961;  984.900;  156.925;    0.000
261.029;  950.900;  161.925;    0.000
261.096; 1028.900;  172.925;    0.000
261.164;  963.900;  149.925;    0.000
261.231;  999.900;  191.925;    0.000
261.299; 1038.900;  182.925;    0.000
261.366;  961.900;  156.925;    0.000
261.434; 1090.900;  188.925;    0.000
261.501; 1004.900;  170.925;    0.000
261.568; 1052.900;  167.925;    0.000
261.636; 1059.900;  169.925;    0.000
261.703; 1119.900;  200.925;    0.000
261.771; 1159.900;  170.925;    0.000
261.838; 1132.900;  175.925;    0.000
261.906; 1096.900;  135.925;    0.000
261.973; 1130.900;  184.925;    0.000
262.040; 1126.900;  176.925;    0.000
262.108; 1096.900;  201.925;    0.000
262.175; 1064.900;  141.925;    0.000
262.243; 1134.900;  175.925;    0.000
262.310; 1109.900;  112.925;    0.000
262.377; 1133.900;  158.925;    0.000
262.445; 1216.900;  162.925;    0.000
262.512; 1180.900;  184.925;    0.000
262.579; 1177.900;  185.925;    0.000
262.647; 1179.900;  158.925;    0.000
262.714; 1189.900;  197.925;    0.000
262.781; 1194.900;  133.925;    0.000
262.849; 1162.900;  146.925;    0.000
262.916; 1273.900;  204.925;    0.000
262.983; 1242.900;  191.925;    0.000
263.051; 1221.900;  140.925;    0.000
263.118; 1225.900;  154.925;    0.000
263.185; 1271.900;  169.925;    0.000
263.252; 1259.900;  150.925;    0.000
263.320; 1335.900;  145.925;    0.000
263.387; 1279.900;  144.925;    0.000
263.454; 1289.900;  193.925;    0.000
263.522; 1250.900;  160.925;    0.000
263.589; 1280.900;  153.925;    0.000
263.656; 1326.900;  178.925;    0.000
263.723; 1352.900;  136.925;    0.000
263.790; 1357.900;  162.925;    0.000
263.858; 1341.900;  164.925;    0.000
263.925; 1434.900;  146.925;    0.000
263.992; 1365.900;  191.925;    0.000
264.059; 1364.900;  180.925;    0.000
264.126; 1447.900;  183.925;    0.000
264.194; 1361.900;  174.925;    0.000
264.261; 1435.900;  187.925;    0.000
264.328; 1445.900;  179.925;    0.000
264.395; 1416.900;  166.925;    0.000
264.462; 1444.900;  197.925;    0.000
264.529; 1459.900;  209.925;    0.000
264.597; 1408.900;  173.925;    0.000
264.664; 1429.900;  193.925;    0.000
264.731; 1514.900;  165.925;    0.000
264.798; 1438.900;  148.925;    0.000
264.865; 1428.900;  186.925;    0.000
264.932; 1438.900;  152.925;    0.000
264.999; 1529.900;  166.925;    0.000
265.066; 1511.900;  186.925;    0.000
265.133; 1539.900;  172.925;    0.000
265.201; 1486.900;  159.925;    0.000
265.268; 1513.900;  164.925;    0.000
265.335; 1511.900;  161.925;    0.000
265.402; 1530.900;  157.925;    0.000
265.469; 1556.900;  134.925;    0.000
265.536; 1573.900;  191.925;    0.000
265.603; 1493.900;  170.925;    0.000
265.670; 1492.900;  162.925;    0.000
265.737; 1571.900;  172.925;    0.000
265.804; 1550.900;  151.925;    0.000
265.871; 1629.900;  191.925;    0.000
265.938; 1523.900;  173.925;    0.000
266.005; 1606.900;  201.925;    0.000
266.072; 1552.900;  156.925;    0.000
266.139; 1613.900;  191.925;    0.000
266.206; 1669.900;  151.925;    0.000
266.273; 1598.900;  194.925;    0.000
266.340; 1649.900;  120.925;    0.000
266.407; 1576.900;  130.925;    0.000
266.474; 1627.900;  137.925;    0.000
266.541; 1579.900;  139.925;    0.000
266.608; 1525.900;  139.925;    0.000
266.675; 1619.900;  198.925;    0.000
266.742; 1638.900;  165.925;    0.000
266.808; 1652.900;  174.925;    0.000
266.875; 1620.900;  169.925;    0.000
266.942; 1737.900;  137.925;    0.000
267.009; 1678.900;  181.925;    0.000
267.076; 1683.900;  204.925;    0.000
267.143; 1676.900;  179.925;    0.000
267.210; 1738.900;  160.925;    0.000
267.277; 1659.900;  154.925;    0.000
267.344; 1717.900;  178.925;    0.000
267.410; 1660.900;  190.925;    0.000
267.477; 1724.900;  193.925;    0.000
267.544; 1745.900;  168.925;    0.000
267.611; 1818.900;  177.925;    0.000
267.678; 1719.900;  205.925;    0.000
267.745; 1742.900;  205.925;    0.000
267.811; 1712.900;  164.925;    0.000
267.878; 1717.900;  166.925;    0.000
267.945; 1653.900;  160.925;    0.000
268.012; 1746.900;  172.925;    0.000
268.079; 1721.900;  186.925;    0.000
268.145; 1772.900;  188.925;    0.000
268.212; 1753.900;  181.925;    0.000
268.279; 1765.900;  158.925;    0.000
268.346; 1743.900;  192.925;    0.000
268.412; 1735.900;  159.925;    0.000
268.479; 1818.900;  176.925;    0.000
268.546; 1727.900;  170.925;    0.000
268.613; 1801.900;  133.925;    0.000
268.679; 1728.900;  170.925;    0.000
268.746; 1748.900;  185.925;    0.000
268.813; 1733.900;  170.925;    0.000
268.879; 1714.900;  149.925;    0.000
268.946; 1707.900;  176.925;    0.000
269.013; 1688.900;  153.925;    0.000
269.079; 1734.900;  156.925;    0.000
269.146; 1667.900;  143.925;    0.000
269.213; 1695.900;  170.925;    0.000
269.280; 1658.900;  202.925;    0.000
269.346; 1686.900;  180.925;    0.000
269.413; 1679.900;  162.925;    0.000
269.479; 1818.900;  175.925;    0.000
269.546; 1676.900;  151.925;    0.000
269.613; 1649.900;  159.925;    0.000
269.679; 1731.900;  190.925;    0.000
269.746; 1776.900;  159.925;    0.000
269.813; 1659.900;  151.925;    0.000
269.879; 1738.900;  169.925;    0.000
269.946; 1747.900;  169.925;    0.000
270.012; 1680.900;  185.925;    0.000
270.079; 1610.900;  133.925;    0.000
270.145; 1754.900;  161.925;    0.000
270.212; 1791.900;  156.925;    0.000
270.279; 1736.900;  176.925;    0.000
270.345; 1722.900;  140.925;    0.000
270.412; 1775.900;  162.925;    0.000
270.478; 1713.900;  148.925;    0.000
270.545; 1700.900;  146.925;    0.000
270.611; 1680.900;  168.925;    0.000
270.678; 1639.900;  164.925;    0.000
270.744; 1668.900;  117.925;    0.000
270.811; 1701.900;  196.925;    0.000
270.877; 1784.900;  151.925;    0.000
270.944; 1676.900;  174.925;    0.000
271.010; 1694.900;  180.925;    0.000
271.077; 1662.900;  162.925;    0.000
271.143; 1677.900;  178.925;    0.000
271.210; 1692.900;  159.925;    0.000
271.276; 1694.900;  143.925;    0.000
271.342; 1717.900;  196.925;    0.000
271.409; 1651.900;  161.925;    0.000
271.475; 1647.900;  153.925;    0.000
271.542; 1652.900;  147.925;    0.000
271.608; 1653.900;  175.925;    0.000
271.675; 1615.900;  134.925;    0.000
271.741; 1650.900;  182.925;    0.000
271.807; 1680.900;  174.925;    0.000
271.874; 1640.900;  169.925;    0.000
271.940; 1701.900;  179.925;    0.000
272.007; 1670.900;  173.925;    0.000
272.073; 1623.900;  133.925;    0.000
272.139; 1674.900;  191.925;    0.000
272.206; 1660.900;  168.925;    0.000
272.272; 1645.900;  179.925;    0.000
272.338; 1667.900;  224.925;    0.000
272.405; 1664.900;  156.925;    0.000
272.471; 1567.900;  175.925;    0.000
272.537; 1662.900;  190.925;    0.000
272.604; 1665.900;  199.925;    0.000
272.670; 1678.900;  156.925;    0.000
272.736; 1652.900;  198.925;    0.000
272.802; 1596.900;  169.925;    0.000
272.869; 1683.900;  141.925;    0.000
272.935; 1613.900;  145.925;    0.000
273.001; 1653.900;  156.925;    0.000
273.068; 1602.900;  157.925;    0.000
273.134; 1636.900;  184.925;    0.000
273.200; 1634.900;  158.925;    0.000
273.266; 1561.900;  150.925;    0.000
273.333; 1655.900;  176.925;    0.000
273.399; 1615.900;  118.925;    0.000
273.465; 1710.900;  184.925;    0.000
273.531; 1599.900;  179.925;    0.000
273.597; 1711.900;  167.925;    0.000
273.664; 1682.900;  186.925;    0.000
273.730; 1626.900;  137.925;    0.000
273.796; 1641.900;  148.925;    0.000
273.862; 1636.900;  183.925;    0.000
273.928; 1658.900;  179.925;    0.000
273.995; 1701.900;  189.925;    0.000
274.061; 1661.900;  188.925;    0.000
274.127; 1605.900;  132.925;    0.000
274.193; 1614.900;  135.925;    0.000
274.259; 1621.900;  177.925;    0.000
274.325; 1713.900;  178.925;    0.000
274.391; 1669.900;  140.925;    0.000
274.457; 1645.900;  158.925;    0.000
274.524; 1629.900;  175.925;    0.000
274.590; 1613.900;  182.925;    0.000
274.656; 1651.900;  165.925;    0.000
274.722; 1799.900;  152.925;    0.000
274.788; 1703.900;  159.925;    0.000
274.854; 1645.900;  143.925;    0.000
274.920; 1607.900;  117.925;    0.000
274.986; 1740.900;  140.925;    0.000
275.052; 1692.900;  174.925;    0.000
275.118; 1668.900;  129.925;    0.000
275.184; 1765.900;  173.925;    0.000
275.250; 1646.900;  196.925;    0.000
275.316; 1678.900;  142.925;    0.000
275.382; 1632.900;  149.925;    0.000
275.448; 1668.900;  178.925;    0.000
275.514; 1777.900;  136.925;    0.000
275.580; 1683.900;  140.925;    0.000
275.646; 1647.900;  133.925;    0.000
275.712; 1692.900;  162.925;    0.000
275.778; 1696.900;  129.925;    0.000
275.844; 1711.900;  156.925;    0.000
275.910; 1760.900;  172.925;    0.000
275.976; 1768.900;  158.925;    0.000
276.042; 1744.900;  141.925;    0.000
276.108; 1746.900;  212.925;    0.000
276.174; 1810.900;  148.925;    0.000
276.240; 1802.900;  134.925;    0.000
276.306; 1742.900;  149.925;    0.000
276.372; 1760.900;  126.925;    0.000
276.437; 1859.900;  168.925;    0.000
276.503; 1841.900;  158.925;    0.000
276.569; 1795.900;  191.925;    0.000
276.635; 1789.900;  130.925;    0.000
276.701; 1842.900;  161.925;    0.000
276.767; 1786.900;  148.925;    0.000
276.833; 1825.900;  147.925;    0.000
276.899; 1838.900;  149.925;    0.000
276.964; 1847.900;  181.925;    0.000
277.030; 1919.900;  186.925;    0.000
277.096; 1915.900;  132.925;    0.000
277.162; 1949.900;  181.925;    0.000
277.228; 1899.900;  166.925;    0.000
277.293; 1952.900;  154.925;    0.000
277.359; 2084.900;  181.925;    0.000
277.425; 2084.900;  184.925;    0.000
277.491; 2023.900;  150.925;    0.000
277.557; 2206.900;  159.925;    0.000
277.622; 2474.900;  129.925;    0.000
277.688; 2470.900;  184.925;    0.000
277.754; 2432.900;  182.925;    0.000
277.820; 2594.900;  149.925;    0.000
277.885; 2937.900;  185.925;    0.000
277.951; 3511.900;  164.925;    0.000
278.017; 3031.900;  162.925;    0.000
278.083; 2750.900;  189.925;    0.000
278.148; 2683.900;  184.925;    0.000
278.214; 2801.900;  188.925;    0.000
278.280; 2748.900;  206.925;    0.000
278.345; 2660.900;  187.925;    0.000
278.411; 2573.900;  174.925;    0.000
278.477; 2586.900;  190.925;    0.000
278.542; 2657.900;  154.925;    0.000
278.608; 2682.900;  191.925;    0.000
278.674; 2796.900;  243.925;    0.000
278.739; 2879.900;  141.925;    0.000
278.805; 3057.900;  171.925;    0.000
278.871; 3195.900;  181.925;    0.000
278.936; 3675.900;  191.925;    0.000
279.002; 4742.900;  201.925;    0.000
279.067; 5866.900;  174.925;    0.000
279.133; 6013.900;  165.925;    0.000
279.199; 5906.900;  122.925;    0.000
279.264; 6252.900;  159.925;    0.000
279.330; 7871.900;  170.925;    0.000
279.395;11575.900;  173.925;    0.000
279.461;19377.900;  200.925;    0.000
279.527;25095.900;  199.925;    0.000
279.592;20584.900;  203.925;    0.000
279.658;13178.900;  209.925;    0.000
279.723;10970.900;  188.925;    0.000
279.789;11003.900;  180.925;    0.000
279.854; 9600.900;  137.925;    0.000
279.920; 8194.900;  223.925;    0.000
279.985; 7441.900;  186.925;    0.000
280.051; 8063.900;  198.925;    0.000
280.116; 9698.900;  178.925;    0.000
280.182;16298.900;  176.925;    0.000
280.247;21239.900;  195.925;    0.000
280.313;15771.900;  165.925;    0.000
280.378; 8828.900;  153.925;    0.000
280.444; 6363.900;  181.925;    0.000
280.509; 5201.900;  188.925;    0.000
280.574; 4698.900;  149.925;    0.000
280.640; 4120.900;  164.925;    0.000
280.705; 3782.900;  166.925;    0.000
280.771; 3682.900;  188.925;    0.000
280.836; 3489.900;  188.925;    0.000
280.902; 3281.900;  168.925;    0.000
280.967; 3300.900;  202.925;    0.000
281.032; 3163.900;  197.925;    0.000
281.098; 3127.900;  138.925;    0.000
281.163; 3053.900;  160.925;    0.000
281.229; 2951.900;  212.925;    0.000
281.294; 2834.900;  227.925;    0.000
281.359; 2768.900;  200.925;    0.000
281.425; 2830.900;  189.925;    0.000
281.490; 2779.900;  176.925;    0.000
281.555; 2780.900;  182.925;    0.000
281.621; 2671.900;  169.925;    0.000
281.686; 2652.900;  182.925;    0.000
281.751; 2641.900;  208.925;    0.000
281.816; 2558.900;  166.925;    0.000
281.882; 2640.900;  181.925;    0.000
281.947; 2558.900;  178.925;    0.000
282.012; 2658.900;  167.925;    0.000
282.078; 2575.900;  170.925;    0.000
282.143; 2543.900;  157.925;    0.000
282.208; 2560.900;  158.925;    0.000
282.273; 2585.900;  187.925;    0.000
282.339; 2523.900;  185.925;    0.000
282.404; 2546.900;  201.925;    0.000
282.469; 2550.900;  202.925;    0.000
282.534; 2586.900;  185.925;    0.000
282.600; 2465.900;  125.925;    0.000
282.665; 2536.900;  162.925;    0.000
282.730; 2529.900;  174.925;    0.000
282.795; 2493.900;  179.925;    0.000
282.860; 2529.900;  190.925;    0.000
282.926; 2497.900;  200.925;    0.000
282.991; 2492.900;  161.925;    0.000
283.056; 2453.900;  175.925;    0.000
283.121; 2531.900;  181.925;    0.000
283.186; 2469.900;  221.925;    0.000
283.251; 2541.900;  168.925;    0.000
283.316; 2608.900;  156.925;    0.000
283.382; 2471.900;  197.925;    0.000
283.447; 2540.900;  210.925;    0.000
283.512; 2383.900;  164.925;    0.000
283.577; 2477.900;  212.925;    0.000
283.642; 2566.900;  186.925;    0.000
283.707; 2478.900;  182.925;    0.000
283.772; 2472.900;  127.925;    0.000
283.837; 2486.900;  160.925;    0.000
283.902; 2523.900;  162.925;    0.000
283.967; 2581.900;  151.925;    0.000
284.032; 2423.900;  175.925;    0.000
284.097; 2474.900;  235.925;    0.000
284.163; 2483.900;  136.925;    0.000
284.228; 2504.900;  209.925;    0.000
284.293; 2509.900;  163.925;    0.000
284.358; 2616.900;  169.925;    0.000
284.423; 2605.900;  145.925;    0.000
284.488; 2752.900;  134.925;    0.000
284.553; 2562.900;  158.925;    0.000
284.618; 2705.900;  163.925;    0.000
284.683; 2624.900;  168.925;    0.000
284.748; 2711.900;  170.925;    0.000
284.812; 2718.900;  151.925;    0.000
284.877; 2865.900;  169.925;    0.000
284.942; 2907.900;  179.925;    0.000
285.007; 3394.900;  202.925;    0.000
285.072; 4310.900;  171.925;    0.000
285.137; 6361.900;  173.925;    0.000
285.202; 7817.900;  196.925;    0.000
285.267; 6776.900;  193.925;    0.000
285.332; 4677.900;  151.925;    0.000
285.397; 3761.900;  183.925;    0.000
285.462; 3253.900;  168.925;    0.000
285.527; 3077.900;  166.925;    0.000
285.591; 3014.900;  124.925;    0.000
285.656; 2879.900;  145.925;    0.000
285.721; 2851.900;  155.925;    0.000
285.786; 2871.900;  170.925;    0.000
285.851; 2621.900;  175.925;    0.000
285.916; 2669.900;  186.925;    0.000
285.981; 2630.900;  204.925;    0.000
286.045; 2676.900;  237.925;    0.000
286.110; 2656.900;  197.925;    0.000
286.175; 2657.900;  143.925;    0.000
286.240; 2671.900;  167.925;    0.000
286.305; 2633.900;  202.925;    0.000
286.369; 2596.900;  214.925;    0.000
286.434; 2648.900;  206.925;    0.000
286.499; 2595.900;  177.925;    0.000
286.564; 2714.900;  201.925;    0.000
286.628; 2691.900;  153.925;    0.000
286.693; 2714.900;  161.925;    0.000
286.758; 2588.900;  181.925;    0.000
286.823; 2672.900;  176.925;    0.000
286.887; 2593.900;  158.925;    0.000
286.952; 2628.900;  198.925;    0.000
287.017; 2611.900;  196.925;    0.000
287.082; 2558.900;  154.925;    0.000
287.146; 2590.900;  178.925;    0.000
287.211; 2605.900;  165.925;    0.000
287.276; 2442.900;  165.925;    0.000
287.340; 2682.900;  178.925;    0.000
287.405; 2585.900;  177.925;    0.000
287.470; 2533.900;  141.925;    0.000
287.534; 2637.900;  224.925;    0.000
287.599; 2683.900;  184.925;    0.000
287.663; 2595.900;  177.925;    0.000
287.728; 2589.900;  144.925;    0.000
287.793; 2593.900;  210.925;    0.000
287.857; 2551.900;  198.925;    0.000
287.922; 2594.900;  168.925;    0.000
287.987; 2506.900;  168.925;    0.000
288.051; 2599.900;  200.925;    0.000
288.116; 2561.900;  199.925;    0.000
288.180; 2642.900;  211.925;    0.000
288.245; 2611.900;  182.925;    0.000
288.309; 2595.900;  180.925;    0.000
288.374; 2600.900;  196.925;    0.000
288.439; 2575.900;  187.925;    0.000
288.503; 2555.900;  159.925;    0.000
288.568; 2674.900;  207.925;    0.000
288.632; 2610.900;  210.925;    0.000
288.697; 2676.900;  196.925;    0.000
288.761; 2572.900;  175.925;    0.000
288.826; 2600.900;  159.925;    0.000
288.890; 2587.900;  183.925;    0.000
288.955; 2511.900;  149.925;    0.000
289.019; 2582.900;  194.925;    0.000
289.084; 2634.900;  171.925;    0.000
289.148; 2576.900;  191.925;    0.000
289.212; 2618.900;  217.925;    0.000
289.277; 2580.900;  196.925;    0.000
289.341; 2571.900;  211.925;    0.000
289.406; 2463.900;  165.925;    0.000
289.470; 2704.900;  197.925;    0.000
289.535; 2667.900;  208.925;    0.000
289.599; 2576.900;  192.925;    0.000
289.663; 2584.900;  169.925;    0.000
289.728; 2570.900;  168.925;    0.000
289.792; 2630.900;  192.925;    0.000
289.857; 2592.900;  202.925;    0.000
289.921; 2640.900;  176.925;    0.000
289.985; 2610.900;  164.925;    0.000
290.050; 2497.900;  166.925;    0.000
290.114; 2631.900;  192.925;    0.000
290.178; 2514.900;  155.925;    0.000
290.243; 2546.900;  158.925;    0.000
290.307; 2623.900;  192.925;    0.000
290.371; 2591.900;  161.925;    0.000
290.436; 2658.900;  182.925;    0.000
290.500; 2677.900;  147.925;    0.000
290.564; 2555.900;  209.925;    0.000
290.629; 2652.900;  172.925;    0.000
290.693; 2506.900;  192.925;    0.000
290.757; 2567.900;  147.925;    0.000
290.821; 2661.900;  139.925;    0.000
290.886; 2636.900;  186.925;    0.000
290.950; 2596.900;  196.925;    0.000
291.014; 2643.900;  166.925;    0.000
291.078; 2524.900;  143.925;    0.000
291.143; 2757.900;  171.925;    0.000
291.207; 2622.900;  187.925;    0.000
291.271; 2584.900;  208.925;    0.000
291.335; 2546.900;  195.925;    0.000
291.399; 2588.900;  139.925;    0.000
291.464; 2685.900;  139.925;    0.000
291.528; 2755.900;  183.925;    0.000
291.592; 2560.900;  152.925;    0.000
291.656; 2695.900;  155.925;    0.000
291.720; 2568.900;  191.925;    0.000
291.784; 2657.900;  185.925;    0.000
291.849; 2696.900;  175.925;    0.000
291.913; 2706.900;  152.925;    0.000
291.977; 2660.900;  203.925;    0.000
292.041; 2638.900;  181.925;    0.000
292.105; 2755.900;  168.925;    0.000
292.169; 2648.900;  133.925;    0.000
292.233; 2761.900;  156.925;    0.000
292.297; 2542.900;  173.925;    0.000
292.361; 2671.900;  124.925;    0.000
292.425; 2622.900;  138.925;    0.000
292.490; 2648.900;  110.925;    0.000
292.554; 2721.900;  180.925;    0.000
292.618; 2681.900;  178.925;    0.000
292.682; 2684.900;  156.925;    0.000
292.746; 2735.900;  151.925;    0.000
292.810; 2854.900;  183.925;    0.000
292.874; 2989.900;  156.925;    0.000
292.938; 2969.900;  195.925;    0.000
293.002; 3020.900;  200.925;    0.000
293.066; 2886.900;  171.925;    0.000
293.130; 2827.900;  163.925;    0.000
293.194; 2869.900;  174.925;    0.000
293.258; 2759.900;  167.925;    0.000
293.322; 2734.900;  212.925;    0.000
293.386; 2813.900;  189.925;    0.000
293.450; 2802.900;  169.925;    0.000
293.514; 2933.900;  175.925;    0.000
293.577; 2940.900;  169.925;    0.000
293.641; 3163.900;  186.925;    0.000
293.705; 3365.900;  222.925;    0.000
293.769; 3123.900;  150.925;    0.000
293.833; 3091.900;  165.925;    0.000
293.897; 3034.900;  152.925;    0.000
293.961; 2858.900;  179.925;    0.000
294.025; 2919.900;  159.925;    0.000
294.089; 2940.900;  181.925;    0.000
294.152; 2782.900;  188.925;    0.000
294.216; 2867.900;  170.925;    0.000
294.280; 2825.900;  167.925;    0.000
294.344; 2686.900;  151.925;    0.000
294.408; 2822.900;  180.925;    0.000
294.472; 2787.900;  144.925;    0.000
294.536; 2818.900;  171.925;    0.000
294.599; 2677.900;  157.925;    0.000
294.663; 2577.900;  139.925;    0.000
294.727; 2737.900;  208.925;    0.000
294.791; 2664.900;  152.925;    0.000
294.855; 2637.900;  181.925;    0.000
294.918; 2623.900;  136.925;    0.000
294.982; 2661.900;  155.925;    0.000
295.046; 2617.900;  200.925;    0.000
295.110; 2656.900;  190.925;    0.000
295.173; 2543.900;  156.925;    0.000
295.237; 2648.900;  160.925;    0.000
295.301; 2479.900;  145.925;    0.000
295.364; 2701.900;  166.925;    0.000
295.428; 2648.900;  125.925;    0.000
295.492; 2630.900;  154.925;    0.000
295.556; 2608.900;  172.925;    0.000
295.619; 2584.900;  210.925;    0.000
295.683; 2581.900;  181.925;    0.000
295.747; 2596.900;  176.925;    0.000
295.810; 2561.900;  181.925;    0.000
295.874; 2606.900;  160.925;    0.000
295.938; 2532.900;  119.925;    0.000
296.001; 2571.900;  206.925;    0.000
296.065; 2566.900;  136.925;    0.000
296.128; 2455.900;  156.925;    0.000
296.192; 2561.900;  174.925;    0.000
296.256; 2608.900;  145.925;    0.000
296.319; 2526.900;  167.925;    0.000
296.383; 2537.900;  168.925;    0.000
296.447; 2524.900;  190.925;    0.000
296.510; 2491.900;  165.925;    0.000
296.574; 2550.900;  184.925;    0.000
296.637; 2525.900;  155.925;    0.000
296.701; 2499.900;  168.925;    0.000
296.764; 2494.900;  161.925;    0.000
296.828; 2596.900;  218.925;    0.000
296.891; 2457.900;  176.925;    0.000
296.955; 2457.900;  169.925;    0.000
297.018; 2548.900;  168.925;    0.000
297.082; 2587.900;  176.925;    0.000
297.145; 2440.900;  171.925;    0.000
297.209; 2513.900;  196.925;    0.000
297.272; 2399.900;  170.925;    0.000
297.336; 2540.900;  156.925;    0.000
297.399; 2554.900;  168.925;    0.000
297.463; 2516.900;  203.925;    0.000
297.526; 2423.900;  164.925;    0.000
297.590; 2430.900;  175.925;    0.000
297.653; 2398.900;  170.925;    0.000
297.717; 2497.900;  156.925;    0.000
297.780; 2456.900;  149.925;    0.000
297.843; 2508.900;  156.925;    0.000
297.907; 2401.900;  129.925;    0.000
297.970; 2475.900;  163.925;    0.000
298.034; 2425.900;  162.925;    0.000
298.097; 2472.900;  182.925;    0.000
298.160; 2388.900;  194.925;    0.000
298.224; 2349.900;  178.925;    0.000
298.287; 2382.900;  147.925;    0.000
298.350; 2463.900;  187.925;    0.000
298.414; 2348.900;  193.925;    0.000
298.477; 2338.900;  127.925;    0.000
298.540; 2345.900;  181.925;    0.000
298.604; 2449.900;  163.925;    0.000
298.667; 2328.900;  177.925;    0.000
298.730; 2352.900;  192.925;    0.000
298.794; 2311.900;  183.925;    0.000
298.857; 2447.900;  194.925;    0.000
298.920; 2355.900;  147.925;    0.000
298.984; 2356.900;  184.925;    0.000
299.047; 2398.900;  218.925;    0.000
299.110; 2354.900;  171.925;    0.000
299.173; 2330.900;  177.925;    0.000
299.237; 2382.900;  181.925;    0.000
299.300; 2288.900;  170.925;    0.000
299.363; 2299.900;  185.925;    0.000
299.426; 2329.900;  193.925;    0.000
299.489; 2273.900;  184.925;    0.000
299.553; 2331.900;  194.925;    0.000
299.616; 2348.900;  171.925;    0.000
299.679; 2330.900;  182.925;    0.000
299.742; 2267.900;  138.925;    0.000
299.805; 2361.900;  172.925;    0.000
299.868; 2308.900;  191.925;    0.000
299.932; 2254.900;  193.925;    0.000
299.995; 2289.900;  201.925;    0.000
300.058; 2238.900;  177.925;    0.000
300.121; 2249.900;  178.925;    0.000
300.184; 2242.900;  171.925;    0.000
300.247; 2155.900;  184.925;    0.000
300.310; 2251.900;  200.925;    0.000
300.374; 2219.900;  172.925;    0.000
300.437; 2245.900;  187.925;    0.000
300.500; 2177.900;  211.925;    0.000
300.563; 2246.900;  190.925;    0.000
300.626; 2220.900;  196.925;    0.000
300.689; 2234.900;  162.925;    0.000
300.752; 2289.900;  163.925;    0.000
300.815; 2235.900;  207.925;    0.000
300.878; 2113.900;  221.925;    0.000
300.941; 2220.900;  176.925;    0.000
301.004; 2189.900;  193.925;    0.000
301.067; 2179.900;  165.925;    0.000
301.130; 2208.900;  179.925;    0.000
301.193; 2205.900;  196.925;    0.000
301.256; 2174.900;  210.925;    0.000
301.319; 2181.900;  196.925;    0.000
301.382; 2264.900;  162.925;    0.000
301.445; 2166.900;  233.925;    0.000
301.508; 2139.900;  176.925;    0.000
301.571; 2123.900;  185.925;    0.000
301.634; 2145.900;  202.925;    0.000
301.697; 2214.900;  189.925;    0.000
301.760; 2093.900;  224.925;    0.000
301.823; 2190.900;  212.925;    0.000
301.885; 2102.900;  196.925;    0.000
301.948; 2221.900;  169.925;    0.000
302.011; 2149.900;  160.925;    0.000
302.074; 2195.900;  202.925;    0.000
302.137; 2135.900;  130.925;    0.000
302.200; 2175.900;  188.925;    0.000
302.263; 2159.900;  196.925;    0.000
302.326; 2169.900;  172.925;    0.000
302.388; 2194.900;  197.925;    0.000
302.451; 2190.900;  203.925;    0.000
302.514; 2184.900;  164.925;    0.000
302.577; 2160.900;  170.925;    0.000
302.640; 2133.900;  156.925;    0.000
302.703; 2121.900;  188.925;    0.000
302.765; 2157.900;  213.925;    0.000
302.828; 2160.900;  212.925;    0.000
302.891; 2186.900;  203.925;    0.000
302.954; 2139.900;  148.925;    0.000
303.016; 2119.900;  168.925;    0.000
303.079; 2185.900;  206.925;    0.000
303.142; 2066.900;  210.925;    0.000
303.205; 2143.900;  189.925;    0.000
303.267; 2172.900;  174.925;    0.000
303.330; 2152.900;  198.925;    0.000
303.393; 2131.900;  207.925;    0.000
303.456; 2197.900;  177.925;    0.000
303.518; 2158.900;  192.925;    0.000
303.581; 2234.900;  171.925;    0.000
303.644; 2216.900;  193.925;    0.000
303.706; 2122.900;  185.925;    0.000
303.769; 2133.900;  198.925;    0.000
303.832; 2121.900;  192.925;    0.000
303.894; 2221.900;  199.925;    0.000
303.957; 2090.900;  160.925;    0.000
304.020; 2191.900;  184.925;    0.000
304.082; 2069.900;  191.925;    0.000
304.145; 2137.900;  216.925;    0.000
304.207; 2201.900;  175.925;    0.000
304.270; 2235.900;  192.925;    0.000
304.333; 2186.900;  218.925;    0.000
304.395; 2175.900;  195.925;    0.000
304.458; 2191.900;  206.925;    0.000
304.520; 2161.900;  229.925;    0.000
304.583; 2240.900;  202.925;    0.000
304.646; 2205.900;  159.925;    0.000
304.708; 2178.900;  167.925;    0.000
304.771; 2204.900;  141.925;    0.000
304.833; 2249.900;  184.925;    0.000
304.896; 2202.900;  197.925;    0.000
304.958; 2269.900;  179.925;    0.000
305.021; 2221.900;  175.925;    0.000
305.083; 2232.900;  182.925;    0.000
305.146; 2199.900;  182.925;    0.000
305.208; 2141.900;  174.925;    0.000
305.271; 2119.900;  157.925;    0.000
305.333; 2295.900;  185.925;    0.000
305.396; 2242.900;  199.925;    0.000
305.458; 2224.900;  203.925;    0.000
305.520; 2247.900;  195.925;    0.000
305.583; 2198.900;  152.925;    0.000
305.645; 2234.900;  200.925;    0.000
305.708; 2207.900;  149.925;    0.000
305.770; 2230.900;  211.925;    0.000
305.833; 2116.900;  189.925;    0.000
305.895; 2219.900;  200.925;    0.000
305.957; 2231.900;  166.925;    0.000
306.020; 2174.900;  186.925;    0.000
306.082; 2263.900;  197.925;    0.000
306.144; 2212.900;  200.925;    0.000
306.207; 2264.900;  180.925;    0.000
306.269; 2188.900;  209.925;    0.000
306.331; 2193.900;  205.925;    0.000
306.394; 2192.900;  176.925;    0.000
306.456; 2106.900;  184.925;    0.000
306.518; 2246.900;  210.925;    0.000
306.581; 2236.900;  162.925;    0.000
306.643; 2183.900;  196.925;    0.000
306.705; 2272.900;  204.925;    0.000
306.768; 2231.900;  158.925;    0.000
306.830; 2211.900;  205.925;    0.000
306.892; 2240.900;  189.925;    0.000
306.954; 2248.900;  188.925;    0.000
307.017; 2270.900;  180.925;    0.000
307.079; 2180.900;  197.925;    0.000
307.141; 2220.900;  184.925;    0.000
307.203; 2254.900;  182.925;    0.000
307.266; 2236.900;  166.925;    0.000
307.328; 2329.900;  186.925;    0.000
307.390; 2302.900;  176.925;    0.000
307.452; 2364.900;  194.925;    0.000
307.514; 2307.900;  225.925;    0.000
307.577; 2278.900;  209.925;    0.000
307.639; 2423.900;  203.925;    0.000
307.701; 2457.900;  214.925;    0.000
307.763; 2320.900;  203.925;    0.000
307.825; 2350.900;  202.925;    0.000
307.887; 2411.900;  244.925;    0.000
307.949; 2392.900;  173.925;    0.000
308.012; 2373.900;  219.925;    0.000
308.074; 2338.900;  157.925;    0.000
308.136; 2327.900;  215.925;    0.000
308.198; 2436.900;  186.925;    0.000
308.260; 2380.900;  186.925;    0.000
308.322; 2443.900;  201.925;    0.000
308.384; 2325.900;  218.925;    0.000
308.446; 2352.900;  159.925;    0.000
308.508; 2424.900;  191.925;    0.000
308.570; 2364.900;  185.925;    0.000
308.632; 2436.900;  208.925;    0.000
308.694; 2389.900;  161.925;    0.000
308.756; 2460.900;  169.925;    0.000
308.818; 2452.900;  187.925;    0.000
308.880; 2418.900;  192.925;    0.000
308.942; 2496.900;  194.925;    0.000
309.004; 2451.900;  206.925;    0.000
309.066; 2506.900;  204.925;    0.000
309.128; 2518.900;  181.925;    0.000
309.190; 2481.900;  166.925;    0.000
309.252; 2534.900;  213.925;    0.000
309.314; 2408.900;  249.925;    0.000
309.376; 2595.900;  238.925;    0.000
309.438; 2505.900;  206.925;    0.000
309.500; 2519.900;  185.925;    0.000
309.562; 2513.900;  214.925;    0.000
309.624; 2462.900;  216.925;    0.000
309.686; 2448.900;  197.925;    0.000
309.747; 2473.900;  171.925;    0.000
309.809; 2420.900;  198.925;    0.000
309.871; 2507.900;  185.925;    0.000
309.933; 2437.900;  172.925;    0.000
309.995; 2500.900;  168.925;    0.000
310.057; 2389.900;  177.925;    0.000
310.119; 2496.900;  207.925;    0.000
310.180; 2376.900;  180.925;    0.000
310.242; 2403.900;  202.925;    0.000
310.304; 2464.900;  200.925;    0.000
310.366; 2455.900;  222.925;    0.000
310.428; 2352.900;  179.925;    0.000
310.489; 2410.900;  196.925;    0.000
310.551; 2414.900;  203.925;    0.000
310.613; 2484.900;  198.925;    0.000
310.675; 2418.900;  203.925;    0.000
310.737; 2446.900;  195.925;    0.000
310.798; 2399.900;  204.925;    0.000
310.860; 2447.900;  195.925;    0.000
310.922; 2490.900;  195.925;    0.000
310.983; 2387.900;  225.925;    0.000
311.045; 2483.900;  203.925;    0.000
311.107; 2396.900;  194.925;    0.000
311.169; 2354.900;  185.925;    0.000
311.230; 2443.900;  175.925;    0.000
311.292; 2468.900;  220.925;    0.000
311.354; 2436.900;  189.925;    0.000
311.415; 2454.900;  187.925;    0.000
311.477; 2421.900;  180.925;    0.000
311.539; 2504.900;  175.925;    0.000
311.600; 2342.900;  192.925;    0.000
311.662; 2420.900;  212.925;    0.000
311.724; 2427.900;  217.925;    0.000
311.785; 2511.900;  218.925;    0.000
311.847; 2394.900;  219.925;    0.000
311.908; 2433.900;  202.925;    0.000
311.970; 2504.900;  186.925;    0.000
312.032; 2412.900;  212.925;    0.000
312.093; 2412.900;  203.925;    0.000
312.155; 2435.900;  165.925;    0.000
312.216; 2385.900;  183.925;    0.000
312.278; 2388.900;  167.925;    0.000
312.339; 2452.900;  190.925;    0.000
312.401; 2384.900;  219.925;    0.000
312.462; 2410.900;  190.925;    0.000
312.524; 2489.900;  203.925;    0.000
312.585; 2516.900;  191.925;    0.000
312.647; 2372.900;  197.925;    0.000
312.708; 2490.900;  203.925;    0.000
312.770; 2513.900;  203.925;    0.000
312.831; 2389.900;  155.925;    0.000
312.893; 2516.900;  189.925;    0.000
312.954; 2524.900;  212.925;    0.000
313.016; 2545.900;  179.925;    0.000
313.077; 2507.900;  209.925;    0.000
313.139; 2477.900;  185.925;    0.000
313.200; 2542.900;  180.925;    0.000
313.261; 2618.900;  220.925;    0.000
313.323; 2463.900;  171.925;    0.000
313.384; 2506.900;  180.925;    0.000
313.446; 2549.900;  202.925;    0.000
313.507; 2531.900;  172.925;    0.000
313.568; 2449.900;  192.925;    0.000
313.630; 2512.900;  191.925;    0.000
313.691; 2511.900;  176.925;    0.000
313.752; 2505.900;  175.925;    0.000
313.814; 2590.900;  202.925;    0.000
313.875; 2565.900;  186.925;    0.000
313.936; 2512.900;  199.925;    0.000
313.998; 2526.900;  164.925;    0.000
314.059; 2463.900;  159.925;    0.000
314.120; 2501.900;  175.925;    0.000
314.182; 2573.900;  181.925;    0.000
314.243; 2550.900;  157.925;    0.000
314.304; 2541.900;  168.925;    0.000
314.365; 2588.900;  203.925;    0.000
314.427; 2511.900;  151.925;    0.000
314.488; 2445.900;  174.925;    0.000
314.549; 2563.900;  184.925;    0.000
314.610; 2505.900;  198.925;    0.000
314.672; 2574.900;  193.925;    0.000
314.733; 2496.900;  171.925;    0.000
314.794; 2559.900;  141.925;    0.000
314.855; 2536.900;  184.925;    0.000
314.917; 2543.900;  175.925;    0.000
314.978; 2537.900;  190.925;    0.000
315.039; 2488.900;  183.925;    0.000
315.100; 2480.900;  204.925;    0.000
315.161; 2562.900;  202.925;    0.000
315.222; 2502.900;  177.925;    0.000
315.283; 2625.900;  191.925;    0.000
315.345; 2552.900;  185.925;    0.000
315.406; 2530.900;  194.925;    0.000
315.467; 2525.900;  167.925;    0.000
315.528; 2571.900;  174.925;    0.000
315.589; 2553.900;  197.925;    0.000
315.650; 2436.900;  192.925;    0.000
315.711; 2501.900;  181.925;    0.000
315.772; 2525.900;  157.925;    0.000
315.833; 2536.900;  189.925;    0.000
315.894; 2595.900;  184.925;    0.000
315.955; 2538.900;  202.925;    0.000
316.016; 2515.900;  220.925;    0.000
316.078; 2527.900;  180.925;    0.000
316.139; 2538.900;  240.925;    0.000
316.200; 2482.900;  190.925;    0.000
316.261; 2547.900;  179.925;    0.000
316.322; 2442.900;  176.925;    0.000
316.383; 2412.900;  188.925;    0.000
316.444; 2483.900;  228.925;    0.000
316.504; 2547.900;  199.925;    0.000
316.565; 2510.900;  221.925;    0.000
316.626; 2497.900;  204.925;    0.000
316.687; 2578.900;  192.925;    0.000
316.748; 2596.900;  220.925;    0.000
316.809; 2536.900;  175.925;    0.000
316.870; 2579.900;  164.925;    0.000
316.931; 2615.900;  208.925;    0.000
316.992; 2601.900;  224.925;    0.000
317.053; 2570.900;  204.925;    0.000
317.114; 2512.900;  199.925;    0.000
317.175; 2568.900;  230.925;    0.000
317.235; 2498.900;  186.925;    0.000
317.296; 2519.900;  224.925;    0.000
317.357; 2555.900;  154.925;    0.000
317.418; 2532.900;  219.925;    0.000
317.479; 2524.900;  229.925;    0.000
317.540; 2545.900;  201.925;    0.000
317.601; 2548.900;  180.925;    0.000
317.661; 2496.900;  179.925;    0.000
317.722; 2522.900;  193.925;    0.000
317.783; 2452.900;  164.925;    0.000
317.844; 2509.900;  232.925;    0.000
317.904; 2498.900;  222.925;    0.000
317.965; 2490.900;  199.925;    0.000
318.026; 2557.900;  200.925;    0.000
318.087; 2494.900;  182.925;    0.000
318.148; 2481.900;  216.925;    0.000
318.208; 2521.900;  239.925;    0.000
318.269; 2483.900;  163.925;    0.000
318.330; 2653.900;  204.925;    0.000
318.390; 2445.900;  191.925;    0.000
318.451; 2595.900;  200.925;    0.000
318.512; 2473.900;  181.925;    0.000
318.572; 2512.900;  233.925;    0.000
318.633; 2631.900;  220.925;    0.000
318.694; 2515.900;  179.925;    0.000
318.754; 2466.900;  214.925;    0.000
318.815; 2511.900;  214.925;    0.000
318.876; 2622.900;  220.925;    0.000
318.936; 2552.900;  212.925;    0.000
318.997; 2508.900;  201.925;    0.000
319.058; 2515.900;  215.925;    0.000
319.118; 2532.900;  251.925;    0.000
319.179; 2577.900;  240.925;    0.000
319.239; 2648.900;  240.925;    0.000
319.300; 2506.900;  232.925;    0.000
319.361; 2544.900;  211.925;    0.000
319.421; 2488.900;  219.925;    0.000
319.482; 2547.900;  228.925;    0.000
319.542; 2544.900;  216.925;    0.000
319.603; 2497.900;  190.925;    0.000
319.663; 2524.900;  227.925;    0.000
319.724; 2468.900;  191.925;    0.000
319.784; 2572.900;  196.925;    0.000
319.845; 2504.900;  190.925;    0.000
319.905; 2573.900;  221.925;    0.000
319.966; 2544.900;  219.925;    0.000
320.026; 2578.900;  233.925;    0.000
320.087; 2538.900;  204.925;    0.000
320.147; 2484.900;  189.925;    0.000
320.208; 2497.900;  200.925;    0.000
320.268; 2518.900;  217.925;    0.000
320.329; 2563.900;  216.925;    0.000
320.389; 2441.900;  228.925;    0.000
320.449; 2552.900;  236.925;    0.000
320.510; 2541.900;  234.925;    0.000
320.570; 2455.900;  176.925;    0.000
320.631; 2574.900;  228.925;    0.000
320.691; 2529.900;  228.925;    0.000
320.751; 2528.900;  188.925;    0.000
320.812; 2485.900;  223.925;    0.000
320.872; 2568.900;  268.925;    0.000
320.932; 2605.900;  226.925;    0.000
320.993; 2511.900;  216.925;    0.000
321.053; 2496.900;  236.925;    0.000
321.113; 2513.900;  197.925;    0.000
321.174; 2572.900;  218.925;    0.000
321.234; 2541.900;  229.925;    0.000
321.294; 2484.900;  208.925;    0.000
321.355; 2570.900;  248.925;    0.000
321.415; 2599.900;  218.925;    0.000
321.475; 2496.900;  173.925;    0.000
321.535; 2555.900;  234.925;    0.000
321.596; 2556.900;  202.925;    0.000
321.656; 2563.900;  246.925;    0.000
321.716; 2596.900;  235.925;    0.000
321.776; 2502.900;  210.925;    0.000
321.837; 2590.900;  217.925;    0.000
321.897; 2566.900;  215.925;    0.000
321.957; 2486.900;  239.925;    0.000
322.017; 2480.900;  173.925;    0.000
322.077; 2451.900;  263.925;    0.000
322.138; 2515.900;  232.925;    0.000
322.198; 2549.900;  211.925;    0.000
322.258; 2481.900;  213.925;    0.000
322.318; 2430.900;  168.925;    0.000
322.378; 2540.900;  251.925;    0.000
322.438; 2464.900;  212.925;    0.000
322.499; 2463.900;  265.925;    0.000
322.559; 2409.900;  210.925;    0.000
322.619; 2457.900;  242.925;    0.000
322.679; 2374.900;  229.925;    0.000
322.739; 2474.900;  216.925;    0.000
322.799; 2560.900;  238.925;    0.000
322.859; 2537.900;  249.925;    0.000
322.919; 2455.900;  211.925;    0.000
322.979; 2491.900;  244.925;    0.000
323.039; 2447.900;  226.925;    0.000
323.099; 2538.900;  223.925;    0.000
323.159; 2481.900;  232.925;    0.000
323.219; 2494.900;  203.925;    0.000
323.279; 2508.900;  218.925;    0.000
323.339; 2606.900;  231.925;    0.000
323.399; 2489.900;  255.925;    0.000
323.459; 2533.900;  244.925;    0.000
323.519; 2573.900;  213.925;    0.000
323.579; 2518.900;  193.925;    0.000
323.639; 2565.900;  191.925;    0.000
323.699; 2553.900;  199.925;    0.000
323.759; 2521.900;  246.925;    0.000
323.819; 2461.900;  206.925;    0.000
323.879; 2593.900;  238.925;    0.000
323.939; 2517.900;  229.925;    0.000
323.999; 2545.900;  219.925;    0.000
324.059; 2551.900;  177.925;    0.000
324.119; 2509.900;  235.925;    0.000
324.178; 2463.900;  211.925;    0.000
324.238; 2525.900;  168.925;    0.000
324.298; 2503.900;  205.925;    0.000
324.358; 2462.900;  224.925;    0.000
324.418; 2449.900;  235.925;    0.000
324.478; 2550.900;  187.925;    0.000
324.538; 2489.900;  230.925;    0.000
324.597; 2470.900;  206.925;    0.000
324.657; 2467.900;  180.925;    0.000
324.717; 2423.900;  175.925;    0.000
324.777; 2441.900;  169.925;    0.000
324.837; 2455.900;  165.925;    0.000
324.896; 2483.900;  205.925;    0.000
324.956; 2424.900;  216.925;    0.000
325.016; 2520.900;  197.925;    0.000
325.076; 2527.900;  220.925;    0.000
325.135; 2492.900;  242.925;    0.000
325.195; 2508.900;  186.925;    0.000
325.255; 2376.900;  160.925;    0.000
325.315; 2460.900;  198.925;    0.000
325.374; 2510.900;  208.925;    0.000
325.434; 2404.900;  209.925;    0.000
325.494; 2454.900;  191.925;    0.000
325.553; 2478.900;  190.925;    0.000
325.613; 2486.900;  229.925;    0.000
325.673; 2509.900;  172.925;    0.000
325.732; 2420.900;  160.925;    0.000
325.792; 2465.900;  177.925;    0.000
325.852; 2451.900;  201.925;    0.000
325.911; 2499.900;  226.925;    0.000
325.971; 2477.900;  224.925;    0.000
326.031; 2370.900;  202.925;    0.000
326.090; 2407.900;  232.925;    0.000
326.150; 2404.900;  230.925;    0.000
326.209; 2440.900;  201.925;    0.000
326.269; 2457.900;  202.925;    0.000
326.328; 2483.900;  203.925;    0.000
326.388; 2416.900;  194.925;    0.000
326.448; 2512.900;  233.925;    0.000
326.507; 2520.900;  192.925;    0.000
326.567; 2467.900;  163.925;    0.000
326.626; 2516.900;  227.925;    0.000
326.686; 2270.900;  177.925;    0.000
326.745; 2388.900;  210.925;    0.000
326.805; 2458.900;  198.925;    0.000
326.864; 2448.900;  185.925;    0.000
326.924; 2490.900;  255.925;    0.000
326.983; 2391.900;  208.925;    0.000
327.043; 2434.900;  241.925;    0.000
327.102; 2423.900;  183.925;    0.000
327.161; 2382.900;  210.925;    0.000
327.221; 2383.900;  213.925;    0.000
327.280; 2420.900;  194.925;    0.000
327.340; 2313.900;  212.925;    0.000
327.399; 2468.900;  209.925;    0.000
327.459; 2461.900;  229.925;    0.000
327.518; 2410.900;  196.925;    0.000
327.577; 2382.900;  197.925;    0.000
327.637; 2363.900;  210.925;    0.000
327.696; 2440.900;  196.925;    0.000
327.755; 2401.900;  216.925;    0.000
327.815; 2391.900;  240.925;    0.000
327.874; 2511.900;  250.925;    0.000
327.933; 2476.900;  229.925;    0.000
327.993; 2466.900;  202.925;    0.000
328.052; 2431.900;  178.925;    0.000
328.111; 2534.900;  230.925;    0.000
328.171; 2470.900;  207.925;    0.000
328.230; 2458.900;  170.925;    0.000
328.289; 2421.900;  205.925;    0.000
328.349; 2478.900;  235.925;    0.000
328.408; 2441.900;  231.925;    0.000
328.467; 2449.900;  217.925;    0.000
328.526; 2461.900;  239.925;    0.000
328.586; 2459.900;  214.925;    0.000
328.645; 2435.900;  205.925;    0.000
328.704; 2411.900;  211.925;    0.000
328.763; 2469.900;  208.925;    0.000
328.822; 2431.900;  251.925;    0.000
328.882; 2482.900;  211.925;    0.000
328.941; 2482.900;  232.925;    0.000
329.000; 2534.900;  235.925;    0.000
329.059; 2403.900;  222.925;    0.000
329.118; 2464.900;  265.925;    0.000
329.177; 2495.900;  237.925;    0.000
329.237; 2545.900;  258.925;    0.000
329.296; 2513.900;  225.925;    0.000
329.355; 2516.900;  227.925;    0.000
329.414; 2622.900;  212.925;    0.000
329.473; 2688.900;  250.925;    0.000
329.532; 2625.900;  263.925;    0.000
329.591; 2651.900;  212.925;    0.000
329.650; 2672.900;  219.925;    0.000
329.709; 2811.900;  218.925;    0.000
329.768; 2852.900;  195.925;    0.000
329.827; 3051.900;  223.925;    0.000
329.886; 3014.900;  230.925;    0.000
329.945; 3218.900;  211.925;    0.000
330.004; 3530.900;  247.925;    0.000
330.063; 3810.900;  193.925;    0.000
330.122; 4468.900;  229.925;    0.000
330.181; 4497.900;  223.925;    0.000
330.240; 4375.900;  199.925;    0.000
330.299; 4241.900;  211.925;    0.000
330.358; 3701.900;  198.925;    0.000
330.417; 3306.900;  190.925;    0.000
330.476; 3121.900;  237.925;    0.000
330.535; 2902.900;  239.925;    0.000
330.594; 2785.900;  207.925;    0.000
330.653; 2707.900;  193.925;    0.000
330.712; 2635.900;  225.925;    0.000
330.771; 2601.900;  236.925;    0.000
330.830; 2545.900;  219.925;    0.000
330.889; 2533.900;  211.925;    0.000
330.948; 2604.900;  194.925;    0.000
331.006; 2526.900;  190.925;    0.000
331.065; 2487.900;  192.925;    0.000
331.124; 2495.900;  195.925;    0.000
331.183; 2449.900;  191.925;    0.000
331.242; 2454.900;  203.925;    0.000
331.301; 2465.900;  183.925;    0.000
331.359; 2424.900;  196.925;    0.000
331.418; 2342.900;  209.925;    0.000
331.477; 2411.900;  255.925;    0.000
331.536; 2341.900;  237.925;    0.000
331.595; 2373.900;  217.925;    0.000
331.653; 2312.900;  198.925;    0.000
331.712; 2265.900;  194.925;    0.000
331.771; 2272.900;  229.925;    0.000
331.830; 2275.900;  254.925;    0.000
331.888; 2319.900;  218.925;    0.000
331.947; 2358.900;  211.925;    0.000
332.006; 2353.900;  261.925;    0.000
332.065; 2320.900;  204.925;    0.000
332.123; 2370.900;  225.925;    0.000
332.182; 2262.900;  193.925;    0.000
332.241; 2265.900;  201.925;    0.000
332.299; 2291.900;  182.925;    0.000
332.358; 2250.900;  244.925;    0.000
332.417; 2303.900;  218.925;    0.000
332.475; 2263.900;  218.925;    0.000
332.534; 2365.900;  228.925;    0.000
332.592; 2234.900;  199.925;    0.000
332.651; 2201.900;  204.925;    0.000
332.710; 2240.900;  217.925;    0.000
332.768; 2230.900;  195.925;    0.000
332.827; 2265.900;  182.925;    0.000
332.885; 2295.900;  247.925;    0.000
332.944; 2311.900;  170.925;    0.000
333.003; 2252.900;  200.925;    0.000
333.061; 2301.900;  243.925;    0.000
333.120; 2259.900;  235.925;    0.000
333.178; 2318.900;  195.925;    0.000
333.237; 2302.900;  217.925;    0.000
333.295; 2326.900;  252.925;    0.000
333.354; 2355.900;  201.925;    0.000
333.412; 2248.900;  181.925;    0.000
333.471; 2311.900;  239.925;    0.000
333.529; 2281.900;  214.925;    0.000
333.588; 2257.900;  232.925;    0.000
333.646; 2264.900;  202.925;    0.000
333.705; 2410.900;  232.925;    0.000
333.763; 2376.900;  215.925;    0.000
333.822; 2327.900;  187.925;    0.000
333.880; 2377.900;  186.925;    0.000
333.938; 2282.900;  185.925;    0.000
333.997; 2321.900;  234.925;    0.000
334.055; 2396.900;  255.925;    0.000
334.114; 2352.900;  225.925;    0.000
334.172; 2291.900;  209.925;    0.000
334.230; 2245.900;  194.925;    0.000
334.289; 2285.900;  213.925;    0.000
334.347; 2294.900;  235.925;    0.000
334.405; 2364.900;  242.925;    0.000
334.464; 2294.900;  208.925;    0.000
334.522; 2335.900;  197.925;    0.000
334.580; 2205.900;  204.925;    0.000
334.639; 2337.900;  217.925;    0.000
334.697; 2254.900;  183.925;    0.000
334.755; 2177.900;  196.925;    0.000
334.814; 2370.900;  216.925;    0.000
334.872; 2313.900;  190.925;    0.000
334.930; 2175.900;  162.925;    0.000
334.988; 2275.900;  261.925;    0.000
335.047; 2345.900;  220.925;    0.000
335.105; 2283.900;  190.925;    0.000
335.163; 2263.900;  201.925;    0.000
335.221; 2306.900;  213.925;    0.000
335.280; 2390.900;  202.925;    0.000
335.338; 2333.900;  210.925;    0.000
335.396; 2286.900;  255.925;    0.000
335.454; 2210.900;  216.925;    0.000
335.512; 2369.900;  242.925;    0.000
335.570; 2389.900;  227.925;    0.000
335.629; 2353.900;  225.925;    0.000
335.687; 2293.900;  227.925;    0.000
335.745; 2419.900;  194.925;    0.000
335.803; 2389.900;  221.925;    0.000
335.861; 2341.900;  217.925;    0.000
335.919; 2399.900;  214.925;    0.000
335.977; 2393.900;  209.925;    0.000
336.035; 2276.900;  215.925;    0.000
336.094; 2291.900;  198.925;    0.000
336.152; 2259.900;  222.925;    0.000
336.210; 2418.900;  225.925;    0.000
336.268; 2361.900;  234.925;    0.000
336.326; 2320.900;  209.925;    0.000
336.384; 2268.900;  271.925;    0.000
336.442; 2320.900;  207.925;    0.000
336.500; 2279.900;  226.925;    0.000
336.558; 2321.900;  219.925;    0.000
336.616; 2342.900;  260.925;    0.000
336.674; 2352.900;  205.925;    0.000
336.732; 2312.900;  225.925;    0.000
336.790; 2312.900;  191.925;    0.000
336.848; 2375.900;  219.925;    0.000
336.906; 2239.900;  230.925;    0.000
336.964; 2264.900;  226.925;    0.000
337.022; 2358.900;  266.925;    0.000
337.080; 2372.900;  231.925;    0.000
337.138; 2332.900;  249.925;    0.000
337.195; 2240.900;  207.925;    0.000
337.253; 2340.900;  207.925;    0.000
337.311; 2265.900;  225.925;    0.000
337.369; 2308.900;  211.925;    0.000
337.427; 2294.900;  196.925;    0.000
337.485; 2266.900;  269.925;    0.000
337.543; 2346.900;  227.925;    0.000
337.601; 2319.900;  260.925;    0.000
337.658; 2258.900;  237.925;    0.000
337.716; 2305.900;  222.925;    0.000
337.774; 2307.900;  256.925;    0.000
337.832; 2209.900;  223.925;    0.000
337.890; 2230.900;  188.925;    0.000
337.947; 2259.900;  212.925;    0.000
338.005; 2285.900;  217.925;    0.000
338.063; 2242.900;  200.925;    0.000
338.121; 2315.900;  217.925;    0.000
338.178; 2323.900;  236.925;    0.000
338.236; 2312.900;  218.925;    0.000
338.294; 2277.900;  238.925;    0.000
338.352; 2315.900;  266.925;    0.000
338.409; 2300.900;  240.925;    0.000
338.467; 2174.900;  210.925;    0.000
338.525; 2240.900;  255.925;    0.000
338.583; 2161.900;  239.925;    0.000
338.640; 2284.900;  243.925;    0.000
338.698; 2246.900;  204.925;    0.000
338.756; 2247.900;  219.925;    0.000
338.813; 2294.900;  227.925;    0.000
338.871; 2261.900;  227.925;    0.000
338.928; 2340.900;  211.925;    0.000
338.986; 2287.900;  254.925;    0.000
339.044; 2296.900;  207.925;    0.000
339.101; 2211.900;  229.925;    0.000
339.159; 2219.900;  237.925;    0.000
339.216; 2212.900;  231.925;    0.000
339.274; 2276.900;  301.925;    0.000
339.332; 2364.900;  259.925;    0.000
339.389; 2312.900;  258.925;    0.000
339.447; 2286.900;  226.925;    0.000
339.504; 2334.900;  229.925;    0.000
339.562; 2238.900;  244.925;    0.000
339.619; 2276.900;  265.925;    0.000
339.677; 2320.900;  253.925;    0.000
339.734; 2287.900;  191.925;    0.000
339.792; 2275.900;  238.925;    0.000
339.849; 2313.900;  236.925;    0.000
339.907; 2246.900;  254.925;    0.000
339.964; 2318.900;  196.925;    0.000
340.022; 2306.900;  247.925;    0.000
340.079; 2290.900;  275.925;    0.000
340.137; 2303.900;  248.925;    0.000
340.194; 2271.900;  263.925;    0.000
340.252; 2281.900;  266.925;    0.000
340.309; 2245.900;  211.925;    0.000
340.366; 2247.900;  237.925;    0.000
340.424; 2320.900;  260.925;    0.000
340.481; 2344.900;  255.925;    0.000
340.538; 2275.900;  235.925;    0.000
340.596; 2323.900;  225.925;    0.000
340.653; 2376.900;  230.925;    0.000
340.711; 2342.900;  272.925;    0.000
340.768; 2386.900;  253.925;    0.000
340.825; 2394.900;  201.925;    0.000
340.883; 2358.900;  232.925;    0.000
340.940; 2414.900;  247.925;    0.000
340.997; 2301.900;  244.925;    0.000
341.054; 2223.900;  244.925;    0.000
341.112; 2361.900;  258.925;    0.000
341.169; 2349.900;  238.925;    0.000
341.226; 2377.900;  213.925;    0.000
341.284; 2379.900;  240.925;    0.000
341.341; 2348.900;  194.925;    0.000
341.398; 2381.900;  191.925;    0.000
341.455; 2437.900;  227.925;    0.000
341.512; 2395.900;  238.925;    0.000
341.570; 2310.900;  236.925;    0.000
341.627; 2368.900;  241.925;    0.000
341.684; 2421.900;  225.925;    0.000
341.741; 2361.900;  299.925;    0.000
341.798; 2320.900;  265.925;    0.000
341.856; 2375.900;  230.925;    0.000
341.913; 2332.900;  234.925;    0.000
341.970; 2345.900;  260.925;    0.000
342.027; 2373.900;  255.925;    0.000
342.084; 2330.900;  260.925;    0.000
342.141; 2328.900;  263.925;    0.000
342.198; 2396.900;  245.925;    0.000
342.255; 2399.900;  210.925;    0.000
342.313; 2381.900;  251.925;    0.000
342.370; 2355.900;  234.925;    0.000
342.427; 2316.900;  249.925;    0.000
342.484; 2282.900;  254.925;    0.000
342.541; 2278.900;  229.925;    0.000
342.598; 2369.900;  255.925;    0.000
342.655; 2304.900;  225.925;    0.000
342.712; 2346.900;  224.925;    0.000
342.769; 2351.900;  215.925;    0.000
342.826; 2303.900;  240.925;    0.000
342.883; 2297.900;  233.925;    0.000
342.940; 2226.900;  212.925;    0.000
342.997; 2335.900;  236.925;    0.000
343.054; 2300.900;  255.925;    0.000
343.111; 2278.900;  228.925;    0.000
343.168; 2225.900;  230.925;    0.000
343.225; 2357.900;  258.925;    0.000
343.282; 2306.900;  202.925;    0.000
343.339; 2370.900;  253.925;    0.000
343.395; 2417.900;  232.925;    0.000
343.452; 2341.900;  253.925;    0.000
343.509; 2293.900;  213.925;    0.000
343.566; 2345.900;  259.925;    0.000
343.623; 2427.900;  244.925;    0.000
343.680; 2339.900;  232.925;    0.000
343.737; 2423.900;  222.925;    0.000
343.794; 2381.900;  204.925;    0.000
343.850; 2433.900;  249.925;    0.000
343.907; 2390.900;  212.925;    0.000
343.964; 2416.900;  226.925;    0.000
344.021; 2402.900;  251.925;    0.000
344.078; 2347.900;  246.925;    0.000
344.134; 2371.900;  218.925;    0.000
344.191; 2453.900;  244.925;    0.000
344.248; 2484.900;  211.925;    0.000
344.305; 2369.900;  221.925;    0.000
344.361; 2460.900;  247.925;    0.000
344.418; 2458.900;  265.925;    0.000
344.475; 2417.900;  254.925;    0.000
344.532; 2432.900;  233.925;    0.000
344.588; 2427.900;  236.925;    0.000
344.645; 2436.900;  249.925;    0.000
344.702; 2431.900;  220.925;    0.000
344.758; 2423.900;  255.925;    0.000
344.815; 2432.900;  236.925;    0.000
344.872; 2406.900;  218.925;    0.000
344.928; 2418.900;  230.925;    0.000
344.985; 2510.900;  222.925;    0.000
345.042; 2518.900;  199.925;    0.000
345.098; 2470.900;  226.925;    0.000
345.155; 2429.900;  245.925;    0.000
345.212; 2397.900;  225.925;    0.000
345.268; 2411.900;  237.925;    0.000
345.325; 2353.900;  213.925;    0.000
345.381; 2491.900;  267.925;    0.000
345.438; 2475.900;  240.925;    0.000
345.495; 2559.900;  254.925;    0.000
345.551; 2546.900;  248.925;    0.000
345.608; 2353.900;  196.925;    0.000
345.664; 2462.900;  245.925;    0.000
345.721; 2516.900;  252.925;    0.000
345.777; 2348.900;  245.925;    0.000
345.834; 2369.900;  210.925;    0.000
345.890; 2453.900;  244.925;    0.000
345.947; 2427.900;  238.925;    0.000
346.003; 2472.900;  224.925;    0.000
346.060; 2488.900;  206.925;    0.000
346.116; 2429.900;  237.925;    0.000
346.173; 2489.900;  242.925;    0.000
346.229; 2446.900;  269.925;    0.000
346.285; 2532.900;  262.925;    0.000
346.342; 2488.900;  263.925;    0.000
346.398; 2495.900;  224.925;    0.000
346.455; 2519.900;  237.925;    0.000
346.511; 2577.900;  216.925;    0.000
346.567; 2532.900;  211.925;    0.000
346.624; 2582.900;  225.925;    0.000
346.680; 2568.900;  242.925;    0.000
346.737; 2574.900;  244.925;    0.000
346.793; 2553.900;  260.925;    0.000
346.849; 2622.900;  251.925;    0.000
346.906; 2565.900;  260.925;    0.000
346.962; 2622.900;  267.925;    0.000
347.018; 2577.900;  246.925;    0.000
347.074; 2611.900;  272.925;    0.000
347.131; 2509.900;  211.925;    0.000
347.187; 2427.900;  240.925;    0.000
347.243; 2601.900;  233.925;    0.000
347.300; 2529.900;  225.925;    0.000
347.356; 2550.900;  236.925;    0.000
347.412; 2525.900;  237.925;    0.000
347.468; 2474.900;  284.925;    0.000
347.524; 2517.900;  252.925;    0.000
347.581; 2485.900;  278.925;    0.000
347.637; 2609.900;  262.925;    0.000
347.693; 2583.900;  268.925;    0.000
347.749; 2593.900;  260.925;    0.000
347.805; 2587.900;  224.925;    0.000
347.862; 2489.900;  243.925;    0.000
347.918; 2569.900;  257.925;    0.000
347.974; 2562.900;  248.925;    0.000
348.030; 2503.900;  242.925;    0.000
348.086; 2526.900;  234.925;    0.000
348.142; 2487.900;  239.925;    0.000
348.198; 2575.900;  260.925;    0.000
348.254; 2527.900;  262.925;    0.000
348.311; 2554.900;  263.925;    0.000
348.367; 2515.900;  235.925;    0.000
348.423; 2522.900;  205.925;    0.000
348.479; 2538.900;  234.925;    0.000
348.535; 2552.900;  257.925;    0.000
348.591; 2517.900;  267.925;    0.000
348.647; 2532.900;  243.925;    0.000
348.703; 2499.900;  278.925;    0.000
348.759; 2491.900;  259.925;    0.000
348.815; 2596.900;  288.925;    0.000
348.871; 2555.900;  269.925;    0.000
348.927; 2462.900;  239.925;    0.000
348.983; 2616.900;  289.925;    0.000
349.039; 2494.900;  221.925;    0.000
349.095; 2510.900;  252.925;    0.000
349.151; 2572.900;  226.925;    0.000
349.207; 2489.900;  263.925;    0.000
349.263; 2586.900;  194.925;    0.000
349.319; 2567.900;  212.925;    0.000
349.374; 2541.900;  236.925;    0.000
349.430; 2496.900;  229.925;    0.000
349.486; 2585.900;  247.925;    0.000
349.542; 2681.900;  263.925;    0.000
349.598; 2520.900;  248.925;    0.000
349.654; 2577.900;  252.925;    0.000
349.710; 2560.900;  230.925;    0.000
349.766; 2579.900;  201.925;    0.000
349.821; 2659.900;  229.925;    0.000
349.877; 2614.900;  282.925;    0.000
349.933; 2671.900;  240.925;    0.000
349.989; 2494.900;  251.925;    0.000
350.045; 2536.900;  240.925;    0.000
350.100; 2576.900;  256.925;    0.000
350.156; 2649.900;  243.925;    0.000
350.212; 2548.900;  250.925;    0.000
350.268; 2581.900;  251.925;    0.000
350.323; 2620.900;  208.925;    0.000
350.379; 2576.900;  244.925;    0.000
350.435; 2599.900;  237.925;    0.000
350.491; 2512.900;  201.925;    0.000
350.546; 2611.900;  225.925;    0.000
350.602; 2596.900;  260.925;    0.000
350.658; 2526.900;  224.925;    0.000
350.713; 2614.900;  264.925;    0.000
350.769; 2496.900;  196.925;    0.000
350.825; 2524.900;  202.925;    0.000
350.880; 2616.900;  232.925;    0.000
350.936; 2605.900;  242.925;    0.000
350.992; 2591.900;  238.925;    0.000
351.047; 2598.900;  242.925;    0.000
351.103; 2542.900;  199.925;    0.000
351.158; 2620.900;  242.925;    0.000
351.214; 2549.900;  225.925;    0.000
351.270; 2554.900;  197.925;    0.000
351.325; 2551.900;  231.925;    0.000
351.381; 2599.900;  215.925;    0.000
351.436; 2668.900;  233.925;    0.000
351.492; 2597.900;  216.925;    0.000
351.547; 2605.900;  244.925;    0.000
351.603; 2660.900;  249.925;    0.000
351.658; 2694.900;  249.925;    0.000
351.714; 2668.900;  222.925;    0.000
351.769; 2591.900;  222.925;    0.000
351.825; 2703.900;  226.925;    0.000
351.880; 2682.900;  238.925;    0.000
351.936; 2589.900;  230.925;    0.000
351.991; 2640.900;  243.925;    0.000
352.047; 2610.900;  201.925;    0.000
352.102; 2566.900;  243.925;    0.000
352.158; 2581.900;  193.925;    0.000
352.213; 2583.900;  219.925;    0.000
352.268; 2622.900;  205.925;    0.000
352.324; 2607.900;  246.925;    0.000
352.379; 2579.900;  247.925;    0.000
352.434; 2599.900;  252.925;    0.000
352.490; 2628.900;  205.925;    0.000
352.545; 2695.900;  262.925;    0.000
352.601; 2654.900;  229.925;    0.000
352.656; 2650.900;  207.925;    0.000
352.711; 2722.900;  228.925;    0.000
352.767; 2506.900;  216.925;    0.000
352.822; 2696.900;  219.925;    0.000
352.877; 2627.900;  234.925;    0.000
352.932; 2633.900;  249.925;    0.000
352.988; 2699.900;  196.925;    0.000
353.043; 2621.900;  228.925;    0.000
353.098; 2682.900;  231.925;    0.000
353.153; 2686.900;  235.925;    0.000
353.209; 2599.900;  250.925;    0.000
353.264; 2596.900;  212.925;    0.000
353.319; 2595.900;  234.925;    0.000
353.374; 2581.900;  245.925;    0.000
353.430; 2581.900;  261.925;    0.000
353.485; 2632.900;  249.925;    0.000
353.540; 2662.900;  260.925;    0.000
353.595; 2556.900;  219.925;    0.000
353.650; 2549.900;  242.925;    0.000
353.705; 2579.900;  244.925;    0.000
353.761; 2584.900;  242.925;    0.000
353.816; 2617.900;  214.925;    0.000
353.871; 2646.900;  237.925;    0.000
353.926; 2661.900;  233.925;    0.000
353.981; 2684.900;  250.925;    0.000
354.036; 2670.900;  239.925;    0.000
354.091; 2701.900;  289.925;    0.000
354.146; 2647.900;  282.925;    0.000
354.201; 2679.900;  244.925;    0.000
354.256; 2714.900;  257.925;    0.000
354.311; 2595.900;  305.925;    0.000
354.367; 2653.900;  220.925;    0.000
354.422; 2550.900;  261.925;    0.000
354.477; 2678.900;  212.925;    0.000
354.532; 2653.900;  254.925;    0.000
354.587; 2686.900;  252.925;    0.000
354.642; 2585.900;  210.925;    0.000
354.697; 2643.900;  232.925;    0.000
354.751; 2683.900;  254.925;    0.000
354.806; 2629.900;  233.925;    0.000
354.861; 2661.900;  244.925;    0.000
354.916; 2657.900;  235.925;    0.000
354.971; 2680.900;  258.925;    0.000
355.026; 2648.900;  251.925;    0.000
355.081; 2633.900;  254.925;    0.000
355.136; 2613.900;  212.925;    0.000
355.191; 2617.900;  211.925;    0.000
355.246; 2576.900;  237.925;    0.000
355.301; 2704.900;  255.925;    0.000
355.355; 2643.900;  231.925;    0.000
355.410; 2689.900;  224.925;    0.000
355.465; 2615.900;  235.925;    0.000
355.520; 2656.900;  244.925;    0.000
355.575; 2738.900;  267.925;    0.000
355.630; 2692.900;  255.925;    0.000
355.684; 2637.900;  254.925;    0.000
355.739; 2636.900;  217.925;    0.000
355.794; 2656.900;  206.925;    0.000
355.849; 2587.900;  221.925;    0.000
355.904; 2642.900;  257.925;    0.000
355.958; 2637.900;  221.925;    0.000
356.013; 2580.900;  192.925;    0.000
356.068; 2706.900;  267.925;    0.000
356.123; 2690.900;  218.925;    0.000
356.177; 2701.900;  236.925;    0.000
356.232; 2701.900;  236.925;    0.000
356.287; 2708.900;  246.925;    0.000
356.341; 2677.900;  241.925;    0.000
356.396; 2721.900;  219.925;    0.000
356.451; 2701.900;  244.925;    0.000
356.505; 2677.900;  248.925;    0.000
356.560; 2682.900;  267.925;    0.000
356.615; 2613.900;  258.925;    0.000
356.669; 2691.900;  291.925;    0.000
356.724; 2675.900;  272.925;    0.000
356.778; 2699.900;  244.925;    0.000
356.833; 2715.900;  223.925;    0.000
356.888; 2585.900;  245.925;    0.000
356.942; 2690.900;  221.925;    0.000
356.997; 2708.900;  254.925;    0.000
357.051; 2626.900;  244.925;    0.000
357.106; 2594.900;  227.925;    0.000
357.160; 2593.900;  176.925;    0.000
357.215; 2619.900;  234.925;    0.000
357.269; 2592.900;  233.925;    0.000
357.324; 2679.900;  232.925;    0.000
357.378; 2697.900;  211.925;    0.000
357.433; 2675.900;  252.925;    0.000
357.487; 2630.900;  227.925;    0.000
357.542; 2604.900;  246.925;    0.000
357.596; 2696.900;  260.925;    0.000
357.651; 2645.900;  301.925;    0.000
357.705; 2656.900;  230.925;    0.000
357.760; 2611.900;  211.925;    0.000
357.814; 2624.900;  265.925;    0.000
357.868; 2682.900;  220.925;    0.000
357.923; 2677.900;  220.925;    0.000
357.977; 2626.900;  245.925;    0.000
358.032; 2576.900;  247.925;    0.000
358.086; 2626.900;  242.925;    0.000
358.140; 2569.900;  270.925;    0.000
358.195; 2611.900;  242.925;    0.000
358.249; 2579.900;  238.925;    0.000
358.303; 2648.900;  285.925;    0.000
358.358; 2653.900;  265.925;    0.000
358.412; 2697.900;  265.925;    0.000
358.466; 2646.900;  257.925;    0.000
358.521; 2642.900;  251.925;    0.000
358.575; 2714.900;  254.925;    0.000
358.629; 2591.900;  278.925;    0.000
358.683; 2613.900;  288.925;    0.000
358.738; 2677.900;  302.925;    0.000
358.792; 2551.900;  239.925;    0.000
358.846; 2579.900;  293.925;    0.000
358.900; 2688.900;  271.925;    0.000
358.954; 2571.900;  300.925;    0.000
359.009; 2585.900;  279.925;    0.000
359.063; 2678.900;  249.925;    0.000
359.117; 2646.900;  264.925;    0.000
359.171; 2750.900;  279.925;    0.000
359.225; 2626.900;  276.925;    0.000
359.280; 2599.900;  237.925;    0.000
359.334; 2679.900;  280.925;    0.000
359.388; 2675.900;  282.925;    0.000
359.442; 2633.900;  243.925;    0.000
359.496; 2589.900;  204.925;    0.000
359.550; 2670.900;  308.925;    0.000
359.604; 2658.900;  264.925;    0.000
359.658; 2642.900;  247.925;    0.000
359.712; 2611.900;  273.925;    0.000
359.766; 2731.900;  212.925;    0.000
359.820; 2673.900;  228.925;    0.000
359.875; 2583.900;  248.925;    0.000
359.929; 2619.900;  271.925;    0.000
359.983; 2568.900;  274.925;    0.000
360.037; 2630.900;  262.925;    0.000
360.091; 2697.900;  302.925;    0.000
360.145; 2560.900;  244.925;    0.000
360.199; 2634.900;  253.925;    0.000
360.253; 2694.900;  285.925;    0.000
360.306; 2565.900;  287.925;    0.000
360.360; 2663.900;  267.925;    0.000
360.414; 2648.900;  250.925;    0.000
360.468; 2621.900;  270.925;    0.000
360.522; 2601.900;  276.925;    0.000
360.576; 2717.900;  269.925;    0.000
360.630; 2694.900;  281.925;    0.000
360.684; 2598.900;  291.925;    0.000
360.738; 2561.900;  325.925;    0.000
360.792; 2675.900;  320.925;    0.000
360.846; 2607.900;  276.925;    0.000
360.899; 2649.900;  314.925;    0.000
360.953; 2621.900;  275.925;    0.000
361.007; 2675.900;  292.925;    0.000
361.061; 2704.900;  278.925;    0.000
361.115; 2668.900;  264.925;    0.000
361.168; 2601.900;  317.925;    0.000
361.222; 2597.900;  277.925;    0.000
361.276; 2582.900;  274.925;    0.000
361.330; 2652.900;  269.925;    0.000
361.384; 2612.900;  280.925;    0.000
361.437; 2595.900;  304.925;    0.000
361.491; 2629.900;  256.925;    0.000
361.545; 2645.900;  293.925;    0.000
361.599; 2630.900;  284.925;    0.000
361.652; 2684.900;  274.925;    0.000
361.706; 2650.900;  284.925;    0.000
361.760; 2633.900;  260.925;    0.000
361.813; 2627.900;  272.925;    0.000
361.867; 2715.900;  300.925;    0.000
361.921; 2632.900;  275.925;    0.000
361.974; 2597.900;  258.925;    0.000
362.028; 2493.900;  248.925;    0.000
362.082; 2620.900;  252.925;    0.000
362.135; 2614.900;  240.925;    0.000
362.189; 2680.900;  259.925;    0.000
362.242; 2645.900;  267.925;    0.000
362.296; 2577.900;  280.925;    0.000
362.350; 2694.900;  282.925;    0.000
362.403; 2577.900;  288.925;    0.000
362.457; 2526.900;  253.925;    0.000
362.510; 2685.900;  323.925;    0.000
362.564; 2565.900;  286.925;    0.000
362.617; 2633.900;  317.925;    0.000
362.671; 2621.900;  286.925;    0.000
362.724; 2553.900;  274.925;    0.000
362.778; 2565.900;  295.925;    0.000
362.831; 2585.900;  289.925;    0.000
362.885; 2675.900;  318.925;    0.000
362.938; 2507.900;  271.925;    0.000
362.992;  371.900;  285.925;    0.000
363.045;  305.900;  291.925;    0.000
363.099;  289.900;  276.925;    0.000
363.152;  282.900;  309.925;    0.000
363.205;  298.900;  263.925;    0.000
363.259;  220.900;  288.925;    0.000
363.312;  291.900;  333.925;    0.000
363.366;  297.900;  328.925;    0.000
363.419;  305.900;  328.925;    0.000
363.472;  275.900;  295.925;    0.000
363.526;  306.900;  334.925;    0.000
363.579;  256.900;  312.925;    0.000
363.632;  299.900;  274.925;    0.000
363.686;  275.900;  282.925;    0.000
363.739;  260.900;  289.925;    0.000
363.792;  287.900;  287.925;    0.000

