
Integration time [ms]:   0.300
Averaging Nr. [scans]: 1
Smoothing Nr. [pixels]: 0
Data measured with spectrometer [name]: UV2
Wave   ;Sample   ;Dark     ;Reference
[nm]   ;[counts] ;[counts] ;[counts] 

353.533;  219.475;  235.675;    0.000
353.597;  209.475;  239.675;    0.000
353.660;  212.475;  203.675;    0.000
353.723;  192.475;  225.675;    0.000
353.786;  196.475;  178.675;    0.000
353.850;  204.475;  199.675;    0.000
353.913;  149.475;  179.675;    0.000
353.976;  234.475;  209.675;    0.000
354.039;  200.475;  188.675;    0.000
354.102;  216.475;  219.675;    0.000
354.166;  214.475;  237.675;    0.000
354.229;  211.475;  179.675;    0.000
354.292;  179.475;  210.675;    0.000
354.355;  196.475;  214.675;    0.000
354.418;  172.475;  173.675;    0.000
354.481;  203.475;  170.675;    0.000
354.545;  672.475;  229.675;    0.000
354.608;  722.475;  233.675;    0.000
354.671;  664.475;  183.675;    0.000
354.734;  740.475;  208.675;    0.000
354.797;  682.475;  263.675;    0.000
354.860;  738.475;  208.675;    0.000
354.923;  731.475;  202.675;    0.000
354.986;  758.475;  207.675;    0.000
355.050;  788.475;  180.675;    0.000
355.113;  779.475;  189.675;    0.000
355.176;  801.475;  214.675;    0.000
355.239;  804.475;  199.675;    0.000
355.302;  845.475;  229.675;    0.000
355.365;  822.475;  220.675;    0.000
355.428;  796.475;  196.675;    0.000
355.491;  929.475;  243.675;    0.000
355.554;  812.475;  191.675;    0.000
355.617;  823.475;  200.675;    0.000
355.680;  887.475;  190.675;    0.000
355.743;  862.475;  236.675;    0.000
355.806;  883.475;  193.675;    0.000
355.869;  964.475;  223.675;    0.000
355.932;  900.475;  208.675;    0.000
355.995;  882.475;  231.675;    0.000
356.058;  903.475;  202.675;    0.000
356.121;  944.475;  198.675;    0.000
356.184;  956.475;  209.675;    0.000
356.247;  922.475;  224.675;    0.000
356.310;  971.475;  149.675;    0.000
356.373;  992.475;  211.675;    0.000
356.436;  962.475;  195.675;    0.000
356.498;  924.475;  176.675;    0.000
356.561;  975.475;  186.675;    0.000
356.624;  948.475;  184.675;    0.000
356.687;  974.475;  179.675;    0.000
356.750;  951.475;  213.675;    0.000
356.813;  944.475;  172.675;    0.000
356.876;  968.475;  189.675;    0.000
356.939;  914.475;  204.675;    0.000
357.001;  995.475;  195.675;    0.000
357.064;  978.475;  202.675;    0.000
357.127;  954.475;  176.675;    0.000
357.190; 1048.475;  186.675;    0.000
357.253; 1019.475;  178.675;    0.000
357.316;  994.475;  187.675;    0.000
357.378;  977.475;  181.675;    0.000
357.441; 1047.475;  142.675;    0.000
357.504;  972.475;  161.675;    0.000
357.567;  974.475;  113.675;    0.000
357.629;  989.475;  193.675;    0.000
357.692;  999.475;  144.675;    0.000
357.755; 1032.475;  177.675;    0.000
357.818;  936.475;  144.675;    0.000
357.880; 1019.475;  182.675;    0.000
357.943; 1011.475;  166.675;    0.000
358.006; 1062.475;  184.675;    0.000
358.069; 1030.475;  200.675;    0.000
358.131; 1036.475;  148.675;    0.000
358.194; 1000.475;  155.675;    0.000
358.257;  990.475;  173.675;    0.000
358.319;  985.475;  178.675;    0.000
358.382; 1047.475;  184.675;    0.000
358.445; 1050.475;  156.675;    0.000
358.507; 1096.475;  199.675;    0.000
358.570;  999.475;  182.675;    0.000
358.633; 1001.475;  167.675;    0.000
358.695; 1032.475;  124.675;    0.000
358.758; 1033.475;  164.675;    0.000
358.821; 1012.475;  147.675;    0.000
358.883; 1058.475;  153.675;    0.000
358.946; 1035.475;  171.675;    0.000
359.008; 1122.475;  196.675;    0.000
359.071; 1095.475;  178.675;    0.000
359.134; 1078.475;  123.675;    0.000
359.196; 1081.475;  166.675;    0.000
359.259; 1152.475;  173.675;    0.000
359.321; 1067.475;  164.675;    0.000
359.384; 1086.475;  155.675;    0.000
359.446; 1065.475;  157.675;    0.000
359.509; 1123.475;  153.675;    0.000
359.571; 1046.475;  184.675;    0.000
359.634; 1080.475;  138.675;    0.000
359.696; 1085.475;  169.675;    0.000
359.759; 1155.475;  152.675;    0.000
359.821; 1012.475;  150.675;    0.000
359.884; 1133.475;  166.675;    0.000
359.946; 1168.475;  165.675;    0.000
360.009; 1135.475;  176.675;    0.000
360.071; 1112.475;  148.675;    0.000
360.134; 1146.475;  193.675;    0.000
360.196; 1117.475;  151.675;    0.000
360.259; 1118.475;  182.675;    0.000
360.321; 1098.475;  168.675;    0.000
360.384; 1114.475;  176.675;    0.000
360.446; 1105.475;  156.675;    0.000
360.508; 1161.475;  183.675;    0.000
360.571; 1091.475;  193.675;    0.000
360.633; 1079.475;  184.675;    0.000
360.696; 1149.475;  136.675;    0.000
360.758; 1079.475;  186.675;    0.000
360.820; 1173.475;  127.675;    0.000
360.883; 1080.475;  146.675;    0.000
360.945; 1124.475;  144.675;    0.000
361.007; 1157.475;  160.675;    0.000
361.070; 1146.475;  175.675;    0.000
361.132; 1153.475;  195.675;    0.000
361.194; 1204.475;  167.675;    0.000
361.257; 1172.475;  140.675;    0.000
361.319; 1163.475;  154.675;    0.000
361.381; 1171.475;  181.675;    0.000
361.443; 1093.475;  137.675;    0.000
361.506; 1198.475;  159.675;    0.000
361.568; 1170.475;  144.675;    0.000
361.630; 1178.475;  189.675;    0.000
361.693; 1172.475;  162.675;    0.000
361.755; 1175.475;  156.675;    0.000
361.817; 1211.475;  225.675;    0.000
361.879; 1175.475;  172.675;    0.000
361.941; 1173.475;  138.675;    0.000
362.004; 1182.475;  163.675;    0.000
362.066; 1156.475;  164.675;    0.000
362.128; 1224.475;  160.675;    0.000
362.190; 1194.475;  168.675;    0.000
362.252; 1245.475;  177.675;    0.000
362.315; 1223.475;  169.675;    0.000
362.377; 1188.475;  188.675;    0.000
362.439; 1162.475;  158.675;    0.000
362.501; 1225.475;  168.675;    0.000
362.563; 1225.475;  168.675;    0.000
362.625; 1214.475;  188.675;    0.000
362.688; 1238.475;  162.675;    0.000
362.750; 1271.475;  209.675;    0.000
362.812; 1205.475;  154.675;    0.000
362.874; 1205.475;  190.675;    0.000
362.936; 1193.475;  190.675;    0.000
362.998; 1215.475;  143.675;    0.000
363.060; 1258.475;  186.675;    0.000
363.122; 1257.475;  167.675;    0.000
363.184; 1221.475;  163.675;    0.000
363.246; 1259.475;  169.675;    0.000
363.308; 1242.475;  165.675;    0.000
363.370; 1313.475;  177.675;    0.000
363.432; 1207.475;  139.675;    0.000
363.494; 1281.475;  177.675;    0.000
363.556; 1220.475;  164.675;    0.000
363.618; 1185.475;  170.675;    0.000
363.680; 1263.475;  146.675;    0.000
363.742; 1314.475;  179.675;    0.000
363.804; 1211.475;  188.675;    0.000
363.866; 1338.475;  186.675;    0.000
363.928; 1197.475;  147.675;    0.000
363.990; 1252.475;  185.675;    0.000
364.052; 1203.475;  197.675;    0.000
364.114; 1234.475;  150.675;    0.000
364.176; 1243.475;  217.675;    0.000
364.238; 1267.475;  159.675;    0.000
364.300; 1314.475;  192.675;    0.000
364.362; 1246.475;  130.675;    0.000
364.424; 1215.475;  131.675;    0.000
364.486; 1252.475;  178.675;    0.000
364.548; 1282.475;  203.675;    0.000
364.609; 1269.475;  192.675;    0.000
364.671; 1307.475;  169.675;    0.000
364.733; 1240.475;  169.675;    0.000
364.795; 1276.475;  157.675;    0.000
364.857; 1251.475;  171.675;    0.000
364.919; 1273.475;  134.675;    0.000
364.981; 1322.475;  162.675;    0.000
365.042; 1294.475;  136.675;    0.000
365.104; 1286.475;  152.675;    0.000
365.166; 1222.475;  149.675;    0.000
365.228; 1321.475;  195.675;    0.000
365.290; 1239.475;  147.675;    0.000
365.351; 1315.475;  138.675;    0.000
365.413; 1253.475;  168.675;    0.000
365.475; 1267.475;  150.675;    0.000
365.537; 1255.475;  179.675;    0.000
365.598; 1268.475;  177.675;    0.000
365.660; 1264.475;  149.675;    0.000
365.722; 1241.475;  160.675;    0.000
365.784; 1304.475;  175.675;    0.000
365.845; 1290.475;  149.675;    0.000
365.907; 1212.475;  154.675;    0.000
365.969; 1218.475;  128.675;    0.000
366.030; 1311.475;  176.675;    0.000
366.092; 1286.475;  181.675;    0.000
366.154; 1285.475;  194.675;    0.000
366.215; 1308.475;  149.675;    0.000
366.277; 1313.475;  144.675;    0.000
366.339; 1342.475;  160.675;    0.000
366.400; 1249.475;  144.675;    0.000
366.462; 1351.475;  145.675;    0.000
366.524; 1296.475;  148.675;    0.000
366.585; 1379.475;  128.675;    0.000
366.647; 1341.475;  156.675;    0.000
366.708; 1321.475;  128.675;    0.000
366.770; 1304.475;  188.675;    0.000
366.832; 1280.475;  170.675;    0.000
366.893; 1304.475;  158.675;    0.000
366.955; 1313.475;  150.675;    0.000
367.016; 1351.475;  160.675;    0.000
367.078; 1350.475;  144.675;    0.000
367.139; 1332.475;  109.675;    0.000
367.201; 1378.475;  155.675;    0.000
367.262; 1337.475;  165.675;    0.000
367.324; 1390.475;  180.675;    0.000
367.385; 1357.475;  150.675;    0.000
367.447; 1378.475;  164.675;    0.000
367.508; 1283.475;  137.675;    0.000
367.570; 1335.475;  174.675;    0.000
367.631; 1343.475;  126.675;    0.000
367.693; 1279.475;  153.675;    0.000
367.754; 1405.475;  194.675;    0.000
367.816; 1302.475;  154.675;    0.000
367.877; 1406.475;  183.675;    0.000
367.939; 1390.475;  179.675;    0.000
368.000; 1286.475;  142.675;    0.000
368.062; 1329.475;  147.675;    0.000
368.123; 1371.475;  155.675;    0.000
368.184; 1349.475;  169.675;    0.000
368.246; 1317.475;  145.675;    0.000
368.307; 1361.475;  165.675;    0.000
368.369; 1407.475;  177.675;    0.000
368.430; 1354.475;  161.675;    0.000
368.491; 1353.475;  156.675;    0.000
368.553; 1389.475;  156.675;    0.000
368.614; 1315.475;  186.675;    0.000
368.675; 1374.475;  154.675;    0.000
368.737; 1363.475;  162.675;    0.000
368.798; 1391.475;  202.675;    0.000
368.859; 1369.475;  162.675;    0.000
368.921; 1370.475;  171.675;    0.000
368.982; 1361.475;  193.675;    0.000
369.043; 1344.475;  207.675;    0.000
369.104; 1306.475;  143.675;    0.000
369.166; 1417.475;  203.675;    0.000
369.227; 1357.475;  125.675;    0.000
369.288; 1323.475;  154.675;    0.000
369.349; 1352.475;  187.675;    0.000
369.411; 1407.475;  191.675;    0.000
369.472; 1421.475;  175.675;    0.000
369.533; 1379.475;  180.675;    0.000
369.594; 1360.475;  161.675;    0.000
369.656; 1374.475;  169.675;    0.000
369.717; 1334.475;  103.675;    0.000
369.778; 1363.475;  159.675;    0.000
369.839; 1348.475;  146.675;    0.000
369.900; 1394.475;  218.675;    0.000
369.961; 1361.475;  200.675;    0.000
370.023; 1375.475;  177.675;    0.000
370.084; 1350.475;  149.675;    0.000
370.145; 1404.475;  179.675;    0.000
370.206; 1419.475;  179.675;    0.000
370.267; 1421.475;  166.675;    0.000
370.328; 1402.475;  164.675;    0.000
370.389; 1365.475;  162.675;    0.000
370.451; 1312.475;  179.675;    0.000
370.512; 1404.475;  181.675;    0.000
370.573; 1413.475;  173.675;    0.000
370.634; 1449.475;  162.675;    0.000
370.695; 1381.475;  167.675;    0.000
370.756; 1350.475;  177.675;    0.000
370.817; 1394.475;  178.675;    0.000
370.878; 1443.475;  152.675;    0.000
370.939; 1403.475;  185.675;    0.000
371.000; 1331.475;  173.675;    0.000
371.061; 1417.475;  176.675;    0.000
371.122; 1439.475;  169.675;    0.000
371.183; 1466.475;  116.675;    0.000
371.244; 1400.475;  174.675;    0.000
371.305; 1374.475;  152.675;    0.000
371.366; 1415.475;  168.675;    0.000
371.427; 1404.475;  188.675;    0.000
371.488; 1417.475;  180.675;    0.000
371.549; 1416.475;  145.675;    0.000
371.610; 1351.475;  160.675;    0.000
371.671; 1418.475;  164.675;    0.000
371.732; 1474.475;  158.675;    0.000
371.793; 1465.475;  162.675;    0.000
371.853; 1414.475;  130.675;    0.000
371.914; 1416.475;  172.675;    0.000
371.975; 1417.475;   98.675;    0.000
372.036; 1413.475;  161.675;    0.000
372.097; 1427.475;  143.675;    0.000
372.158; 1375.475;  175.675;    0.000
372.219; 1430.475;  196.675;    0.000
372.280; 1397.475;  175.675;    0.000
372.340; 1473.475;  160.675;    0.000
372.401; 1442.475;  163.675;    0.000
372.462; 1436.475;  147.675;    0.000
372.523; 1425.475;  146.675;    0.000
372.584; 1441.475;  173.675;    0.000
372.645; 1409.475;  126.675;    0.000
372.705; 1473.475;  179.675;    0.000
372.766; 1416.475;  173.675;    0.000
372.827; 1407.475;  171.675;    0.000
372.888; 1419.475;  134.675;    0.000
372.948; 1471.475;  167.675;    0.000
373.009; 1455.475;  167.675;    0.000
373.070; 1478.475;  152.675;    0.000
373.131; 1394.475;  177.675;    0.000
373.191; 1452.475;  225.675;    0.000
373.252; 1462.475;  165.675;    0.000
373.313; 1432.475;  171.675;    0.000
373.373; 1423.475;  160.675;    0.000
373.434; 1459.475;  172.675;    0.000
373.495; 1454.475;  150.675;    0.000
373.555; 1399.475;  130.675;    0.000
373.616; 1442.475;  155.675;    0.000
373.677; 1410.475;  212.675;    0.000
373.737; 1448.475;  188.675;    0.000
373.798; 1437.475;  203.675;    0.000
373.859; 1504.475;  169.675;    0.000
373.919; 1515.475;  197.675;    0.000
373.980; 1417.475;  134.675;    0.000
374.041; 1408.475;  186.675;    0.000
374.101; 1445.475;  207.675;    0.000
374.162; 1542.475;  190.675;    0.000
374.222; 1414.475;  182.675;    0.000
374.283; 1451.475;  213.675;    0.000
374.343; 1424.475;  191.675;    0.000
374.404; 1405.475;  181.675;    0.000
374.465; 1501.475;  193.675;    0.000
374.525; 1443.475;  153.675;    0.000
374.586; 1468.475;  190.675;    0.000
374.646; 1470.475;  173.675;    0.000
374.707; 1551.475;  210.675;    0.000
374.767; 1353.475;  218.675;    0.000
374.828; 1438.475;  174.675;    0.000
374.888; 1464.475;  197.675;    0.000
374.949; 1553.475;  196.675;    0.000
375.009; 1540.475;  169.675;    0.000
375.070; 1539.475;  157.675;    0.000
375.130; 1507.475;  203.675;    0.000
375.190; 1518.475;  174.675;    0.000
375.251; 1499.475;  230.675;    0.000
375.311; 1512.475;  198.675;    0.000
375.372; 1504.475;  160.675;    0.000
375.432; 1542.475;  169.675;    0.000
375.493; 1511.475;  159.675;    0.000
375.553; 1478.475;  179.675;    0.000
375.613; 1410.475;  157.675;    0.000
375.674; 1550.475;  174.675;    0.000
375.734; 1503.475;  180.675;    0.000
375.794; 1462.475;  175.675;    0.000
375.855; 1415.475;  193.675;    0.000
375.915; 1485.475;  148.675;    0.000
375.975; 1531.475;  183.675;    0.000
376.036; 1452.475;  144.675;    0.000
376.096; 1417.475;  195.675;    0.000
376.156; 1476.475;  200.675;    0.000
376.217; 1443.475;  160.675;    0.000
376.277; 1464.475;  193.675;    0.000
376.337; 1454.475;  168.675;    0.000
376.398; 1431.475;  183.675;    0.000
376.458; 1446.475;  168.675;    0.000
376.518; 1418.475;  184.675;    0.000
376.578; 1456.475;  176.675;    0.000
376.639; 1475.475;  158.675;    0.000
376.699; 1482.475;  157.675;    0.000
376.759; 1521.475;  184.675;    0.000
376.819; 1419.475;  166.675;    0.000
376.880; 1510.475;  220.675;    0.000
376.940; 1496.475;  195.675;    0.000
377.000; 1357.475;  178.675;    0.000
377.060; 1517.475;  212.675;    0.000
377.120; 1384.475;  161.675;    0.000
377.180; 1441.475;  168.675;    0.000
377.241; 1434.475;  167.675;    0.000
377.301; 1529.475;  171.675;    0.000
377.361; 1495.475;  174.675;    0.000
377.421; 1480.475;  216.675;    0.000
377.481; 1495.475;  164.675;    0.000
377.541; 1531.475;  163.675;    0.000
377.601; 1457.475;  197.675;    0.000
377.661; 1498.475;  175.675;    0.000
377.722; 1460.475;  196.675;    0.000
377.782; 1402.475;  162.675;    0.000
377.842; 1456.475;  179.675;    0.000
377.902; 1491.475;  140.675;    0.000
377.962; 1453.475;  121.675;    0.000
378.022; 1440.475;  174.675;    0.000
378.082; 1453.475;  167.675;    0.000
378.142; 1428.475;  151.675;    0.000
378.202; 1460.475;  174.675;    0.000
378.262; 1461.475;  168.675;    0.000
378.322; 1490.475;  183.675;    0.000
378.382; 1511.475;  159.675;    0.000
378.442; 1452.475;  177.675;    0.000
378.502; 1440.475;  137.675;    0.000
378.562; 1475.475;  140.675;    0.000
378.622; 1501.475;  197.675;    0.000
378.682; 1514.475;  205.675;    0.000
378.742; 1494.475;  160.675;    0.000
378.802; 1506.475;  132.675;    0.000
378.862; 1544.475;  222.675;    0.000
378.921; 1533.475;  178.675;    0.000
378.981; 1549.475;  160.675;    0.000
379.041; 1527.475;  136.675;    0.000
379.101; 1499.475;  184.675;    0.000
379.161; 1518.475;  147.675;    0.000
379.221; 1523.475;  139.675;    0.000
379.281; 1447.475;  204.675;    0.000
379.341; 1472.475;  142.675;    0.000
379.401; 1502.475;  136.675;    0.000
379.460; 1473.475;  161.675;    0.000
379.520; 1528.475;  171.675;    0.000
379.580; 1536.475;  168.675;    0.000
379.640; 1530.475;  183.675;    0.000
379.700; 1487.475;  182.675;    0.000
379.759; 1553.475;  190.675;    0.000
379.819; 1522.475;  149.675;    0.000
379.879; 1468.475;  140.675;    0.000
379.939; 1549.475;  155.675;    0.000
379.999; 1478.475;  199.675;    0.000
380.058; 1485.475;  163.675;    0.000
380.118; 1531.475;  190.675;    0.000
380.178; 1526.475;  220.675;    0.000
380.237; 1523.475;  181.675;    0.000
380.297; 1527.475;  187.675;    0.000
380.357; 1563.475;  193.675;    0.000
380.417; 1554.475;  157.675;    0.000
380.476; 1639.475;  176.675;    0.000
380.536; 1468.475;  180.675;    0.000
380.596; 1532.475;  191.675;    0.000
380.655; 1578.475;  190.675;    0.000
380.715; 1609.475;  180.675;    0.000
380.775; 1574.475;  202.675;    0.000
380.834; 1604.475;  190.675;    0.000
380.894; 1586.475;  163.675;    0.000
380.954; 1535.475;  181.675;    0.000
381.013; 1639.475;  218.675;    0.000
381.073; 1553.475;  181.675;    0.000
381.132; 1612.475;  193.675;    0.000
381.192; 1583.475;  209.675;    0.000
381.252; 1540.475;  206.675;    0.000
381.311; 1532.475;  173.675;    0.000
381.371; 1569.475;  188.675;    0.000
381.430; 1566.475;  162.675;    0.000
381.490; 1544.475;  168.675;    0.000
381.549; 1598.475;  213.675;    0.000
381.609; 1620.475;  194.675;    0.000
381.668; 1609.475;  190.675;    0.000
381.728; 1601.475;  183.675;    0.000
381.787; 1592.475;  172.675;    0.000
381.847; 1599.475;  198.675;    0.000
381.906; 1570.475;  197.675;    0.000
381.966; 1665.475;  201.675;    0.000
382.025; 1625.475;  219.675;    0.000
382.085; 1674.475;  194.675;    0.000
382.144; 1590.475;  187.675;    0.000
382.204; 1631.475;  196.675;    0.000
382.263; 1545.475;  168.675;    0.000
382.323; 1623.475;  135.675;    0.000
382.382; 1615.475;  173.675;    0.000
382.441; 1587.475;  155.675;    0.000
382.501; 1664.475;  168.675;    0.000
382.560; 1641.475;  200.675;    0.000
382.619; 1628.475;  155.675;    0.000
382.679; 1670.475;  198.675;    0.000
382.738; 1762.475;  211.675;    0.000
382.798; 1752.475;  214.675;    0.000
382.857; 1743.475;  146.675;    0.000
382.916; 1770.475;  183.675;    0.000
382.976; 1781.475;  173.675;    0.000
383.035; 1747.475;  165.675;    0.000
383.094; 1872.475;  173.675;    0.000
383.154; 1818.475;  143.675;    0.000
383.213; 1851.475;  173.675;    0.000
383.272; 1901.475;  166.675;    0.000
383.331; 1830.475;  154.675;    0.000
383.391; 1760.475;  232.675;    0.000
383.450; 1751.475;  185.675;    0.000
383.509; 1786.475;  204.675;    0.000
383.568; 1807.475;  197.675;    0.000
383.628; 1769.475;  171.675;    0.000
383.687; 1876.475;  202.675;    0.000
383.746; 1946.475;  116.675;    0.000
383.805; 1971.475;  156.675;    0.000
383.864; 1894.475;  150.675;    0.000
383.924; 1863.475;  195.675;    0.000
383.983; 1822.475;  157.675;    0.000
384.042; 1715.475;  184.675;    0.000
384.101; 1784.475;  210.675;    0.000
384.160; 1709.475;  123.675;    0.000
384.219; 1668.475;  191.675;    0.000
384.279; 1669.475;  184.675;    0.000
384.338; 1644.475;  172.675;    0.000
384.397; 1638.475;  153.675;    0.000
384.456; 1695.475;  181.675;    0.000
384.515; 1704.475;  171.675;    0.000
384.574; 1665.475;  172.675;    0.000
384.633; 1692.475;  174.675;    0.000
384.692; 1695.475;  178.675;    0.000
384.751; 1690.475;  180.675;    0.000
384.810; 1668.475;  161.675;    0.000
384.869; 1659.475;  162.675;    0.000
384.929; 1678.475;  157.675;    0.000
384.988; 1658.475;  153.675;    0.000
385.047; 1597.475;  178.675;    0.000
385.106; 1654.475;  164.675;    0.000
385.165; 1638.475;  127.675;    0.000
385.224; 1593.475;  156.675;    0.000
385.283; 1673.475;  178.675;    0.000
385.342; 1665.475;  177.675;    0.000
385.401; 1651.475;  178.675;    0.000
385.459; 1639.475;  177.675;    0.000
385.518; 1643.475;  152.675;    0.000
385.577; 1597.475;  133.675;    0.000
385.636; 1645.475;  204.675;    0.000
385.695; 1674.475;  161.675;    0.000
385.754; 1726.475;  190.675;    0.000
385.813; 1636.475;  160.675;    0.000
385.872; 1711.475;  138.675;    0.000
385.931; 1675.475;  192.675;    0.000
385.990; 1703.475;  158.675;    0.000
386.049; 1719.475;  187.675;    0.000
386.107; 1688.475;  140.675;    0.000
386.166; 1696.475;  139.675;    0.000
386.225; 1676.475;  182.675;    0.000
386.284; 1702.475;  123.675;    0.000
386.343; 1734.475;  207.675;    0.000
386.402; 1668.475;  150.675;    0.000
386.460; 1660.475;  185.675;    0.000
386.519; 1684.475;  145.675;    0.000
386.578; 1755.475;  153.675;    0.000
386.637; 1599.475;  153.675;    0.000
386.696; 1782.475;  189.675;    0.000
386.754; 1658.475;  128.675;    0.000
386.813; 1714.475;  202.675;    0.000
386.872; 1690.475;  152.675;    0.000
386.931; 1778.475;  166.675;    0.000
386.989; 1725.475;  194.675;    0.000
387.048; 1703.475;  176.675;    0.000
387.107; 1753.475;  203.675;    0.000
387.165; 1661.475;  136.675;    0.000
387.224; 1753.475;  193.675;    0.000
387.283; 1719.475;  157.675;    0.000
387.342; 1676.475;  194.675;    0.000
387.400; 1727.475;  191.675;    0.000
387.459; 1735.475;  142.675;    0.000
387.517; 1775.475;  202.675;    0.000
387.576; 1786.475;  164.675;    0.000
387.635; 1670.475;  147.675;    0.000
387.693; 1772.475;  199.675;    0.000
387.752; 1714.475;  181.675;    0.000
387.811; 1686.475;  161.675;    0.000
387.869; 1747.475;  184.675;    0.000
387.928; 1739.475;  175.675;    0.000
387.986; 1718.475;  143.675;    0.000
388.045; 1677.475;  146.675;    0.000
388.103; 1769.475;  164.675;    0.000
388.162; 1752.475;  170.675;    0.000
388.221; 1760.475;  169.675;    0.000
388.279; 1723.475;  151.675;    0.000
388.338; 1837.475;  175.675;    0.000
388.396; 1799.475;  170.675;    0.000
388.455; 1764.475;  193.675;    0.000
388.513; 1714.475;  134.675;    0.000
388.572; 1778.475;  201.675;    0.000
388.630; 1789.475;  181.675;    0.000
388.689; 1754.475;  165.675;    0.000
388.747; 1720.475;  164.675;    0.000
388.806; 1739.475;  155.675;    0.000
388.864; 1829.475;  172.675;    0.000
388.922; 1817.475;  190.675;    0.000
388.981; 1723.475;  170.675;    0.000
389.039; 1832.475;  142.675;    0.000
389.098; 1780.475;  177.675;    0.000
389.156; 1787.475;  184.675;    0.000
389.214; 1789.475;  197.675;    0.000
389.273; 1808.475;  141.675;    0.000
389.331; 1782.475;  145.675;    0.000
389.390; 1762.475;  160.675;    0.000
389.448; 1778.475;  142.675;    0.000
389.506; 1797.475;  192.675;    0.000
389.565; 1766.475;  176.675;    0.000
389.623; 1805.475;  174.675;    0.000
389.681; 1727.475;  184.675;    0.000
389.740; 1803.475;  193.675;    0.000
389.798; 1819.475;  130.675;    0.000
389.856; 1837.475;  224.675;    0.000
389.914; 1729.475;  223.675;    0.000
389.973; 1828.475;  164.675;    0.000
390.031; 1822.475;  198.675;    0.000
390.089; 1798.475;  177.675;    0.000
390.147; 1775.475;  158.675;    0.000
390.206; 1797.475;  213.675;    0.000
390.264; 1844.475;  178.675;    0.000
390.322; 1845.475;  181.675;    0.000
390.380; 1801.475;  148.675;    0.000
390.439; 1868.475;  185.675;    0.000
390.497; 1793.475;  208.675;    0.000
390.555; 1716.475;  175.675;    0.000
390.613; 1857.475;  178.675;    0.000
390.671; 1879.475;  190.675;    0.000
390.729; 1834.475;  172.675;    0.000
390.788; 1831.475;  194.675;    0.000
390.846; 1888.475;  187.675;    0.000
390.904; 1855.475;  207.675;    0.000
390.962; 1866.475;  211.675;    0.000
391.020; 1921.475;  218.675;    0.000
391.078; 1894.475;  179.675;    0.000
391.136; 1834.475;  223.675;    0.000
391.194; 1898.475;  209.675;    0.000
391.253; 1887.475;  217.675;    0.000
391.311; 1823.475;  217.675;    0.000
391.369; 1883.475;  217.675;    0.000
391.427; 1907.475;  253.675;    0.000
391.485; 1947.475;  176.675;    0.000
391.543; 1914.475;  252.675;    0.000
391.601; 1886.475;  168.675;    0.000
391.659; 1928.475;  206.675;    0.000
391.717; 1920.475;  172.675;    0.000
391.775; 1880.475;  170.675;    0.000
391.833; 1917.475;  196.675;    0.000
391.891; 1941.475;  180.675;    0.000
391.949; 1886.475;  201.675;    0.000
392.007; 1970.475;  196.675;    0.000
392.065; 1910.475;  191.675;    0.000
392.123; 1903.475;  158.675;    0.000
392.180; 2057.475;  192.675;    0.000
392.238; 1873.475;  186.675;    0.000
392.296; 1881.475;  150.675;    0.000
392.354; 1913.475;  175.675;    0.000
392.412; 1980.475;  219.675;    0.000
392.470; 1907.475;  200.675;    0.000
392.528; 1933.475;  177.675;    0.000
392.586; 1949.475;  169.675;    0.000
392.644; 1949.475;  155.675;    0.000
392.701; 2020.475;  215.675;    0.000
392.759; 1968.475;  218.675;    0.000
392.817; 1969.475;  178.675;    0.000
392.875; 1949.475;  190.675;    0.000
392.933; 1943.475;  197.675;    0.000
392.991; 1938.475;  179.675;    0.000
393.048; 2018.475;  205.675;    0.000
393.106; 1961.475;  229.675;    0.000
393.164; 1953.475;  167.675;    0.000
393.222; 2018.475;  156.675;    0.000
393.279; 2075.475;  203.675;    0.000
393.337; 2067.475;  216.675;    0.000
393.395; 2061.475;  180.675;    0.000
393.453; 1979.475;  163.675;    0.000
393.510; 2011.475;  194.675;    0.000
393.568; 1982.475;  207.675;    0.000
393.626; 1968.475;  200.675;    0.000
393.684; 1977.475;  234.675;    0.000
393.741; 2026.475;  197.675;    0.000
393.799; 1964.475;  201.675;    0.000
393.857; 1937.475;  185.675;    0.000
393.914; 2038.475;  200.675;    0.000
393.972; 1973.475;  181.675;    0.000
394.030; 2065.475;  188.675;    0.000
394.087; 2012.475;  202.675;    0.000
394.145; 2093.475;  214.675;    0.000
394.202; 2019.475;  204.675;    0.000
394.260; 1983.475;  178.675;    0.000
394.318; 2043.475;  208.675;    0.000
394.375; 1994.475;  183.675;    0.000
394.433; 2043.475;  175.675;    0.000
394.490; 2096.475;  170.675;    0.000
394.548; 2046.475;  161.675;    0.000
394.605; 2062.475;  196.675;    0.000
394.663; 2031.475;  191.675;    0.000
394.720; 2092.475;  179.675;    0.000
394.778; 2116.475;  193.675;    0.000
394.836; 2011.475;  160.675;    0.000
394.893; 2091.475;  152.675;    0.000
394.951; 2098.475;  179.675;    0.000
395.008; 2028.475;  185.675;    0.000
395.065; 2020.475;  154.675;    0.000
395.123; 2036.475;  176.675;    0.000
395.180; 2076.475;  202.675;    0.000
395.238; 2057.475;  135.675;    0.000
395.295; 2148.475;  178.675;    0.000
395.353; 2054.475;  181.675;    0.000
395.410; 2068.475;  160.675;    0.000
395.468; 2086.475;  179.675;    0.000
395.525; 2135.475;  187.675;    0.000
395.582; 2090.475;  221.675;    0.000
395.640; 2161.475;  220.675;    0.000
395.697; 2164.475;  174.675;    0.000
395.754; 2015.475;  177.675;    0.000
395.812; 2104.475;  193.675;    0.000
395.869; 2101.475;  220.675;    0.000
395.927; 2211.475;  206.675;    0.000
395.984; 2222.475;  213.675;    0.000
396.041; 2134.475;  194.675;    0.000
396.098; 2092.475;  144.675;    0.000
396.156; 2147.475;  168.675;    0.000
396.213; 2186.475;  181.675;    0.000
396.270; 2171.475;  186.675;    0.000
396.328; 2155.475;  165.675;    0.000
396.385; 2162.475;  192.675;    0.000
396.442; 2120.475;  196.675;    0.000
396.499; 2121.475;  162.675;    0.000
396.557; 2168.475;  177.675;    0.000
396.614; 2138.475;  184.675;    0.000
396.671; 2185.475;  180.675;    0.000
396.728; 2126.475;  194.675;    0.000
396.785; 2193.475;  173.675;    0.000
396.843; 2262.475;  154.675;    0.000
396.900; 2211.475;  200.675;    0.000
396.957; 2163.475;  158.675;    0.000
397.014; 2185.475;  203.675;    0.000
397.071; 2189.475;  178.675;    0.000
397.128; 2277.475;  201.675;    0.000
397.186; 2264.475;  200.675;    0.000
397.243; 2274.475;  187.675;    0.000
397.300; 2239.475;  173.675;    0.000
397.357; 2219.475;  189.675;    0.000
397.414; 2217.475;  202.675;    0.000
397.471; 2212.475;  156.675;    0.000
397.528; 2215.475;  197.675;    0.000
397.585; 2240.475;  174.675;    0.000
397.642; 2260.475;  202.675;    0.000
397.699; 2283.475;  197.675;    0.000
397.756; 2266.475;  188.675;    0.000
397.814; 2250.475;  210.675;    0.000
397.871; 2214.475;  203.675;    0.000
397.928; 2304.475;  189.675;    0.000
397.985; 2342.475;  192.675;    0.000
398.042; 2251.475;  198.675;    0.000
398.099; 2287.475;  181.675;    0.000
398.156; 2301.475;  201.675;    0.000
398.212; 2242.475;  216.675;    0.000
398.269; 2295.475;  206.675;    0.000
398.326; 2258.475;  213.675;    0.000
398.383; 2298.475;  168.675;    0.000
398.440; 2277.475;  184.675;    0.000
398.497; 2323.475;  194.675;    0.000
398.554; 2302.475;  219.675;    0.000
398.611; 2311.475;  190.675;    0.000
398.668; 2291.475;  138.675;    0.000
398.725; 2323.475;  170.675;    0.000
398.782; 2304.475;  223.675;    0.000
398.839; 2409.475;  211.675;    0.000
398.895; 2296.475;  173.675;    0.000
398.952; 2332.475;  207.675;    0.000
399.009; 2330.475;  173.675;    0.000
399.066; 2326.475;  171.675;    0.000
399.123; 2345.475;  189.675;    0.000
399.180; 2338.475;  170.675;    0.000
399.236; 2368.475;  193.675;    0.000
399.293; 2433.475;  222.675;    0.000
399.350; 2459.475;  195.675;    0.000
399.407; 2391.475;  214.675;    0.000
399.463; 2441.475;  181.675;    0.000
399.520; 2444.475;  168.675;    0.000
399.577; 2403.475;  231.675;    0.000
399.634; 2480.475;  215.675;    0.000
399.690; 2478.475;  177.675;    0.000
399.747; 2433.475;  212.675;    0.000
399.804; 2496.475;  208.675;    0.000
399.861; 2446.475;  225.675;    0.000
399.917; 2500.475;  191.675;    0.000
399.974; 2369.475;  182.675;    0.000
400.031; 2483.475;  218.675;    0.000
400.087; 2430.475;  202.675;    0.000
400.144; 2475.475;  192.675;    0.000
400.201; 2456.475;  187.675;    0.000
400.257; 2391.475;  193.675;    0.000
400.314; 2430.475;  185.675;    0.000
400.370; 2449.475;  201.675;    0.000
400.427; 2452.475;  208.675;    0.000
400.484; 2394.475;  201.675;    0.000
400.540; 2448.475;  204.675;    0.000
400.597; 2385.475;  210.675;    0.000
400.653; 2391.475;  224.675;    0.000
400.710; 2432.475;  196.675;    0.000
400.766; 2447.475;  224.675;    0.000
400.823; 2440.475;  210.675;    0.000
400.879; 2461.475;  213.675;    0.000
400.936; 2382.475;  182.675;    0.000
400.993; 2414.475;  184.675;    0.000
401.049; 2328.475;  216.675;    0.000
401.105; 2376.475;  235.675;    0.000
401.162; 2473.475;  196.675;    0.000
401.218; 2401.475;  221.675;    0.000
401.275; 2381.475;  216.675;    0.000
401.331; 2462.475;  198.675;    0.000
401.388; 2390.475;  205.675;    0.000
401.444; 2403.475;  154.675;    0.000
401.501; 2389.475;  208.675;    0.000
401.557; 2385.475;  162.675;    0.000
401.614; 2449.475;  157.675;    0.000
401.670; 2375.475;  198.675;    0.000
401.726; 2484.475;  195.675;    0.000
401.783; 2457.475;  186.675;    0.000
401.839; 2365.475;  205.675;    0.000
401.895; 2485.475;  202.675;    0.000
401.952; 2356.475;  143.675;    0.000
402.008; 2410.475;  177.675;    0.000
402.064; 2391.475;  177.675;    0.000
402.121; 2421.475;  194.675;    0.000
402.177; 2509.475;  181.675;    0.000
402.233; 2386.475;  205.675;    0.000
402.290; 2401.475;  190.675;    0.000
402.346; 2370.475;  190.675;    0.000
402.402; 2483.475;  151.675;    0.000
402.458; 2477.475;  194.675;    0.000
402.515; 2477.475;  212.675;    0.000
402.571; 2371.475;  209.675;    0.000
402.627; 2415.475;  199.675;    0.000
402.683; 2402.475;  213.675;    0.000
402.740; 2475.475;  165.675;    0.000
402.796; 2411.475;  168.675;    0.000
402.852; 2490.475;  200.675;    0.000
402.908; 2426.475;  193.675;    0.000
402.964; 2473.475;  166.675;    0.000
403.021; 2488.475;  196.675;    0.000
403.077; 2474.475;  212.675;    0.000
403.133; 2497.475;  186.675;    0.000
403.189; 2425.475;  206.675;    0.000
403.245; 2499.475;  207.675;    0.000
403.301; 2478.475;  204.675;    0.000
403.357; 2509.475;  246.675;    0.000
403.414; 2499.475;  227.675;    0.000
403.470; 2465.475;  207.675;    0.000
403.526; 2548.475;  171.675;    0.000
403.582; 2411.475;  200.675;    0.000
403.638; 2469.475;  213.675;    0.000
403.694; 2516.475;  239.675;    0.000
403.750; 2523.475;  221.675;    0.000
403.806; 2532.475;  197.675;    0.000
403.862; 2502.475;  222.675;    0.000
403.918; 2463.475;  174.675;    0.000
403.974; 2440.475;  183.675;    0.000
404.030; 2512.475;  184.675;    0.000
404.086; 2452.475;  170.675;    0.000
404.142; 2529.475;  215.675;    0.000
404.198; 2482.475;  189.675;    0.000
404.254; 2582.475;  195.675;    0.000
404.310; 2464.475;  206.675;    0.000
404.366; 2496.475;  179.675;    0.000
404.422; 2597.475;  197.675;    0.000
404.478; 2553.475;  176.675;    0.000
404.534; 2579.475;  165.675;    0.000
404.590; 2596.475;  203.675;    0.000
404.646; 2544.475;  195.675;    0.000
404.701; 2523.475;  180.675;    0.000
404.757; 2573.475;  218.675;    0.000
404.813; 2468.475;  160.675;    0.000
404.869; 2452.475;  213.675;    0.000
404.925; 2508.475;  171.675;    0.000
404.981; 2516.475;  194.675;    0.000
405.037; 2601.475;  211.675;    0.000
405.092; 2482.475;  158.675;    0.000
405.148; 2584.475;  140.675;    0.000
405.204; 2548.475;  161.675;    0.000
405.260; 2530.475;  161.675;    0.000
405.316; 2535.475;  155.675;    0.000
405.371; 2625.475;  151.675;    0.000
405.427; 2518.475;  186.675;    0.000
405.483; 2654.475;  206.675;    0.000
405.539; 2525.475;  162.675;    0.000
405.594; 2482.475;  205.675;    0.000
405.650; 2555.475;  153.675;    0.000
405.706; 2589.475;  185.675;    0.000
405.761; 2603.475;  205.675;    0.000
405.817; 2553.475;  185.675;    0.000
405.873; 2581.475;  160.675;    0.000
405.928; 2540.475;  182.675;    0.000
405.984; 2525.475;  206.675;    0.000
406.040; 2588.475;  200.675;    0.000
406.095; 2531.475;  138.675;    0.000
406.151; 2581.475;  178.675;    0.000
406.207; 2696.475;  225.675;    0.000
406.262; 2633.475;  161.675;    0.000
406.318; 2662.475;  186.675;    0.000
406.374; 2608.475;  173.675;    0.000
406.429; 2673.475;  197.675;    0.000
406.485; 2680.475;  260.675;    0.000
406.540; 2651.475;  184.675;    0.000
406.596; 2641.475;  193.675;    0.000
406.651; 2764.475;  176.675;    0.000
406.707; 2781.475;  158.675;    0.000
406.763; 2656.475;  174.675;    0.000
406.818; 2744.475;  188.675;    0.000
406.874; 2617.475;  176.675;    0.000
406.929; 2684.475;  220.675;    0.000
406.985; 2773.475;  167.675;    0.000
407.040; 2666.475;  191.675;    0.000
407.095; 2704.475;  190.675;    0.000
407.151; 2767.475;  196.675;    0.000
407.206; 2680.475;  184.675;    0.000
407.262; 2757.475;  167.675;    0.000
407.317; 2859.475;  199.675;    0.000
407.373; 2804.475;  211.675;    0.000
407.428; 2772.475;  202.675;    0.000
407.484; 2802.475;  172.675;    0.000
407.539; 2663.475;  171.675;    0.000
407.594; 2892.475;  219.675;    0.000
407.650; 2768.475;  179.675;    0.000
407.705; 2734.475;  141.675;    0.000
407.760; 2895.475;  182.675;    0.000
407.816; 2792.475;  203.675;    0.000
407.871; 2896.475;  219.675;    0.000
407.926; 2810.475;  197.675;    0.000
407.982; 2709.475;  176.675;    0.000
408.037; 2812.475;  187.675;    0.000
408.092; 2788.475;  161.675;    0.000
408.148; 2808.475;  185.675;    0.000
408.203; 2785.475;  196.675;    0.000
408.258; 2827.475;  188.675;    0.000
408.314; 2780.475;  225.675;    0.000
408.369; 2790.475;  172.675;    0.000
408.424; 2742.475;  204.675;    0.000
408.479; 2781.475;  182.675;    0.000
408.534; 2892.475;  220.675;    0.000
408.590; 2816.475;  196.675;    0.000
408.645; 2797.475;  170.675;    0.000
408.700; 2729.475;  204.675;    0.000
408.755; 2799.475;  219.675;    0.000
408.810; 2768.475;  174.675;    0.000
408.866; 2846.475;  212.675;    0.000
408.921; 2877.475;  233.675;    0.000
408.976; 2755.475;  198.675;    0.000
409.031; 2872.475;  179.675;    0.000
409.086; 2706.475;  181.675;    0.000
409.141; 2833.475;  192.675;    0.000
409.196; 2809.475;  172.675;    0.000
409.252; 2820.475;  199.675;    0.000
409.307; 2794.475;  159.675;    0.000
409.362; 2789.475;  158.675;    0.000
409.417; 2757.475;  164.675;    0.000
409.472; 2807.475;  186.675;    0.000
409.527; 2816.475;  215.675;    0.000
409.582; 2871.475;  227.675;    0.000
409.637; 2873.475;  211.675;    0.000
409.692; 2685.475;  224.675;    0.000
409.747; 2802.475;  147.675;    0.000
409.802; 2766.475;  203.675;    0.000
409.857; 2796.475;  203.675;    0.000
409.912; 2789.475;  219.675;    0.000
409.967; 2771.475;  200.675;    0.000
410.022; 2769.475;  199.675;    0.000
410.077; 2775.475;  171.675;    0.000
410.132; 2778.475;  193.675;    0.000
410.187; 2779.475;  167.675;    0.000
410.242; 2826.475;  188.675;    0.000
410.297; 2771.475;  195.675;    0.000
410.351; 2886.475;  225.675;    0.000
410.406; 2861.475;  188.675;    0.000
410.461; 2782.475;  197.675;    0.000
410.516; 2795.475;  212.675;    0.000
410.571; 2788.475;  173.675;    0.000
410.626; 2773.475;  180.675;    0.000
410.681; 2893.475;  198.675;    0.000
410.736; 2793.475;  190.675;    0.000
410.790; 2798.475;  204.675;    0.000
410.845; 2882.475;  214.675;    0.000
410.900; 2661.475;  184.675;    0.000
410.955; 2701.475;  231.675;    0.000
411.010; 2799.475;  211.675;    0.000
411.064; 2793.475;  204.675;    0.000
411.119; 2851.475;  219.675;    0.000
411.174; 2769.475;  208.675;    0.000
411.229; 2797.475;  207.675;    0.000
411.283; 2894.475;  199.675;    0.000
411.338; 2809.475;  198.675;    0.000
411.393; 2782.475;  155.675;    0.000
411.447; 2901.475;  200.675;    0.000
411.502; 2873.475;  229.675;    0.000
411.557; 2789.475;  197.675;    0.000
411.612; 2819.475;  171.675;    0.000
411.666; 2869.475;  201.675;    0.000
411.721; 2837.475;  174.675;    0.000
411.776; 2893.475;  222.675;    0.000
411.830; 2819.475;  150.675;    0.000
411.885; 2854.475;  169.675;    0.000
411.939; 2841.475;  216.675;    0.000
411.994; 2843.475;  215.675;    0.000
412.049; 2779.475;  219.675;    0.000
412.103; 2796.475;  225.675;    0.000
412.158; 2743.475;  216.675;    0.000
412.212; 2777.475;  218.675;    0.000
412.267; 2776.475;  219.675;    0.000
412.322; 2842.475;  235.675;    0.000
412.376; 2802.475;  208.675;    0.000
412.431; 2880.475;  232.675;    0.000
412.485; 2853.475;  223.675;    0.000
412.540; 2816.475;  217.675;    0.000
412.594; 2735.475;  195.675;    0.000
412.649; 2915.475;  236.675;    0.000
412.703; 2788.475;  216.675;    0.000
412.758; 2859.475;  201.675;    0.000
412.812; 2854.475;  176.675;    0.000
412.866; 2812.475;  179.675;    0.000
412.921; 2856.475;  196.675;    0.000
412.975; 2798.475;  238.675;    0.000
413.030; 2882.475;  272.675;    0.000
413.084; 2859.475;  208.675;    0.000
413.139; 2808.475;  201.675;    0.000
413.193; 2772.475;  198.675;    0.000
413.247; 2841.475;  213.675;    0.000
413.302; 2833.475;  202.675;    0.000
413.356; 2832.475;  184.675;    0.000
413.410; 2802.475;  202.675;    0.000
413.465; 2864.475;  145.675;    0.000
413.519; 2845.475;  200.675;    0.000
413.573; 2775.475;  197.675;    0.000
413.628; 2804.475;  224.675;    0.000
413.682; 2883.475;  211.675;    0.000
413.736; 2810.475;  202.675;    0.000
413.791; 2835.475;  228.675;    0.000
413.845; 2786.475;  184.675;    0.000
413.899; 2864.475;  226.675;    0.000
413.953; 2776.475;  213.675;    0.000
414.008; 2865.475;  175.675;    0.000
414.062; 2808.475;  216.675;    0.000
414.116; 2787.475;  206.675;    0.000
414.170; 2876.475;  229.675;    0.000
414.225; 2778.475;  196.675;    0.000
414.279; 2839.475;  199.675;    0.000
414.333; 2822.475;  220.675;    0.000
414.387; 2782.475;  217.675;    0.000
414.441; 2766.475;  206.675;    0.000
414.496; 2917.475;  264.675;    0.000
414.550; 2904.475;  217.675;    0.000
414.604; 2883.475;  224.675;    0.000
414.658; 2893.475;  156.675;    0.000
414.712; 2809.475;  203.675;    0.000
414.766; 2881.475;  216.675;    0.000
414.820; 2868.475;  218.675;    0.000
414.874; 2826.475;  240.675;    0.000
414.928; 2777.475;  204.675;    0.000
414.982; 2827.475;  195.675;    0.000
415.037; 2849.475;  212.675;    0.000
415.091; 2854.475;  211.675;    0.000
415.145; 2787.475;  230.675;    0.000
415.199; 2827.475;  208.675;    0.000
415.253; 2864.475;  213.675;    0.000
415.307; 2871.475;  208.675;    0.000
415.361; 2777.475;  193.675;    0.000
415.415; 2782.475;  207.675;    0.000
415.469; 2956.475;  214.675;    0.000
415.523; 2846.475;  226.675;    0.000
415.577; 2820.475;  194.675;    0.000
415.631; 2853.475;  258.675;    0.000
415.684; 2895.475;  239.675;    0.000
415.738; 2838.475;  191.675;    0.000
415.792; 2833.475;  185.675;    0.000
415.846; 2908.475;  239.675;    0.000
415.900; 2917.475;  209.675;    0.000
415.954; 2826.475;  215.675;    0.000
416.008; 2913.475;  229.675;    0.000
416.062; 2859.475;  200.675;    0.000
416.116; 2772.475;  195.675;    0.000
416.169; 2891.475;  238.675;    0.000
416.223; 2851.475;  271.675;    0.000
416.277; 2839.475;  232.675;    0.000
416.331; 2844.475;  226.675;    0.000
416.385; 2834.475;  207.675;    0.000
416.439; 2950.475;  221.675;    0.000
416.492; 2864.475;  269.675;    0.000
416.546; 2974.475;  254.675;    0.000
416.600; 2822.475;  225.675;    0.000
416.654; 2867.475;  269.675;    0.000
416.707; 2883.475;  232.675;    0.000
416.761; 2858.475;  226.675;    0.000
416.815; 2773.475;  219.675;    0.000
416.869; 2797.475;  234.675;    0.000
416.922; 2814.475;  230.675;    0.000
416.976; 2772.475;  216.675;    0.000
417.030; 2887.475;  271.675;    0.000
417.083; 2739.475;  229.675;    0.000
417.137; 2847.475;  249.675;    0.000
417.191; 2805.475;  241.675;    0.000
417.244; 2910.475;  230.675;    0.000
417.298; 2894.475;  215.675;    0.000
417.352; 2874.475;  188.675;    0.000
417.405; 2944.475;  248.675;    0.000
417.459; 2835.475;  256.675;    0.000
417.512; 2819.475;  263.675;    0.000
417.566; 2821.475;  227.675;    0.000
417.620; 2853.475;  270.675;    0.000
417.673; 2836.475;  216.675;    0.000
417.727; 2804.475;  234.675;    0.000
417.780; 2804.475;  215.675;    0.000
417.834; 2923.475;  203.675;    0.000
417.887; 2785.475;  257.675;    0.000
417.941; 2776.475;  216.675;    0.000
417.994; 2858.475;  245.675;    0.000
418.048; 2802.475;  209.675;    0.000
418.101; 2824.475;  207.675;    0.000
418.155; 2873.475;  204.675;    0.000
418.208; 2914.475;  270.675;    0.000
418.262; 2881.475;  228.675;    0.000
418.315; 2815.475;  254.675;    0.000
418.369; 2850.475;  245.675;    0.000
418.422; 2901.475;  224.675;    0.000
418.476; 2817.475;  221.675;    0.000
418.529; 2759.475;  234.675;    0.000
418.582; 2890.475;  249.675;    0.000
418.636; 2829.475;  224.675;    0.000
418.689; 2785.475;  228.675;    0.000
418.743; 2869.475;  240.675;    0.000
418.796; 2842.475;  197.675;    0.000
418.849; 2747.475;  220.675;    0.000
418.903; 2817.475;  246.675;    0.000
418.956; 2841.475;  250.675;    0.000
419.009; 2835.475;  276.675;    0.000
419.063; 2845.475;  232.675;    0.000
419.116; 2884.475;  228.675;    0.000
419.169; 2741.475;  249.675;    0.000
419.222; 2787.475;  215.675;    0.000
419.276; 2832.475;  228.675;    0.000
419.329; 2787.475;  246.675;    0.000
419.382; 2828.475;  188.675;    0.000
419.435; 2789.475;  240.675;    0.000
419.489; 2786.475;  261.675;    0.000
419.542; 2868.475;  224.675;    0.000
419.595; 2740.475;  251.675;    0.000
419.648; 2858.475;  236.675;    0.000
419.701; 2701.475;  244.675;    0.000
419.755; 2739.475;  242.675;    0.000
419.808; 2816.475;  242.675;    0.000
419.861; 2626.475;  189.675;    0.000
419.914; 2807.475;  258.675;    0.000
419.967; 2835.475;  230.675;    0.000
420.020; 2722.475;  223.675;    0.000
420.073; 2840.475;  221.675;    0.000
420.127; 2767.475;  252.675;    0.000
420.180; 2816.475;  219.675;    0.000
420.233; 2724.475;  201.675;    0.000
420.286; 2789.475;  221.675;    0.000
420.339; 2702.475;  250.675;    0.000
420.392; 2742.475;  268.675;    0.000
420.445; 2820.475;  223.675;    0.000
420.498; 2686.475;  240.675;    0.000
420.551; 2719.475;  220.675;    0.000
420.604; 2717.475;  231.675;    0.000
420.657; 2761.475;  228.675;    0.000
420.710; 2768.475;  219.675;    0.000
420.763; 2705.475;  280.675;    0.000
420.816; 2688.475;  202.675;    0.000
420.869; 2757.475;  219.675;    0.000
420.922; 2735.475;  218.675;    0.000
420.975; 2666.475;  237.675;    0.000
421.028; 2667.475;  242.675;    0.000
421.081; 2676.475;  247.675;    0.000
421.134; 2747.475;  239.675;    0.000
421.187; 2668.475;  229.675;    0.000
421.239; 2643.475;  200.675;    0.000
421.292; 2776.475;  205.675;    0.000
421.345; 2674.475;  219.675;    0.000
421.398; 2700.475;  187.675;    0.000
421.451; 2698.475;  226.675;    0.000
421.504; 2674.475;  206.675;    0.000
421.557; 2586.475;  226.675;    0.000
421.609; 2613.475;  209.675;    0.000
421.662; 2604.475;  229.675;    0.000
421.715; 2745.475;  231.675;    0.000
421.768; 2661.475;  215.675;    0.000
421.821; 2619.475;  211.675;    0.000
421.873; 2723.475;  220.675;    0.000
421.926; 2624.475;  212.675;    0.000
421.979; 2729.475;  209.675;    0.000
422.032; 2561.475;  203.675;    0.000
422.084; 2670.475;  213.675;    0.000
422.137; 2582.475;  196.675;    0.000
422.190; 2718.475;  246.675;    0.000
422.243; 2647.475;  194.675;    0.000
422.295; 2581.475;  225.675;    0.000
422.348; 2631.475;  248.675;    0.000
422.401; 2607.475;  252.675;    0.000
422.453; 2619.475;  249.675;    0.000
422.506; 2698.475;  233.675;    0.000
422.559; 2639.475;  228.675;    0.000
422.611; 2590.475;  224.675;    0.000
422.664; 2676.475;  226.675;    0.000
422.716; 2690.475;  226.675;    0.000
422.769; 2647.475;  216.675;    0.000
422.822; 2650.475;  256.675;    0.000
422.874; 2607.475;  206.675;    0.000
422.927; 2668.475;  257.675;    0.000
422.979; 2583.475;  209.675;    0.000
423.032; 2618.475;  244.675;    0.000
423.084; 2633.475;  244.675;    0.000
423.137; 2554.475;  213.675;    0.000
423.189; 2654.475;  208.675;    0.000
423.242; 2634.475;  226.675;    0.000
423.294; 2607.475;  250.675;    0.000
423.347; 2563.475;  206.675;    0.000
423.399; 2581.475;  268.675;    0.000
423.452; 2655.475;  262.675;    0.000
423.504; 2521.475;  237.675;    0.000
423.557; 2540.475;  245.675;    0.000
423.609; 2570.475;  211.675;    0.000
423.662; 2637.475;  222.675;    0.000
423.714; 2576.475;  219.675;    0.000
423.766; 2533.475;  250.675;    0.000
423.819; 2602.475;  220.675;    0.000
423.871; 2585.475;  229.675;    0.000
423.923; 2557.475;  219.675;    0.000
423.976; 2606.475;  221.675;    0.000
424.028; 2621.475;  211.675;    0.000
424.081; 2599.475;  254.675;    0.000
424.133; 2577.475;  230.675;    0.000
424.185; 2541.475;  241.675;    0.000
424.238; 2493.475;  182.675;    0.000
424.290; 2509.475;  215.675;    0.000
424.342; 2528.475;  235.675;    0.000
424.394; 2507.475;  225.675;    0.000
424.447; 2613.475;  264.675;    0.000
424.499; 2481.475;  225.675;    0.000
424.551; 2591.475;  237.675;    0.000
424.603; 2548.475;  219.675;    0.000
424.656; 2518.475;  240.675;    0.000
424.708; 2521.475;  266.675;    0.000
424.760; 2485.475;  230.675;    0.000
424.812; 2636.475;  284.675;    0.000
424.864; 2564.475;  189.675;    0.000
424.917; 2499.475;  226.675;    0.000
424.969; 2579.475;  253.675;    0.000
425.021; 2485.475;  233.675;    0.000
425.073; 2600.475;  246.675;    0.000
425.125; 2504.475;  238.675;    0.000
425.177; 2476.475;  253.675;    0.000
425.229; 2494.475;  254.675;    0.000
425.282; 2467.475;  252.675;    0.000
425.334; 2516.475;  261.675;    0.000
425.386; 2534.475;  227.675;    0.000
425.438; 2592.475;  246.675;    0.000
425.490; 2549.475;  249.675;    0.000
425.542; 2470.475;  236.675;    0.000
425.594; 2444.475;  236.675;    0.000
425.646; 2509.475;  237.675;    0.000
425.698; 2472.475;  271.675;    0.000
425.750; 2501.475;  240.675;    0.000
425.802; 2547.475;  238.675;    0.000
425.854; 2502.475;  256.675;    0.000
425.906; 2457.475;  230.675;    0.000
425.958; 2510.475;  231.675;    0.000
426.010; 2537.475;  268.675;    0.000
426.062; 2454.475;  227.675;    0.000
426.114; 2503.475;  234.675;    0.000
426.166; 2441.475;  239.675;    0.000
426.218; 2459.475;  255.675;    0.000
426.270; 2471.475;  196.675;    0.000
426.321; 2449.475;  231.675;    0.000
426.373; 2510.475;  199.675;    0.000
426.425; 2539.475;  245.675;    0.000
426.477; 2420.475;  259.675;    0.000
426.529; 2544.475;  274.675;    0.000
426.581; 2455.475;  221.675;    0.000
426.633; 2405.475;  231.675;    0.000
426.684; 2452.475;  248.675;    0.000
426.736; 2464.475;  237.675;    0.000
426.788; 2436.475;  191.675;    0.000
426.840; 2378.475;  180.675;    0.000
426.892; 2505.475;  259.675;    0.000
426.943; 2430.475;  256.675;    0.000
426.995; 2398.475;  212.675;    0.000
427.047; 2424.475;  233.675;    0.000
427.099; 2541.475;  222.675;    0.000
427.150; 2439.475;  203.675;    0.000
427.202; 2419.475;  218.675;    0.000
427.254; 2413.475;  198.675;    0.000
427.306; 2456.475;  248.675;    0.000
427.357; 2461.475;  239.675;    0.000
427.409; 2432.475;  193.675;    0.000
427.461; 2408.475;  215.675;    0.000
427.512; 2429.475;  251.675;    0.000
427.564; 2440.475;  210.675;    0.000
427.616; 2485.475;  251.675;    0.000
427.667; 2358.475;  246.675;    0.000
427.719; 2408.475;  227.675;    0.000
427.770; 2373.475;  247.675;    0.000
427.822; 2368.475;  261.675;    0.000
427.874; 2363.475;  231.675;    0.000
427.925; 2437.475;  231.675;    0.000
427.977; 2410.475;  243.675;    0.000
428.028; 2469.475;  249.675;    0.000
428.080; 2442.475;  224.675;    0.000
428.131; 2400.475;  247.675;    0.000
428.183; 2381.475;  213.675;    0.000
428.234; 2463.475;  213.675;    0.000
428.286; 2457.475;  224.675;    0.000
428.337; 2311.475;  212.675;    0.000
428.389; 2448.475;  231.675;    0.000
428.440; 2395.475;  248.675;    0.000
428.492; 2398.475;  242.675;    0.000
428.543; 2373.475;  220.675;    0.000
428.595; 2356.475;  212.675;    0.000
428.646; 2372.475;  231.675;    0.000
428.697; 2376.475;  232.675;    0.000
428.749; 2325.475;  231.675;    0.000
428.800; 2395.475;  270.675;    0.000
428.852; 2408.475;  266.675;    0.000
428.903; 2408.475;  215.675;    0.000
428.954; 2386.475;  200.675;    0.000
429.006; 2339.475;  247.675;    0.000
429.057; 2344.475;  247.675;    0.000
429.108; 2414.475;  193.675;    0.000
429.160; 2386.475;  249.675;    0.000
429.211; 2391.475;  228.675;    0.000
429.262; 2366.475;  243.675;    0.000
429.314; 2332.475;  227.675;    0.000
429.365; 2285.475;  242.675;    0.000
429.416; 2341.475;  240.675;    0.000
429.467; 2406.475;  222.675;    0.000
429.519; 2335.475;  233.675;    0.000
429.570; 2374.475;  223.675;    0.000
429.621; 2301.475;  257.675;    0.000
429.672; 2265.475;  220.675;    0.000
429.724; 2331.475;  203.675;    0.000
429.775; 2290.475;  242.675;    0.000
429.826; 2301.475;  195.675;    0.000
429.877; 2317.475;  248.675;    0.000
429.928; 2267.475;  226.675;    0.000
429.980; 2280.475;  189.675;    0.000
430.031; 2313.475;  223.675;    0.000
430.082; 2313.475;  217.675;    0.000
430.133; 2263.475;  210.675;    0.000
430.184; 2420.475;  271.675;    0.000
430.235; 2268.475;  190.675;    0.000
430.286; 2317.475;  233.675;    0.000
430.337; 2315.475;  232.675;    0.000
430.388; 2292.475;  221.675;    0.000
430.439; 2370.475;  221.675;    0.000
430.490; 2342.475;  229.675;    0.000
430.542; 2311.475;  196.675;    0.000
430.593; 2270.475;  214.675;    0.000
430.644; 2298.475;  224.675;    0.000
430.695; 2315.475;  216.675;    0.000
430.746; 2267.475;  228.675;    0.000
430.797; 2322.475;  190.675;    0.000
430.848; 2341.475;  231.675;    0.000
430.898; 2303.475;  232.675;    0.000
430.949; 2232.475;  224.675;    0.000
431.000; 2302.475;  236.675;    0.000
431.051; 2385.475;  251.675;    0.000
431.102; 2289.475;  205.675;    0.000
431.153; 2320.475;  212.675;    0.000
431.204; 2230.475;  200.675;    0.000
431.255; 2267.475;  220.675;    0.000
431.306; 2233.475;  223.675;    0.000
431.357; 2329.475;  240.675;    0.000
431.408; 2298.475;  232.675;    0.000
431.458; 2251.475;  204.675;    0.000
431.509; 2224.475;  196.675;    0.000
431.560; 2307.475;  243.675;    0.000
431.611; 2277.475;  222.675;    0.000
431.662; 2263.475;  246.675;    0.000
431.713; 2280.475;  188.675;    0.000
431.763; 2292.475;  226.675;    0.000
431.814; 2312.475;  239.675;    0.000
431.865; 2309.475;  245.675;    0.000
431.916; 2260.475;  173.675;    0.000
431.966; 2194.475;  220.675;    0.000
432.017; 2288.475;  247.675;    0.000
432.068; 2350.475;  241.675;    0.000
432.118; 2187.475;  220.675;    0.000
432.169; 2182.475;  244.675;    0.000
432.220; 2273.475;  246.675;    0.000
432.271; 2214.475;  203.675;    0.000
432.321; 2279.475;  244.675;    0.000
432.372; 2282.475;  254.675;    0.000
432.423; 2253.475;  224.675;    0.000
432.473; 2239.475;  211.675;    0.000
432.524; 2269.475;  227.675;    0.000
432.574; 2262.475;  228.675;    0.000
432.625; 2221.475;  223.675;    0.000
432.676; 2233.475;  220.675;    0.000
432.726; 2294.475;  257.675;    0.000
432.777; 2267.475;  257.675;    0.000
432.827; 2231.475;  240.675;    0.000
432.878; 2277.475;  219.675;    0.000
432.928; 2215.475;  234.675;    0.000
432.979; 2277.475;  226.675;    0.000
433.029; 2248.475;  216.675;    0.000
433.080; 2186.475;  232.675;    0.000
433.130; 2181.475;  257.675;    0.000
433.181; 2238.475;  243.675;    0.000
433.231; 2297.475;  239.675;    0.000
433.282; 2202.475;  232.675;    0.000
433.332; 2291.475;  256.675;    0.000
433.383; 2265.475;  268.675;    0.000
433.433; 2205.475;  291.675;    0.000
433.484; 2159.475;  263.675;    0.000
433.534; 2279.475;  248.675;    0.000
433.585; 2256.475;  244.675;    0.000
433.635; 2239.475;  242.675;    0.000
433.685; 2271.475;  243.675;    0.000
433.736; 2258.475;  283.675;    0.000
433.786; 2204.475;  264.675;    0.000
433.836; 2312.475;  282.675;    0.000
433.887; 2250.475;  265.675;    0.000
433.937; 2282.475;  255.675;    0.000
433.987; 2191.475;  245.675;    0.000
434.038; 2236.475;  276.675;    0.000
434.088; 2230.475;  249.675;    0.000
434.138; 2261.475;  260.675;    0.000
434.189; 2265.475;  241.675;    0.000
434.239; 2268.475;  232.675;    0.000
434.289; 2282.475;  272.675;    0.000
434.339; 2263.475;  288.675;    0.000
434.389; 2247.475;  258.675;    0.000
434.440; 2261.475;  244.675;    0.000
434.490; 2276.475;  288.675;    0.000
434.540; 2215.475;  252.675;    0.000
434.590; 2224.475;  256.675;    0.000
434.640; 2162.475;  259.675;    0.000
434.691; 2261.475;  220.675;    0.000
434.741; 2284.475;  238.675;    0.000
434.791; 2256.475;  276.675;    0.000
434.841; 2246.475;  256.675;    0.000
434.891; 2207.475;  297.675;    0.000
434.941; 2287.475;  290.675;    0.000
434.991; 2348.475;  261.675;    0.000
435.042; 2238.475;  300.675;    0.000
435.092; 2207.475;  248.675;    0.000
435.142; 2230.475;  246.675;    0.000
435.192; 2160.475;  201.675;    0.000
435.242; 2186.475;  234.675;    0.000
435.292; 2173.475;  266.675;    0.000
435.342; 2178.475;  250.675;    0.000
435.392; 2195.475;  279.675;    0.000
435.442; 2230.475;  242.675;    0.000
435.492; 2159.475;  265.675;    0.000
435.542; 2135.475;  243.675;    0.000
435.592; 2139.475;  243.675;    0.000
435.642; 2168.475;  241.675;    0.000
435.692; 2125.475;  263.675;    0.000
435.742; 2166.475;  264.675;    0.000
435.792; 2142.475;  291.675;    0.000
435.842; 2200.475;  257.675;    0.000
435.891; 2134.475;  224.675;    0.000
435.941; 2175.475;  243.675;    0.000
435.991; 2191.475;  300.675;    0.000
436.041; 2107.475;  197.675;    0.000
436.091; 2110.475;  238.675;    0.000
436.141; 2125.475;  222.675;    0.000
436.191; 2092.475;  249.675;    0.000
436.241; 2102.475;  208.675;    0.000
436.290; 2162.475;  282.675;    0.000
436.340; 2061.475;  233.675;    0.000
436.390; 2155.475;  223.675;    0.000
436.440; 2182.475;  252.675;    0.000
436.490; 2113.475;  254.675;    0.000
436.539; 2071.475;  271.675;    0.000
436.589; 2157.475;  248.675;    0.000
436.639; 2088.475;  235.675;    0.000
436.689; 2105.475;  238.675;    0.000
436.738; 2147.475;  267.675;    0.000
436.788; 2066.475;  239.675;    0.000
436.838; 2157.475;  244.675;    0.000
436.887; 2122.475;  265.675;    0.000
436.937; 2089.475;  261.675;    0.000
436.987; 2088.475;  235.675;    0.000
437.036; 2097.475;  267.675;    0.000
437.086; 2055.475;  258.675;    0.000
437.136; 2113.475;  250.675;    0.000
437.185; 2129.475;  214.675;    0.000
437.235; 2158.475;  257.675;    0.000
437.285; 2067.475;  259.675;    0.000
437.334; 2092.475;  241.675;    0.000
437.384; 2071.475;  231.675;    0.000
437.433; 2045.475;  239.675;    0.000
437.483; 2101.475;  260.675;    0.000
437.532; 2132.475;  277.675;    0.000
437.582; 2036.475;  268.675;    0.000
437.631; 2024.475;  239.675;    0.000
437.681; 2123.475;  251.675;    0.000
437.730; 2093.475;  246.675;    0.000
437.780; 1970.475;  226.675;    0.000
437.829; 2118.475;  256.675;    0.000
437.879; 2046.475;  239.675;    0.000
437.928; 2080.475;  253.675;    0.000
437.978; 2029.475;  245.675;    0.000
438.027; 2095.475;  277.675;    0.000
438.077; 2033.475;  248.675;    0.000
438.126; 2063.475;  201.675;    0.000
438.176; 1990.475;  220.675;    0.000
438.225; 2037.475;  250.675;    0.000
438.274; 2072.475;  234.675;    0.000
438.324; 2009.475;  276.675;    0.000
438.373; 1970.475;  226.675;    0.000
438.422; 2097.475;  228.675;    0.000
438.472; 2041.475;  225.675;    0.000
438.521; 1974.475;  227.675;    0.000
438.570; 2021.475;  242.675;    0.000
438.620; 2127.475;  277.675;    0.000
438.669; 1945.475;  256.675;    0.000
438.718; 2049.475;  248.675;    0.000
438.768; 1939.475;  225.675;    0.000
438.817; 1993.475;  229.675;    0.000
438.866; 2062.475;  218.675;    0.000
438.915; 2085.475;  256.675;    0.000
438.965; 1975.475;  242.675;    0.000
439.014; 2042.475;  260.675;    0.000
439.063; 1987.475;  238.675;    0.000
439.112; 1977.475;  209.675;    0.000
439.162; 2061.475;  258.675;    0.000
439.211; 1990.475;  275.675;    0.000
439.260; 2125.475;  238.675;    0.000
439.309; 2020.475;  237.675;    0.000
439.358; 2035.475;  252.675;    0.000
439.407; 2003.475;  239.675;    0.000
439.456; 2071.475;  211.675;    0.000
439.506; 2101.475;  261.675;    0.000
439.555; 1968.475;  274.675;    0.000
439.604; 2004.475;  262.675;    0.000
439.653; 2012.475;  245.675;    0.000
439.702; 1982.475;  247.675;    0.000
439.751; 2043.475;  228.675;    0.000
439.800; 2048.475;  253.675;    0.000
439.849; 2044.475;  219.675;    0.000
439.898; 2040.475;  246.675;    0.000
439.947; 2067.475;  229.675;    0.000
439.996; 2054.475;  274.675;    0.000
440.045; 1938.475;  224.675;    0.000
440.094; 1956.475;  225.675;    0.000
440.143; 2010.475;  277.675;    0.000
440.192; 2102.475;  252.675;    0.000
440.241; 2007.475;  253.675;    0.000
440.290; 1957.475;  242.675;    0.000
440.339; 2028.475;  220.675;    0.000
440.388; 1937.475;  244.675;    0.000
440.437; 2073.475;  268.675;    0.000
440.486; 2014.475;  242.675;    0.000
440.535; 2075.475;  269.675;    0.000
440.583; 2014.475;  258.675;    0.000
440.632; 2011.475;  286.675;    0.000
440.681; 2043.475;  238.675;    0.000
440.730; 2049.475;  271.675;    0.000
440.779; 1974.475;  226.675;    0.000
440.828; 1995.475;  213.675;    0.000
440.876; 2052.475;  207.675;    0.000
440.925; 2010.475;  247.675;    0.000
440.974; 1943.475;  229.675;    0.000
441.023; 2051.475;  227.675;    0.000
441.072; 2050.475;  222.675;    0.000
441.120; 2094.475;  273.675;    0.000
441.169; 1999.475;  263.675;    0.000
441.218; 1972.475;  264.675;    0.000
441.267; 2040.475;  287.675;    0.000
441.315; 2023.475;  251.675;    0.000
441.364; 2075.475;  252.675;    0.000
441.413; 2122.475;  227.675;    0.000
441.461; 1998.475;  198.675;    0.000
441.510; 2100.475;  273.675;    0.000
441.559; 2062.475;  245.675;    0.000
441.607; 2086.475;  218.675;    0.000
441.656; 2007.475;  261.675;    0.000
441.705; 2001.475;  259.675;    0.000
441.753; 1964.475;  272.675;    0.000
441.802; 2035.475;  246.675;    0.000
441.850; 2001.475;  255.675;    0.000
441.899; 2016.475;  236.675;    0.000
441.948; 2021.475;  267.675;    0.000
441.996; 1964.475;  246.675;    0.000
442.045; 2040.475;  279.675;    0.000
442.093; 2043.475;  251.675;    0.000
442.142; 2092.475;  274.675;    0.000
442.190; 2025.475;  279.675;    0.000
442.239; 2044.475;  295.675;    0.000
442.287; 1946.475;  229.675;    0.000
442.336; 1982.475;  265.675;    0.000
442.384; 2036.475;  219.675;    0.000
442.433; 2103.475;  287.675;    0.000
442.481; 1978.475;  271.675;    0.000
442.529; 2033.475;  262.675;    0.000
442.578; 2055.475;  282.675;    0.000
442.626; 2036.475;  245.675;    0.000
442.675; 2020.475;  283.675;    0.000
442.723; 1959.475;  247.675;    0.000
442.771; 2075.475;  221.675;    0.000
442.820; 2046.475;  253.675;    0.000
442.868; 1944.475;  204.675;    0.000
442.917; 1988.475;  263.675;    0.000
442.965; 2000.475;  255.675;    0.000
443.013; 2094.475;  282.675;    0.000
443.062; 1997.475;  258.675;    0.000
443.110; 1948.475;  268.675;    0.000
443.158; 1994.475;  247.675;    0.000
443.206; 1980.475;  243.675;    0.000
443.255; 2069.475;  271.675;    0.000
443.303; 1995.475;  279.675;    0.000
443.351; 1994.475;  264.675;    0.000
443.399; 1967.475;  245.675;    0.000
443.448; 2000.475;  259.675;    0.000
443.496; 2057.475;  281.675;    0.000
443.544; 1960.475;  213.675;    0.000
443.592; 2081.475;  290.675;    0.000
443.640; 2040.475;  270.675;    0.000
443.689; 2034.475;  229.675;    0.000
443.737; 2013.475;  254.675;    0.000
443.785; 2016.475;  234.675;    0.000
443.833; 2051.475;  287.675;    0.000
443.881; 2038.475;  229.675;    0.000
443.929; 2035.475;  260.675;    0.000
443.977; 2091.475;  265.675;    0.000
444.025; 1978.475;  257.675;    0.000
444.074; 2022.475;  245.675;    0.000
444.122; 2001.475;  282.675;    0.000
444.170; 2036.475;  240.675;    0.000
444.218; 2096.475;  270.675;    0.000
444.266; 2025.475;  254.675;    0.000
444.314; 2029.475;  264.675;    0.000
444.362; 2065.475;  287.675;    0.000
444.410; 1950.475;  236.675;    0.000
444.458; 2022.475;  273.675;    0.000
444.506; 2095.475;  235.675;    0.000
444.554; 2011.475;  242.675;    0.000
444.602; 2087.475;  283.675;    0.000
444.650; 2037.475;  266.675;    0.000
444.698; 2069.475;  248.675;    0.000
444.746; 2042.475;  247.675;    0.000
444.793; 2024.475;  211.675;    0.000
444.841; 2056.475;  259.675;    0.000
444.889; 2029.475;  253.675;    0.000
444.937; 2051.475;  248.675;    0.000
444.985; 2047.475;  233.675;    0.000
445.033; 2068.475;  245.675;    0.000
445.081; 1976.475;  243.675;    0.000
445.129; 1985.475;  238.675;    0.000
445.176; 1974.475;  204.675;    0.000
445.224; 2038.475;  262.675;    0.000
445.272; 2078.475;  256.675;    0.000
445.320; 2028.475;  235.675;    0.000
445.368; 2021.475;  251.675;    0.000
445.415; 2025.475;  250.675;    0.000
445.463; 1987.475;  225.675;    0.000
445.511; 1919.475;  226.675;    0.000
445.559; 1990.475;  251.675;    0.000
445.606; 1989.475;  213.675;    0.000
445.654; 1989.475;  261.675;    0.000
445.702; 1978.475;  222.675;    0.000
445.749; 2034.475;  257.675;    0.000
445.797; 1941.475;  263.675;    0.000
445.845; 1969.475;  218.675;    0.000
445.892; 1969.475;  228.675;    0.000
445.940; 1991.475;  249.675;    0.000
445.988; 1991.475;  276.675;    0.000
446.035; 1967.475;  229.675;    0.000
446.083; 2077.475;  255.675;    0.000
446.130; 1935.475;  200.675;    0.000
446.178; 1974.475;  256.675;    0.000
446.226; 2026.475;  238.675;    0.000
446.273; 1982.475;  250.675;    0.000
446.321; 1979.475;  233.675;    0.000
446.368; 1990.475;  244.675;    0.000
446.416; 1987.475;  214.675;    0.000
446.463; 1975.475;  225.675;    0.000
446.511; 1979.475;  253.675;    0.000
446.558; 1942.475;  246.675;    0.000
446.606; 2015.475;  238.675;    0.000
446.653; 1966.475;  215.675;    0.000
446.701; 2010.475;  248.675;    0.000
446.748; 1972.475;  258.675;    0.000
446.796; 1963.475;  259.675;    0.000
446.843; 1984.475;  269.675;    0.000
446.891; 1963.475;  259.675;    0.000
446.938; 1951.475;  226.675;    0.000
446.985; 2030.475;  225.675;    0.000
447.033; 1978.475;  269.675;    0.000
447.080; 1966.475;  258.675;    0.000
447.128; 2054.475;  225.675;    0.000
447.175; 1976.475;  259.675;    0.000
447.222; 1997.475;  238.675;    0.000
447.270; 2007.475;  250.675;    0.000
447.317; 1941.475;  217.675;    0.000
447.364; 1997.475;  262.675;    0.000
447.411; 2080.475;  269.675;    0.000
447.459; 1961.475;  251.675;    0.000
447.506; 1932.475;  227.675;    0.000
447.553; 1881.475;  250.675;    0.000
447.601; 2001.475;  251.675;    0.000
447.648; 1984.475;  276.675;    0.000
447.695; 2001.475;  229.675;    0.000
447.742; 2016.475;  245.675;    0.000
447.789; 1963.475;  243.675;    0.000
447.837; 2037.475;  267.675;    0.000
447.884; 1970.475;  246.675;    0.000
447.931; 1947.475;  266.675;    0.000
447.978; 1908.475;  242.675;    0.000
448.025; 1930.475;  267.675;    0.000
448.072; 2033.475;  257.675;    0.000
448.120; 1909.475;  279.675;    0.000
448.167; 2068.475;  275.675;    0.000
448.214; 1978.475;  241.675;    0.000
448.261; 1983.475;  271.675;    0.000
448.308; 1997.475;  256.675;    0.000
448.355; 1985.475;  253.675;    0.000
448.402; 1888.475;  267.675;    0.000
448.449; 2019.475;  252.675;    0.000
448.496; 1944.475;  241.675;    0.000
448.543; 1969.475;  250.675;    0.000
448.590; 1961.475;  288.675;    0.000
448.637; 1988.475;  255.675;    0.000
448.684; 2000.475;  284.675;    0.000
448.731; 1996.475;  244.675;    0.000
448.778; 1965.475;  257.675;    0.000
448.825; 1951.475;  252.675;    0.000
448.872; 1980.475;  205.675;    0.000
448.919; 2030.475;  244.675;    0.000
448.966; 1964.475;  278.675;    0.000
449.013; 1997.475;  262.675;    0.000
449.060; 1924.475;  278.675;    0.000
449.107; 1886.475;  248.675;    0.000
449.154; 1989.475;  230.675;    0.000
449.200; 1886.475;  211.675;    0.000
449.247; 1955.475;  283.675;    0.000
449.294; 1914.475;  251.675;    0.000
449.341; 1929.475;  280.675;    0.000
449.388; 1935.475;  247.675;    0.000
449.435; 1955.475;  267.675;    0.000
449.481; 1982.475;  303.675;    0.000
449.528; 1953.475;  279.675;    0.000
449.575; 1921.475;  226.675;    0.000
449.622; 1990.475;  263.675;    0.000
449.668; 1952.475;  249.675;    0.000
449.715; 1901.475;  257.675;    0.000
449.762; 1953.475;  251.675;    0.000
449.809; 1965.475;  289.675;    0.000
449.855; 1911.475;  239.675;    0.000
449.902; 1868.475;  262.675;    0.000
449.949; 1991.475;  262.675;    0.000
449.995; 2011.475;  265.675;    0.000
450.042; 1989.475;  280.675;    0.000
450.089; 1966.475;  277.675;    0.000
450.135; 1962.475;  285.675;    0.000
450.182; 2012.475;  275.675;    0.000
450.229; 1934.475;  278.675;    0.000
450.275; 1921.475;  288.675;    0.000
450.322; 1987.475;  238.675;    0.000
450.368; 2019.475;  276.675;    0.000
450.415; 1952.475;  295.675;    0.000
450.462; 1989.475;  283.675;    0.000
450.508; 1955.475;  264.675;    0.000
450.555; 1946.475;  275.675;    0.000
450.601; 1994.475;  278.675;    0.000
450.648; 1924.475;  251.675;    0.000
450.694; 1957.475;  237.675;    0.000
450.741; 2016.475;  280.675;    0.000
450.787; 1947.475;  279.675;    0.000
450.834; 2005.475;  287.675;    0.000
450.880; 1874.475;  265.675;    0.000
450.927; 1937.475;  270.675;    0.000
450.973; 1894.475;  308.675;    0.000
451.019; 1948.475;  253.675;    0.000
451.066; 1917.475;  261.675;    0.000
451.112; 1961.475;  276.675;    0.000
451.159; 1905.475;  235.675;    0.000
451.205; 1877.475;  284.675;    0.000
451.251; 1864.475;  264.675;    0.000
451.298; 1907.475;  262.675;    0.000
451.344; 1907.475;  278.675;    0.000
451.390; 2001.475;  273.675;    0.000
451.437; 1881.475;  272.675;    0.000
451.483; 1970.475;  302.675;    0.000
451.529; 1876.475;  255.675;    0.000
451.576; 1918.475;  287.675;    0.000
451.622; 1887.475;  254.675;    0.000
451.668; 1979.475;  260.675;    0.000
451.714; 1959.475;  289.675;    0.000
451.761; 1938.475;  273.675;    0.000
451.807; 1907.475;  307.675;    0.000
451.853; 1912.475;  281.675;    0.000
451.899; 1902.475;  246.675;    0.000
451.945; 1934.475;  258.675;    0.000
451.992; 2011.475;  276.675;    0.000
452.038; 1930.475;  287.675;    0.000
452.084; 1944.475;  288.675;    0.000
452.130; 1959.475;  259.675;    0.000
452.176; 1901.475;  265.675;    0.000
452.222; 1880.475;  222.675;    0.000
452.268; 1905.475;  271.675;    0.000
452.315; 1854.475;  258.675;    0.000
452.361; 1902.475;  233.675;    0.000
452.407; 1869.475;  270.675;    0.000
452.453; 1882.475;  261.675;    0.000
452.499; 1925.475;  279.675;    0.000
452.545; 1977.475;  269.675;    0.000
452.591; 1915.475;  288.675;    0.000
452.637; 1849.475;  279.675;    0.000
452.683; 1819.475;  232.675;    0.000
452.729; 1897.475;  285.675;    0.000
452.775; 1969.475;  280.675;    0.000
452.821; 1916.475;  260.675;    0.000
452.867; 1903.475;  239.675;    0.000
452.913; 1792.475;  240.675;    0.000
452.959; 1881.475;  214.675;    0.000
453.005; 1935.475;  266.675;    0.000
453.051; 1884.475;  258.675;    0.000
453.097; 1974.475;  253.675;    0.000
453.142; 1924.475;  244.675;    0.000
453.188; 1923.475;  241.675;    0.000
453.234; 1880.475;  257.675;    0.000
453.280; 1886.475;  231.675;    0.000
453.326; 1951.475;  240.675;    0.000
453.372; 1850.475;  208.675;    0.000
453.418; 1960.475;  266.675;    0.000
453.463; 1912.475;  232.675;    0.000
453.509; 1919.475;  221.675;    0.000
453.555; 1940.475;  268.675;    0.000
453.601; 1893.475;  242.675;    0.000
453.647; 1936.475;  283.675;    0.000
453.692; 1954.475;  242.675;    0.000
453.738; 1910.475;  294.675;    0.000
453.784; 1876.475;  256.675;    0.000
453.829; 1875.475;  267.675;    0.000
453.875; 1846.475;  233.675;    0.000
453.921; 1845.475;  247.675;    0.000
453.967; 1909.475;  249.675;    0.000
454.012; 1888.475;  274.675;    0.000
454.058; 1932.475;  249.675;    0.000
454.104; 1815.475;  272.675;    0.000
454.149; 1827.475;  277.675;    0.000
454.195; 1859.475;  256.675;    0.000
454.240; 1922.475;  263.675;    0.000
454.286; 1878.475;  276.675;    0.000
454.332; 1892.475;  290.675;    0.000
454.377; 1906.475;  274.675;    0.000
454.423; 1926.475;  282.675;    0.000
454.468; 1927.475;  275.675;    0.000
454.514; 1965.475;  270.675;    0.000
454.559; 1884.475;  249.675;    0.000
454.605; 1901.475;  241.675;    0.000
454.650; 1927.475;  269.675;    0.000
454.696; 1854.475;  253.675;    0.000
454.741; 1895.475;  279.675;    0.000
454.787; 1948.475;  252.675;    0.000
454.832; 1957.475;  246.675;    0.000
454.878; 1888.475;  264.675;    0.000
454.923; 1953.475;  268.675;    0.000
454.969; 1902.475;  253.675;    0.000
455.014; 2038.475;  264.675;    0.000
455.060; 1873.475;  265.675;    0.000
455.105; 1846.475;  270.675;    0.000
455.150; 1951.475;  284.675;    0.000
455.196; 1983.475;  278.675;    0.000
455.241; 1901.475;  248.675;    0.000
455.286; 1857.475;  274.675;    0.000
455.332; 1899.475;  269.675;    0.000
455.377; 1864.475;  218.675;    0.000
455.422; 1888.475;  261.675;    0.000
455.468; 2035.475;  278.675;    0.000
455.513; 1915.475;  235.675;    0.000
455.558; 1854.475;  232.675;    0.000
455.604; 1894.475;  285.675;    0.000
455.649; 1958.475;  264.675;    0.000
455.694; 1910.475;  235.675;    0.000
455.739; 1966.475;  265.675;    0.000
455.785; 1971.475;  266.675;    0.000
455.830; 1983.475;  272.675;    0.000
455.875; 1955.475;  256.675;    0.000
455.920; 1857.475;  191.675;    0.000
455.965; 1971.475;  280.675;    0.000
456.010; 2002.475;  267.675;    0.000
456.056; 1840.475;  270.675;    0.000
456.101; 1936.475;  248.675;    0.000
456.146; 1973.475;  287.675;    0.000
456.191; 1878.475;  280.675;    0.000
456.236; 1879.475;  229.675;    0.000
456.281; 1902.475;  241.675;    0.000
456.326; 1960.475;  248.675;    0.000
456.371; 1977.475;  233.675;    0.000
456.416; 1937.475;  284.675;    0.000
456.461; 1952.475;  256.675;    0.000
456.507; 1887.475;  250.675;    0.000
456.552; 1982.475;  290.675;    0.000
456.597; 1849.475;  260.675;    0.000
456.642; 1849.475;  252.675;    0.000
456.687; 1928.475;  272.675;    0.000
456.732; 1940.475;  303.675;    0.000
456.776; 1941.475;  269.675;    0.000
456.821; 1909.475;  256.675;    0.000
456.866; 1877.475;  278.675;    0.000
456.911; 1906.475;  230.675;    0.000
456.956; 1884.475;  275.675;    0.000
457.001; 1977.475;  248.675;    0.000
457.046; 1857.475;  222.675;    0.000
457.091; 1967.475;  251.675;    0.000
457.136; 1939.475;  231.675;    0.000
457.181; 1926.475;  245.675;    0.000
457.225; 1899.475;  262.675;    0.000
457.270; 1875.475;  277.675;    0.000
457.315; 1938.475;  235.675;    0.000
457.360; 1926.475;  231.675;    0.000
457.405; 1839.475;  214.675;    0.000
457.450; 1956.475;  255.675;    0.000
457.494; 1902.475;  220.675;    0.000
457.539; 1955.475;  257.675;    0.000
457.584; 1953.475;  279.675;    0.000
457.629; 1926.475;  249.675;    0.000
457.673; 1982.475;  237.675;    0.000
457.718; 1941.475;  232.675;    0.000
457.763; 1852.475;  278.675;    0.000
457.807; 1929.475;  279.675;    0.000
457.852; 1929.475;  246.675;    0.000
457.897; 1947.475;  284.675;    0.000
457.941; 1985.475;  272.675;    0.000
457.986; 1980.475;  285.675;    0.000
458.031; 1939.475;  235.675;    0.000
458.075; 2007.475;  299.675;    0.000
458.120; 2094.475;  284.675;    0.000
458.165; 1935.475;  212.675;    0.000
458.209; 1936.475;  254.675;    0.000
458.254; 1960.475;  257.675;    0.000
458.298; 1996.475;  265.675;    0.000
458.343; 1949.475;  278.675;    0.000
458.387; 2040.475;  316.675;    0.000
458.432; 2022.475;  279.675;    0.000
458.476; 2008.475;  272.675;    0.000
458.521; 1988.475;  240.675;    0.000
458.565; 1997.475;  307.675;    0.000
458.610; 1988.475;  246.675;    0.000
458.654; 1997.475;  275.675;    0.000
458.699; 1992.475;  288.675;    0.000
458.743; 2078.475;  244.675;    0.000
458.788; 2043.475;  245.675;    0.000
458.832; 2060.475;  277.675;    0.000
458.877; 2043.475;  285.675;    0.000
458.921; 2000.475;  216.675;    0.000
458.965; 2021.475;  260.675;    0.000
459.010; 2120.475;  284.675;    0.000
459.054; 2070.475;  272.675;    0.000
459.099; 2050.475;  262.675;    0.000
459.143; 2044.475;  276.675;    0.000
459.187; 1931.475;  258.675;    0.000
459.231; 2022.475;  278.675;    0.000
459.276; 2047.475;  262.675;    0.000
459.320; 2069.475;  291.675;    0.000
459.364; 2076.475;  294.675;    0.000
459.409; 2010.475;  269.675;    0.000
459.453; 2065.475;  257.675;    0.000
459.497; 2072.475;  283.675;    0.000
459.541; 2151.475;  275.675;    0.000
459.586; 2004.475;  261.675;    0.000
459.630; 2105.475;  284.675;    0.000
459.674; 2081.475;  244.675;    0.000
459.718; 2070.475;  309.675;    0.000
459.762; 2034.475;  281.675;    0.000
459.807; 2060.475;  250.675;    0.000
459.851; 2049.475;  286.675;    0.000
459.895; 2067.475;  230.675;    0.000
459.939; 2105.475;  262.675;    0.000
459.983; 2055.475;  250.675;    0.000
460.027; 2094.475;  275.675;    0.000
460.071; 2123.475;  301.675;    0.000
460.115; 2016.475;  279.675;    0.000
460.159; 2149.475;  301.675;    0.000
460.204; 2104.475;  287.675;    0.000
460.248; 2107.475;  293.675;    0.000
460.292; 2078.475;  310.675;    0.000
460.336; 2122.475;  263.675;    0.000
460.380; 2049.475;  268.675;    0.000
460.424; 2160.475;  281.675;    0.000
460.468; 2200.475;  310.675;    0.000
460.512; 2177.475;  273.675;    0.000
460.556; 2109.475;  291.675;    0.000
460.599; 2117.475;  240.675;    0.000
460.643; 2142.475;  260.675;    0.000
460.687; 2086.475;  283.675;    0.000
460.731; 2139.475;  254.675;    0.000
460.775; 2089.475;  265.675;    0.000
460.819; 2123.475;  280.675;    0.000
460.863; 2125.475;  316.675;    0.000
460.907; 2037.475;  231.675;    0.000
460.951; 2158.475;  275.675;    0.000
460.995; 2077.475;  290.675;    0.000
461.038; 2110.475;  284.675;    0.000
461.082; 2131.475;  278.675;    0.000
461.126; 2075.475;  321.675;    0.000
461.170; 2171.475;  273.675;    0.000
461.214; 2123.475;  289.675;    0.000
461.257; 2115.475;  296.675;    0.000
461.301; 2202.475;  287.675;    0.000
461.345; 2190.475;  290.675;    0.000
461.389; 2134.475;  260.675;    0.000
461.432; 2130.475;  262.675;    0.000
461.476; 2120.475;  254.675;    0.000
461.520; 2117.475;  305.675;    0.000
461.563; 2157.475;  289.675;    0.000
461.607; 2127.475;  286.675;    0.000
461.651; 2123.475;  271.675;    0.000
461.694; 2102.475;  245.675;    0.000
461.738; 2211.475;  278.675;    0.000
461.782; 2117.475;  284.675;    0.000
461.825; 2230.475;  305.675;    0.000
461.869; 2264.475;  293.675;    0.000
461.913; 2177.475;  280.675;    0.000
461.956; 2212.475;  237.675;    0.000
462.000; 2191.475;  288.675;    0.000
462.043; 2201.475;  282.675;    0.000
462.087; 2222.475;  268.675;    0.000
462.130; 2197.475;  286.675;    0.000
462.174; 2176.475;  312.675;    0.000
462.217; 2156.475;  270.675;    0.000
462.261; 2229.475;  281.675;    0.000
462.304; 2193.475;  248.675;    0.000
462.348; 2233.475;  267.675;    0.000
462.391; 2192.475;  270.675;    0.000
462.435; 2190.475;  287.675;    0.000
462.478; 2235.475;  290.675;    0.000
462.522; 2243.475;  296.675;    0.000
462.565; 2227.475;  275.675;    0.000
462.608; 2198.475;  325.675;    0.000
462.652; 2139.475;  303.675;    0.000
462.695; 2212.475;  355.675;    0.000
462.739; 2222.475;  272.675;    0.000
462.782; 2240.475;  295.675;    0.000
462.825; 2267.475;  300.675;    0.000
462.869; 2324.475;  319.675;    0.000
462.912; 2194.475;  363.675;    0.000
462.955; 2275.475;  298.675;    0.000
462.998; 2360.475;  321.675;    0.000
463.042; 2354.475;  310.675;    0.000
463.085; 2250.475;  305.675;    0.000
463.128; 2353.475;  345.675;    0.000
463.172; 2174.475;  341.675;    0.000
463.215;  376.475;  300.675;    0.000
463.258;  341.475;  287.675;    0.000
463.301;  273.475;  290.675;    0.000
463.344;  341.475;  320.675;    0.000
463.388;  327.475;  340.675;    0.000
463.431;  286.475;  278.675;    0.000
463.474;  339.475;  353.675;    0.000
463.517;  305.475;  295.675;    0.000
463.560;  349.475;  328.675;    0.000
463.603;  324.475;  316.675;    0.000
463.646;  303.475;  295.675;    0.000
463.690;  348.475;  334.675;    0.000
463.733;  327.475;  343.675;    0.000
463.776;  295.475;  300.675;    0.000
463.819;  318.475;  368.675;    0.000
463.862;  302.475;  327.675;    0.000

