
Integration time [ms]:   0.300
Averaging Nr. [scans]: 1
Smoothing Nr. [pixels]: 0
Data measured with spectrometer [name]: UV2
Wave   ;Sample   ;Dark     ;Reference
[nm]   ;[counts] ;[counts] ;[counts] 

353.533;  224.850;  235.675;    0.000
353.597;  224.850;  239.675;    0.000
353.660;  189.850;  203.675;    0.000
353.723;  227.850;  225.675;    0.000
353.786;  209.850;  178.675;    0.000
353.850;  222.850;  199.675;    0.000
353.913;  216.850;  179.675;    0.000
353.976;  196.850;  209.675;    0.000
354.039;  165.850;  188.675;    0.000
354.102;  212.850;  219.675;    0.000
354.166;  223.850;  237.675;    0.000
354.229;  208.850;  179.675;    0.000
354.292;  156.850;  210.675;    0.000
354.355;  184.850;  214.675;    0.000
354.418;  178.850;  173.675;    0.000
354.481;  231.850;  170.675;    0.000
354.545;  646.850;  229.675;    0.000
354.608;  680.850;  233.675;    0.000
354.671;  686.850;  183.675;    0.000
354.734;  691.850;  208.675;    0.000
354.797;  693.850;  263.675;    0.000
354.860;  733.850;  208.675;    0.000
354.923;  752.850;  202.675;    0.000
354.986;  785.850;  207.675;    0.000
355.050;  725.850;  180.675;    0.000
355.113;  784.850;  189.675;    0.000
355.176;  802.850;  214.675;    0.000
355.239;  828.850;  199.675;    0.000
355.302;  792.850;  229.675;    0.000
355.365;  818.850;  220.675;    0.000
355.428;  828.850;  196.675;    0.000
355.491;  835.850;  243.675;    0.000
355.554;  796.850;  191.675;    0.000
355.617;  870.850;  200.675;    0.000
355.680;  847.850;  190.675;    0.000
355.743;  828.850;  236.675;    0.000
355.806;  897.850;  193.675;    0.000
355.869;  892.850;  223.675;    0.000
355.932;  857.850;  208.675;    0.000
355.995;  933.850;  231.675;    0.000
356.058;  962.850;  202.675;    0.000
356.121;  890.850;  198.675;    0.000
356.184;  922.850;  209.675;    0.000
356.247;  912.850;  224.675;    0.000
356.310;  904.850;  149.675;    0.000
356.373;  879.850;  211.675;    0.000
356.436;  887.850;  195.675;    0.000
356.498;  919.850;  176.675;    0.000
356.561;  912.850;  186.675;    0.000
356.624;  906.850;  184.675;    0.000
356.687;  951.850;  179.675;    0.000
356.750;  935.850;  213.675;    0.000
356.813;  919.850;  172.675;    0.000
356.876;  924.850;  189.675;    0.000
356.939;  957.850;  204.675;    0.000
357.001;  993.850;  195.675;    0.000
357.064;  955.850;  202.675;    0.000
357.127;  971.850;  176.675;    0.000
357.190; 1000.850;  186.675;    0.000
357.253;  988.850;  178.675;    0.000
357.316;  974.850;  187.675;    0.000
357.378;  987.850;  181.675;    0.000
357.441;  901.850;  142.675;    0.000
357.504;  940.850;  161.675;    0.000
357.567;  908.850;  113.675;    0.000
357.629;  985.850;  193.675;    0.000
357.692;  977.850;  144.675;    0.000
357.755;  978.850;  177.675;    0.000
357.818;  956.850;  144.675;    0.000
357.880; 1040.850;  182.675;    0.000
357.943;  992.850;  166.675;    0.000
358.006;  982.850;  184.675;    0.000
358.069;  983.850;  200.675;    0.000
358.131;  996.850;  148.675;    0.000
358.194;  994.850;  155.675;    0.000
358.257;  960.850;  173.675;    0.000
358.319;  989.850;  178.675;    0.000
358.382;  957.850;  184.675;    0.000
358.445;  960.850;  156.675;    0.000
358.507;  997.850;  199.675;    0.000
358.570; 1042.850;  182.675;    0.000
358.633; 1028.850;  167.675;    0.000
358.695;  986.850;  124.675;    0.000
358.758; 1072.850;  164.675;    0.000
358.821;  990.850;  147.675;    0.000
358.883; 1041.850;  153.675;    0.000
358.946; 1028.850;  171.675;    0.000
359.008; 1099.850;  196.675;    0.000
359.071; 1086.850;  178.675;    0.000
359.134;  997.850;  123.675;    0.000
359.196; 1018.850;  166.675;    0.000
359.259; 1050.850;  173.675;    0.000
359.321; 1041.850;  164.675;    0.000
359.384; 1045.850;  155.675;    0.000
359.446; 1060.850;  157.675;    0.000
359.509; 1047.850;  153.675;    0.000
359.571; 1059.850;  184.675;    0.000
359.634; 1036.850;  138.675;    0.000
359.696; 1086.850;  169.675;    0.000
359.759; 1088.850;  152.675;    0.000
359.821; 1051.850;  150.675;    0.000
359.884; 1031.850;  166.675;    0.000
359.946; 1068.850;  165.675;    0.000
360.009; 1079.850;  176.675;    0.000
360.071; 1052.850;  148.675;    0.000
360.134; 1045.850;  193.675;    0.000
360.196; 1101.850;  151.675;    0.000
360.259; 1160.850;  182.675;    0.000
360.321; 1043.850;  168.675;    0.000
360.384; 1078.850;  176.675;    0.000
360.446; 1120.850;  156.675;    0.000
360.508; 1074.850;  183.675;    0.000
360.571; 1134.850;  193.675;    0.000
360.633; 1095.850;  184.675;    0.000
360.696; 1039.850;  136.675;    0.000
360.758; 1136.850;  186.675;    0.000
360.820; 1093.850;  127.675;    0.000
360.883; 1057.850;  146.675;    0.000
360.945; 1089.850;  144.675;    0.000
361.007; 1107.850;  160.675;    0.000
361.070; 1154.850;  175.675;    0.000
361.132; 1184.850;  195.675;    0.000
361.194; 1092.850;  167.675;    0.000
361.257; 1086.850;  140.675;    0.000
361.319; 1135.850;  154.675;    0.000
361.381; 1179.850;  181.675;    0.000
361.443; 1112.850;  137.675;    0.000
361.506; 1154.850;  159.675;    0.000
361.568; 1169.850;  144.675;    0.000
361.630; 1119.850;  189.675;    0.000
361.693; 1177.850;  162.675;    0.000
361.755; 1184.850;  156.675;    0.000
361.817; 1275.850;  225.675;    0.000
361.879; 1150.850;  172.675;    0.000
361.941; 1123.850;  138.675;    0.000
362.004; 1136.850;  163.675;    0.000
362.066; 1186.850;  164.675;    0.000
362.128; 1197.850;  160.675;    0.000
362.190; 1197.850;  168.675;    0.000
362.252; 1205.850;  177.675;    0.000
362.315; 1154.850;  169.675;    0.000
362.377; 1217.850;  188.675;    0.000
362.439; 1156.850;  158.675;    0.000
362.501; 1210.850;  168.675;    0.000
362.563; 1144.850;  168.675;    0.000
362.625; 1251.850;  188.675;    0.000
362.688; 1228.850;  162.675;    0.000
362.750; 1224.850;  209.675;    0.000
362.812; 1209.850;  154.675;    0.000
362.874; 1194.850;  190.675;    0.000
362.936; 1249.850;  190.675;    0.000
362.998; 1152.850;  143.675;    0.000
363.060; 1248.850;  186.675;    0.000
363.122; 1198.850;  167.675;    0.000
363.184; 1235.850;  163.675;    0.000
363.246; 1212.850;  169.675;    0.000
363.308; 1184.850;  165.675;    0.000
363.370; 1244.850;  177.675;    0.000
363.432; 1191.850;  139.675;    0.000
363.494; 1193.850;  177.675;    0.000
363.556; 1242.850;  164.675;    0.000
363.618; 1204.850;  170.675;    0.000
363.680; 1200.850;  146.675;    0.000
363.742; 1211.850;  179.675;    0.000
363.804; 1278.850;  188.675;    0.000
363.866; 1259.850;  186.675;    0.000
363.928; 1198.850;  147.675;    0.000
363.990; 1200.850;  185.675;    0.000
364.052; 1297.850;  197.675;    0.000
364.114; 1239.850;  150.675;    0.000
364.176; 1205.850;  217.675;    0.000
364.238; 1237.850;  159.675;    0.000
364.300; 1202.850;  192.675;    0.000
364.362; 1170.850;  130.675;    0.000
364.424; 1209.850;  131.675;    0.000
364.486; 1272.850;  178.675;    0.000
364.548; 1184.850;  203.675;    0.000
364.609; 1259.850;  192.675;    0.000
364.671; 1269.850;  169.675;    0.000
364.733; 1168.850;  169.675;    0.000
364.795; 1252.850;  157.675;    0.000
364.857; 1190.850;  171.675;    0.000
364.919; 1201.850;  134.675;    0.000
364.981; 1240.850;  162.675;    0.000
365.042; 1230.850;  136.675;    0.000
365.104; 1270.850;  152.675;    0.000
365.166; 1229.850;  149.675;    0.000
365.228; 1248.850;  195.675;    0.000
365.290; 1254.850;  147.675;    0.000
365.351; 1197.850;  138.675;    0.000
365.413; 1193.850;  168.675;    0.000
365.475; 1266.850;  150.675;    0.000
365.537; 1266.850;  179.675;    0.000
365.598; 1231.850;  177.675;    0.000
365.660; 1194.850;  149.675;    0.000
365.722; 1260.850;  160.675;    0.000
365.784; 1347.850;  175.675;    0.000
365.845; 1265.850;  149.675;    0.000
365.907; 1273.850;  154.675;    0.000
365.969; 1257.850;  128.675;    0.000
366.030; 1278.850;  176.675;    0.000
366.092; 1259.850;  181.675;    0.000
366.154; 1300.850;  194.675;    0.000
366.215; 1264.850;  149.675;    0.000
366.277; 1242.850;  144.675;    0.000
366.339; 1179.850;  160.675;    0.000
366.400; 1327.850;  144.675;    0.000
366.462; 1220.850;  145.675;    0.000
366.524; 1250.850;  148.675;    0.000
366.585; 1249.850;  128.675;    0.000
366.647; 1315.850;  156.675;    0.000
366.708; 1255.850;  128.675;    0.000
366.770; 1306.850;  188.675;    0.000
366.832; 1331.850;  170.675;    0.000
366.893; 1300.850;  158.675;    0.000
366.955; 1305.850;  150.675;    0.000
367.016; 1335.850;  160.675;    0.000
367.078; 1269.850;  144.675;    0.000
367.139; 1315.850;  109.675;    0.000
367.201; 1308.850;  155.675;    0.000
367.262; 1406.850;  165.675;    0.000
367.324; 1353.850;  180.675;    0.000
367.385; 1336.850;  150.675;    0.000
367.447; 1277.850;  164.675;    0.000
367.508; 1282.850;  137.675;    0.000
367.570; 1289.850;  174.675;    0.000
367.631; 1278.850;  126.675;    0.000
367.693; 1292.850;  153.675;    0.000
367.754; 1328.850;  194.675;    0.000
367.816; 1309.850;  154.675;    0.000
367.877; 1278.850;  183.675;    0.000
367.939; 1393.850;  179.675;    0.000
368.000; 1260.850;  142.675;    0.000
368.062; 1322.850;  147.675;    0.000
368.123; 1268.850;  155.675;    0.000
368.184; 1287.850;  169.675;    0.000
368.246; 1260.850;  145.675;    0.000
368.307; 1320.850;  165.675;    0.000
368.369; 1347.850;  177.675;    0.000
368.430; 1302.850;  161.675;    0.000
368.491; 1305.850;  156.675;    0.000
368.553; 1332.850;  156.675;    0.000
368.614; 1384.850;  186.675;    0.000
368.675; 1297.850;  154.675;    0.000
368.737; 1291.850;  162.675;    0.000
368.798; 1432.850;  202.675;    0.000
368.859; 1352.850;  162.675;    0.000
368.921; 1318.850;  171.675;    0.000
368.982; 1372.850;  193.675;    0.000
369.043; 1321.850;  207.675;    0.000
369.104; 1346.850;  143.675;    0.000
369.166; 1336.850;  203.675;    0.000
369.227; 1329.850;  125.675;    0.000
369.288; 1374.850;  154.675;    0.000
369.349; 1350.850;  187.675;    0.000
369.411; 1355.850;  191.675;    0.000
369.472; 1322.850;  175.675;    0.000
369.533; 1296.850;  180.675;    0.000
369.594; 1293.850;  161.675;    0.000
369.656; 1355.850;  169.675;    0.000
369.717; 1303.850;  103.675;    0.000
369.778; 1361.850;  159.675;    0.000
369.839; 1354.850;  146.675;    0.000
369.900; 1416.850;  218.675;    0.000
369.961; 1381.850;  200.675;    0.000
370.023; 1335.850;  177.675;    0.000
370.084; 1416.850;  149.675;    0.000
370.145; 1355.850;  179.675;    0.000
370.206; 1306.850;  179.675;    0.000
370.267; 1374.850;  166.675;    0.000
370.328; 1331.850;  164.675;    0.000
370.389; 1374.850;  162.675;    0.000
370.451; 1427.850;  179.675;    0.000
370.512; 1447.850;  181.675;    0.000
370.573; 1383.850;  173.675;    0.000
370.634; 1343.850;  162.675;    0.000
370.695; 1337.850;  167.675;    0.000
370.756; 1397.850;  177.675;    0.000
370.817; 1319.850;  178.675;    0.000
370.878; 1353.850;  152.675;    0.000
370.939; 1341.850;  185.675;    0.000
371.000; 1394.850;  173.675;    0.000
371.061; 1428.850;  176.675;    0.000
371.122; 1367.850;  169.675;    0.000
371.183; 1354.850;  116.675;    0.000
371.244; 1372.850;  174.675;    0.000
371.305; 1415.850;  152.675;    0.000
371.366; 1418.850;  168.675;    0.000
371.427; 1375.850;  188.675;    0.000
371.488; 1401.850;  180.675;    0.000
371.549; 1402.850;  145.675;    0.000
371.610; 1377.850;  160.675;    0.000
371.671; 1359.850;  164.675;    0.000
371.732; 1431.850;  158.675;    0.000
371.793; 1470.850;  162.675;    0.000
371.853; 1387.850;  130.675;    0.000
371.914; 1362.850;  172.675;    0.000
371.975; 1379.850;   98.675;    0.000
372.036; 1373.850;  161.675;    0.000
372.097; 1353.850;  143.675;    0.000
372.158; 1371.850;  175.675;    0.000
372.219; 1347.850;  196.675;    0.000
372.280; 1451.850;  175.675;    0.000
372.340; 1330.850;  160.675;    0.000
372.401; 1426.850;  163.675;    0.000
372.462; 1405.850;  147.675;    0.000
372.523; 1359.850;  146.675;    0.000
372.584; 1359.850;  173.675;    0.000
372.645; 1427.850;  126.675;    0.000
372.705; 1411.850;  179.675;    0.000
372.766; 1468.850;  173.675;    0.000
372.827; 1497.850;  171.675;    0.000
372.888; 1399.850;  134.675;    0.000
372.948; 1461.850;  167.675;    0.000
373.009; 1369.850;  167.675;    0.000
373.070; 1350.850;  152.675;    0.000
373.131; 1444.850;  177.675;    0.000
373.191; 1467.850;  225.675;    0.000
373.252; 1362.850;  165.675;    0.000
373.313; 1342.850;  171.675;    0.000
373.373; 1425.850;  160.675;    0.000
373.434; 1460.850;  172.675;    0.000
373.495; 1403.850;  150.675;    0.000
373.555; 1365.850;  130.675;    0.000
373.616; 1369.850;  155.675;    0.000
373.677; 1410.850;  212.675;    0.000
373.737; 1498.850;  188.675;    0.000
373.798; 1409.850;  203.675;    0.000
373.859; 1474.850;  169.675;    0.000
373.919; 1422.850;  197.675;    0.000
373.980; 1433.850;  134.675;    0.000
374.041; 1419.850;  186.675;    0.000
374.101; 1408.850;  207.675;    0.000
374.162; 1413.850;  190.675;    0.000
374.222; 1423.850;  182.675;    0.000
374.283; 1446.850;  213.675;    0.000
374.343; 1431.850;  191.675;    0.000
374.404; 1458.850;  181.675;    0.000
374.465; 1454.850;  193.675;    0.000
374.525; 1417.850;  153.675;    0.000
374.586; 1431.850;  190.675;    0.000
374.646; 1481.850;  173.675;    0.000
374.707; 1477.850;  210.675;    0.000
374.767; 1453.850;  218.675;    0.000
374.828; 1438.850;  174.675;    0.000
374.888; 1443.850;  197.675;    0.000
374.949; 1454.850;  196.675;    0.000
375.009; 1414.850;  169.675;    0.000
375.070; 1444.850;  157.675;    0.000
375.130; 1463.850;  203.675;    0.000
375.190; 1435.850;  174.675;    0.000
375.251; 1459.850;  230.675;    0.000
375.311; 1455.850;  198.675;    0.000
375.372; 1458.850;  160.675;    0.000
375.432; 1401.850;  169.675;    0.000
375.493; 1447.850;  159.675;    0.000
375.553; 1367.850;  179.675;    0.000
375.613; 1425.850;  157.675;    0.000
375.674; 1457.850;  174.675;    0.000
375.734; 1450.850;  180.675;    0.000
375.794; 1399.850;  175.675;    0.000
375.855; 1421.850;  193.675;    0.000
375.915; 1398.850;  148.675;    0.000
375.975; 1468.850;  183.675;    0.000
376.036; 1487.850;  144.675;    0.000
376.096; 1385.850;  195.675;    0.000
376.156; 1456.850;  200.675;    0.000
376.217; 1445.850;  160.675;    0.000
376.277; 1436.850;  193.675;    0.000
376.337; 1419.850;  168.675;    0.000
376.398; 1416.850;  183.675;    0.000
376.458; 1398.850;  168.675;    0.000
376.518; 1402.850;  184.675;    0.000
376.578; 1444.850;  176.675;    0.000
376.639; 1471.850;  158.675;    0.000
376.699; 1418.850;  157.675;    0.000
376.759; 1493.850;  184.675;    0.000
376.819; 1447.850;  166.675;    0.000
376.880; 1422.850;  220.675;    0.000
376.940; 1415.850;  195.675;    0.000
377.000; 1365.850;  178.675;    0.000
377.060; 1442.850;  212.675;    0.000
377.120; 1445.850;  161.675;    0.000
377.180; 1403.850;  168.675;    0.000
377.241; 1375.850;  167.675;    0.000
377.301; 1480.850;  171.675;    0.000
377.361; 1457.850;  174.675;    0.000
377.421; 1428.850;  216.675;    0.000
377.481; 1419.850;  164.675;    0.000
377.541; 1461.850;  163.675;    0.000
377.601; 1426.850;  197.675;    0.000
377.661; 1472.850;  175.675;    0.000
377.722; 1466.850;  196.675;    0.000
377.782; 1449.850;  162.675;    0.000
377.842; 1394.850;  179.675;    0.000
377.902; 1443.850;  140.675;    0.000
377.962; 1390.850;  121.675;    0.000
378.022; 1507.850;  174.675;    0.000
378.082; 1470.850;  167.675;    0.000
378.142; 1415.850;  151.675;    0.000
378.202; 1479.850;  174.675;    0.000
378.262; 1433.850;  168.675;    0.000
378.322; 1521.850;  183.675;    0.000
378.382; 1435.850;  159.675;    0.000
378.442; 1501.850;  177.675;    0.000
378.502; 1421.850;  137.675;    0.000
378.562; 1374.850;  140.675;    0.000
378.622; 1522.850;  197.675;    0.000
378.682; 1437.850;  205.675;    0.000
378.742; 1524.850;  160.675;    0.000
378.802; 1424.850;  132.675;    0.000
378.862; 1543.850;  222.675;    0.000
378.921; 1477.850;  178.675;    0.000
378.981; 1504.850;  160.675;    0.000
379.041; 1468.850;  136.675;    0.000
379.101; 1492.850;  184.675;    0.000
379.161; 1413.850;  147.675;    0.000
379.221; 1422.850;  139.675;    0.000
379.281; 1492.850;  204.675;    0.000
379.341; 1494.850;  142.675;    0.000
379.401; 1490.850;  136.675;    0.000
379.460; 1562.850;  161.675;    0.000
379.520; 1471.850;  171.675;    0.000
379.580; 1512.850;  168.675;    0.000
379.640; 1477.850;  183.675;    0.000
379.700; 1459.850;  182.675;    0.000
379.759; 1523.850;  190.675;    0.000
379.819; 1451.850;  149.675;    0.000
379.879; 1486.850;  140.675;    0.000
379.939; 1452.850;  155.675;    0.000
379.999; 1459.850;  199.675;    0.000
380.058; 1513.850;  163.675;    0.000
380.118; 1541.850;  190.675;    0.000
380.178; 1525.850;  220.675;    0.000
380.237; 1478.850;  181.675;    0.000
380.297; 1507.850;  187.675;    0.000
380.357; 1560.850;  193.675;    0.000
380.417; 1482.850;  157.675;    0.000
380.476; 1526.850;  176.675;    0.000
380.536; 1529.850;  180.675;    0.000
380.596; 1559.850;  191.675;    0.000
380.655; 1564.850;  190.675;    0.000
380.715; 1539.850;  180.675;    0.000
380.775; 1513.850;  202.675;    0.000
380.834; 1494.850;  190.675;    0.000
380.894; 1553.850;  163.675;    0.000
380.954; 1488.850;  181.675;    0.000
381.013; 1539.850;  218.675;    0.000
381.073; 1492.850;  181.675;    0.000
381.132; 1481.850;  193.675;    0.000
381.192; 1602.850;  209.675;    0.000
381.252; 1556.850;  206.675;    0.000
381.311; 1511.850;  173.675;    0.000
381.371; 1504.850;  188.675;    0.000
381.430; 1510.850;  162.675;    0.000
381.490; 1565.850;  168.675;    0.000
381.549; 1536.850;  213.675;    0.000
381.609; 1549.850;  194.675;    0.000
381.668; 1546.850;  190.675;    0.000
381.728; 1563.850;  183.675;    0.000
381.787; 1514.850;  172.675;    0.000
381.847; 1562.850;  198.675;    0.000
381.906; 1538.850;  197.675;    0.000
381.966; 1513.850;  201.675;    0.000
382.025; 1593.850;  219.675;    0.000
382.085; 1633.850;  194.675;    0.000
382.144; 1661.850;  187.675;    0.000
382.204; 1545.850;  196.675;    0.000
382.263; 1586.850;  168.675;    0.000
382.323; 1518.850;  135.675;    0.000
382.382; 1610.850;  173.675;    0.000
382.441; 1642.850;  155.675;    0.000
382.501; 1630.850;  168.675;    0.000
382.560; 1675.850;  200.675;    0.000
382.619; 1629.850;  155.675;    0.000
382.679; 1649.850;  198.675;    0.000
382.738; 1689.850;  211.675;    0.000
382.798; 1757.850;  214.675;    0.000
382.857; 1699.850;  146.675;    0.000
382.916; 1764.850;  183.675;    0.000
382.976; 1776.850;  173.675;    0.000
383.035; 1724.850;  165.675;    0.000
383.094; 1840.850;  173.675;    0.000
383.154; 1819.850;  143.675;    0.000
383.213; 1894.850;  173.675;    0.000
383.272; 1840.850;  166.675;    0.000
383.331; 1700.850;  154.675;    0.000
383.391; 1748.850;  232.675;    0.000
383.450; 1751.850;  185.675;    0.000
383.509; 1751.850;  204.675;    0.000
383.568; 1764.850;  197.675;    0.000
383.628; 1848.850;  171.675;    0.000
383.687; 1816.850;  202.675;    0.000
383.746; 1839.850;  116.675;    0.000
383.805; 1995.850;  156.675;    0.000
383.864; 1926.850;  150.675;    0.000
383.924; 1948.850;  195.675;    0.000
383.983; 1780.850;  157.675;    0.000
384.042; 1725.850;  184.675;    0.000
384.101; 1707.850;  210.675;    0.000
384.160; 1621.850;  123.675;    0.000
384.219; 1686.850;  191.675;    0.000
384.279; 1706.850;  184.675;    0.000
384.338; 1660.850;  172.675;    0.000
384.397; 1591.850;  153.675;    0.000
384.456; 1644.850;  181.675;    0.000
384.515; 1613.850;  171.675;    0.000
384.574; 1655.850;  172.675;    0.000
384.633; 1628.850;  174.675;    0.000
384.692; 1597.850;  178.675;    0.000
384.751; 1648.850;  180.675;    0.000
384.810; 1676.850;  161.675;    0.000
384.869; 1659.850;  162.675;    0.000
384.929; 1608.850;  157.675;    0.000
384.988; 1584.850;  153.675;    0.000
385.047; 1656.850;  178.675;    0.000
385.106; 1568.850;  164.675;    0.000
385.165; 1617.850;  127.675;    0.000
385.224; 1668.850;  156.675;    0.000
385.283; 1648.850;  178.675;    0.000
385.342; 1720.850;  177.675;    0.000
385.401; 1616.850;  178.675;    0.000
385.459; 1702.850;  177.675;    0.000
385.518; 1624.850;  152.675;    0.000
385.577; 1634.850;  133.675;    0.000
385.636; 1674.850;  204.675;    0.000
385.695; 1626.850;  161.675;    0.000
385.754; 1633.850;  190.675;    0.000
385.813; 1590.850;  160.675;    0.000
385.872; 1675.850;  138.675;    0.000
385.931; 1643.850;  192.675;    0.000
385.990; 1607.850;  158.675;    0.000
386.049; 1692.850;  187.675;    0.000
386.107; 1643.850;  140.675;    0.000
386.166; 1665.850;  139.675;    0.000
386.225; 1651.850;  182.675;    0.000
386.284; 1639.850;  123.675;    0.000
386.343; 1676.850;  207.675;    0.000
386.402; 1623.850;  150.675;    0.000
386.460; 1646.850;  185.675;    0.000
386.519; 1643.850;  145.675;    0.000
386.578; 1655.850;  153.675;    0.000
386.637; 1706.850;  153.675;    0.000
386.696; 1635.850;  189.675;    0.000
386.754; 1633.850;  128.675;    0.000
386.813; 1663.850;  202.675;    0.000
386.872; 1677.850;  152.675;    0.000
386.931; 1671.850;  166.675;    0.000
386.989; 1673.850;  194.675;    0.000
387.048; 1728.850;  176.675;    0.000
387.107; 1735.850;  203.675;    0.000
387.165; 1602.850;  136.675;    0.000
387.224; 1645.850;  193.675;    0.000
387.283; 1734.850;  157.675;    0.000
387.342; 1732.850;  194.675;    0.000
387.400; 1691.850;  191.675;    0.000
387.459; 1693.850;  142.675;    0.000
387.517; 1716.850;  202.675;    0.000
387.576; 1711.850;  164.675;    0.000
387.635; 1666.850;  147.675;    0.000
387.693; 1723.850;  199.675;    0.000
387.752; 1626.850;  181.675;    0.000
387.811; 1684.850;  161.675;    0.000
387.869; 1739.850;  184.675;    0.000
387.928; 1675.850;  175.675;    0.000
387.986; 1691.850;  143.675;    0.000
388.045; 1721.850;  146.675;    0.000
388.103; 1726.850;  164.675;    0.000
388.162; 1785.850;  170.675;    0.000
388.221; 1693.850;  169.675;    0.000
388.279; 1661.850;  151.675;    0.000
388.338; 1810.850;  175.675;    0.000
388.396; 1683.850;  170.675;    0.000
388.455; 1768.850;  193.675;    0.000
388.513; 1678.850;  134.675;    0.000
388.572; 1762.850;  201.675;    0.000
388.630; 1717.850;  181.675;    0.000
388.689; 1753.850;  165.675;    0.000
388.747; 1748.850;  164.675;    0.000
388.806; 1695.850;  155.675;    0.000
388.864; 1679.850;  172.675;    0.000
388.922; 1784.850;  190.675;    0.000
388.981; 1708.850;  170.675;    0.000
389.039; 1746.850;  142.675;    0.000
389.098; 1801.850;  177.675;    0.000
389.156; 1751.850;  184.675;    0.000
389.214; 1794.850;  197.675;    0.000
389.273; 1748.850;  141.675;    0.000
389.331; 1813.850;  145.675;    0.000
389.390; 1722.850;  160.675;    0.000
389.448; 1745.850;  142.675;    0.000
389.506; 1795.850;  192.675;    0.000
389.565; 1776.850;  176.675;    0.000
389.623; 1768.850;  174.675;    0.000
389.681; 1801.850;  184.675;    0.000
389.740; 1806.850;  193.675;    0.000
389.798; 1755.850;  130.675;    0.000
389.856; 1766.850;  224.675;    0.000
389.914; 1846.850;  223.675;    0.000
389.973; 1764.850;  164.675;    0.000
390.031; 1757.850;  198.675;    0.000
390.089; 1801.850;  177.675;    0.000
390.147; 1765.850;  158.675;    0.000
390.206; 1767.850;  213.675;    0.000
390.264; 1824.850;  178.675;    0.000
390.322; 1850.850;  181.675;    0.000
390.380; 1762.850;  148.675;    0.000
390.439; 1784.850;  185.675;    0.000
390.497; 1823.850;  208.675;    0.000
390.555; 1826.850;  175.675;    0.000
390.613; 1833.850;  178.675;    0.000
390.671; 1855.850;  190.675;    0.000
390.729; 1734.850;  172.675;    0.000
390.788; 1925.850;  194.675;    0.000
390.846; 1845.850;  187.675;    0.000
390.904; 1818.850;  207.675;    0.000
390.962; 1829.850;  211.675;    0.000
391.020; 1833.850;  218.675;    0.000
391.078; 1848.850;  179.675;    0.000
391.136; 1836.850;  223.675;    0.000
391.194; 1795.850;  209.675;    0.000
391.253; 1840.850;  217.675;    0.000
391.311; 1820.850;  217.675;    0.000
391.369; 1900.850;  217.675;    0.000
391.427; 1926.850;  253.675;    0.000
391.485; 1917.850;  176.675;    0.000
391.543; 1886.850;  252.675;    0.000
391.601; 1792.850;  168.675;    0.000
391.659; 1934.850;  206.675;    0.000
391.717; 1859.850;  172.675;    0.000
391.775; 1818.850;  170.675;    0.000
391.833; 1923.850;  196.675;    0.000
391.891; 1886.850;  180.675;    0.000
391.949; 1847.850;  201.675;    0.000
392.007; 1887.850;  196.675;    0.000
392.065; 1879.850;  191.675;    0.000
392.123; 1869.850;  158.675;    0.000
392.180; 1903.850;  192.675;    0.000
392.238; 1923.850;  186.675;    0.000
392.296; 1899.850;  150.675;    0.000
392.354; 1877.850;  175.675;    0.000
392.412; 1882.850;  219.675;    0.000
392.470; 1861.850;  200.675;    0.000
392.528; 1935.850;  177.675;    0.000
392.586; 1923.850;  169.675;    0.000
392.644; 1964.850;  155.675;    0.000
392.701; 2017.850;  215.675;    0.000
392.759; 2018.850;  218.675;    0.000
392.817; 1909.850;  178.675;    0.000
392.875; 1905.850;  190.675;    0.000
392.933; 1980.850;  197.675;    0.000
392.991; 1938.850;  179.675;    0.000
393.048; 1893.850;  205.675;    0.000
393.106; 1974.850;  229.675;    0.000
393.164; 1934.850;  167.675;    0.000
393.222; 1914.850;  156.675;    0.000
393.279; 2107.850;  203.675;    0.000
393.337; 2074.850;  216.675;    0.000
393.395; 2065.850;  180.675;    0.000
393.453; 2003.850;  163.675;    0.000
393.510; 1987.850;  194.675;    0.000
393.568; 1965.850;  207.675;    0.000
393.626; 1945.850;  200.675;    0.000
393.684; 1970.850;  234.675;    0.000
393.741; 1985.850;  197.675;    0.000
393.799; 1957.850;  201.675;    0.000
393.857; 1930.850;  185.675;    0.000
393.914; 1938.850;  200.675;    0.000
393.972; 1997.850;  181.675;    0.000
394.030; 2014.850;  188.675;    0.000
394.087; 1982.850;  202.675;    0.000
394.145; 1995.850;  214.675;    0.000
394.202; 1945.850;  204.675;    0.000
394.260; 2044.850;  178.675;    0.000
394.318; 2075.850;  208.675;    0.000
394.375; 1969.850;  183.675;    0.000
394.433; 2059.850;  175.675;    0.000
394.490; 1940.850;  170.675;    0.000
394.548; 1986.850;  161.675;    0.000
394.605; 2035.850;  196.675;    0.000
394.663; 2048.850;  191.675;    0.000
394.720; 2063.850;  179.675;    0.000
394.778; 2022.850;  193.675;    0.000
394.836; 2019.850;  160.675;    0.000
394.893; 2013.850;  152.675;    0.000
394.951; 1970.850;  179.675;    0.000
395.008; 2067.850;  185.675;    0.000
395.065; 2047.850;  154.675;    0.000
395.123; 2063.850;  176.675;    0.000
395.180; 2016.850;  202.675;    0.000
395.238; 2067.850;  135.675;    0.000
395.295; 2115.850;  178.675;    0.000
395.353; 2067.850;  181.675;    0.000
395.410; 2073.850;  160.675;    0.000
395.468; 2092.850;  179.675;    0.000
395.525; 2049.850;  187.675;    0.000
395.582; 2055.850;  221.675;    0.000
395.640; 2095.850;  220.675;    0.000
395.697; 2088.850;  174.675;    0.000
395.754; 2100.850;  177.675;    0.000
395.812; 2116.850;  193.675;    0.000
395.869; 2135.850;  220.675;    0.000
395.927; 2151.850;  206.675;    0.000
395.984; 2130.850;  213.675;    0.000
396.041; 2070.850;  194.675;    0.000
396.098; 2116.850;  144.675;    0.000
396.156; 2069.850;  168.675;    0.000
396.213; 2111.850;  181.675;    0.000
396.270; 2067.850;  186.675;    0.000
396.328; 2125.850;  165.675;    0.000
396.385; 2102.850;  192.675;    0.000
396.442; 2048.850;  196.675;    0.000
396.499; 2083.850;  162.675;    0.000
396.557; 2135.850;  177.675;    0.000
396.614; 2104.850;  184.675;    0.000
396.671; 2129.850;  180.675;    0.000
396.728; 2144.850;  194.675;    0.000
396.785; 2105.850;  173.675;    0.000
396.843; 2177.850;  154.675;    0.000
396.900; 2224.850;  200.675;    0.000
396.957; 2202.850;  158.675;    0.000
397.014; 2148.850;  203.675;    0.000
397.071; 2188.850;  178.675;    0.000
397.128; 2188.850;  201.675;    0.000
397.186; 2164.850;  200.675;    0.000
397.243; 2161.850;  187.675;    0.000
397.300; 2162.850;  173.675;    0.000
397.357; 2212.850;  189.675;    0.000
397.414; 2152.850;  202.675;    0.000
397.471; 2194.850;  156.675;    0.000
397.528; 2188.850;  197.675;    0.000
397.585; 2147.850;  174.675;    0.000
397.642; 2206.850;  202.675;    0.000
397.699; 2240.850;  197.675;    0.000
397.756; 2153.850;  188.675;    0.000
397.814; 2246.850;  210.675;    0.000
397.871; 2203.850;  203.675;    0.000
397.928; 2213.850;  189.675;    0.000
397.985; 2148.850;  192.675;    0.000
398.042; 2210.850;  198.675;    0.000
398.099; 2199.850;  181.675;    0.000
398.156; 2207.850;  201.675;    0.000
398.212; 2272.850;  216.675;    0.000
398.269; 2202.850;  206.675;    0.000
398.326; 2347.850;  213.675;    0.000
398.383; 2217.850;  168.675;    0.000
398.440; 2295.850;  184.675;    0.000
398.497; 2270.850;  194.675;    0.000
398.554; 2201.850;  219.675;    0.000
398.611; 2255.850;  190.675;    0.000
398.668; 2206.850;  138.675;    0.000
398.725; 2251.850;  170.675;    0.000
398.782; 2343.850;  223.675;    0.000
398.839; 2328.850;  211.675;    0.000
398.895; 2343.850;  173.675;    0.000
398.952; 2231.850;  207.675;    0.000
399.009; 2237.850;  173.675;    0.000
399.066; 2335.850;  171.675;    0.000
399.123; 2336.850;  189.675;    0.000
399.180; 2315.850;  170.675;    0.000
399.236; 2321.850;  193.675;    0.000
399.293; 2342.850;  222.675;    0.000
399.350; 2425.850;  195.675;    0.000
399.407; 2404.850;  214.675;    0.000
399.463; 2373.850;  181.675;    0.000
399.520; 2378.850;  168.675;    0.000
399.577; 2431.850;  231.675;    0.000
399.634; 2382.850;  215.675;    0.000
399.690; 2378.850;  177.675;    0.000
399.747; 2410.850;  212.675;    0.000
399.804; 2435.850;  208.675;    0.000
399.861; 2435.850;  225.675;    0.000
399.917; 2479.850;  191.675;    0.000
399.974; 2369.850;  182.675;    0.000
400.031; 2383.850;  218.675;    0.000
400.087; 2381.850;  202.675;    0.000
400.144; 2415.850;  192.675;    0.000
400.201; 2383.850;  187.675;    0.000
400.257; 2330.850;  193.675;    0.000
400.314; 2523.850;  185.675;    0.000
400.370; 2440.850;  201.675;    0.000
400.427; 2441.850;  208.675;    0.000
400.484; 2481.850;  201.675;    0.000
400.540; 2537.850;  204.675;    0.000
400.597; 2361.850;  210.675;    0.000
400.653; 2406.850;  224.675;    0.000
400.710; 2412.850;  196.675;    0.000
400.766; 2412.850;  224.675;    0.000
400.823; 2376.850;  210.675;    0.000
400.879; 2460.850;  213.675;    0.000
400.936; 2315.850;  182.675;    0.000
400.993; 2418.850;  184.675;    0.000
401.049; 2414.850;  216.675;    0.000
401.105; 2454.850;  235.675;    0.000
401.162; 2354.850;  196.675;    0.000
401.218; 2449.850;  221.675;    0.000
401.275; 2315.850;  216.675;    0.000
401.331; 2353.850;  198.675;    0.000
401.388; 2473.850;  205.675;    0.000
401.444; 2307.850;  154.675;    0.000
401.501; 2400.850;  208.675;    0.000
401.557; 2383.850;  162.675;    0.000
401.614; 2412.850;  157.675;    0.000
401.670; 2396.850;  198.675;    0.000
401.726; 2421.850;  195.675;    0.000
401.783; 2338.850;  186.675;    0.000
401.839; 2387.850;  205.675;    0.000
401.895; 2356.850;  202.675;    0.000
401.952; 2378.850;  143.675;    0.000
402.008; 2414.850;  177.675;    0.000
402.064; 2297.850;  177.675;    0.000
402.121; 2399.850;  194.675;    0.000
402.177; 2420.850;  181.675;    0.000
402.233; 2429.850;  205.675;    0.000
402.290; 2469.850;  190.675;    0.000
402.346; 2390.850;  190.675;    0.000
402.402; 2355.850;  151.675;    0.000
402.458; 2384.850;  194.675;    0.000
402.515; 2482.850;  212.675;    0.000
402.571; 2448.850;  209.675;    0.000
402.627; 2383.850;  199.675;    0.000
402.683; 2419.850;  213.675;    0.000
402.740; 2334.850;  165.675;    0.000
402.796; 2353.850;  168.675;    0.000
402.852; 2408.850;  200.675;    0.000
402.908; 2447.850;  193.675;    0.000
402.964; 2505.850;  166.675;    0.000
403.021; 2473.850;  196.675;    0.000
403.077; 2500.850;  212.675;    0.000
403.133; 2338.850;  186.675;    0.000
403.189; 2415.850;  206.675;    0.000
403.245; 2390.850;  207.675;    0.000
403.301; 2466.850;  204.675;    0.000
403.357; 2494.850;  246.675;    0.000
403.414; 2453.850;  227.675;    0.000
403.470; 2447.850;  207.675;    0.000
403.526; 2457.850;  171.675;    0.000
403.582; 2533.850;  200.675;    0.000
403.638; 2601.850;  213.675;    0.000
403.694; 2502.850;  239.675;    0.000
403.750; 2471.850;  221.675;    0.000
403.806; 2496.850;  197.675;    0.000
403.862; 2488.850;  222.675;    0.000
403.918; 2350.850;  174.675;    0.000
403.974; 2457.850;  183.675;    0.000
404.030; 2433.850;  184.675;    0.000
404.086; 2484.850;  170.675;    0.000
404.142; 2494.850;  215.675;    0.000
404.198; 2551.850;  189.675;    0.000
404.254; 2466.850;  195.675;    0.000
404.310; 2460.850;  206.675;    0.000
404.366; 2476.850;  179.675;    0.000
404.422; 2553.850;  197.675;    0.000
404.478; 2441.850;  176.675;    0.000
404.534; 2475.850;  165.675;    0.000
404.590; 2410.850;  203.675;    0.000
404.646; 2440.850;  195.675;    0.000
404.701; 2414.850;  180.675;    0.000
404.757; 2468.850;  218.675;    0.000
404.813; 2507.850;  160.675;    0.000
404.869; 2517.850;  213.675;    0.000
404.925; 2540.850;  171.675;    0.000
404.981; 2521.850;  194.675;    0.000
405.037; 2462.850;  211.675;    0.000
405.092; 2493.850;  158.675;    0.000
405.148; 2566.850;  140.675;    0.000
405.204; 2514.850;  161.675;    0.000
405.260; 2542.850;  161.675;    0.000
405.316; 2385.850;  155.675;    0.000
405.371; 2552.850;  151.675;    0.000
405.427; 2509.850;  186.675;    0.000
405.483; 2565.850;  206.675;    0.000
405.539; 2633.850;  162.675;    0.000
405.594; 2552.850;  205.675;    0.000
405.650; 2460.850;  153.675;    0.000
405.706; 2530.850;  185.675;    0.000
405.761; 2544.850;  205.675;    0.000
405.817; 2564.850;  185.675;    0.000
405.873; 2578.850;  160.675;    0.000
405.928; 2538.850;  182.675;    0.000
405.984; 2573.850;  206.675;    0.000
406.040; 2560.850;  200.675;    0.000
406.095; 2564.850;  138.675;    0.000
406.151; 2539.850;  178.675;    0.000
406.207; 2641.850;  225.675;    0.000
406.262; 2480.850;  161.675;    0.000
406.318; 2650.850;  186.675;    0.000
406.374; 2584.850;  173.675;    0.000
406.429; 2547.850;  197.675;    0.000
406.485; 2644.850;  260.675;    0.000
406.540; 2652.850;  184.675;    0.000
406.596; 2621.850;  193.675;    0.000
406.651; 2672.850;  176.675;    0.000
406.707; 2671.850;  158.675;    0.000
406.763; 2582.850;  174.675;    0.000
406.818; 2658.850;  188.675;    0.000
406.874; 2630.850;  176.675;    0.000
406.929; 2724.850;  220.675;    0.000
406.985; 2691.850;  167.675;    0.000
407.040; 2767.850;  191.675;    0.000
407.095; 2687.850;  190.675;    0.000
407.151; 2713.850;  196.675;    0.000
407.206; 2722.850;  184.675;    0.000
407.262; 2749.850;  167.675;    0.000
407.317; 2797.850;  199.675;    0.000
407.373; 2825.850;  211.675;    0.000
407.428; 2854.850;  202.675;    0.000
407.484; 2759.850;  172.675;    0.000
407.539; 2742.850;  171.675;    0.000
407.594; 2794.850;  219.675;    0.000
407.650; 2804.850;  179.675;    0.000
407.705; 2749.850;  141.675;    0.000
407.760; 2843.850;  182.675;    0.000
407.816; 2801.850;  203.675;    0.000
407.871; 2851.850;  219.675;    0.000
407.926; 2652.850;  197.675;    0.000
407.982; 2684.850;  176.675;    0.000
408.037; 2761.850;  187.675;    0.000
408.092; 2838.850;  161.675;    0.000
408.148; 2729.850;  185.675;    0.000
408.203; 2738.850;  196.675;    0.000
408.258; 2722.850;  188.675;    0.000
408.314; 2772.850;  225.675;    0.000
408.369; 2685.850;  172.675;    0.000
408.424; 2746.850;  204.675;    0.000
408.479; 2825.850;  182.675;    0.000
408.534; 2767.850;  220.675;    0.000
408.590; 2760.850;  196.675;    0.000
408.645; 2728.850;  170.675;    0.000
408.700; 2821.850;  204.675;    0.000
408.755; 2764.850;  219.675;    0.000
408.810; 2675.850;  174.675;    0.000
408.866; 2768.850;  212.675;    0.000
408.921; 2780.850;  233.675;    0.000
408.976; 2718.850;  198.675;    0.000
409.031; 2766.850;  179.675;    0.000
409.086; 2701.850;  181.675;    0.000
409.141; 2716.850;  192.675;    0.000
409.196; 2738.850;  172.675;    0.000
409.252; 2649.850;  199.675;    0.000
409.307; 2761.850;  159.675;    0.000
409.362; 2786.850;  158.675;    0.000
409.417; 2632.850;  164.675;    0.000
409.472; 2843.850;  186.675;    0.000
409.527; 2806.850;  215.675;    0.000
409.582; 2780.850;  227.675;    0.000
409.637; 2783.850;  211.675;    0.000
409.692; 2786.850;  224.675;    0.000
409.747; 2741.850;  147.675;    0.000
409.802; 2749.850;  203.675;    0.000
409.857; 2738.850;  203.675;    0.000
409.912; 2765.850;  219.675;    0.000
409.967; 2759.850;  200.675;    0.000
410.022; 2744.850;  199.675;    0.000
410.077; 2722.850;  171.675;    0.000
410.132; 2783.850;  193.675;    0.000
410.187; 2694.850;  167.675;    0.000
410.242; 2741.850;  188.675;    0.000
410.297; 2762.850;  195.675;    0.000
410.351; 2689.850;  225.675;    0.000
410.406; 2727.850;  188.675;    0.000
410.461; 2767.850;  197.675;    0.000
410.516; 2770.850;  212.675;    0.000
410.571; 2827.850;  173.675;    0.000
410.626; 2714.850;  180.675;    0.000
410.681; 2813.850;  198.675;    0.000
410.736; 2719.850;  190.675;    0.000
410.790; 2723.850;  204.675;    0.000
410.845; 2783.850;  214.675;    0.000
410.900; 2787.850;  184.675;    0.000
410.955; 2826.850;  231.675;    0.000
411.010; 2749.850;  211.675;    0.000
411.064; 2723.850;  204.675;    0.000
411.119; 2763.850;  219.675;    0.000
411.174; 2825.850;  208.675;    0.000
411.229; 2797.850;  207.675;    0.000
411.283; 2748.850;  199.675;    0.000
411.338; 2727.850;  198.675;    0.000
411.393; 2761.850;  155.675;    0.000
411.447; 2768.850;  200.675;    0.000
411.502; 2834.850;  229.675;    0.000
411.557; 2768.850;  197.675;    0.000
411.612; 2789.850;  171.675;    0.000
411.666; 2778.850;  201.675;    0.000
411.721; 2716.850;  174.675;    0.000
411.776; 2787.850;  222.675;    0.000
411.830; 2754.850;  150.675;    0.000
411.885; 2816.850;  169.675;    0.000
411.939; 2807.850;  216.675;    0.000
411.994; 2770.850;  215.675;    0.000
412.049; 2809.850;  219.675;    0.000
412.103; 2863.850;  225.675;    0.000
412.158; 2922.850;  216.675;    0.000
412.212; 2781.850;  218.675;    0.000
412.267; 2775.850;  219.675;    0.000
412.322; 2926.850;  235.675;    0.000
412.376; 2791.850;  208.675;    0.000
412.431; 2809.850;  232.675;    0.000
412.485; 2848.850;  223.675;    0.000
412.540; 2785.850;  217.675;    0.000
412.594; 2835.850;  195.675;    0.000
412.649; 2819.850;  236.675;    0.000
412.703; 2842.850;  216.675;    0.000
412.758; 2774.850;  201.675;    0.000
412.812; 2734.850;  176.675;    0.000
412.866; 2803.850;  179.675;    0.000
412.921; 2719.850;  196.675;    0.000
412.975; 2817.850;  238.675;    0.000
413.030; 2731.850;  272.675;    0.000
413.084; 2815.850;  208.675;    0.000
413.139; 2803.850;  201.675;    0.000
413.193; 2847.850;  198.675;    0.000
413.247; 2798.850;  213.675;    0.000
413.302; 2811.850;  202.675;    0.000
413.356; 2831.850;  184.675;    0.000
413.410; 2783.850;  202.675;    0.000
413.465; 2807.850;  145.675;    0.000
413.519; 2751.850;  200.675;    0.000
413.573; 2785.850;  197.675;    0.000
413.628; 2797.850;  224.675;    0.000
413.682; 2837.850;  211.675;    0.000
413.736; 2753.850;  202.675;    0.000
413.791; 2901.850;  228.675;    0.000
413.845; 2712.850;  184.675;    0.000
413.899; 2768.850;  226.675;    0.000
413.953; 2794.850;  213.675;    0.000
414.008; 2774.850;  175.675;    0.000
414.062; 2778.850;  216.675;    0.000
414.116; 2798.850;  206.675;    0.000
414.170; 2708.850;  229.675;    0.000
414.225; 2747.850;  196.675;    0.000
414.279; 2819.850;  199.675;    0.000
414.333; 2857.850;  220.675;    0.000
414.387; 2827.850;  217.675;    0.000
414.441; 2798.850;  206.675;    0.000
414.496; 2803.850;  264.675;    0.000
414.550; 2887.850;  217.675;    0.000
414.604; 2834.850;  224.675;    0.000
414.658; 2735.850;  156.675;    0.000
414.712; 2795.850;  203.675;    0.000
414.766; 2805.850;  216.675;    0.000
414.820; 2753.850;  218.675;    0.000
414.874; 2953.850;  240.675;    0.000
414.928; 2803.850;  204.675;    0.000
414.982; 2843.850;  195.675;    0.000
415.037; 2782.850;  212.675;    0.000
415.091; 2802.850;  211.675;    0.000
415.145; 2808.850;  230.675;    0.000
415.199; 2757.850;  208.675;    0.000
415.253; 2777.850;  213.675;    0.000
415.307; 2899.850;  208.675;    0.000
415.361; 2769.850;  193.675;    0.000
415.415; 2778.850;  207.675;    0.000
415.469; 2862.850;  214.675;    0.000
415.523; 2810.850;  226.675;    0.000
415.577; 2839.850;  194.675;    0.000
415.631; 2922.850;  258.675;    0.000
415.684; 2781.850;  239.675;    0.000
415.738; 2791.850;  191.675;    0.000
415.792; 2855.850;  185.675;    0.000
415.846; 2811.850;  239.675;    0.000
415.900; 2779.850;  209.675;    0.000
415.954; 2772.850;  215.675;    0.000
416.008; 2801.850;  229.675;    0.000
416.062; 2793.850;  200.675;    0.000
416.116; 2849.850;  195.675;    0.000
416.169; 2757.850;  238.675;    0.000
416.223; 2840.850;  271.675;    0.000
416.277; 2814.850;  232.675;    0.000
416.331; 2764.850;  226.675;    0.000
416.385; 2824.850;  207.675;    0.000
416.439; 2800.850;  221.675;    0.000
416.492; 2788.850;  269.675;    0.000
416.546; 2887.850;  254.675;    0.000
416.600; 2828.850;  225.675;    0.000
416.654; 2874.850;  269.675;    0.000
416.707; 2776.850;  232.675;    0.000
416.761; 2802.850;  226.675;    0.000
416.815; 2871.850;  219.675;    0.000
416.869; 2796.850;  234.675;    0.000
416.922; 2883.850;  230.675;    0.000
416.976; 2806.850;  216.675;    0.000
417.030; 2841.850;  271.675;    0.000
417.083; 2855.850;  229.675;    0.000
417.137; 2796.850;  249.675;    0.000
417.191; 2761.850;  241.675;    0.000
417.244; 2765.850;  230.675;    0.000
417.298; 2758.850;  215.675;    0.000
417.352; 2831.850;  188.675;    0.000
417.405; 2886.850;  248.675;    0.000
417.459; 2800.850;  256.675;    0.000
417.512; 2822.850;  263.675;    0.000
417.566; 2907.850;  227.675;    0.000
417.620; 2809.850;  270.675;    0.000
417.673; 2755.850;  216.675;    0.000
417.727; 2776.850;  234.675;    0.000
417.780; 2799.850;  215.675;    0.000
417.834; 2733.850;  203.675;    0.000
417.887; 2768.850;  257.675;    0.000
417.941; 2769.850;  216.675;    0.000
417.994; 2738.850;  245.675;    0.000
418.048; 2835.850;  209.675;    0.000
418.101; 2858.850;  207.675;    0.000
418.155; 2742.850;  204.675;    0.000
418.208; 2770.850;  270.675;    0.000
418.262; 2759.850;  228.675;    0.000
418.315; 2805.850;  254.675;    0.000
418.369; 2799.850;  245.675;    0.000
418.422; 2753.850;  224.675;    0.000
418.476; 2881.850;  221.675;    0.000
418.529; 2841.850;  234.675;    0.000
418.582; 2764.850;  249.675;    0.000
418.636; 2797.850;  224.675;    0.000
418.689; 2646.850;  228.675;    0.000
418.743; 2726.850;  240.675;    0.000
418.796; 2718.850;  197.675;    0.000
418.849; 2822.850;  220.675;    0.000
418.903; 2784.850;  246.675;    0.000
418.956; 2729.850;  250.675;    0.000
419.009; 2809.850;  276.675;    0.000
419.063; 2839.850;  232.675;    0.000
419.116; 2773.850;  228.675;    0.000
419.169; 2820.850;  249.675;    0.000
419.222; 2752.850;  215.675;    0.000
419.276; 2804.850;  228.675;    0.000
419.329; 2691.850;  246.675;    0.000
419.382; 2754.850;  188.675;    0.000
419.435; 2750.850;  240.675;    0.000
419.489; 2792.850;  261.675;    0.000
419.542; 2786.850;  224.675;    0.000
419.595; 2785.850;  251.675;    0.000
419.648; 2691.850;  236.675;    0.000
419.701; 2765.850;  244.675;    0.000
419.755; 2730.850;  242.675;    0.000
419.808; 2763.850;  242.675;    0.000
419.861; 2772.850;  189.675;    0.000
419.914; 2841.850;  258.675;    0.000
419.967; 2724.850;  230.675;    0.000
420.020; 2695.850;  223.675;    0.000
420.073; 2705.850;  221.675;    0.000
420.127; 2824.850;  252.675;    0.000
420.180; 2792.850;  219.675;    0.000
420.233; 2672.850;  201.675;    0.000
420.286; 2643.850;  221.675;    0.000
420.339; 2690.850;  250.675;    0.000
420.392; 2656.850;  268.675;    0.000
420.445; 2606.850;  223.675;    0.000
420.498; 2680.850;  240.675;    0.000
420.551; 2665.850;  220.675;    0.000
420.604; 2717.850;  231.675;    0.000
420.657; 2740.850;  228.675;    0.000
420.710; 2639.850;  219.675;    0.000
420.763; 2664.850;  280.675;    0.000
420.816; 2692.850;  202.675;    0.000
420.869; 2688.850;  219.675;    0.000
420.922; 2652.850;  218.675;    0.000
420.975; 2687.850;  237.675;    0.000
421.028; 2630.850;  242.675;    0.000
421.081; 2688.850;  247.675;    0.000
421.134; 2644.850;  239.675;    0.000
421.187; 2564.850;  229.675;    0.000
421.239; 2691.850;  200.675;    0.000
421.292; 2679.850;  205.675;    0.000
421.345; 2612.850;  219.675;    0.000
421.398; 2646.850;  187.675;    0.000
421.451; 2608.850;  226.675;    0.000
421.504; 2565.850;  206.675;    0.000
421.557; 2623.850;  226.675;    0.000
421.609; 2614.850;  209.675;    0.000
421.662; 2617.850;  229.675;    0.000
421.715; 2638.850;  231.675;    0.000
421.768; 2576.850;  215.675;    0.000
421.821; 2667.850;  211.675;    0.000
421.873; 2573.850;  220.675;    0.000
421.926; 2658.850;  212.675;    0.000
421.979; 2639.850;  209.675;    0.000
422.032; 2564.850;  203.675;    0.000
422.084; 2575.850;  213.675;    0.000
422.137; 2632.850;  196.675;    0.000
422.190; 2485.850;  246.675;    0.000
422.243; 2651.850;  194.675;    0.000
422.295; 2648.850;  225.675;    0.000
422.348; 2609.850;  248.675;    0.000
422.401; 2536.850;  252.675;    0.000
422.453; 2552.850;  249.675;    0.000
422.506; 2587.850;  233.675;    0.000
422.559; 2594.850;  228.675;    0.000
422.611; 2544.850;  224.675;    0.000
422.664; 2622.850;  226.675;    0.000
422.716; 2658.850;  226.675;    0.000
422.769; 2709.850;  216.675;    0.000
422.822; 2543.850;  256.675;    0.000
422.874; 2538.850;  206.675;    0.000
422.927; 2593.850;  257.675;    0.000
422.979; 2573.850;  209.675;    0.000
423.032; 2668.850;  244.675;    0.000
423.084; 2605.850;  244.675;    0.000
423.137; 2531.850;  213.675;    0.000
423.189; 2630.850;  208.675;    0.000
423.242; 2578.850;  226.675;    0.000
423.294; 2556.850;  250.675;    0.000
423.347; 2570.850;  206.675;    0.000
423.399; 2599.850;  268.675;    0.000
423.452; 2575.850;  262.675;    0.000
423.504; 2471.850;  237.675;    0.000
423.557; 2528.850;  245.675;    0.000
423.609; 2523.850;  211.675;    0.000
423.662; 2565.850;  222.675;    0.000
423.714; 2553.850;  219.675;    0.000
423.766; 2539.850;  250.675;    0.000
423.819; 2546.850;  220.675;    0.000
423.871; 2583.850;  229.675;    0.000
423.923; 2542.850;  219.675;    0.000
423.976; 2558.850;  221.675;    0.000
424.028; 2423.850;  211.675;    0.000
424.081; 2607.850;  254.675;    0.000
424.133; 2469.850;  230.675;    0.000
424.185; 2517.850;  241.675;    0.000
424.238; 2567.850;  182.675;    0.000
424.290; 2493.850;  215.675;    0.000
424.342; 2537.850;  235.675;    0.000
424.394; 2408.850;  225.675;    0.000
424.447; 2556.850;  264.675;    0.000
424.499; 2483.850;  225.675;    0.000
424.551; 2546.850;  237.675;    0.000
424.603; 2428.850;  219.675;    0.000
424.656; 2562.850;  240.675;    0.000
424.708; 2476.850;  266.675;    0.000
424.760; 2567.850;  230.675;    0.000
424.812; 2489.850;  284.675;    0.000
424.864; 2458.850;  189.675;    0.000
424.917; 2507.850;  226.675;    0.000
424.969; 2496.850;  253.675;    0.000
425.021; 2505.850;  233.675;    0.000
425.073; 2486.850;  246.675;    0.000
425.125; 2471.850;  238.675;    0.000
425.177; 2451.850;  253.675;    0.000
425.229; 2402.850;  254.675;    0.000
425.282; 2480.850;  252.675;    0.000
425.334; 2473.850;  261.675;    0.000
425.386; 2543.850;  227.675;    0.000
425.438; 2487.850;  246.675;    0.000
425.490; 2463.850;  249.675;    0.000
425.542; 2480.850;  236.675;    0.000
425.594; 2446.850;  236.675;    0.000
425.646; 2505.850;  237.675;    0.000
425.698; 2437.850;  271.675;    0.000
425.750; 2515.850;  240.675;    0.000
425.802; 2446.850;  238.675;    0.000
425.854; 2473.850;  256.675;    0.000
425.906; 2500.850;  230.675;    0.000
425.958; 2432.850;  231.675;    0.000
426.010; 2433.850;  268.675;    0.000
426.062; 2431.850;  227.675;    0.000
426.114; 2486.850;  234.675;    0.000
426.166; 2424.850;  239.675;    0.000
426.218; 2482.850;  255.675;    0.000
426.270; 2552.850;  196.675;    0.000
426.321; 2453.850;  231.675;    0.000
426.373; 2383.850;  199.675;    0.000
426.425; 2392.850;  245.675;    0.000
426.477; 2477.850;  259.675;    0.000
426.529; 2438.850;  274.675;    0.000
426.581; 2376.850;  221.675;    0.000
426.633; 2477.850;  231.675;    0.000
426.684; 2396.850;  248.675;    0.000
426.736; 2378.850;  237.675;    0.000
426.788; 2421.850;  191.675;    0.000
426.840; 2466.850;  180.675;    0.000
426.892; 2446.850;  259.675;    0.000
426.943; 2448.850;  256.675;    0.000
426.995; 2403.850;  212.675;    0.000
427.047; 2484.850;  233.675;    0.000
427.099; 2353.850;  222.675;    0.000
427.150; 2395.850;  203.675;    0.000
427.202; 2448.850;  218.675;    0.000
427.254; 2377.850;  198.675;    0.000
427.306; 2422.850;  248.675;    0.000
427.357; 2490.850;  239.675;    0.000
427.409; 2425.850;  193.675;    0.000
427.461; 2330.850;  215.675;    0.000
427.512; 2374.850;  251.675;    0.000
427.564; 2419.850;  210.675;    0.000
427.616; 2323.850;  251.675;    0.000
427.667; 2358.850;  246.675;    0.000
427.719; 2383.850;  227.675;    0.000
427.770; 2335.850;  247.675;    0.000
427.822; 2481.850;  261.675;    0.000
427.874; 2317.850;  231.675;    0.000
427.925; 2315.850;  231.675;    0.000
427.977; 2409.850;  243.675;    0.000
428.028; 2363.850;  249.675;    0.000
428.080; 2434.850;  224.675;    0.000
428.131; 2302.850;  247.675;    0.000
428.183; 2253.850;  213.675;    0.000
428.234; 2446.850;  213.675;    0.000
428.286; 2367.850;  224.675;    0.000
428.337; 2379.850;  212.675;    0.000
428.389; 2375.850;  231.675;    0.000
428.440; 2374.850;  248.675;    0.000
428.492; 2389.850;  242.675;    0.000
428.543; 2335.850;  220.675;    0.000
428.595; 2347.850;  212.675;    0.000
428.646; 2275.850;  231.675;    0.000
428.697; 2361.850;  232.675;    0.000
428.749; 2302.850;  231.675;    0.000
428.800; 2383.850;  270.675;    0.000
428.852; 2259.850;  266.675;    0.000
428.903; 2367.850;  215.675;    0.000
428.954; 2360.850;  200.675;    0.000
429.006; 2333.850;  247.675;    0.000
429.057; 2299.850;  247.675;    0.000
429.108; 2307.850;  193.675;    0.000
429.160; 2353.850;  249.675;    0.000
429.211; 2310.850;  228.675;    0.000
429.262; 2316.850;  243.675;    0.000
429.314; 2353.850;  227.675;    0.000
429.365; 2307.850;  242.675;    0.000
429.416; 2366.850;  240.675;    0.000
429.467; 2381.850;  222.675;    0.000
429.519; 2330.850;  233.675;    0.000
429.570; 2346.850;  223.675;    0.000
429.621; 2305.850;  257.675;    0.000
429.672; 2251.850;  220.675;    0.000
429.724; 2314.850;  203.675;    0.000
429.775; 2297.850;  242.675;    0.000
429.826; 2345.850;  195.675;    0.000
429.877; 2294.850;  248.675;    0.000
429.928; 2291.850;  226.675;    0.000
429.980; 2253.850;  189.675;    0.000
430.031; 2318.850;  223.675;    0.000
430.082; 2224.850;  217.675;    0.000
430.133; 2257.850;  210.675;    0.000
430.184; 2355.850;  271.675;    0.000
430.235; 2336.850;  190.675;    0.000
430.286; 2335.850;  233.675;    0.000
430.337; 2190.850;  232.675;    0.000
430.388; 2228.850;  221.675;    0.000
430.439; 2311.850;  221.675;    0.000
430.490; 2294.850;  229.675;    0.000
430.542; 2289.850;  196.675;    0.000
430.593; 2195.850;  214.675;    0.000
430.644; 2250.850;  224.675;    0.000
430.695; 2251.850;  216.675;    0.000
430.746; 2275.850;  228.675;    0.000
430.797; 2254.850;  190.675;    0.000
430.848; 2307.850;  231.675;    0.000
430.898; 2247.850;  232.675;    0.000
430.949; 2193.850;  224.675;    0.000
431.000; 2335.850;  236.675;    0.000
431.051; 2261.850;  251.675;    0.000
431.102; 2271.850;  205.675;    0.000
431.153; 2247.850;  212.675;    0.000
431.204; 2272.850;  200.675;    0.000
431.255; 2267.850;  220.675;    0.000
431.306; 2230.850;  223.675;    0.000
431.357; 2251.850;  240.675;    0.000
431.408; 2245.850;  232.675;    0.000
431.458; 2170.850;  204.675;    0.000
431.509; 2251.850;  196.675;    0.000
431.560; 2235.850;  243.675;    0.000
431.611; 2179.850;  222.675;    0.000
431.662; 2262.850;  246.675;    0.000
431.713; 2223.850;  188.675;    0.000
431.763; 2255.850;  226.675;    0.000
431.814; 2241.850;  239.675;    0.000
431.865; 2235.850;  245.675;    0.000
431.916; 2171.850;  173.675;    0.000
431.966; 2279.850;  220.675;    0.000
432.017; 2315.850;  247.675;    0.000
432.068; 2268.850;  241.675;    0.000
432.118; 2251.850;  220.675;    0.000
432.169; 2225.850;  244.675;    0.000
432.220; 2253.850;  246.675;    0.000
432.271; 2267.850;  203.675;    0.000
432.321; 2166.850;  244.675;    0.000
432.372; 2287.850;  254.675;    0.000
432.423; 2178.850;  224.675;    0.000
432.473; 2244.850;  211.675;    0.000
432.524; 2233.850;  227.675;    0.000
432.574; 2215.850;  228.675;    0.000
432.625; 2187.850;  223.675;    0.000
432.676; 2149.850;  220.675;    0.000
432.726; 2226.850;  257.675;    0.000
432.777; 2190.850;  257.675;    0.000
432.827; 2243.850;  240.675;    0.000
432.878; 2171.850;  219.675;    0.000
432.928; 2180.850;  234.675;    0.000
432.979; 2171.850;  226.675;    0.000
433.029; 2191.850;  216.675;    0.000
433.080; 2173.850;  232.675;    0.000
433.130; 2183.850;  257.675;    0.000
433.181; 2188.850;  243.675;    0.000
433.231; 2191.850;  239.675;    0.000
433.282; 2213.850;  232.675;    0.000
433.332; 2254.850;  256.675;    0.000
433.383; 2283.850;  268.675;    0.000
433.433; 2232.850;  291.675;    0.000
433.484; 2289.850;  263.675;    0.000
433.534; 2178.850;  248.675;    0.000
433.585; 2205.850;  244.675;    0.000
433.635; 2273.850;  242.675;    0.000
433.685; 2202.850;  243.675;    0.000
433.736; 2188.850;  283.675;    0.000
433.786; 2155.850;  264.675;    0.000
433.836; 2222.850;  282.675;    0.000
433.887; 2186.850;  265.675;    0.000
433.937; 2281.850;  255.675;    0.000
433.987; 2234.850;  245.675;    0.000
434.038; 2201.850;  276.675;    0.000
434.088; 2159.850;  249.675;    0.000
434.138; 2187.850;  260.675;    0.000
434.189; 2266.850;  241.675;    0.000
434.239; 2255.850;  232.675;    0.000
434.289; 2328.850;  272.675;    0.000
434.339; 2237.850;  288.675;    0.000
434.389; 2165.850;  258.675;    0.000
434.440; 2213.850;  244.675;    0.000
434.490; 2219.850;  288.675;    0.000
434.540; 2182.850;  252.675;    0.000
434.590; 2156.850;  256.675;    0.000
434.640; 2218.850;  259.675;    0.000
434.691; 2182.850;  220.675;    0.000
434.741; 2171.850;  238.675;    0.000
434.791; 2247.850;  276.675;    0.000
434.841; 2254.850;  256.675;    0.000
434.891; 2233.850;  297.675;    0.000
434.941; 2231.850;  290.675;    0.000
434.991; 2257.850;  261.675;    0.000
435.042; 2269.850;  300.675;    0.000
435.092; 2211.850;  248.675;    0.000
435.142; 2160.850;  246.675;    0.000
435.192; 2149.850;  201.675;    0.000
435.242; 2218.850;  234.675;    0.000
435.292; 2196.850;  266.675;    0.000
435.342; 2067.850;  250.675;    0.000
435.392; 2184.850;  279.675;    0.000
435.442; 2228.850;  242.675;    0.000
435.492; 2197.850;  265.675;    0.000
435.542; 2130.850;  243.675;    0.000
435.592; 2169.850;  243.675;    0.000
435.642; 2116.850;  241.675;    0.000
435.692; 2110.850;  263.675;    0.000
435.742; 2222.850;  264.675;    0.000
435.792; 2167.850;  291.675;    0.000
435.842; 2092.850;  257.675;    0.000
435.891; 2074.850;  224.675;    0.000
435.941; 2139.850;  243.675;    0.000
435.991; 2149.850;  300.675;    0.000
436.041; 2027.850;  197.675;    0.000
436.091; 2116.850;  238.675;    0.000
436.141; 2111.850;  222.675;    0.000
436.191; 2211.850;  249.675;    0.000
436.241; 2070.850;  208.675;    0.000
436.290; 2111.850;  282.675;    0.000
436.340; 2050.850;  233.675;    0.000
436.390; 2127.850;  223.675;    0.000
436.440; 2101.850;  252.675;    0.000
436.490; 2053.850;  254.675;    0.000
436.539; 2071.850;  271.675;    0.000
436.589; 2065.850;  248.675;    0.000
436.639; 2153.850;  235.675;    0.000
436.689; 2130.850;  238.675;    0.000
436.738; 2062.850;  267.675;    0.000
436.788; 2035.850;  239.675;    0.000
436.838; 2064.850;  244.675;    0.000
436.887; 2108.850;  265.675;    0.000
436.937; 2097.850;  261.675;    0.000
436.987; 2131.850;  235.675;    0.000
437.036; 2099.850;  267.675;    0.000
437.086; 2098.850;  258.675;    0.000
437.136; 2074.850;  250.675;    0.000
437.185; 2052.850;  214.675;    0.000
437.235; 2085.850;  257.675;    0.000
437.285; 2051.850;  259.675;    0.000
437.334; 2085.850;  241.675;    0.000
437.384; 2035.850;  231.675;    0.000
437.433; 2046.850;  239.675;    0.000
437.483; 2102.850;  260.675;    0.000
437.532; 2065.850;  277.675;    0.000
437.582; 2012.850;  268.675;    0.000
437.631; 2031.850;  239.675;    0.000
437.681; 1991.850;  251.675;    0.000
437.730; 2079.850;  246.675;    0.000
437.780; 2054.850;  226.675;    0.000
437.829; 2028.850;  256.675;    0.000
437.879; 2121.850;  239.675;    0.000
437.928; 2013.850;  253.675;    0.000
437.978; 2001.850;  245.675;    0.000
438.027; 2073.850;  277.675;    0.000
438.077; 1984.850;  248.675;    0.000
438.126; 2064.850;  201.675;    0.000
438.176; 2064.850;  220.675;    0.000
438.225; 1962.850;  250.675;    0.000
438.274; 2000.850;  234.675;    0.000
438.324; 2008.850;  276.675;    0.000
438.373; 1994.850;  226.675;    0.000
438.422; 1950.850;  228.675;    0.000
438.472; 1921.850;  225.675;    0.000
438.521; 1990.850;  227.675;    0.000
438.570; 1928.850;  242.675;    0.000
438.620; 1957.850;  277.675;    0.000
438.669; 2033.850;  256.675;    0.000
438.718; 2010.850;  248.675;    0.000
438.768; 1981.850;  225.675;    0.000
438.817; 2000.850;  229.675;    0.000
438.866; 2038.850;  218.675;    0.000
438.915; 1924.850;  256.675;    0.000
438.965; 1981.850;  242.675;    0.000
439.014; 2032.850;  260.675;    0.000
439.063; 2030.850;  238.675;    0.000
439.112; 2007.850;  209.675;    0.000
439.162; 1930.850;  258.675;    0.000
439.211; 2050.850;  275.675;    0.000
439.260; 1998.850;  238.675;    0.000
439.309; 1973.850;  237.675;    0.000
439.358; 1951.850;  252.675;    0.000
439.407; 2035.850;  239.675;    0.000
439.456; 1971.850;  211.675;    0.000
439.506; 1937.850;  261.675;    0.000
439.555; 1982.850;  274.675;    0.000
439.604; 1939.850;  262.675;    0.000
439.653; 1965.850;  245.675;    0.000
439.702; 1983.850;  247.675;    0.000
439.751; 1920.850;  228.675;    0.000
439.800; 2009.850;  253.675;    0.000
439.849; 2003.850;  219.675;    0.000
439.898; 1958.850;  246.675;    0.000
439.947; 1963.850;  229.675;    0.000
439.996; 1950.850;  274.675;    0.000
440.045; 1894.850;  224.675;    0.000
440.094; 2037.850;  225.675;    0.000
440.143; 2005.850;  277.675;    0.000
440.192; 1937.850;  252.675;    0.000
440.241; 2045.850;  253.675;    0.000
440.290; 1975.850;  242.675;    0.000
440.339; 1934.850;  220.675;    0.000
440.388; 2004.850;  244.675;    0.000
440.437; 2034.850;  268.675;    0.000
440.486; 1986.850;  242.675;    0.000
440.535; 2021.850;  269.675;    0.000
440.583; 1925.850;  258.675;    0.000
440.632; 1998.850;  286.675;    0.000
440.681; 1959.850;  238.675;    0.000
440.730; 1939.850;  271.675;    0.000
440.779; 2022.850;  226.675;    0.000
440.828; 2004.850;  213.675;    0.000
440.876; 2019.850;  207.675;    0.000
440.925; 2063.850;  247.675;    0.000
440.974; 1965.850;  229.675;    0.000
441.023; 2005.850;  227.675;    0.000
441.072; 1994.850;  222.675;    0.000
441.120; 1967.850;  273.675;    0.000
441.169; 2053.850;  263.675;    0.000
441.218; 1992.850;  264.675;    0.000
441.267; 2048.850;  287.675;    0.000
441.315; 1991.850;  251.675;    0.000
441.364; 2013.850;  252.675;    0.000
441.413; 1992.850;  227.675;    0.000
441.461; 2026.850;  198.675;    0.000
441.510; 1970.850;  273.675;    0.000
441.559; 2019.850;  245.675;    0.000
441.607; 1986.850;  218.675;    0.000
441.656; 2036.850;  261.675;    0.000
441.705; 1979.850;  259.675;    0.000
441.753; 2005.850;  272.675;    0.000
441.802; 2025.850;  246.675;    0.000
441.850; 2019.850;  255.675;    0.000
441.899; 2020.850;  236.675;    0.000
441.948; 2071.850;  267.675;    0.000
441.996; 1930.850;  246.675;    0.000
442.045; 2006.850;  279.675;    0.000
442.093; 1905.850;  251.675;    0.000
442.142; 2034.850;  274.675;    0.000
442.190; 2069.850;  279.675;    0.000
442.239; 1995.850;  295.675;    0.000
442.287; 2049.850;  229.675;    0.000
442.336; 1948.850;  265.675;    0.000
442.384; 2017.850;  219.675;    0.000
442.433; 2058.850;  287.675;    0.000
442.481; 2055.850;  271.675;    0.000
442.529; 2050.850;  262.675;    0.000
442.578; 1936.850;  282.675;    0.000
442.626; 1896.850;  245.675;    0.000
442.675; 1991.850;  283.675;    0.000
442.723; 1957.850;  247.675;    0.000
442.771; 1891.850;  221.675;    0.000
442.820; 1984.850;  253.675;    0.000
442.868; 1990.850;  204.675;    0.000
442.917; 2011.850;  263.675;    0.000
442.965; 1994.850;  255.675;    0.000
443.013; 2005.850;  282.675;    0.000
443.062; 1946.850;  258.675;    0.000
443.110; 2005.850;  268.675;    0.000
443.158; 2005.850;  247.675;    0.000
443.206; 1883.850;  243.675;    0.000
443.255; 2036.850;  271.675;    0.000
443.303; 1965.850;  279.675;    0.000
443.351; 1980.850;  264.675;    0.000
443.399; 2018.850;  245.675;    0.000
443.448; 1981.850;  259.675;    0.000
443.496; 1956.850;  281.675;    0.000
443.544; 1944.850;  213.675;    0.000
443.592; 1992.850;  290.675;    0.000
443.640; 2005.850;  270.675;    0.000
443.689; 2004.850;  229.675;    0.000
443.737; 1958.850;  254.675;    0.000
443.785; 1974.850;  234.675;    0.000
443.833; 2000.850;  287.675;    0.000
443.881; 1924.850;  229.675;    0.000
443.929; 2000.850;  260.675;    0.000
443.977; 2023.850;  265.675;    0.000
444.025; 1933.850;  257.675;    0.000
444.074; 2052.850;  245.675;    0.000
444.122; 1970.850;  282.675;    0.000
444.170; 1980.850;  240.675;    0.000
444.218; 2007.850;  270.675;    0.000
444.266; 2030.850;  254.675;    0.000
444.314; 1970.850;  264.675;    0.000
444.362; 2059.850;  287.675;    0.000
444.410; 1944.850;  236.675;    0.000
444.458; 2017.850;  273.675;    0.000
444.506; 1983.850;  235.675;    0.000
444.554; 1955.850;  242.675;    0.000
444.602; 2029.850;  283.675;    0.000
444.650; 1986.850;  266.675;    0.000
444.698; 2022.850;  248.675;    0.000
444.746; 2011.850;  247.675;    0.000
444.793; 1985.850;  211.675;    0.000
444.841; 2088.850;  259.675;    0.000
444.889; 1987.850;  253.675;    0.000
444.937; 1997.850;  248.675;    0.000
444.985; 2005.850;  233.675;    0.000
445.033; 2020.850;  245.675;    0.000
445.081; 2050.850;  243.675;    0.000
445.129; 1963.850;  238.675;    0.000
445.176; 1914.850;  204.675;    0.000
445.224; 2010.850;  262.675;    0.000
445.272; 1932.850;  256.675;    0.000
445.320; 2055.850;  235.675;    0.000
445.368; 1981.850;  251.675;    0.000
445.415; 1943.850;  250.675;    0.000
445.463; 1925.850;  225.675;    0.000
445.511; 1992.850;  226.675;    0.000
445.559; 1971.850;  251.675;    0.000
445.606; 1996.850;  213.675;    0.000
445.654; 1911.850;  261.675;    0.000
445.702; 2034.850;  222.675;    0.000
445.749; 1978.850;  257.675;    0.000
445.797; 1945.850;  263.675;    0.000
445.845; 1936.850;  218.675;    0.000
445.892; 1945.850;  228.675;    0.000
445.940; 1991.850;  249.675;    0.000
445.988; 1971.850;  276.675;    0.000
446.035; 2006.850;  229.675;    0.000
446.083; 2004.850;  255.675;    0.000
446.130; 1960.850;  200.675;    0.000
446.178; 1989.850;  256.675;    0.000
446.226; 1977.850;  238.675;    0.000
446.273; 1931.850;  250.675;    0.000
446.321; 1984.850;  233.675;    0.000
446.368; 1942.850;  244.675;    0.000
446.416; 1936.850;  214.675;    0.000
446.463; 1876.850;  225.675;    0.000
446.511; 1945.850;  253.675;    0.000
446.558; 1938.850;  246.675;    0.000
446.606; 1979.850;  238.675;    0.000
446.653; 1958.850;  215.675;    0.000
446.701; 1976.850;  248.675;    0.000
446.748; 1906.850;  258.675;    0.000
446.796; 1929.850;  259.675;    0.000
446.843; 2001.850;  269.675;    0.000
446.891; 1945.850;  259.675;    0.000
446.938; 1988.850;  226.675;    0.000
446.985; 1977.850;  225.675;    0.000
447.033; 1972.850;  269.675;    0.000
447.080; 1932.850;  258.675;    0.000
447.128; 1940.850;  225.675;    0.000
447.175; 1996.850;  259.675;    0.000
447.222; 1972.850;  238.675;    0.000
447.270; 1990.850;  250.675;    0.000
447.317; 1960.850;  217.675;    0.000
447.364; 1934.850;  262.675;    0.000
447.411; 1988.850;  269.675;    0.000
447.459; 1916.850;  251.675;    0.000
447.506; 1875.850;  227.675;    0.000
447.553; 1948.850;  250.675;    0.000
447.601; 1937.850;  251.675;    0.000
447.648; 1924.850;  276.675;    0.000
447.695; 1952.850;  229.675;    0.000
447.742; 1905.850;  245.675;    0.000
447.789; 1942.850;  243.675;    0.000
447.837; 1972.850;  267.675;    0.000
447.884; 1954.850;  246.675;    0.000
447.931; 1984.850;  266.675;    0.000
447.978; 1946.850;  242.675;    0.000
448.025; 1987.850;  267.675;    0.000
448.072; 2038.850;  257.675;    0.000
448.120; 1931.850;  279.675;    0.000
448.167; 1990.850;  275.675;    0.000
448.214; 1951.850;  241.675;    0.000
448.261; 1999.850;  271.675;    0.000
448.308; 1949.850;  256.675;    0.000
448.355; 2015.850;  253.675;    0.000
448.402; 1937.850;  267.675;    0.000
448.449; 1933.850;  252.675;    0.000
448.496; 1931.850;  241.675;    0.000
448.543; 1858.850;  250.675;    0.000
448.590; 1971.850;  288.675;    0.000
448.637; 1882.850;  255.675;    0.000
448.684; 1972.850;  284.675;    0.000
448.731; 1923.850;  244.675;    0.000
448.778; 1907.850;  257.675;    0.000
448.825; 1957.850;  252.675;    0.000
448.872; 1911.850;  205.675;    0.000
448.919; 1976.850;  244.675;    0.000
448.966; 1889.850;  278.675;    0.000
449.013; 1981.850;  262.675;    0.000
449.060; 1866.850;  278.675;    0.000
449.107; 1961.850;  248.675;    0.000
449.154; 1862.850;  230.675;    0.000
449.200; 1914.850;  211.675;    0.000
449.247; 1934.850;  283.675;    0.000
449.294; 1891.850;  251.675;    0.000
449.341; 1932.850;  280.675;    0.000
449.388; 1879.850;  247.675;    0.000
449.435; 1833.850;  267.675;    0.000
449.481; 1955.850;  303.675;    0.000
449.528; 1887.850;  279.675;    0.000
449.575; 1868.850;  226.675;    0.000
449.622; 1961.850;  263.675;    0.000
449.668; 1898.850;  249.675;    0.000
449.715; 1897.850;  257.675;    0.000
449.762; 1907.850;  251.675;    0.000
449.809; 2030.850;  289.675;    0.000
449.855; 1870.850;  239.675;    0.000
449.902; 1951.850;  262.675;    0.000
449.949; 1896.850;  262.675;    0.000
449.995; 1975.850;  265.675;    0.000
450.042; 1933.850;  280.675;    0.000
450.089; 1985.850;  277.675;    0.000
450.135; 1919.850;  285.675;    0.000
450.182; 1940.850;  275.675;    0.000
450.229; 1919.850;  278.675;    0.000
450.275; 1916.850;  288.675;    0.000
450.322; 1838.850;  238.675;    0.000
450.368; 1889.850;  276.675;    0.000
450.415; 1978.850;  295.675;    0.000
450.462; 1917.850;  283.675;    0.000
450.508; 1880.850;  264.675;    0.000
450.555; 1911.850;  275.675;    0.000
450.601; 1930.850;  278.675;    0.000
450.648; 1925.850;  251.675;    0.000
450.694; 1898.850;  237.675;    0.000
450.741; 1850.850;  280.675;    0.000
450.787; 1977.850;  279.675;    0.000
450.834; 1915.850;  287.675;    0.000
450.880; 1864.850;  265.675;    0.000
450.927; 1911.850;  270.675;    0.000
450.973; 1869.850;  308.675;    0.000
451.019; 1934.850;  253.675;    0.000
451.066; 1885.850;  261.675;    0.000
451.112; 1862.850;  276.675;    0.000
451.159; 1867.850;  235.675;    0.000
451.205; 1874.850;  284.675;    0.000
451.251; 1929.850;  264.675;    0.000
451.298; 1912.850;  262.675;    0.000
451.344; 1937.850;  278.675;    0.000
451.390; 1893.850;  273.675;    0.000
451.437; 1921.850;  272.675;    0.000
451.483; 2000.850;  302.675;    0.000
451.529; 1830.850;  255.675;    0.000
451.576; 1838.850;  287.675;    0.000
451.622; 1832.850;  254.675;    0.000
451.668; 1890.850;  260.675;    0.000
451.714; 1910.850;  289.675;    0.000
451.761; 1827.850;  273.675;    0.000
451.807; 1923.850;  307.675;    0.000
451.853; 1858.850;  281.675;    0.000
451.899; 1777.850;  246.675;    0.000
451.945; 1977.850;  258.675;    0.000
451.992; 1825.850;  276.675;    0.000
452.038; 1861.850;  287.675;    0.000
452.084; 1957.850;  288.675;    0.000
452.130; 1884.850;  259.675;    0.000
452.176; 1922.850;  265.675;    0.000
452.222; 1824.850;  222.675;    0.000
452.268; 1968.850;  271.675;    0.000
452.315; 1900.850;  258.675;    0.000
452.361; 1804.850;  233.675;    0.000
452.407; 1951.850;  270.675;    0.000
452.453; 1902.850;  261.675;    0.000
452.499; 1862.850;  279.675;    0.000
452.545; 1976.850;  269.675;    0.000
452.591; 1896.850;  288.675;    0.000
452.637; 1899.850;  279.675;    0.000
452.683; 1911.850;  232.675;    0.000
452.729; 1883.850;  285.675;    0.000
452.775; 1880.850;  280.675;    0.000
452.821; 1890.850;  260.675;    0.000
452.867; 1919.850;  239.675;    0.000
452.913; 1781.850;  240.675;    0.000
452.959; 1885.850;  214.675;    0.000
453.005; 1916.850;  266.675;    0.000
453.051; 1883.850;  258.675;    0.000
453.097; 1795.850;  253.675;    0.000
453.142; 1858.850;  244.675;    0.000
453.188; 1852.850;  241.675;    0.000
453.234; 1862.850;  257.675;    0.000
453.280; 1823.850;  231.675;    0.000
453.326; 1877.850;  240.675;    0.000
453.372; 1807.850;  208.675;    0.000
453.418; 1912.850;  266.675;    0.000
453.463; 1945.850;  232.675;    0.000
453.509; 1913.850;  221.675;    0.000
453.555; 1800.850;  268.675;    0.000
453.601; 1829.850;  242.675;    0.000
453.647; 1954.850;  283.675;    0.000
453.692; 1856.850;  242.675;    0.000
453.738; 1872.850;  294.675;    0.000
453.784; 1864.850;  256.675;    0.000
453.829; 1862.850;  267.675;    0.000
453.875; 1855.850;  233.675;    0.000
453.921; 1782.850;  247.675;    0.000
453.967; 1864.850;  249.675;    0.000
454.012; 1864.850;  274.675;    0.000
454.058; 1957.850;  249.675;    0.000
454.104; 1873.850;  272.675;    0.000
454.149; 1945.850;  277.675;    0.000
454.195; 1876.850;  256.675;    0.000
454.240; 1870.850;  263.675;    0.000
454.286; 1910.850;  276.675;    0.000
454.332; 1862.850;  290.675;    0.000
454.377; 1838.850;  274.675;    0.000
454.423; 1948.850;  282.675;    0.000
454.468; 1887.850;  275.675;    0.000
454.514; 1869.850;  270.675;    0.000
454.559; 1919.850;  249.675;    0.000
454.605; 1803.850;  241.675;    0.000
454.650; 1920.850;  269.675;    0.000
454.696; 1935.850;  253.675;    0.000
454.741; 1858.850;  279.675;    0.000
454.787; 1869.850;  252.675;    0.000
454.832; 1909.850;  246.675;    0.000
454.878; 1900.850;  264.675;    0.000
454.923; 1829.850;  268.675;    0.000
454.969; 1897.850;  253.675;    0.000
455.014; 1872.850;  264.675;    0.000
455.060; 1892.850;  265.675;    0.000
455.105; 1906.850;  270.675;    0.000
455.150; 1930.850;  284.675;    0.000
455.196; 1878.850;  278.675;    0.000
455.241; 1892.850;  248.675;    0.000
455.286; 1868.850;  274.675;    0.000
455.332; 1817.850;  269.675;    0.000
455.377; 1851.850;  218.675;    0.000
455.422; 1941.850;  261.675;    0.000
455.468; 1854.850;  278.675;    0.000
455.513; 1920.850;  235.675;    0.000
455.558; 1900.850;  232.675;    0.000
455.604; 1931.850;  285.675;    0.000
455.649; 1862.850;  264.675;    0.000
455.694; 1915.850;  235.675;    0.000
455.739; 1886.850;  265.675;    0.000
455.785; 1950.850;  266.675;    0.000
455.830; 1961.850;  272.675;    0.000
455.875; 1957.850;  256.675;    0.000
455.920; 1899.850;  191.675;    0.000
455.965; 1871.850;  280.675;    0.000
456.010; 1939.850;  267.675;    0.000
456.056; 1906.850;  270.675;    0.000
456.101; 1828.850;  248.675;    0.000
456.146; 1893.850;  287.675;    0.000
456.191; 1933.850;  280.675;    0.000
456.236; 1929.850;  229.675;    0.000
456.281; 1845.850;  241.675;    0.000
456.326; 1904.850;  248.675;    0.000
456.371; 1920.850;  233.675;    0.000
456.416; 2030.850;  284.675;    0.000
456.461; 1940.850;  256.675;    0.000
456.507; 1888.850;  250.675;    0.000
456.552; 1934.850;  290.675;    0.000
456.597; 1838.850;  260.675;    0.000
456.642; 1893.850;  252.675;    0.000
456.687; 1892.850;  272.675;    0.000
456.732; 1894.850;  303.675;    0.000
456.776; 1887.850;  269.675;    0.000
456.821; 1865.850;  256.675;    0.000
456.866; 1848.850;  278.675;    0.000
456.911; 1938.850;  230.675;    0.000
456.956; 1985.850;  275.675;    0.000
457.001; 1893.850;  248.675;    0.000
457.046; 1930.850;  222.675;    0.000
457.091; 1860.850;  251.675;    0.000
457.136; 1869.850;  231.675;    0.000
457.181; 1828.850;  245.675;    0.000
457.225; 1994.850;  262.675;    0.000
457.270; 1907.850;  277.675;    0.000
457.315; 1882.850;  235.675;    0.000
457.360; 1810.850;  231.675;    0.000
457.405; 1848.850;  214.675;    0.000
457.450; 1915.850;  255.675;    0.000
457.494; 1927.850;  220.675;    0.000
457.539; 1847.850;  257.675;    0.000
457.584; 1885.850;  279.675;    0.000
457.629; 1846.850;  249.675;    0.000
457.673; 1861.850;  237.675;    0.000
457.718; 1963.850;  232.675;    0.000
457.763; 1889.850;  278.675;    0.000
457.807; 1946.850;  279.675;    0.000
457.852; 1945.850;  246.675;    0.000
457.897; 1934.850;  284.675;    0.000
457.941; 1895.850;  272.675;    0.000
457.986; 2006.850;  285.675;    0.000
458.031; 1931.850;  235.675;    0.000
458.075; 1874.850;  299.675;    0.000
458.120; 1939.850;  284.675;    0.000
458.165; 1849.850;  212.675;    0.000
458.209; 1949.850;  254.675;    0.000
458.254; 1889.850;  257.675;    0.000
458.298; 1957.850;  265.675;    0.000
458.343; 1935.850;  278.675;    0.000
458.387; 2024.850;  316.675;    0.000
458.432; 2042.850;  279.675;    0.000
458.476; 1974.850;  272.675;    0.000
458.521; 1992.850;  240.675;    0.000
458.565; 1981.850;  307.675;    0.000
458.610; 1962.850;  246.675;    0.000
458.654; 2013.850;  275.675;    0.000
458.699; 1969.850;  288.675;    0.000
458.743; 2020.850;  244.675;    0.000
458.788; 1992.850;  245.675;    0.000
458.832; 1981.850;  277.675;    0.000
458.877; 2024.850;  285.675;    0.000
458.921; 1954.850;  216.675;    0.000
458.965; 2020.850;  260.675;    0.000
459.010; 2038.850;  284.675;    0.000
459.054; 2046.850;  272.675;    0.000
459.099; 1994.850;  262.675;    0.000
459.143; 2033.850;  276.675;    0.000
459.187; 1968.850;  258.675;    0.000
459.231; 2053.850;  278.675;    0.000
459.276; 2039.850;  262.675;    0.000
459.320; 2021.850;  291.675;    0.000
459.364; 2026.850;  294.675;    0.000
459.409; 2044.850;  269.675;    0.000
459.453; 2042.850;  257.675;    0.000
459.497; 2111.850;  283.675;    0.000
459.541; 2020.850;  275.675;    0.000
459.586; 1963.850;  261.675;    0.000
459.630; 2134.850;  284.675;    0.000
459.674; 2071.850;  244.675;    0.000
459.718; 1969.850;  309.675;    0.000
459.762; 1994.850;  281.675;    0.000
459.807; 2071.850;  250.675;    0.000
459.851; 2031.850;  286.675;    0.000
459.895; 2029.850;  230.675;    0.000
459.939; 2046.850;  262.675;    0.000
459.983; 2133.850;  250.675;    0.000
460.027; 2111.850;  275.675;    0.000
460.071; 2017.850;  301.675;    0.000
460.115; 2052.850;  279.675;    0.000
460.159; 2093.850;  301.675;    0.000
460.204; 2052.850;  287.675;    0.000
460.248; 2073.850;  293.675;    0.000
460.292; 2082.850;  310.675;    0.000
460.336; 2052.850;  263.675;    0.000
460.380; 2100.850;  268.675;    0.000
460.424; 2124.850;  281.675;    0.000
460.468; 2158.850;  310.675;    0.000
460.512; 2171.850;  273.675;    0.000
460.556; 2106.850;  291.675;    0.000
460.599; 2034.850;  240.675;    0.000
460.643; 2064.850;  260.675;    0.000
460.687; 2085.850;  283.675;    0.000
460.731; 2063.850;  254.675;    0.000
460.775; 2087.850;  265.675;    0.000
460.819; 2133.850;  280.675;    0.000
460.863; 2164.850;  316.675;    0.000
460.907; 2046.850;  231.675;    0.000
460.951; 2129.850;  275.675;    0.000
460.995; 2165.850;  290.675;    0.000
461.038; 2088.850;  284.675;    0.000
461.082; 2146.850;  278.675;    0.000
461.126; 2109.850;  321.675;    0.000
461.170; 2078.850;  273.675;    0.000
461.214; 2086.850;  289.675;    0.000
461.257; 2116.850;  296.675;    0.000
461.301; 2131.850;  287.675;    0.000
461.345; 2186.850;  290.675;    0.000
461.389; 2197.850;  260.675;    0.000
461.432; 2157.850;  262.675;    0.000
461.476; 2156.850;  254.675;    0.000
461.520; 2109.850;  305.675;    0.000
461.563; 2131.850;  289.675;    0.000
461.607; 2104.850;  286.675;    0.000
461.651; 2160.850;  271.675;    0.000
461.694; 2170.850;  245.675;    0.000
461.738; 2188.850;  278.675;    0.000
461.782; 2103.850;  284.675;    0.000
461.825; 2120.850;  305.675;    0.000
461.869; 2170.850;  293.675;    0.000
461.913; 2083.850;  280.675;    0.000
461.956; 2158.850;  237.675;    0.000
462.000; 2193.850;  288.675;    0.000
462.043; 2220.850;  282.675;    0.000
462.087; 2139.850;  268.675;    0.000
462.130; 2213.850;  286.675;    0.000
462.174; 2163.850;  312.675;    0.000
462.217; 2090.850;  270.675;    0.000
462.261; 2166.850;  281.675;    0.000
462.304; 2183.850;  248.675;    0.000
462.348; 2154.850;  267.675;    0.000
462.391; 2185.850;  270.675;    0.000
462.435; 2165.850;  287.675;    0.000
462.478; 2175.850;  290.675;    0.000
462.522; 2201.850;  296.675;    0.000
462.565; 2227.850;  275.675;    0.000
462.608; 2246.850;  325.675;    0.000
462.652; 2294.850;  303.675;    0.000
462.695; 2235.850;  355.675;    0.000
462.739; 2232.850;  272.675;    0.000
462.782; 2285.850;  295.675;    0.000
462.825; 2245.850;  300.675;    0.000
462.869; 2287.850;  319.675;    0.000
462.912; 2301.850;  363.675;    0.000
462.955; 2288.850;  298.675;    0.000
462.998; 2256.850;  321.675;    0.000
463.042; 2282.850;  310.675;    0.000
463.085; 2199.850;  305.675;    0.000
463.128; 2240.850;  345.675;    0.000
463.172; 2178.850;  341.675;    0.000
463.215;  376.850;  300.675;    0.000
463.258;  307.850;  287.675;    0.000
463.301;  307.850;  290.675;    0.000
463.344;  352.850;  320.675;    0.000
463.388;  341.850;  340.675;    0.000
463.431;  286.850;  278.675;    0.000
463.474;  355.850;  353.675;    0.000
463.517;  325.850;  295.675;    0.000
463.560;  318.850;  328.675;    0.000
463.603;  296.850;  316.675;    0.000
463.646;  319.850;  295.675;    0.000
463.690;  309.850;  334.675;    0.000
463.733;  320.850;  343.675;    0.000
463.776;  305.850;  300.675;    0.000
463.819;  308.850;  368.675;    0.000
463.862;  307.850;  327.675;    0.000

