
Integration time [ms]:   1.000
Averaging Nr. [scans]: 1
Smoothing Nr. [pixels]: 0
Data measured with spectrometer [name]: NIR
Wave   ;Sample   ;Dark     ;Reference
[nm]   ;[counts] ;[counts] ;[counts] 

691.496;   76.625;    0.000;    0.000
691.696;   84.625;    0.000;    0.000
691.896;   34.625;    0.000;    0.000
692.096;   96.625;    0.000;    0.000
692.296;   27.625;    0.000;    0.000
692.496;   91.625;    0.000;    0.000
692.695;   35.625;    0.000;    0.000
692.895;  108.625;    0.000;    0.000
693.095;   41.625;    0.000;    0.000
693.295;  101.625;    0.000;    0.000
693.495;   81.625;    0.000;    0.000
693.695;   61.625;    0.000;    0.000
693.894;   79.625;    0.000;    0.000
694.094;   68.625;    0.000;    0.000
694.294;   58.625;    0.000;    0.000
694.494;  286.625;    0.000;    0.000
694.693; 2090.625;    0.000;    0.000
694.893; 2451.625;    0.000;    0.000
695.093; 2365.625;    0.000;    0.000
695.293; 2480.625;    0.000;    0.000
695.492; 2538.625;    0.000;    0.000
695.692; 2424.625;    0.000;    0.000
695.891; 2479.625;    0.000;    0.000
696.091; 2488.625;    0.000;    0.000
696.291; 2475.625;    0.000;    0.000
696.490; 2498.625;    0.000;    0.000
696.690; 2561.625;    0.000;    0.000
696.889; 2539.625;    0.000;    0.000
697.089; 2541.625;    0.000;    0.000
697.288; 2525.625;    0.000;    0.000
697.488; 2516.625;    0.000;    0.000
697.687; 2464.625;    0.000;    0.000
697.887; 2599.625;    0.000;    0.000
698.086; 2606.625;    0.000;    0.000
698.286; 2524.625;    0.000;    0.000
698.485; 2607.625;    0.000;    0.000
698.684; 2641.625;    0.000;    0.000
698.884; 2507.625;    0.000;    0.000
699.083; 2536.625;    0.000;    0.000
699.282; 2611.625;    0.000;    0.000
699.482; 2617.625;    0.000;    0.000
699.681; 2564.625;    0.000;    0.000
699.880; 2659.625;    0.000;    0.000
700.080; 2683.625;    0.000;    0.000
700.279; 2565.625;    0.000;    0.000
700.478; 2600.625;    0.000;    0.000
700.677; 2609.625;    0.000;    0.000
700.877; 2623.625;    0.000;    0.000
701.076; 2727.625;    0.000;    0.000
701.275; 2662.625;    0.000;    0.000
701.474; 2669.625;    0.000;    0.000
701.673; 2570.625;    0.000;    0.000
701.872; 2693.625;    0.000;    0.000
702.071; 2619.625;    0.000;    0.000
702.271; 2604.625;    0.000;    0.000
702.470; 2672.625;    0.000;    0.000
702.669; 2674.625;    0.000;    0.000
702.868; 2722.625;    0.000;    0.000
703.067; 2673.625;    0.000;    0.000
703.266; 2737.625;    0.000;    0.000
703.465; 2777.625;    0.000;    0.000
703.664; 2664.625;    0.000;    0.000
703.863; 2752.625;    0.000;    0.000
704.062; 2702.625;    0.000;    0.000
704.260; 2706.625;    0.000;    0.000
704.459; 2700.625;    0.000;    0.000
704.658; 2727.625;    0.000;    0.000
704.857; 2741.625;    0.000;    0.000
705.056; 2780.625;    0.000;    0.000
705.255; 2836.625;    0.000;    0.000
705.454; 2705.625;    0.000;    0.000
705.652; 2909.625;    0.000;    0.000
705.851; 2748.625;    0.000;    0.000
706.050; 2787.625;    0.000;    0.000
706.249; 2813.625;    0.000;    0.000
706.447; 2852.625;    0.000;    0.000
706.646; 2720.625;    0.000;    0.000
706.845; 2767.625;    0.000;    0.000
707.043; 2807.625;    0.000;    0.000
707.242; 2836.625;    0.000;    0.000
707.441; 2823.625;    0.000;    0.000
707.639; 2953.625;    0.000;    0.000
707.838; 2833.625;    0.000;    0.000
708.037; 2867.625;    0.000;    0.000
708.235; 2839.625;    0.000;    0.000
708.434; 2829.625;    0.000;    0.000
708.632; 2808.625;    0.000;    0.000
708.831; 2878.625;    0.000;    0.000
709.029; 2887.625;    0.000;    0.000
709.228; 2921.625;    0.000;    0.000
709.426; 2982.625;    0.000;    0.000
709.625; 2945.625;    0.000;    0.000
709.823; 2914.625;    0.000;    0.000
710.022; 3023.625;    0.000;    0.000
710.220; 3042.625;    0.000;    0.000
710.418; 3084.625;    0.000;    0.000
710.617; 3030.625;    0.000;    0.000
710.815; 2926.625;    0.000;    0.000
711.013; 2941.625;    0.000;    0.000
711.212; 2972.625;    0.000;    0.000
711.410; 3117.625;    0.000;    0.000
711.608; 3086.625;    0.000;    0.000
711.807; 3122.625;    0.000;    0.000
712.005; 3080.625;    0.000;    0.000
712.203; 2919.625;    0.000;    0.000
712.401; 3054.625;    0.000;    0.000
712.599; 3028.625;    0.000;    0.000
712.798; 3158.625;    0.000;    0.000
712.996; 3101.625;    0.000;    0.000
713.194; 3071.625;    0.000;    0.000
713.392; 3128.625;    0.000;    0.000
713.590; 3159.625;    0.000;    0.000
713.788; 3206.625;    0.000;    0.000
713.986; 3292.625;    0.000;    0.000
714.184; 3165.625;    0.000;    0.000
714.382; 3239.625;    0.000;    0.000
714.580; 3221.625;    0.000;    0.000
714.778; 3264.625;    0.000;    0.000
714.976; 3439.625;    0.000;    0.000
715.174; 3426.625;    0.000;    0.000
715.372; 3579.625;    0.000;    0.000
715.570; 3584.625;    0.000;    0.000
715.768; 3829.625;    0.000;    0.000
715.966; 3921.625;    0.000;    0.000
716.164; 3800.625;    0.000;    0.000
716.362; 3839.625;    0.000;    0.000
716.560; 3827.625;    0.000;    0.000
716.758; 3590.625;    0.000;    0.000
716.955; 3678.625;    0.000;    0.000
717.153; 3579.625;    0.000;    0.000
717.351; 3625.625;    0.000;    0.000
717.549; 3609.625;    0.000;    0.000
717.746; 3556.625;    0.000;    0.000
717.944; 3556.625;    0.000;    0.000
718.142; 3515.625;    0.000;    0.000
718.340; 3546.625;    0.000;    0.000
718.537; 3460.625;    0.000;    0.000
718.735; 3523.625;    0.000;    0.000
718.933; 3523.625;    0.000;    0.000
719.130; 3583.625;    0.000;    0.000
719.328; 3558.625;    0.000;    0.000
719.525; 3461.625;    0.000;    0.000
719.723; 3541.625;    0.000;    0.000
719.920; 3521.625;    0.000;    0.000
720.118; 3461.625;    0.000;    0.000
720.316; 3556.625;    0.000;    0.000
720.513; 3550.625;    0.000;    0.000
720.711; 3464.625;    0.000;    0.000
720.908; 3444.625;    0.000;    0.000
721.105; 3576.625;    0.000;    0.000
721.303; 3511.625;    0.000;    0.000
721.500; 3490.625;    0.000;    0.000
721.698; 3537.625;    0.000;    0.000
721.895; 3573.625;    0.000;    0.000
722.092; 3493.625;    0.000;    0.000
722.290; 3615.625;    0.000;    0.000
722.487; 3584.625;    0.000;    0.000
722.684; 3580.625;    0.000;    0.000
722.882; 3522.625;    0.000;    0.000
723.079; 3590.625;    0.000;    0.000
723.276; 3515.625;    0.000;    0.000
723.473; 3581.625;    0.000;    0.000
723.671; 3591.625;    0.000;    0.000
723.868; 3592.625;    0.000;    0.000
724.065; 3688.625;    0.000;    0.000
724.262; 3533.625;    0.000;    0.000
724.459; 3570.625;    0.000;    0.000
724.656; 3715.625;    0.000;    0.000
724.854; 3649.625;    0.000;    0.000
725.051; 3607.625;    0.000;    0.000
725.248; 3742.625;    0.000;    0.000
725.445; 3640.625;    0.000;    0.000
725.642; 3701.625;    0.000;    0.000
725.839; 3700.625;    0.000;    0.000
726.036; 3699.625;    0.000;    0.000
726.233; 3680.625;    0.000;    0.000
726.430; 3713.625;    0.000;    0.000
726.627; 3704.625;    0.000;    0.000
726.824; 3723.625;    0.000;    0.000
727.021; 3699.625;    0.000;    0.000
727.218; 3699.625;    0.000;    0.000
727.414; 3700.625;    0.000;    0.000
727.611; 3657.625;    0.000;    0.000
727.808; 3765.625;    0.000;    0.000
728.005; 3739.625;    0.000;    0.000
728.202; 3769.625;    0.000;    0.000
728.399; 3771.625;    0.000;    0.000
728.595; 3716.625;    0.000;    0.000
728.792; 3792.625;    0.000;    0.000
728.989; 3837.625;    0.000;    0.000
729.186; 3706.625;    0.000;    0.000
729.382; 3839.625;    0.000;    0.000
729.579; 3863.625;    0.000;    0.000
729.776; 3839.625;    0.000;    0.000
729.972; 3836.625;    0.000;    0.000
730.169; 3832.625;    0.000;    0.000
730.366; 3885.625;    0.000;    0.000
730.562; 3835.625;    0.000;    0.000
730.759; 3815.625;    0.000;    0.000
730.955; 3841.625;    0.000;    0.000
731.152; 3869.625;    0.000;    0.000
731.348; 3896.625;    0.000;    0.000
731.545; 3785.625;    0.000;    0.000
731.741; 3921.625;    0.000;    0.000
731.938; 3988.625;    0.000;    0.000
732.134; 4032.625;    0.000;    0.000
732.331; 3997.625;    0.000;    0.000
732.527; 3878.625;    0.000;    0.000
732.724; 3860.625;    0.000;    0.000
732.920; 3989.625;    0.000;    0.000
733.116; 3959.625;    0.000;    0.000
733.313; 3984.625;    0.000;    0.000
733.509; 4020.625;    0.000;    0.000
733.705; 3953.625;    0.000;    0.000
733.902; 3980.625;    0.000;    0.000
734.098; 3995.625;    0.000;    0.000
734.294; 4045.625;    0.000;    0.000
734.490; 4017.625;    0.000;    0.000
734.687; 4132.625;    0.000;    0.000
734.883; 3993.625;    0.000;    0.000
735.079; 4061.625;    0.000;    0.000
735.275; 4158.625;    0.000;    0.000
735.471; 4020.625;    0.000;    0.000
735.667; 4121.625;    0.000;    0.000
735.863; 4170.625;    0.000;    0.000
736.060; 4110.625;    0.000;    0.000
736.256; 4158.625;    0.000;    0.000
736.452; 4195.625;    0.000;    0.000
736.648; 4274.625;    0.000;    0.000
736.844; 4160.625;    0.000;    0.000
737.040; 4230.625;    0.000;    0.000
737.236; 4206.625;    0.000;    0.000
737.432; 4147.625;    0.000;    0.000
737.628; 4206.625;    0.000;    0.000
737.824; 4255.625;    0.000;    0.000
738.019; 4284.625;    0.000;    0.000
738.215; 4342.625;    0.000;    0.000
738.411; 4357.625;    0.000;    0.000
738.607; 4250.625;    0.000;    0.000
738.803; 4259.625;    0.000;    0.000
738.999; 4493.625;    0.000;    0.000
739.195; 4378.625;    0.000;    0.000
739.390; 4498.625;    0.000;    0.000
739.586; 4476.625;    0.000;    0.000
739.782; 4467.625;    0.000;    0.000
739.978; 4394.625;    0.000;    0.000
740.173; 4494.625;    0.000;    0.000
740.369; 4580.625;    0.000;    0.000
740.565; 4701.625;    0.000;    0.000
740.760; 4607.625;    0.000;    0.000
740.956; 4674.625;    0.000;    0.000
741.152; 4696.625;    0.000;    0.000
741.347; 4583.625;    0.000;    0.000
741.543; 4706.625;    0.000;    0.000
741.738; 4877.625;    0.000;    0.000
741.934; 5006.625;    0.000;    0.000
742.129; 5331.625;    0.000;    0.000
742.325; 5965.625;    0.000;    0.000
742.520; 6254.625;    0.000;    0.000
742.716; 6076.625;    0.000;    0.000
742.911; 5720.625;    0.000;    0.000
743.107; 5719.625;    0.000;    0.000
743.302; 5554.625;    0.000;    0.000
743.498; 5534.625;    0.000;    0.000
743.693; 5731.625;    0.000;    0.000
743.888; 6027.625;    0.000;    0.000
744.084; 6999.625;    0.000;    0.000
744.279; 7970.625;    0.000;    0.000
744.474; 8044.625;    0.000;    0.000
744.670; 7397.625;    0.000;    0.000
744.865; 6841.625;    0.000;    0.000
745.060; 6519.625;    0.000;    0.000
745.255; 6516.625;    0.000;    0.000
745.451; 6247.625;    0.000;    0.000
745.646; 6154.625;    0.000;    0.000
745.841; 6194.625;    0.000;    0.000
746.036; 6151.625;    0.000;    0.000
746.231; 6419.625;    0.000;    0.000
746.426; 6711.625;    0.000;    0.000
746.622; 7850.625;    0.000;    0.000
746.817; 9830.625;    0.000;    0.000
747.012;10441.625;    0.000;    0.000
747.207; 9603.625;    0.000;    0.000
747.402; 8835.625;    0.000;    0.000
747.597; 7968.625;    0.000;    0.000
747.792; 7684.625;    0.000;    0.000
747.987; 7482.625;    0.000;    0.000
748.182; 7215.625;    0.000;    0.000
748.377; 6959.625;    0.000;    0.000
748.572; 6799.625;    0.000;    0.000
748.767; 6625.625;    0.000;    0.000
748.961; 6336.625;    0.000;    0.000
749.156; 6053.625;    0.000;    0.000
749.351; 6129.625;    0.000;    0.000
749.546; 6027.625;    0.000;    0.000
749.741; 5892.625;    0.000;    0.000
749.936; 6027.625;    0.000;    0.000
750.130; 5808.625;    0.000;    0.000
750.325; 5866.625;    0.000;    0.000
750.520; 5835.625;    0.000;    0.000
750.715; 5771.625;    0.000;    0.000
750.909; 5671.625;    0.000;    0.000
751.104; 5523.625;    0.000;    0.000
751.299; 5668.625;    0.000;    0.000
751.493; 5607.625;    0.000;    0.000
751.688; 5551.625;    0.000;    0.000
751.882; 5499.625;    0.000;    0.000
752.077; 5497.625;    0.000;    0.000
752.272; 5431.625;    0.000;    0.000
752.466; 5373.625;    0.000;    0.000
752.661; 5349.625;    0.000;    0.000
752.855; 5391.625;    0.000;    0.000
753.050; 5336.625;    0.000;    0.000
753.244; 5345.625;    0.000;    0.000
753.439; 5280.625;    0.000;    0.000
753.633; 5338.625;    0.000;    0.000
753.828; 5309.625;    0.000;    0.000
754.022; 5311.625;    0.000;    0.000
754.216; 5300.625;    0.000;    0.000
754.411; 5437.625;    0.000;    0.000
754.605; 5208.625;    0.000;    0.000
754.799; 5258.625;    0.000;    0.000
754.994; 5197.625;    0.000;    0.000
755.188; 5307.625;    0.000;    0.000
755.382; 5278.625;    0.000;    0.000
755.576; 5129.625;    0.000;    0.000
755.771; 5198.625;    0.000;    0.000
755.965; 5362.625;    0.000;    0.000
756.159; 5261.625;    0.000;    0.000
756.353; 5204.625;    0.000;    0.000
756.547; 5186.625;    0.000;    0.000
756.742; 5232.625;    0.000;    0.000
756.936; 5214.625;    0.000;    0.000
757.130; 5334.625;    0.000;    0.000
757.324; 5215.625;    0.000;    0.000
757.518; 5314.625;    0.000;    0.000
757.712; 5341.625;    0.000;    0.000
757.906; 5260.625;    0.000;    0.000
758.100; 5322.625;    0.000;    0.000
758.294; 5409.625;    0.000;    0.000
758.488; 5320.625;    0.000;    0.000
758.682; 5318.625;    0.000;    0.000
758.876; 5269.625;    0.000;    0.000
759.070; 5272.625;    0.000;    0.000
759.264; 5438.625;    0.000;    0.000
759.458; 5309.625;    0.000;    0.000
759.651; 5346.625;    0.000;    0.000
759.845; 5410.625;    0.000;    0.000
760.039; 5331.625;    0.000;    0.000
760.233; 5362.625;    0.000;    0.000
760.427; 5354.625;    0.000;    0.000
760.620; 5300.625;    0.000;    0.000
760.814; 5378.625;    0.000;    0.000
761.008; 5367.625;    0.000;    0.000
761.202; 5304.625;    0.000;    0.000
761.395; 5274.625;    0.000;    0.000
761.589; 5241.625;    0.000;    0.000
761.783; 5482.625;    0.000;    0.000
761.976; 5417.625;    0.000;    0.000
762.170; 5389.625;    0.000;    0.000
762.363; 5310.625;    0.000;    0.000
762.557; 5470.625;    0.000;    0.000
762.750; 5482.625;    0.000;    0.000
762.944; 5462.625;    0.000;    0.000
763.138; 5498.625;    0.000;    0.000
763.331; 5410.625;    0.000;    0.000
763.524; 5630.625;    0.000;    0.000
763.718; 5654.625;    0.000;    0.000
763.911; 5580.625;    0.000;    0.000
764.105; 5538.625;    0.000;    0.000
764.298; 5432.625;    0.000;    0.000
764.492; 5570.625;    0.000;    0.000
764.685; 5598.625;    0.000;    0.000
764.878; 5665.625;    0.000;    0.000
765.072; 5666.625;    0.000;    0.000
765.265; 5687.625;    0.000;    0.000
765.458; 5578.625;    0.000;    0.000
765.651; 5742.625;    0.000;    0.000
765.845; 5788.625;    0.000;    0.000
766.038; 6092.625;    0.000;    0.000
766.231; 7853.625;    0.000;    0.000
766.424;10870.625;    0.000;    0.000
766.617; 9790.625;    0.000;    0.000
766.811; 6761.625;    0.000;    0.000
767.004; 5941.625;    0.000;    0.000
767.197; 5954.625;    0.000;    0.000
767.390; 5838.625;    0.000;    0.000
767.583; 5858.625;    0.000;    0.000
767.776; 5742.625;    0.000;    0.000
767.969; 5738.625;    0.000;    0.000
768.162; 5936.625;    0.000;    0.000
768.355; 5950.625;    0.000;    0.000
768.548; 6036.625;    0.000;    0.000
768.741; 5816.625;    0.000;    0.000
768.934; 5958.625;    0.000;    0.000
769.127; 6099.625;    0.000;    0.000
769.320; 6146.625;    0.000;    0.000
769.513; 6383.625;    0.000;    0.000
769.706; 8429.625;    0.000;    0.000
769.898; 9910.625;    0.000;    0.000
770.091; 8033.625;    0.000;    0.000
770.284; 6440.625;    0.000;    0.000
770.477; 6301.625;    0.000;    0.000
770.670; 6244.625;    0.000;    0.000
770.862; 6228.625;    0.000;    0.000
771.055; 6390.625;    0.000;    0.000
771.248; 6557.625;    0.000;    0.000
771.441; 6446.625;    0.000;    0.000
771.633; 6469.625;    0.000;    0.000
771.826; 6641.625;    0.000;    0.000
772.018; 6730.625;    0.000;    0.000
772.211; 6830.625;    0.000;    0.000
772.404; 6696.625;    0.000;    0.000
772.596; 6774.625;    0.000;    0.000
772.789; 6868.625;    0.000;    0.000
772.981; 7102.625;    0.000;    0.000
773.174; 7050.625;    0.000;    0.000
773.366; 7137.625;    0.000;    0.000
773.559; 7148.625;    0.000;    0.000
773.751; 7339.625;    0.000;    0.000
773.944; 7588.625;    0.000;    0.000
774.136; 7674.625;    0.000;    0.000
774.329; 7760.625;    0.000;    0.000
774.521; 7851.625;    0.000;    0.000
774.713; 8289.625;    0.000;    0.000
774.906; 8447.625;    0.000;    0.000
775.098; 8878.625;    0.000;    0.000
775.290; 9465.625;    0.000;    0.000
775.483; 9631.625;    0.000;    0.000
775.675;10192.625;    0.000;    0.000
775.867;10977.625;    0.000;    0.000
776.059;11986.625;    0.000;    0.000
776.251;13414.625;    0.000;    0.000
776.444;15253.625;    0.000;    0.000
776.636;17783.625;    0.000;    0.000
776.828;22822.625;    0.000;    0.000
777.020;32232.625;    0.000;    0.000
777.212;42960.625;    0.000;    0.000
777.404;46902.625;    0.000;    0.000
777.596;41651.625;    0.000;    0.000
777.788;31972.625;    0.000;    0.000
777.980;25007.625;    0.000;    0.000
778.172;20455.625;    0.000;    0.000
778.364;17664.625;    0.000;    0.000
778.556;15785.625;    0.000;    0.000
778.748;14109.625;    0.000;    0.000
778.940;13005.625;    0.000;    0.000
779.132;12205.625;    0.000;    0.000
779.324;11179.625;    0.000;    0.000
779.516;10622.625;    0.000;    0.000
779.708;10254.625;    0.000;    0.000
779.900; 9624.625;    0.000;    0.000
780.091; 9282.625;    0.000;    0.000
780.283; 8979.625;    0.000;    0.000
780.475; 8696.625;    0.000;    0.000
780.667; 8430.625;    0.000;    0.000
780.859; 8235.625;    0.000;    0.000
781.050; 8026.625;    0.000;    0.000
781.242; 7835.625;    0.000;    0.000
781.434; 7845.625;    0.000;    0.000
781.625; 7418.625;    0.000;    0.000
781.817; 7393.625;    0.000;    0.000
782.008; 7210.625;    0.000;    0.000
782.200; 7227.625;    0.000;    0.000
782.392; 7002.625;    0.000;    0.000
782.583; 6914.625;    0.000;    0.000
782.775; 6748.625;    0.000;    0.000
782.966; 6908.625;    0.000;    0.000
783.158; 6707.625;    0.000;    0.000
783.349; 6522.625;    0.000;    0.000
783.541; 6412.625;    0.000;    0.000
783.732; 6525.625;    0.000;    0.000
783.924; 6569.625;    0.000;    0.000
784.115; 6457.625;    0.000;    0.000
784.306; 6378.625;    0.000;    0.000
784.498; 6439.625;    0.000;    0.000
784.689; 6338.625;    0.000;    0.000
784.880; 6362.625;    0.000;    0.000
785.072; 6346.625;    0.000;    0.000
785.263; 6224.625;    0.000;    0.000
785.454; 6263.625;    0.000;    0.000
785.645; 6228.625;    0.000;    0.000
785.837; 6138.625;    0.000;    0.000
786.028; 6116.625;    0.000;    0.000
786.219; 6153.625;    0.000;    0.000
786.410; 6223.625;    0.000;    0.000
786.601; 6205.625;    0.000;    0.000
786.792; 6158.625;    0.000;    0.000
786.984; 6161.625;    0.000;    0.000
787.175; 6096.625;    0.000;    0.000
787.366; 6223.625;    0.000;    0.000
787.557; 6148.625;    0.000;    0.000
787.748; 6158.625;    0.000;    0.000
787.939; 6272.625;    0.000;    0.000
788.130; 6129.625;    0.000;    0.000
788.321; 6275.625;    0.000;    0.000
788.512; 6441.625;    0.000;    0.000
788.703; 6308.625;    0.000;    0.000
788.894; 6281.625;    0.000;    0.000
789.084; 6306.625;    0.000;    0.000
789.275; 6339.625;    0.000;    0.000
789.466; 6640.625;    0.000;    0.000
789.657; 6511.625;    0.000;    0.000
789.848; 6464.625;    0.000;    0.000
790.039; 6424.625;    0.000;    0.000
790.229; 6509.625;    0.000;    0.000
790.420; 6495.625;    0.000;    0.000
790.611; 6575.625;    0.000;    0.000
790.801; 6355.625;    0.000;    0.000
790.992; 6533.625;    0.000;    0.000
791.183; 6484.625;    0.000;    0.000
791.373; 6399.625;    0.000;    0.000
791.564; 6395.625;    0.000;    0.000
791.755; 6311.625;    0.000;    0.000
791.945; 6380.625;    0.000;    0.000
792.136; 6269.625;    0.000;    0.000
792.326; 6367.625;    0.000;    0.000
792.517; 6431.625;    0.000;    0.000
792.707; 6483.625;    0.000;    0.000
792.898; 6403.625;    0.000;    0.000
793.088; 6412.625;    0.000;    0.000
793.279; 6469.625;    0.000;    0.000
793.469; 6569.625;    0.000;    0.000
793.660; 6703.625;    0.000;    0.000
793.850; 6879.625;    0.000;    0.000
794.040; 7085.625;    0.000;    0.000
794.231; 7450.625;    0.000;    0.000
794.421; 7876.625;    0.000;    0.000
794.611; 8985.625;    0.000;    0.000
794.802; 9729.625;    0.000;    0.000
794.992;10540.625;    0.000;    0.000
795.182;10440.625;    0.000;    0.000
795.372; 9909.625;    0.000;    0.000
795.563; 9022.625;    0.000;    0.000
795.753; 8244.625;    0.000;    0.000
795.943; 7881.625;    0.000;    0.000
796.133; 7321.625;    0.000;    0.000
796.323; 7244.625;    0.000;    0.000
796.513; 6954.625;    0.000;    0.000
796.703; 6905.625;    0.000;    0.000
796.893; 6692.625;    0.000;    0.000
797.083; 6646.625;    0.000;    0.000
797.273; 6441.625;    0.000;    0.000
797.463; 6452.625;    0.000;    0.000
797.653; 6356.625;    0.000;    0.000
797.843; 6337.625;    0.000;    0.000
798.033; 6160.625;    0.000;    0.000
798.223; 6074.625;    0.000;    0.000
798.413; 5955.625;    0.000;    0.000
798.603; 5989.625;    0.000;    0.000
798.793; 5798.625;    0.000;    0.000
798.983; 5785.625;    0.000;    0.000
799.172; 5750.625;    0.000;    0.000
799.362; 5735.625;    0.000;    0.000
799.552; 5630.625;    0.000;    0.000
799.742; 5696.625;    0.000;    0.000
799.932; 5546.625;    0.000;    0.000
800.121; 5498.625;    0.000;    0.000
800.311; 5553.625;    0.000;    0.000
800.501; 5454.625;    0.000;    0.000
800.690; 5477.625;    0.000;    0.000
800.880; 5394.625;    0.000;    0.000
801.070; 5374.625;    0.000;    0.000
801.259; 5374.625;    0.000;    0.000
801.449; 5378.625;    0.000;    0.000
801.638; 5390.625;    0.000;    0.000
801.828; 5236.625;    0.000;    0.000
802.017; 5310.625;    0.000;    0.000
802.207; 5290.625;    0.000;    0.000
802.396; 5244.625;    0.000;    0.000
802.586; 5224.625;    0.000;    0.000
802.775; 5271.625;    0.000;    0.000
802.965; 5242.625;    0.000;    0.000
803.154; 5196.625;    0.000;    0.000
803.343; 5165.625;    0.000;    0.000
803.533; 5167.625;    0.000;    0.000
803.722; 5077.625;    0.000;    0.000
803.911; 5152.625;    0.000;    0.000
804.101; 4999.625;    0.000;    0.000
804.290; 5082.625;    0.000;    0.000
804.479; 5179.625;    0.000;    0.000
804.668; 5034.625;    0.000;    0.000
804.857; 5069.625;    0.000;    0.000
805.047; 5137.625;    0.000;    0.000
805.236; 5090.625;    0.000;    0.000
805.425; 5161.625;    0.000;    0.000
805.614; 4950.625;    0.000;    0.000
805.803; 5090.625;    0.000;    0.000
805.992; 5008.625;    0.000;    0.000
806.181; 5110.625;    0.000;    0.000
806.370; 5030.625;    0.000;    0.000
806.559; 5098.625;    0.000;    0.000
806.748; 5088.625;    0.000;    0.000
806.937; 5051.625;    0.000;    0.000
807.126; 5012.625;    0.000;    0.000
807.315; 5030.625;    0.000;    0.000
807.504; 5096.625;    0.000;    0.000
807.693; 5203.625;    0.000;    0.000
807.882; 4943.625;    0.000;    0.000
808.071; 5067.625;    0.000;    0.000
808.260; 5014.625;    0.000;    0.000
808.448; 5145.625;    0.000;    0.000
808.637; 4993.625;    0.000;    0.000
808.826; 5095.625;    0.000;    0.000
809.015; 5221.625;    0.000;    0.000
809.203; 5092.625;    0.000;    0.000
809.392; 5146.625;    0.000;    0.000
809.581; 5202.625;    0.000;    0.000
809.770; 5105.625;    0.000;    0.000
809.958; 5170.625;    0.000;    0.000
810.147; 5087.625;    0.000;    0.000
810.335; 5234.625;    0.000;    0.000
810.524; 5202.625;    0.000;    0.000
810.713; 5252.625;    0.000;    0.000
810.901; 5324.625;    0.000;    0.000
811.090; 5279.625;    0.000;    0.000
811.278; 5324.625;    0.000;    0.000
811.467; 5444.625;    0.000;    0.000
811.655; 5521.625;    0.000;    0.000
811.844; 5573.625;    0.000;    0.000
812.032; 5443.625;    0.000;    0.000
812.220; 5461.625;    0.000;    0.000
812.409; 5415.625;    0.000;    0.000
812.597; 5588.625;    0.000;    0.000
812.785; 5520.625;    0.000;    0.000
812.974; 5567.625;    0.000;    0.000
813.162; 5458.625;    0.000;    0.000
813.350; 5707.625;    0.000;    0.000
813.539; 5663.625;    0.000;    0.000
813.727; 5689.625;    0.000;    0.000
813.915; 5663.625;    0.000;    0.000
814.103; 5850.625;    0.000;    0.000
814.291; 5775.625;    0.000;    0.000
814.479; 5741.625;    0.000;    0.000
814.668; 5826.625;    0.000;    0.000
814.856; 6089.625;    0.000;    0.000
815.044; 6072.625;    0.000;    0.000
815.232; 6127.625;    0.000;    0.000
815.420; 6270.625;    0.000;    0.000
815.608; 6378.625;    0.000;    0.000
815.796; 6456.625;    0.000;    0.000
815.984; 6563.625;    0.000;    0.000
816.172; 6973.625;    0.000;    0.000
816.360; 7010.625;    0.000;    0.000
816.548; 7096.625;    0.000;    0.000
816.736; 7509.625;    0.000;    0.000
816.924; 7747.625;    0.000;    0.000
817.111; 8086.625;    0.000;    0.000
817.299; 8640.625;    0.000;    0.000
817.487; 9317.625;    0.000;    0.000
817.675;10338.625;    0.000;    0.000
817.863;12161.625;    0.000;    0.000
818.050;17458.625;    0.000;    0.000
818.238;28643.625;    0.000;    0.000
818.426;31880.625;    0.000;    0.000
818.613;25672.625;    0.000;    0.000
818.801;21522.625;    0.000;    0.000
818.989;21044.625;    0.000;    0.000
819.176;24427.625;    0.000;    0.000
819.364;35531.625;    0.000;    0.000
819.552;39157.625;    0.000;    0.000
819.739;30240.625;    0.000;    0.000
819.927;22929.625;    0.000;    0.000
820.114;19471.625;    0.000;    0.000
820.302;17389.625;    0.000;    0.000
820.489;16200.625;    0.000;    0.000
820.677;15453.625;    0.000;    0.000
820.864;14914.625;    0.000;    0.000
821.052;15063.625;    0.000;    0.000
821.239;15316.625;    0.000;    0.000
821.426;16579.625;    0.000;    0.000
821.614;18904.625;    0.000;    0.000
821.801;18910.625;    0.000;    0.000
821.988;17151.625;    0.000;    0.000
822.176;16949.625;    0.000;    0.000
822.363;16495.625;    0.000;    0.000
822.550;15191.625;    0.000;    0.000
822.737;14012.625;    0.000;    0.000
822.924;13087.625;    0.000;    0.000
823.112;12226.625;    0.000;    0.000
823.299;11717.625;    0.000;    0.000
823.486;11267.625;    0.000;    0.000
823.673;10535.625;    0.000;    0.000
823.860;10397.625;    0.000;    0.000
824.047;10888.625;    0.000;    0.000
824.234;11580.625;    0.000;    0.000
824.421;11259.625;    0.000;    0.000
824.608;10307.625;    0.000;    0.000
824.795; 9508.625;    0.000;    0.000
824.982; 8837.625;    0.000;    0.000
825.169; 8437.625;    0.000;    0.000
825.356; 8063.625;    0.000;    0.000
825.543; 7775.625;    0.000;    0.000
825.730; 7393.625;    0.000;    0.000
825.917; 7320.625;    0.000;    0.000
826.104; 7170.625;    0.000;    0.000
826.290; 6847.625;    0.000;    0.000
826.477; 6767.625;    0.000;    0.000
826.664; 6686.625;    0.000;    0.000
826.851; 6367.625;    0.000;    0.000
827.038; 6242.625;    0.000;    0.000
827.224; 6203.625;    0.000;    0.000
827.411; 6079.625;    0.000;    0.000
827.598; 5966.625;    0.000;    0.000
827.784; 5927.625;    0.000;    0.000
827.971; 5958.625;    0.000;    0.000
828.157; 5645.625;    0.000;    0.000
828.344; 5501.625;    0.000;    0.000
828.531; 5500.625;    0.000;    0.000
828.717; 5577.625;    0.000;    0.000
828.904; 5366.625;    0.000;    0.000
829.090; 5292.625;    0.000;    0.000
829.277; 5244.625;    0.000;    0.000
829.463; 5201.625;    0.000;    0.000
829.650; 5080.625;    0.000;    0.000
829.836; 5106.625;    0.000;    0.000
830.022; 5069.625;    0.000;    0.000
830.209; 5007.625;    0.000;    0.000
830.395; 4916.625;    0.000;    0.000
830.581; 4869.625;    0.000;    0.000
830.768; 4818.625;    0.000;    0.000
830.954; 4818.625;    0.000;    0.000
831.140; 4795.625;    0.000;    0.000
831.327; 4823.625;    0.000;    0.000
831.513; 4770.625;    0.000;    0.000
831.699; 4670.625;    0.000;    0.000
831.885; 4578.625;    0.000;    0.000
832.071; 4603.625;    0.000;    0.000
832.257; 4561.625;    0.000;    0.000
832.444; 4544.625;    0.000;    0.000
832.630; 4700.625;    0.000;    0.000
832.816; 4586.625;    0.000;    0.000
833.002; 4429.625;    0.000;    0.000
833.188; 4362.625;    0.000;    0.000
833.374; 4415.625;    0.000;    0.000
833.560; 4453.625;    0.000;    0.000
833.746; 4294.625;    0.000;    0.000
833.932; 4304.625;    0.000;    0.000
834.118; 4182.625;    0.000;    0.000
834.303; 4297.625;    0.000;    0.000
834.489; 4276.625;    0.000;    0.000
834.675; 4242.625;    0.000;    0.000
834.861; 4187.625;    0.000;    0.000
835.047; 4184.625;    0.000;    0.000
835.233; 4040.625;    0.000;    0.000
835.418; 4183.625;    0.000;    0.000
835.604; 4030.625;    0.000;    0.000
835.790; 4167.625;    0.000;    0.000
835.976; 4175.625;    0.000;    0.000
836.161; 4203.625;    0.000;    0.000
836.347; 4117.625;    0.000;    0.000
836.533; 4056.625;    0.000;    0.000
836.718; 4133.625;    0.000;    0.000
836.904; 4109.625;    0.000;    0.000
837.089; 4083.625;    0.000;    0.000
837.275; 4084.625;    0.000;    0.000
837.460; 4099.625;    0.000;    0.000
837.646; 4054.625;    0.000;    0.000
837.831; 3994.625;    0.000;    0.000
838.017; 4049.625;    0.000;    0.000
838.202; 4029.625;    0.000;    0.000
838.388; 4113.625;    0.000;    0.000
838.573; 4018.625;    0.000;    0.000
838.759; 4102.625;    0.000;    0.000
838.944; 4024.625;    0.000;    0.000
839.129; 4042.625;    0.000;    0.000
839.315; 4072.625;    0.000;    0.000
839.500; 4086.625;    0.000;    0.000
839.685; 4096.625;    0.000;    0.000
839.870; 4017.625;    0.000;    0.000
840.056; 3970.625;    0.000;    0.000
840.241; 4127.625;    0.000;    0.000
840.426; 4096.625;    0.000;    0.000
840.611; 4209.625;    0.000;    0.000
840.796; 4156.625;    0.000;    0.000
840.981; 4154.625;    0.000;    0.000
841.166; 4117.625;    0.000;    0.000
841.352; 4223.625;    0.000;    0.000
841.537; 4328.625;    0.000;    0.000
841.722; 4203.625;    0.000;    0.000
841.907; 4272.625;    0.000;    0.000
842.092; 4372.625;    0.000;    0.000
842.277; 4409.625;    0.000;    0.000
842.461; 4613.625;    0.000;    0.000
842.646; 4577.625;    0.000;    0.000
842.831; 4749.625;    0.000;    0.000
843.016; 4851.625;    0.000;    0.000
843.201; 4922.625;    0.000;    0.000
843.386; 5244.625;    0.000;    0.000
843.571; 5556.625;    0.000;    0.000
843.755; 5768.625;    0.000;    0.000
843.940; 6239.625;    0.000;    0.000
844.125; 6934.625;    0.000;    0.000
844.310; 8481.625;    0.000;    0.000
844.494;11471.625;    0.000;    0.000
844.679;13577.625;    0.000;    0.000
844.864;13033.625;    0.000;    0.000
845.048;10848.625;    0.000;    0.000
845.233; 9166.625;    0.000;    0.000
845.418; 8045.625;    0.000;    0.000
845.602; 7248.625;    0.000;    0.000
845.787; 6700.625;    0.000;    0.000
845.971; 6261.625;    0.000;    0.000
846.156; 5774.625;    0.000;    0.000
846.340; 5504.625;    0.000;    0.000
846.525; 5375.625;    0.000;    0.000
846.709; 5063.625;    0.000;    0.000
846.893; 4970.625;    0.000;    0.000
847.078; 4752.625;    0.000;    0.000
847.262; 4705.625;    0.000;    0.000
847.447; 4455.625;    0.000;    0.000
847.631; 4449.625;    0.000;    0.000
847.815; 4380.625;    0.000;    0.000
848.000; 4221.625;    0.000;    0.000
848.184; 4172.625;    0.000;    0.000
848.368; 4207.625;    0.000;    0.000
848.552; 3998.625;    0.000;    0.000
848.736; 3949.625;    0.000;    0.000
848.921; 4054.625;    0.000;    0.000
849.105; 3893.625;    0.000;    0.000
849.289; 3925.625;    0.000;    0.000
849.473; 3810.625;    0.000;    0.000
849.657; 3782.625;    0.000;    0.000
849.841; 3736.625;    0.000;    0.000
850.025; 3814.625;    0.000;    0.000
850.209; 3656.625;    0.000;    0.000
850.393; 3662.625;    0.000;    0.000
850.577; 3608.625;    0.000;    0.000
850.761; 3659.625;    0.000;    0.000
850.945; 3568.625;    0.000;    0.000
851.129; 3545.625;    0.000;    0.000
851.313; 3664.625;    0.000;    0.000
851.497; 3523.625;    0.000;    0.000
851.680; 3499.625;    0.000;    0.000
851.864; 3535.625;    0.000;    0.000
852.048; 3568.625;    0.000;    0.000
852.232; 3487.625;    0.000;    0.000
852.416; 3629.625;    0.000;    0.000
852.599; 3409.625;    0.000;    0.000
852.783; 3511.625;    0.000;    0.000
852.967; 3579.625;    0.000;    0.000
853.150; 3529.625;    0.000;    0.000
853.334; 3438.625;    0.000;    0.000
853.518; 3514.625;    0.000;    0.000
853.701; 3329.625;    0.000;    0.000
853.885; 3491.625;    0.000;    0.000
854.068; 3378.625;    0.000;    0.000
854.252; 3376.625;    0.000;    0.000
854.435; 3412.625;    0.000;    0.000
854.619; 3392.625;    0.000;    0.000
854.802; 3405.625;    0.000;    0.000
854.986; 3404.625;    0.000;    0.000
855.169; 3367.625;    0.000;    0.000
855.353; 3493.625;    0.000;    0.000
855.536; 3453.625;    0.000;    0.000
855.719; 3368.625;    0.000;    0.000
855.903; 3537.625;    0.000;    0.000
856.086; 3493.625;    0.000;    0.000
856.269; 3430.625;    0.000;    0.000
856.452; 3536.625;    0.000;    0.000
856.636; 3723.625;    0.000;    0.000
856.819; 3886.625;    0.000;    0.000
857.002; 3964.625;    0.000;    0.000
857.185; 3906.625;    0.000;    0.000
857.368; 3819.625;    0.000;    0.000
857.552; 3667.625;    0.000;    0.000
857.735; 3630.625;    0.000;    0.000
857.918; 3691.625;    0.000;    0.000
858.101; 3582.625;    0.000;    0.000
858.284; 3647.625;    0.000;    0.000
858.467; 3753.625;    0.000;    0.000
858.650; 3760.625;    0.000;    0.000
858.833; 3731.625;    0.000;    0.000
859.016; 3850.625;    0.000;    0.000
859.199; 4153.625;    0.000;    0.000
859.382; 4366.625;    0.000;    0.000
859.564; 4631.625;    0.000;    0.000
859.747; 4509.625;    0.000;    0.000
859.930; 4294.625;    0.000;    0.000
860.113; 4082.625;    0.000;    0.000
860.296; 4120.625;    0.000;    0.000
860.478; 4011.625;    0.000;    0.000
860.661; 4040.625;    0.000;    0.000
860.844; 4006.625;    0.000;    0.000
861.027; 3930.625;    0.000;    0.000
861.209; 3875.625;    0.000;    0.000
861.392; 3843.625;    0.000;    0.000
861.575; 3973.625;    0.000;    0.000
861.757; 3930.625;    0.000;    0.000
861.940; 4062.625;    0.000;    0.000
862.122; 4027.625;    0.000;    0.000
862.305; 4135.625;    0.000;    0.000
862.487; 4456.625;    0.000;    0.000
862.670; 4792.625;    0.000;    0.000
862.852; 5702.625;    0.000;    0.000
863.035; 6353.625;    0.000;    0.000
863.217; 6151.625;    0.000;    0.000
863.400; 5695.625;    0.000;    0.000
863.582; 5343.625;    0.000;    0.000
863.764; 4910.625;    0.000;    0.000
863.947; 4790.625;    0.000;    0.000
864.129; 4683.625;    0.000;    0.000
864.311; 4647.625;    0.000;    0.000
864.493; 4491.625;    0.000;    0.000
864.676; 4420.625;    0.000;    0.000
864.858; 4472.625;    0.000;    0.000
865.040; 4479.625;    0.000;    0.000
865.222; 4373.625;    0.000;    0.000
865.404; 4587.625;    0.000;    0.000
865.587; 4765.625;    0.000;    0.000
865.769; 4995.625;    0.000;    0.000
865.951; 4935.625;    0.000;    0.000
866.133; 4948.625;    0.000;    0.000
866.315; 4935.625;    0.000;    0.000
866.497; 5104.625;    0.000;    0.000
866.679; 5117.625;    0.000;    0.000
866.861; 5251.625;    0.000;    0.000
867.043; 5487.625;    0.000;    0.000
867.225; 5929.625;    0.000;    0.000
867.407; 6507.625;    0.000;    0.000
867.589; 7492.625;    0.000;    0.000
867.770; 9467.625;    0.000;    0.000
867.952;12795.625;    0.000;    0.000
868.134;14950.625;    0.000;    0.000
868.316;14891.625;    0.000;    0.000
868.498;14047.625;    0.000;    0.000
868.679;12069.625;    0.000;    0.000
868.861;10209.625;    0.000;    0.000
869.043; 8598.625;    0.000;    0.000
869.224; 7595.625;    0.000;    0.000
869.406; 7241.625;    0.000;    0.000
869.588; 6692.625;    0.000;    0.000
869.769; 6316.625;    0.000;    0.000
869.951; 6310.625;    0.000;    0.000
870.132; 6547.625;    0.000;    0.000
870.314; 6986.625;    0.000;    0.000
870.495; 7037.625;    0.000;    0.000
870.677; 6571.625;    0.000;    0.000
870.858; 6382.625;    0.000;    0.000
871.040; 6757.625;    0.000;    0.000
871.221; 7206.625;    0.000;    0.000
871.403; 6950.625;    0.000;    0.000
871.584; 6621.625;    0.000;    0.000
871.765; 6648.625;    0.000;    0.000
871.947; 6598.625;    0.000;    0.000
872.128; 6088.625;    0.000;    0.000
872.309; 5446.625;    0.000;    0.000
872.491; 5122.625;    0.000;    0.000
872.672; 4933.625;    0.000;    0.000
872.853; 4688.625;    0.000;    0.000
873.034; 4515.625;    0.000;    0.000
873.215; 4336.625;    0.000;    0.000
873.396; 4134.625;    0.000;    0.000
873.578; 3972.625;    0.000;    0.000
873.759; 4041.625;    0.000;    0.000
873.940; 3825.625;    0.000;    0.000
874.121; 3685.625;    0.000;    0.000
874.302; 3652.625;    0.000;    0.000
874.483; 3709.625;    0.000;    0.000
874.664; 3594.625;    0.000;    0.000
874.845; 3634.625;    0.000;    0.000
875.026; 3558.625;    0.000;    0.000
875.207; 3475.625;    0.000;    0.000
875.388; 3458.625;    0.000;    0.000
875.568; 3426.625;    0.000;    0.000
875.749; 3352.625;    0.000;    0.000
875.930; 3362.625;    0.000;    0.000
876.111; 3327.625;    0.000;    0.000
876.292; 3276.625;    0.000;    0.000
876.472; 3218.625;    0.000;    0.000
876.653; 3115.625;    0.000;    0.000
876.834; 3160.625;    0.000;    0.000
877.015; 3123.625;    0.000;    0.000
877.195; 3135.625;    0.000;    0.000
877.376; 3052.625;    0.000;    0.000
877.556; 3069.625;    0.000;    0.000
877.737; 2983.625;    0.000;    0.000
877.918; 2993.625;    0.000;    0.000
878.098; 3047.625;    0.000;    0.000
878.279; 3067.625;    0.000;    0.000
878.459; 2962.625;    0.000;    0.000
878.640; 3077.625;    0.000;    0.000
878.820; 2932.625;    0.000;    0.000
879.000; 3013.625;    0.000;    0.000
879.181; 2943.625;    0.000;    0.000
879.361; 2950.625;    0.000;    0.000
879.542; 2890.625;    0.000;    0.000
879.722; 2973.625;    0.000;    0.000
879.902; 3074.625;    0.000;    0.000
880.083; 3031.625;    0.000;    0.000
880.263; 3098.625;    0.000;    0.000
880.443; 3470.625;    0.000;    0.000
880.623; 3902.625;    0.000;    0.000
880.803; 4014.625;    0.000;    0.000
880.984; 3655.625;    0.000;    0.000
881.164; 3358.625;    0.000;    0.000
881.344; 3322.625;    0.000;    0.000
881.524; 3276.625;    0.000;    0.000
881.704; 3194.625;    0.000;    0.000
881.884; 3475.625;    0.000;    0.000
882.064; 3572.625;    0.000;    0.000
882.244; 3462.625;    0.000;    0.000
882.424; 3361.625;    0.000;    0.000
882.604; 3204.625;    0.000;    0.000
882.784; 3089.625;    0.000;    0.000
882.964; 3013.625;    0.000;    0.000
883.144; 2948.625;    0.000;    0.000
883.324; 3032.625;    0.000;    0.000
883.504; 2965.625;    0.000;    0.000
883.683; 2896.625;    0.000;    0.000
883.863; 2954.625;    0.000;    0.000
884.043; 2851.625;    0.000;    0.000
884.223; 2813.625;    0.000;    0.000
884.402; 2782.625;    0.000;    0.000
884.582; 2803.625;    0.000;    0.000
884.762; 2906.625;    0.000;    0.000
884.941; 2847.625;    0.000;    0.000
885.121; 2794.625;    0.000;    0.000
885.301; 2714.625;    0.000;    0.000
885.480; 2777.625;    0.000;    0.000
885.660; 2826.625;    0.000;    0.000
885.839; 2695.625;    0.000;    0.000
886.019; 2754.625;    0.000;    0.000
886.198; 2750.625;    0.000;    0.000
886.378; 2688.625;    0.000;    0.000
886.557; 2662.625;    0.000;    0.000
886.737; 2729.625;    0.000;    0.000
886.916; 2774.625;    0.000;    0.000
887.095; 2658.625;    0.000;    0.000
887.275; 2615.625;    0.000;    0.000
887.454; 2678.625;    0.000;    0.000
887.633; 2714.625;    0.000;    0.000
887.813; 2784.625;    0.000;    0.000
887.992; 2668.625;    0.000;    0.000
888.171; 2627.625;    0.000;    0.000
888.350; 2718.625;    0.000;    0.000
888.530; 2574.625;    0.000;    0.000
888.709; 2621.625;    0.000;    0.000
888.888; 2595.625;    0.000;    0.000
889.067; 2551.625;    0.000;    0.000
889.246; 2762.625;    0.000;    0.000
889.425; 2596.625;    0.000;    0.000
889.604; 2678.625;    0.000;    0.000
889.783; 2731.625;    0.000;    0.000
889.962; 2573.625;    0.000;    0.000
890.141; 2666.625;    0.000;    0.000
890.320; 2593.625;    0.000;    0.000
890.499; 2630.625;    0.000;    0.000
890.678; 2621.625;    0.000;    0.000
890.857; 2592.625;    0.000;    0.000
891.036; 2570.625;    0.000;    0.000
891.214; 2536.625;    0.000;    0.000
891.393; 2542.625;    0.000;    0.000
891.572; 2566.625;    0.000;    0.000
891.751; 2621.625;    0.000;    0.000
891.930; 2532.625;    0.000;    0.000
892.108; 2487.625;    0.000;    0.000
892.287; 2588.625;    0.000;    0.000
892.466; 2540.625;    0.000;    0.000
892.644; 2532.625;    0.000;    0.000
892.823; 2595.625;    0.000;    0.000
893.001; 2599.625;    0.000;    0.000
893.180; 2537.625;    0.000;    0.000
893.359; 2537.625;    0.000;    0.000
893.537; 2551.625;    0.000;    0.000
893.716; 2503.625;    0.000;    0.000
893.894; 2591.625;    0.000;    0.000
894.073; 2562.625;    0.000;    0.000
894.251; 2588.625;    0.000;    0.000
894.429; 2577.625;    0.000;    0.000
894.608; 2617.625;    0.000;    0.000
894.786; 2555.625;    0.000;    0.000
894.964; 2438.625;    0.000;    0.000
895.143; 2551.625;    0.000;    0.000
895.321; 2528.625;    0.000;    0.000
895.499; 2494.625;    0.000;    0.000
895.677; 2635.625;    0.000;    0.000
895.856; 2564.625;    0.000;    0.000
896.034; 2611.625;    0.000;    0.000
896.212; 2555.625;    0.000;    0.000
896.390; 2514.625;    0.000;    0.000
896.568; 2665.625;    0.000;    0.000
896.746; 2521.625;    0.000;    0.000
896.924; 2589.625;    0.000;    0.000
897.102; 2651.625;    0.000;    0.000
897.280; 2556.625;    0.000;    0.000
897.458; 2530.625;    0.000;    0.000
897.636; 2544.625;    0.000;    0.000
897.814; 2564.625;    0.000;    0.000
897.992; 2607.625;    0.000;    0.000
898.170; 2653.625;    0.000;    0.000
898.348; 2572.625;    0.000;    0.000
898.526; 2541.625;    0.000;    0.000
898.704; 2681.625;    0.000;    0.000
898.882; 2617.625;    0.000;    0.000
899.059; 2632.625;    0.000;    0.000
899.237; 2621.625;    0.000;    0.000
899.415; 2642.625;    0.000;    0.000
899.593; 2578.625;    0.000;    0.000
899.770; 2714.625;    0.000;    0.000
899.948; 2723.625;    0.000;    0.000
900.125; 2610.625;    0.000;    0.000
900.303; 2652.625;    0.000;    0.000
900.481; 2708.625;    0.000;    0.000
900.658; 2724.625;    0.000;    0.000
900.836; 2677.625;    0.000;    0.000
901.013; 2780.625;    0.000;    0.000
901.191; 2771.625;    0.000;    0.000
901.368; 2749.625;    0.000;    0.000
901.546; 2841.625;    0.000;    0.000
901.723; 2874.625;    0.000;    0.000
901.901; 2871.625;    0.000;    0.000
902.078; 2923.625;    0.000;    0.000
902.255; 3006.625;    0.000;    0.000
902.433; 3012.625;    0.000;    0.000
902.610; 2898.625;    0.000;    0.000
902.787; 2987.625;    0.000;    0.000
902.964; 3183.625;    0.000;    0.000
903.142; 3134.625;    0.000;    0.000
903.319; 3209.625;    0.000;    0.000
903.496; 3308.625;    0.000;    0.000
903.673; 3361.625;    0.000;    0.000
903.850; 3303.625;    0.000;    0.000
904.027; 3490.625;    0.000;    0.000
904.204; 3680.625;    0.000;    0.000
904.381; 3973.625;    0.000;    0.000
904.558; 4536.625;    0.000;    0.000
904.735; 4775.625;    0.000;    0.000
904.912; 4854.625;    0.000;    0.000
905.089; 4757.625;    0.000;    0.000
905.266; 4426.625;    0.000;    0.000
905.443; 4075.625;    0.000;    0.000
905.620; 3987.625;    0.000;    0.000
905.797; 3772.625;    0.000;    0.000
905.974; 3620.625;    0.000;    0.000
906.151; 3654.625;    0.000;    0.000
906.327; 3701.625;    0.000;    0.000
906.504; 3583.625;    0.000;    0.000
906.681; 3411.625;    0.000;    0.000
906.858; 3365.625;    0.000;    0.000
907.034; 3326.625;    0.000;    0.000
907.211; 3196.625;    0.000;    0.000
907.388; 3165.625;    0.000;    0.000
907.564; 3061.625;    0.000;    0.000
907.741; 3160.625;    0.000;    0.000
907.917; 3100.625;    0.000;    0.000
908.094; 3023.625;    0.000;    0.000
908.271; 3032.625;    0.000;    0.000
908.447; 2968.625;    0.000;    0.000
908.623; 3001.625;    0.000;    0.000
908.800; 2881.625;    0.000;    0.000
908.976; 2783.625;    0.000;    0.000
909.153; 2955.625;    0.000;    0.000
909.329; 2955.625;    0.000;    0.000
909.505; 2956.625;    0.000;    0.000
909.682; 2860.625;    0.000;    0.000
909.858; 2813.625;    0.000;    0.000
910.034; 2839.625;    0.000;    0.000
910.211; 2851.625;    0.000;    0.000
910.387; 2845.625;    0.000;    0.000
910.563; 2743.625;    0.000;    0.000
910.739; 2754.625;    0.000;    0.000
910.915; 2775.625;    0.000;    0.000
911.091; 2793.625;    0.000;    0.000
911.268; 2786.625;    0.000;    0.000
911.444; 2725.625;    0.000;    0.000
911.620; 2674.625;    0.000;    0.000
911.796; 2767.625;    0.000;    0.000
911.972; 2736.625;    0.000;    0.000
912.148; 2806.625;    0.000;    0.000
912.324; 2782.625;    0.000;    0.000
912.500; 2796.625;    0.000;    0.000
912.676; 2683.625;    0.000;    0.000
912.851; 2809.625;    0.000;    0.000
913.027; 2700.625;    0.000;    0.000
913.203; 2696.625;    0.000;    0.000
913.379; 2673.625;    0.000;    0.000
913.555; 2641.625;    0.000;    0.000
913.730; 2716.625;    0.000;    0.000
913.906; 2649.625;    0.000;    0.000
914.082; 2817.625;    0.000;    0.000
914.258; 2642.625;    0.000;    0.000
914.433; 2690.625;    0.000;    0.000
914.609; 2735.625;    0.000;    0.000
914.784; 2820.625;    0.000;    0.000
914.960; 2776.625;    0.000;    0.000
915.136; 2646.625;    0.000;    0.000
915.311; 2728.625;    0.000;    0.000
915.487; 2669.625;    0.000;    0.000
915.662; 2779.625;    0.000;    0.000
915.838; 2755.625;    0.000;    0.000
916.013; 2710.625;    0.000;    0.000
916.189; 2723.625;    0.000;    0.000
916.364; 2718.625;    0.000;    0.000
916.539; 2847.625;    0.000;    0.000
916.715; 2817.625;    0.000;    0.000
916.890; 2806.625;    0.000;    0.000
917.065; 2805.625;    0.000;    0.000
917.240; 2734.625;    0.000;    0.000
917.416; 2795.625;    0.000;    0.000
917.591; 2666.625;    0.000;    0.000
917.766; 2802.625;    0.000;    0.000
917.941; 2702.625;    0.000;    0.000
918.116; 2892.625;    0.000;    0.000
918.292; 2733.625;    0.000;    0.000
918.467; 2804.625;    0.000;    0.000
918.642; 2856.625;    0.000;    0.000
918.817; 2856.625;    0.000;    0.000
918.992; 2803.625;    0.000;    0.000
919.167; 2930.625;    0.000;    0.000
919.342; 3071.625;    0.000;    0.000
919.517; 2887.625;    0.000;    0.000
919.692; 2933.625;    0.000;    0.000
919.867; 2937.625;    0.000;    0.000
920.041; 2938.625;    0.000;    0.000
920.216; 3163.625;    0.000;    0.000
920.391; 3095.625;    0.000;    0.000
920.566; 3084.625;    0.000;    0.000
920.741; 3238.625;    0.000;    0.000
920.915; 3480.625;    0.000;    0.000
921.090; 3789.625;    0.000;    0.000
921.265; 4331.625;    0.000;    0.000
921.439; 4385.625;    0.000;    0.000
921.614; 4182.625;    0.000;    0.000
921.789; 3767.625;    0.000;    0.000
921.963; 3728.625;    0.000;    0.000
922.138; 3625.625;    0.000;    0.000
922.312; 3568.625;    0.000;    0.000
922.487; 3574.625;    0.000;    0.000
922.661; 3827.625;    0.000;    0.000
922.836; 4073.625;    0.000;    0.000
923.010; 3972.625;    0.000;    0.000
923.185; 3689.625;    0.000;    0.000
923.359; 3626.625;    0.000;    0.000
923.534; 3745.625;    0.000;    0.000
923.708; 3840.625;    0.000;    0.000
923.882; 3887.625;    0.000;    0.000
924.057; 3744.625;    0.000;    0.000
924.231; 3476.625;    0.000;    0.000
924.405; 3480.625;    0.000;    0.000
924.579; 3463.625;    0.000;    0.000
924.753; 3433.625;    0.000;    0.000
924.928; 3407.625;    0.000;    0.000
925.102; 3375.625;    0.000;    0.000
925.276; 3395.625;    0.000;    0.000
925.450; 3441.625;    0.000;    0.000
925.624; 3446.625;    0.000;    0.000
925.798; 3591.625;    0.000;    0.000
925.972; 3681.625;    0.000;    0.000
926.146; 3953.625;    0.000;    0.000
926.320; 4112.625;    0.000;    0.000
926.494; 4404.625;    0.000;    0.000
926.668; 4619.625;    0.000;    0.000
926.842; 4684.625;    0.000;    0.000
927.016; 4624.625;    0.000;    0.000
927.190; 4501.625;    0.000;    0.000
927.363; 4443.625;    0.000;    0.000
927.537; 4311.625;    0.000;    0.000
927.711; 4135.625;    0.000;    0.000
927.885; 4147.625;    0.000;    0.000
928.058; 4078.625;    0.000;    0.000
928.232; 3925.625;    0.000;    0.000
928.406; 3785.625;    0.000;    0.000
928.579; 3807.625;    0.000;    0.000
928.753; 3749.625;    0.000;    0.000
928.927; 3598.625;    0.000;    0.000
929.100; 3608.625;    0.000;    0.000
929.274; 3440.625;    0.000;    0.000
929.447; 3499.625;    0.000;    0.000
929.621; 3386.625;    0.000;    0.000
929.794; 3338.625;    0.000;    0.000
929.968; 3349.625;    0.000;    0.000
930.141; 3221.625;    0.000;    0.000
930.315; 3303.625;    0.000;    0.000
930.488; 3160.625;    0.000;    0.000
930.661; 3178.625;    0.000;    0.000
930.835; 3174.625;    0.000;    0.000
931.008; 3104.625;    0.000;    0.000
931.181; 3081.625;    0.000;    0.000
931.354; 3133.625;    0.000;    0.000
931.528; 2912.625;    0.000;    0.000
931.701; 2926.625;    0.000;    0.000
931.874; 2863.625;    0.000;    0.000
932.047; 2968.625;    0.000;    0.000
932.220; 2912.625;    0.000;    0.000
932.393; 2747.625;    0.000;    0.000
932.566; 2778.625;    0.000;    0.000
932.739; 2813.625;    0.000;    0.000
932.912; 2781.625;    0.000;    0.000
933.085; 2867.625;    0.000;    0.000
933.258; 2787.625;    0.000;    0.000
933.431; 2792.625;    0.000;    0.000
933.604; 2744.625;    0.000;    0.000
933.777; 2752.625;    0.000;    0.000
933.950; 2665.625;    0.000;    0.000
934.123; 2759.625;    0.000;    0.000
934.296; 2747.625;    0.000;    0.000
934.468; 2617.625;    0.000;    0.000
934.641; 2559.625;    0.000;    0.000
934.814; 2650.625;    0.000;    0.000
934.987; 2617.625;    0.000;    0.000
935.159; 2625.625;    0.000;    0.000
935.332; 2570.625;    0.000;    0.000
935.505; 2505.625;    0.000;    0.000
935.677; 2588.625;    0.000;    0.000
935.850; 2578.625;    0.000;    0.000
936.022; 2584.625;    0.000;    0.000
936.195; 2586.625;    0.000;    0.000
936.367; 2604.625;    0.000;    0.000
936.540; 2695.625;    0.000;    0.000
936.712; 2660.625;    0.000;    0.000
936.885; 2587.625;    0.000;    0.000
937.057; 2576.625;    0.000;    0.000
937.229; 2639.625;    0.000;    0.000
937.402; 2601.625;    0.000;    0.000
937.574; 2637.625;    0.000;    0.000
937.746; 2799.625;    0.000;    0.000
937.919; 2801.625;    0.000;    0.000
938.091; 2841.625;    0.000;    0.000
938.263; 3006.625;    0.000;    0.000
938.435; 3294.625;    0.000;    0.000
938.608; 3743.625;    0.000;    0.000
938.780; 3854.625;    0.000;    0.000
938.952; 4164.625;    0.000;    0.000
939.124; 4354.625;    0.000;    0.000
939.296; 4634.625;    0.000;    0.000
939.468; 4531.625;    0.000;    0.000
939.640; 3978.625;    0.000;    0.000
939.812; 3791.625;    0.000;    0.000
939.984; 3456.625;    0.000;    0.000
940.156; 3220.625;    0.000;    0.000
940.328; 3101.625;    0.000;    0.000
940.500; 2944.625;    0.000;    0.000
940.672; 2821.625;    0.000;    0.000
940.843; 2761.625;    0.000;    0.000
941.015; 2741.625;    0.000;    0.000
941.187; 2660.625;    0.000;    0.000
941.359; 2779.625;    0.000;    0.000
941.531; 2618.625;    0.000;    0.000
941.702; 2574.625;    0.000;    0.000
941.874; 2546.625;    0.000;    0.000
942.046; 2507.625;    0.000;    0.000
942.217; 2445.625;    0.000;    0.000
942.389; 2516.625;    0.000;    0.000
942.560; 2514.625;    0.000;    0.000
942.732; 2356.625;    0.000;    0.000
942.904; 2467.625;    0.000;    0.000
943.075; 2390.625;    0.000;    0.000
943.247; 2277.625;    0.000;    0.000
943.418; 2222.625;    0.000;    0.000
943.589; 2319.625;    0.000;    0.000
943.761; 2261.625;    0.000;    0.000
943.932; 2264.625;    0.000;    0.000
944.104; 2256.625;    0.000;    0.000
944.275; 2198.625;    0.000;    0.000
944.446; 2195.625;    0.000;    0.000
944.617; 2162.625;    0.000;    0.000
944.789; 2199.625;    0.000;    0.000
944.960; 2159.625;    0.000;    0.000
945.131; 2152.625;    0.000;    0.000
945.302; 2233.625;    0.000;    0.000
945.473; 2196.625;    0.000;    0.000
945.645; 2159.625;    0.000;    0.000
945.816; 2255.625;    0.000;    0.000
945.987; 2281.625;    0.000;    0.000
946.158; 2380.625;    0.000;    0.000
946.329; 2379.625;    0.000;    0.000
946.500; 2275.625;    0.000;    0.000
946.671; 2237.625;    0.000;    0.000
946.842; 2238.625;    0.000;    0.000
947.013; 2211.625;    0.000;    0.000
947.183; 2215.625;    0.000;    0.000
947.354; 2215.625;    0.000;    0.000
947.525; 2202.625;    0.000;    0.000
947.696; 2196.625;    0.000;    0.000
947.867; 2305.625;    0.000;    0.000
948.037; 2137.625;    0.000;    0.000
948.208; 2221.625;    0.000;    0.000
948.379; 2168.625;    0.000;    0.000
948.550; 2183.625;    0.000;    0.000
948.720; 2102.625;    0.000;    0.000
948.891; 2148.625;    0.000;    0.000
949.061; 2128.625;    0.000;    0.000
949.232; 2033.625;    0.000;    0.000
949.403; 2157.625;    0.000;    0.000
949.573; 2072.625;    0.000;    0.000
949.744; 2151.625;    0.000;    0.000
949.914; 2125.625;    0.000;    0.000
950.085; 2118.625;    0.000;    0.000
950.255; 2100.625;    0.000;    0.000
950.425; 2167.625;    0.000;    0.000
950.596; 2127.625;    0.000;    0.000
950.766; 2114.625;    0.000;    0.000
950.936; 2208.625;    0.000;    0.000
951.107; 2055.625;    0.000;    0.000
951.277; 2131.625;    0.000;    0.000
951.447; 2121.625;    0.000;    0.000
951.617; 2112.625;    0.000;    0.000
951.788; 2073.625;    0.000;    0.000
951.958; 2163.625;    0.000;    0.000
952.128; 2123.625;    0.000;    0.000
952.298; 2136.625;    0.000;    0.000
952.468; 2101.625;    0.000;    0.000
952.638; 2042.625;    0.000;    0.000
952.808; 2117.625;    0.000;    0.000
952.978; 2113.625;    0.000;    0.000
953.148; 2159.625;    0.000;    0.000
953.318; 2066.625;    0.000;    0.000
953.488; 2048.625;    0.000;    0.000
953.658; 2126.625;    0.000;    0.000
953.828; 1996.625;    0.000;    0.000
953.998; 2069.625;    0.000;    0.000
954.167; 2128.625;    0.000;    0.000
954.337; 2119.625;    0.000;    0.000
954.507; 2084.625;    0.000;    0.000
954.677; 2113.625;    0.000;    0.000
954.846; 2126.625;    0.000;    0.000
955.016; 2043.625;    0.000;    0.000
955.186; 2143.625;    0.000;    0.000
955.355; 2045.625;    0.000;    0.000
955.525; 2128.625;    0.000;    0.000
955.695; 2076.625;    0.000;    0.000
955.864; 2057.625;    0.000;    0.000
956.034; 2059.625;    0.000;    0.000
956.203; 2116.625;    0.000;    0.000
956.373; 2055.625;    0.000;    0.000
956.542; 2127.625;    0.000;    0.000
956.711; 2050.625;    0.000;    0.000
956.881; 2035.625;    0.000;    0.000
957.050; 2097.625;    0.000;    0.000
957.220; 2055.625;    0.000;    0.000
957.389; 2107.625;    0.000;    0.000
957.558; 2040.625;    0.000;    0.000
957.727; 2107.625;    0.000;    0.000
957.897; 2028.625;    0.000;    0.000
958.066; 2037.625;    0.000;    0.000
958.235; 2031.625;    0.000;    0.000
958.404; 2127.625;    0.000;    0.000
958.573; 2115.625;    0.000;    0.000
958.743; 2025.625;    0.000;    0.000
958.912; 2012.625;    0.000;    0.000
959.081; 1997.625;    0.000;    0.000
959.250; 2093.625;    0.000;    0.000
959.419; 2105.625;    0.000;    0.000
959.588; 2074.625;    0.000;    0.000
959.757; 2069.625;    0.000;    0.000
959.926; 2074.625;    0.000;    0.000
960.094; 2028.625;    0.000;    0.000
960.263; 1982.625;    0.000;    0.000
960.432; 1976.625;    0.000;    0.000
960.601; 1950.625;    0.000;    0.000
960.770; 1996.625;    0.000;    0.000
960.939; 1995.625;    0.000;    0.000
961.107; 1958.625;    0.000;    0.000
961.276; 1983.625;    0.000;    0.000
961.445; 1974.625;    0.000;    0.000
961.613; 1969.625;    0.000;    0.000
961.782; 1947.625;    0.000;    0.000
961.951; 2090.625;    0.000;    0.000
962.119; 1897.625;    0.000;    0.000
962.288; 2008.625;    0.000;    0.000
962.456; 1932.625;    0.000;    0.000
962.625; 2001.625;    0.000;    0.000
962.793; 1948.625;    0.000;    0.000
962.962; 1978.625;    0.000;    0.000
963.130; 1963.625;    0.000;    0.000
963.298; 1957.625;    0.000;    0.000
963.467; 1974.625;    0.000;    0.000
963.635; 1849.625;    0.000;    0.000
963.803; 1996.625;    0.000;    0.000
963.972; 1953.625;    0.000;    0.000
964.140; 1928.625;    0.000;    0.000
964.308; 1936.625;    0.000;    0.000
964.477; 2036.625;    0.000;    0.000
964.645; 2017.625;    0.000;    0.000
964.813; 1990.625;    0.000;    0.000
964.981; 2089.625;    0.000;    0.000
965.149; 2151.625;    0.000;    0.000
965.317; 2125.625;    0.000;    0.000
965.485; 2030.625;    0.000;    0.000
965.653; 1926.625;    0.000;    0.000
965.821; 2010.625;    0.000;    0.000
965.989; 2017.625;    0.000;    0.000
966.157; 1960.625;    0.000;    0.000
966.325; 2010.625;    0.000;    0.000
966.493; 1998.625;    0.000;    0.000
966.661; 1944.625;    0.000;    0.000
966.829; 1968.625;    0.000;    0.000
966.996; 2031.625;    0.000;    0.000
967.164; 1986.625;    0.000;    0.000
967.332; 2092.625;    0.000;    0.000
967.500; 1999.625;    0.000;    0.000
967.667; 2001.625;    0.000;    0.000
967.835; 1967.625;    0.000;    0.000
968.003; 1970.625;    0.000;    0.000
968.170; 1979.625;    0.000;    0.000
968.338; 2071.625;    0.000;    0.000
968.505; 2008.625;    0.000;    0.000
968.673; 1991.625;    0.000;    0.000
968.841; 2000.625;    0.000;    0.000
969.008; 2037.625;    0.000;    0.000
969.175; 1933.625;    0.000;    0.000
969.343; 1991.625;    0.000;    0.000
969.510; 1981.625;    0.000;    0.000
969.678; 2041.625;    0.000;    0.000
969.845; 1956.625;    0.000;    0.000
970.012; 1958.625;    0.000;    0.000
970.180; 2077.625;    0.000;    0.000
970.347; 2062.625;    0.000;    0.000
970.514; 2036.625;    0.000;    0.000
970.681; 1979.625;    0.000;    0.000
970.849; 1932.625;    0.000;    0.000
971.016; 1978.625;    0.000;    0.000
971.183; 1906.625;    0.000;    0.000
971.350; 2013.625;    0.000;    0.000
971.517; 1993.625;    0.000;    0.000
971.684; 2003.625;    0.000;    0.000
971.851; 2012.625;    0.000;    0.000
972.018; 2022.625;    0.000;    0.000
972.185; 1964.625;    0.000;    0.000
972.352; 1994.625;    0.000;    0.000
972.519; 2001.625;    0.000;    0.000
972.686; 2031.625;    0.000;    0.000
972.853; 2036.625;    0.000;    0.000
973.020; 1897.625;    0.000;    0.000
973.186; 1998.625;    0.000;    0.000
973.353; 1974.625;    0.000;    0.000
973.520; 2009.625;    0.000;    0.000
973.687; 2017.625;    0.000;    0.000
973.853; 2002.625;    0.000;    0.000
974.020; 2028.625;    0.000;    0.000
974.187; 1952.625;    0.000;    0.000
974.353; 2100.625;    0.000;    0.000
974.520; 2020.625;    0.000;    0.000
974.687; 1968.625;    0.000;    0.000
974.853; 2031.625;    0.000;    0.000
975.020; 2015.625;    0.000;    0.000
975.186; 1953.625;    0.000;    0.000
975.353; 1971.625;    0.000;    0.000
975.519; 1999.625;    0.000;    0.000
975.685; 1981.625;    0.000;    0.000
975.852; 1993.625;    0.000;    0.000
976.018; 1964.625;    0.000;    0.000
976.184; 2041.625;    0.000;    0.000
976.351; 1997.625;    0.000;    0.000
976.517; 1920.625;    0.000;    0.000
976.683; 1970.625;    0.000;    0.000
976.849; 2019.625;    0.000;    0.000
977.016; 1868.625;    0.000;    0.000
977.182; 1946.625;    0.000;    0.000
977.348; 1893.625;    0.000;    0.000
977.514; 1878.625;    0.000;    0.000
977.680; 1995.625;    0.000;    0.000
977.846; 1955.625;    0.000;    0.000
978.012; 1980.625;    0.000;    0.000
978.178; 1882.625;    0.000;    0.000
978.344; 1954.625;    0.000;    0.000
978.510; 1941.625;    0.000;    0.000
978.676; 1937.625;    0.000;    0.000
978.842; 1947.625;    0.000;    0.000
979.008; 1878.625;    0.000;    0.000
979.174; 1998.625;    0.000;    0.000
979.340; 1958.625;    0.000;    0.000
979.505; 1976.625;    0.000;    0.000
979.671; 1933.625;    0.000;    0.000
979.837; 1942.625;    0.000;    0.000
980.003; 1918.625;    0.000;    0.000
980.168; 1882.625;    0.000;    0.000
980.334; 1849.625;    0.000;    0.000
980.499; 1948.625;    0.000;    0.000
980.665; 1978.625;    0.000;    0.000
980.831; 1978.625;    0.000;    0.000
980.996; 1992.625;    0.000;    0.000
981.162; 1968.625;    0.000;    0.000
981.327; 1907.625;    0.000;    0.000
981.493; 2000.625;    0.000;    0.000
981.658; 1924.625;    0.000;    0.000
981.823; 1951.625;    0.000;    0.000
981.989; 2135.625;    0.000;    0.000
982.154; 2091.625;    0.000;    0.000
982.319; 1969.625;    0.000;    0.000
982.485; 1991.625;    0.000;    0.000
982.650; 2069.625;    0.000;    0.000
982.815; 2021.625;    0.000;    0.000
982.980; 2023.625;    0.000;    0.000
983.146; 2072.625;    0.000;    0.000
983.311; 1965.625;    0.000;    0.000
983.476; 1990.625;    0.000;    0.000
983.641; 1952.625;    0.000;    0.000
983.806; 1917.625;    0.000;    0.000
983.971; 2001.625;    0.000;    0.000
984.136; 1964.625;    0.000;    0.000
984.301; 2022.625;    0.000;    0.000
984.466; 1985.625;    0.000;    0.000
984.631; 1982.625;    0.000;    0.000
984.796; 1972.625;    0.000;    0.000
984.961; 1955.625;    0.000;    0.000
985.126; 2030.625;    0.000;    0.000
985.291; 1918.625;    0.000;    0.000
985.455; 2014.625;    0.000;    0.000
985.620; 2017.625;    0.000;    0.000
985.785; 1913.625;    0.000;    0.000
985.950; 1908.625;    0.000;    0.000
986.114; 1954.625;    0.000;    0.000
986.279; 2012.625;    0.000;    0.000
986.444; 1946.625;    0.000;    0.000
986.608; 2058.625;    0.000;    0.000
986.773; 2023.625;    0.000;    0.000
986.937; 2054.625;    0.000;    0.000
987.102; 1999.625;    0.000;    0.000
987.266; 1974.625;    0.000;    0.000
987.431; 1994.625;    0.000;    0.000
987.595; 2085.625;    0.000;    0.000
987.760; 2030.625;    0.000;    0.000
987.924; 2025.625;    0.000;    0.000
988.088; 2018.625;    0.000;    0.000
988.253; 1992.625;    0.000;    0.000
988.417; 2032.625;    0.000;    0.000
988.581; 1988.625;    0.000;    0.000
988.746; 2002.625;    0.000;    0.000
988.910; 2004.625;    0.000;    0.000
989.074; 2035.625;    0.000;    0.000
989.238; 2021.625;    0.000;    0.000
989.402; 2061.625;    0.000;    0.000
989.566; 1972.625;    0.000;    0.000
989.731; 1973.625;    0.000;    0.000
989.895; 1899.625;    0.000;    0.000
990.059; 1976.625;    0.000;    0.000
990.223; 1966.625;    0.000;    0.000
990.387; 1929.625;    0.000;    0.000
990.551; 1954.625;    0.000;    0.000
990.714; 1919.625;    0.000;    0.000
990.878; 1943.625;    0.000;    0.000
991.042; 1950.625;    0.000;    0.000
991.206; 1988.625;    0.000;    0.000
991.370; 1942.625;    0.000;    0.000
991.534; 1901.625;    0.000;    0.000
991.697; 1929.625;    0.000;    0.000
991.861; 1932.625;    0.000;    0.000
992.025; 1951.625;    0.000;    0.000
992.188; 1948.625;    0.000;    0.000
992.352; 2004.625;    0.000;    0.000
992.516; 1918.625;    0.000;    0.000
992.679; 1941.625;    0.000;    0.000
992.843; 1901.625;    0.000;    0.000
993.006; 1911.625;    0.000;    0.000
993.170; 1989.625;    0.000;    0.000
993.333; 1898.625;    0.000;    0.000
993.497; 1900.625;    0.000;    0.000
993.660; 1942.625;    0.000;    0.000
993.824; 1897.625;    0.000;    0.000
993.987; 1932.625;    0.000;    0.000
994.150; 1924.625;    0.000;    0.000
994.314; 1963.625;    0.000;    0.000
994.477; 1972.625;    0.000;    0.000
994.640; 1926.625;    0.000;    0.000
994.803; 2009.625;    0.000;    0.000
994.967; 1855.625;    0.000;    0.000
995.130; 1925.625;    0.000;    0.000
995.293; 1903.625;    0.000;    0.000
995.456; 1912.625;    0.000;    0.000
995.619; 1916.625;    0.000;    0.000
995.782; 1971.625;    0.000;    0.000
995.945; 1994.625;    0.000;    0.000
996.108; 1939.625;    0.000;    0.000
996.271; 1871.625;    0.000;    0.000
996.434; 1967.625;    0.000;    0.000
996.597; 1903.625;    0.000;    0.000
996.760; 1906.625;    0.000;    0.000
996.923; 1897.625;    0.000;    0.000
997.086; 1997.625;    0.000;    0.000
997.248; 1941.625;    0.000;    0.000
997.411; 1837.625;    0.000;    0.000
997.574; 1850.625;    0.000;    0.000
997.737; 1928.625;    0.000;    0.000
997.899; 1896.625;    0.000;    0.000
998.062; 1914.625;    0.000;    0.000
998.225; 1844.625;    0.000;    0.000
998.387; 1968.625;    0.000;    0.000
998.550; 1941.625;    0.000;    0.000
998.712; 1833.625;    0.000;    0.000
998.875; 1936.625;    0.000;    0.000
999.037; 1917.625;    0.000;    0.000
999.200; 1875.625;    0.000;    0.000
999.362; 1962.625;    0.000;    0.000
999.525; 1964.625;    0.000;    0.000
999.687; 1913.625;    0.000;    0.000
999.849; 1930.625;    0.000;    0.000
1000.012; 1963.625;    0.000;    0.000
1000.174; 1974.625;    0.000;    0.000
1000.336; 1931.625;    0.000;    0.000
1000.499; 1956.625;    0.000;    0.000
1000.661; 1940.625;    0.000;    0.000
1000.823; 1905.625;    0.000;    0.000
1000.985; 1918.625;    0.000;    0.000
1001.147; 2037.625;    0.000;    0.000
1001.309; 1979.625;    0.000;    0.000
1001.471; 1955.625;    0.000;    0.000
1001.633; 1914.625;    0.000;    0.000
1001.796; 2010.625;    0.000;    0.000
1001.958; 2086.625;    0.000;    0.000
1002.119; 1965.625;    0.000;    0.000
1002.281; 1991.625;    0.000;    0.000
1002.443; 2018.625;    0.000;    0.000
1002.605; 2062.625;    0.000;    0.000
1002.767; 2112.625;    0.000;    0.000
1002.929; 2128.625;    0.000;    0.000
1003.091; 2087.625;    0.000;    0.000
1003.252; 2344.625;    0.000;    0.000
1003.414; 2274.625;    0.000;    0.000
1003.576; 2285.625;    0.000;    0.000
1003.738; 2393.625;    0.000;    0.000
1003.899; 2499.625;    0.000;    0.000
1004.061; 2429.625;    0.000;    0.000
1004.222; 2488.625;    0.000;    0.000
1004.384; 2504.625;    0.000;    0.000
1004.546; 2600.625;    0.000;    0.000
1004.707; 2659.625;    0.000;    0.000
1004.869; 2572.625;    0.000;    0.000
1005.030; 2651.625;    0.000;    0.000
1005.191; 2625.625;    0.000;    0.000
1005.353; 2627.625;    0.000;    0.000
1005.514; 2495.625;    0.000;    0.000
1005.675; 2465.625;    0.000;    0.000
1005.837; 2435.625;    0.000;    0.000
1005.998; 2350.625;    0.000;    0.000
1006.159; 2345.625;    0.000;    0.000
1006.321; 2409.625;    0.000;    0.000
1006.482; 2452.625;    0.000;    0.000
1006.643; 2435.625;    0.000;    0.000
1006.804; 2586.625;    0.000;    0.000
1006.965; 2624.625;    0.000;    0.000
1007.126; 2644.625;    0.000;    0.000
1007.287; 2595.625;    0.000;    0.000
1007.448; 2571.625;    0.000;    0.000
1007.609; 2554.625;    0.000;    0.000
1007.770; 2543.625;    0.000;    0.000
1007.931; 2493.625;    0.000;    0.000
1008.092; 2551.625;    0.000;    0.000
1008.253; 2613.625;    0.000;    0.000
1008.414; 2646.625;    0.000;    0.000
1008.575; 2721.625;    0.000;    0.000
1008.736; 2680.625;    0.000;    0.000
1008.896; 2669.625;    0.000;    0.000
1009.057; 2730.625;    0.000;    0.000
1009.218; 2634.625;    0.000;    0.000
1009.379; 2722.625;    0.000;    0.000
1009.539; 2675.625;    0.000;    0.000
1009.700; 2762.625;    0.000;    0.000
1009.860; 2820.625;    0.000;    0.000
1010.021; 2760.625;    0.000;    0.000
1010.182; 2772.625;    0.000;    0.000
1010.342; 2777.625;    0.000;    0.000
1010.503; 2794.625;    0.000;    0.000
1010.663; 2981.625;    0.000;    0.000
1010.823; 2899.625;    0.000;    0.000
1010.984; 3093.625;    0.000;    0.000
1011.144; 3152.625;    0.000;    0.000
1011.305; 3202.625;    0.000;    0.000
1011.465; 3232.625;    0.000;    0.000
1011.625; 3347.625;    0.000;    0.000
1011.785; 3444.625;    0.000;    0.000
1011.946; 3321.625;    0.000;    0.000
1012.106; 3256.625;    0.000;    0.000
1012.266; 3387.625;    0.000;    0.000
1012.426; 3261.625;    0.000;    0.000
1012.586; 3285.625;    0.000;    0.000
1012.746; 3312.625;    0.000;    0.000
1012.906; 3241.625;    0.000;    0.000
1013.066; 3271.625;    0.000;    0.000
1013.226; 3202.625;    0.000;    0.000
1013.386; 3188.625;    0.000;    0.000
1013.546; 3125.625;    0.000;    0.000
1013.706; 3064.625;    0.000;    0.000
1013.866; 3115.625;    0.000;    0.000
1014.026; 3196.625;    0.000;    0.000
1014.186; 3059.625;    0.000;    0.000
1014.346; 3080.625;    0.000;    0.000
1014.505; 3097.625;    0.000;    0.000
1014.665; 3003.625;    0.000;    0.000
1014.825; 3123.625;    0.000;    0.000
1014.985; 3087.625;    0.000;    0.000
1015.144; 3181.625;    0.000;    0.000
1015.304; 3164.625;    0.000;    0.000
1015.464; 3203.625;    0.000;    0.000
1015.623; 3101.625;    0.000;    0.000
1015.783; 3277.625;    0.000;    0.000
1015.942; 3490.625;    0.000;    0.000
1016.102; 3499.625;    0.000;    0.000
1016.261; 3297.625;    0.000;    0.000
1016.420; 3298.625;    0.000;    0.000
1016.580; 3772.625;    0.000;    0.000
1016.739; 3620.625;    0.000;    0.000
1016.899; 3515.625;    0.000;    0.000
1017.058; 3496.625;    0.000;    0.000
1017.217; 3864.625;    0.000;    0.000
1017.376; 3757.625;    0.000;    0.000
1017.536; 3367.625;    0.000;    0.000
1017.695; 3317.625;    0.000;    0.000
1017.854; 3469.625;    0.000;    0.000
1018.013; 3391.625;    0.000;    0.000
1018.172; 3246.625;    0.000;    0.000
1018.331; 3169.625;    0.000;    0.000
1018.490; 3452.625;    0.000;    0.000
1018.649; 3636.625;    0.000;    0.000
1018.808; 3757.625;    0.000;    0.000
1018.967; 3426.625;    0.000;    0.000
1019.126; 3430.625;    0.000;    0.000
1019.285; 3667.625;    0.000;    0.000
1019.444; 3671.625;    0.000;    0.000
1019.603; 3480.625;    0.000;    0.000
1019.762; 3246.625;    0.000;    0.000
1019.921; 3358.625;    0.000;    0.000
1020.079; 3697.625;    0.000;    0.000
1020.238; 3899.625;    0.000;    0.000
1020.397; 3683.625;    0.000;    0.000
1020.555; 3458.625;    0.000;    0.000
1020.714; 3566.625;    0.000;    0.000
1020.873; 3652.625;    0.000;    0.000
1021.031; 3633.625;    0.000;    0.000
1021.190; 3415.625;    0.000;    0.000
1021.348; 3422.625;    0.000;    0.000
1021.507; 3750.625;    0.000;    0.000
1021.665; 3869.625;    0.000;    0.000
1021.824; 3738.625;    0.000;    0.000
1021.982; 3601.625;    0.000;    0.000
1022.141; 3520.625;    0.000;    0.000
1022.299; 3910.625;    0.000;    0.000
1022.457; 4060.625;    0.000;    0.000
1022.616; 3828.625;    0.000;    0.000
1022.774; 3524.625;    0.000;    0.000
1022.932; 3535.625;    0.000;    0.000
1023.090; 3960.625;    0.000;    0.000
1023.249; 3911.625;    0.000;    0.000
1023.407; 3863.625;    0.000;    0.000
1023.565; 3499.625;    0.000;    0.000
1023.723; 3663.625;    0.000;    0.000
1023.881; 4079.625;    0.000;    0.000
1024.039; 4209.625;    0.000;    0.000
1024.197; 3823.625;    0.000;    0.000
1024.355; 3561.625;    0.000;    0.000
1024.513; 3641.625;    0.000;    0.000
1024.671; 3999.625;    0.000;    0.000
1024.829; 4216.625;    0.000;    0.000
1024.987; 3897.625;    0.000;    0.000
1025.145; 3540.625;    0.000;    0.000
1025.302; 3734.625;    0.000;    0.000
1025.460; 3949.625;    0.000;    0.000
1025.618; 4179.625;    0.000;    0.000
1025.776; 4070.625;    0.000;    0.000
1025.933; 3739.625;    0.000;    0.000
1026.091; 3782.625;    0.000;    0.000
1026.249; 3880.625;    0.000;    0.000
1026.406; 4169.625;    0.000;    0.000
1026.564; 4146.625;    0.000;    0.000
1026.721; 3881.625;    0.000;    0.000
1026.879; 3646.625;    0.000;    0.000
1027.036; 3925.625;    0.000;    0.000
1027.194; 4082.625;    0.000;    0.000
1027.351; 4306.625;    0.000;    0.000
1027.509; 4052.625;    0.000;    0.000
1027.666; 3826.625;    0.000;    0.000
1027.823; 3896.625;    0.000;    0.000
1027.981; 4006.625;    0.000;    0.000
1028.138; 4406.625;    0.000;    0.000
1028.295; 4195.625;    0.000;    0.000
1028.452; 3938.625;    0.000;    0.000
1028.609; 4001.625;    0.000;    0.000
1028.767; 4032.625;    0.000;    0.000
1028.924; 4078.625;    0.000;    0.000
1029.081; 4169.625;    0.000;    0.000
1029.238; 4250.625;    0.000;    0.000
1029.395; 4032.625;    0.000;    0.000
1029.552; 4087.625;    0.000;    0.000
1029.709; 4148.625;    0.000;    0.000
1029.866; 4232.625;    0.000;    0.000
1030.023; 4318.625;    0.000;    0.000
1030.180; 4051.625;    0.000;    0.000
1030.337; 4165.625;    0.000;    0.000
1030.494; 4161.625;    0.000;    0.000
1030.650; 4301.625;    0.000;    0.000
1030.807; 4518.625;    0.000;    0.000
1030.964; 4127.625;    0.000;    0.000
1031.121; 4254.625;    0.000;    0.000
1031.277; 4072.625;    0.000;    0.000
1031.434; 4324.625;    0.000;    0.000
1031.591; 4602.625;    0.000;    0.000
1031.747; 4605.625;    0.000;    0.000
1031.904; 4514.625;    0.000;    0.000
1032.060; 4241.625;    0.000;    0.000
1032.217; 4129.625;    0.000;    0.000
1032.373; 4550.625;    0.000;    0.000
1032.530; 4698.625;    0.000;    0.000
1032.686; 4968.625;    0.000;    0.000
1032.843; 4952.625;    0.000;    0.000
1032.999; 4640.625;    0.000;    0.000
1033.155; 4792.625;    0.000;    0.000
1033.312; 4870.625;    0.000;    0.000
1033.468; 5059.625;    0.000;    0.000
1033.624; 5861.625;    0.000;    0.000
1033.780; 5687.625;    0.000;    0.000
1033.937; 5853.625;    0.000;    0.000
1034.093; 5468.625;    0.000;    0.000
1034.249; 5149.625;    0.000;    0.000
1034.405; 5476.625;    0.000;    0.000
1034.561; 5697.625;    0.000;    0.000
1034.717; 6040.625;    0.000;    0.000
1034.873; 6285.625;    0.000;    0.000
1035.029; 6126.625;    0.000;    0.000
1035.185; 5935.625;    0.000;    0.000
1035.341; 5624.625;    0.000;    0.000
1035.497; 5853.625;    0.000;    0.000
1035.653; 6178.625;    0.000;    0.000
1035.809; 6430.625;    0.000;    0.000
1035.964; 7081.625;    0.000;    0.000
1036.120; 6871.625;    0.000;    0.000
1036.276; 6596.625;    0.000;    0.000
1036.432; 6508.625;    0.000;    0.000
1036.587; 6026.625;    0.000;    0.000
1036.743; 6120.625;    0.000;    0.000
1036.899; 6781.625;    0.000;    0.000
1037.054; 6755.625;    0.000;    0.000
1037.210; 7739.625;    0.000;    0.000
1037.365; 8100.625;    0.000;    0.000
1037.521; 7487.625;    0.000;    0.000
1037.676; 7268.625;    0.000;    0.000
1037.832; 7003.625;    0.000;    0.000
1037.987; 6415.625;    0.000;    0.000
1038.143; 6647.625;    0.000;    0.000
1038.298; 7687.625;    0.000;    0.000
1038.453; 7885.625;    0.000;    0.000
1038.609; 8449.625;    0.000;    0.000
1038.764; 9287.625;    0.000;    0.000
1038.919; 8137.625;    0.000;    0.000
1039.074; 7903.625;    0.000;    0.000
1039.229; 7776.625;    0.000;    0.000
1039.385; 7066.625;    0.000;    0.000
1039.540; 7031.625;    0.000;    0.000
1039.695; 7652.625;    0.000;    0.000
1039.850; 8615.625;    0.000;    0.000
1040.005; 8751.625;    0.000;    0.000
1040.160; 9274.625;    0.000;    0.000
1040.315; 9287.625;    0.000;    0.000
1040.470; 8375.625;    0.000;    0.000
1040.625; 8397.625;    0.000;    0.000
1040.780; 7903.625;    0.000;    0.000
1040.935; 7866.625;    0.000;    0.000
1041.089; 8441.625;    0.000;    0.000
1041.244; 9341.625;    0.000;    0.000
1041.399; 9830.625;    0.000;    0.000
1041.554;10321.625;    0.000;    0.000
1041.708;11146.625;    0.000;    0.000
1041.863;11544.625;    0.000;    0.000
1042.018;10040.625;    0.000;    0.000
1042.172; 9954.625;    0.000;    0.000
1042.327; 9954.625;    0.000;    0.000
1042.481; 9184.625;    0.000;    0.000
1042.636; 9829.625;    0.000;    0.000
1042.791; 9461.625;    0.000;    0.000
1042.945;10766.625;    0.000;    0.000
1043.099;13446.625;    0.000;    0.000
1043.254;12447.625;    0.000;    0.000
1043.408;12262.625;    0.000;    0.000
1043.563;14284.625;    0.000;    0.000
1043.717;13330.625;    0.000;    0.000
1043.871;11538.625;    0.000;    0.000
1044.025;11997.625;    0.000;    0.000
1044.180;11582.625;    0.000;    0.000
1044.334;11271.625;    0.000;    0.000
1044.488;12370.625;    0.000;    0.000
1044.642;12328.625;    0.000;    0.000
1044.796;13534.625;    0.000;    0.000
1044.950;16138.625;    0.000;    0.000
1045.104;16945.625;    0.000;    0.000
1045.258;16308.625;    0.000;    0.000
1045.412;16675.625;    0.000;    0.000
1045.566;17010.625;    0.000;    0.000
1045.720;14956.625;    0.000;    0.000
1045.874;14234.625;    0.000;    0.000
1046.028;14421.625;    0.000;    0.000
1046.182;13085.625;    0.000;    0.000
1046.336;14108.625;    0.000;    0.000
1046.489;14665.625;    0.000;    0.000
1046.643;14544.625;    0.000;    0.000
1046.797;15022.625;    0.000;    0.000
1046.951;16868.625;    0.000;    0.000
1047.104;18163.625;    0.000;    0.000
1047.258;17874.625;    0.000;    0.000
1047.411;18211.625;    0.000;    0.000
1047.565;18674.625;    0.000;    0.000
1047.719;19139.625;    0.000;    0.000
1047.872;18229.625;    0.000;    0.000
1048.026;16516.625;    0.000;    0.000
1048.179;16851.625;    0.000;    0.000
1048.332;16678.625;    0.000;    0.000
1048.486;16167.625;    0.000;    0.000
1048.639;16684.625;    0.000;    0.000
1048.792;16907.625;    0.000;    0.000
1048.946;18437.625;    0.000;    0.000
1049.099;19662.625;    0.000;    0.000
1049.252;20259.625;    0.000;    0.000
1049.406;19429.625;    0.000;    0.000
1049.559;20727.625;    0.000;    0.000
1049.712;22956.625;    0.000;    0.000
1049.865;23534.625;    0.000;    0.000
1050.018;22619.625;    0.000;    0.000
1050.171;20764.625;    0.000;    0.000
1050.324;19991.625;    0.000;    0.000
1050.477;21677.625;    0.000;    0.000
1050.630;23902.625;    0.000;    0.000
1050.783;25053.625;    0.000;    0.000
1050.936;23059.625;    0.000;    0.000
1051.089;20611.625;    0.000;    0.000
1051.242;20864.625;    0.000;    0.000
1051.394;22716.625;    0.000;    0.000
1051.547;25434.625;    0.000;    0.000
1051.700;26345.625;    0.000;    0.000
1051.853;24797.625;    0.000;    0.000
1052.005;24645.625;    0.000;    0.000
1052.158;25815.625;    0.000;    0.000
1052.311;27372.625;    0.000;    0.000
1052.463;28228.625;    0.000;    0.000
1052.616;26282.625;    0.000;    0.000
1052.768;25170.625;    0.000;    0.000
1052.921;23727.625;    0.000;    0.000
1053.073;25125.625;    0.000;    0.000
1053.226;26949.625;    0.000;    0.000
1053.378;31714.625;    0.000;    0.000
1053.531;34454.625;    0.000;    0.000
1053.683;32619.625;    0.000;    0.000
1053.835;27800.625;    0.000;    0.000
1053.988;21844.625;    0.000;    0.000
1054.140; 3952.625;    0.000;    0.000
1054.292;  988.625;    0.000;    0.000
1054.444;  851.625;    0.000;    0.000
1054.596;  779.625;    0.000;    0.000
1054.749;  721.625;    0.000;    0.000
1054.901;  659.625;    0.000;    0.000
1055.053;  595.625;    0.000;    0.000
1055.205;  603.625;    0.000;    0.000
1055.357;  617.625;    0.000;    0.000
1055.509;  564.625;    0.000;    0.000
1055.661;  631.625;    0.000;    0.000
1055.813;  575.625;    0.000;    0.000
1055.965;  535.625;    0.000;    0.000
1056.116;  576.625;    0.000;    0.000
1056.268;  553.625;    0.000;    0.000
1056.420;  533.625;    0.000;    0.000

