
Integration time [ms]:   1.000
Averaging Nr. [scans]: 1
Smoothing Nr. [pixels]: 0
Data measured with spectrometer [name]: UV1
Wave   ;Sample   ;Dark     ;Reference
[nm]   ;[counts] ;[counts] ;[counts] 

236.381;  148.250;    0.000;    0.000
236.451;  172.250;    0.000;    0.000
236.520;  185.250;    0.000;    0.000
236.590;  206.250;    0.000;    0.000
236.660;  174.250;    0.000;    0.000
236.730;  206.250;    0.000;    0.000
236.799;  186.250;    0.000;    0.000
236.869;  192.250;    0.000;    0.000
236.939;  165.250;    0.000;    0.000
237.009;  191.250;    0.000;    0.000
237.078;  185.250;    0.000;    0.000
237.148;  145.250;    0.000;    0.000
237.218;  164.250;    0.000;    0.000
237.287;  192.250;    0.000;    0.000
237.357;  181.250;    0.000;    0.000
237.427;  162.250;    0.000;    0.000
237.496;  492.250;    0.000;    0.000
237.566;  424.250;    0.000;    0.000
237.636;  454.250;    0.000;    0.000
237.705;  488.250;    0.000;    0.000
237.775;  479.250;    0.000;    0.000
237.845;  478.250;    0.000;    0.000
237.914;  440.250;    0.000;    0.000
237.984;  507.250;    0.000;    0.000
238.054;  410.250;    0.000;    0.000
238.123;  493.250;    0.000;    0.000
238.193;  433.250;    0.000;    0.000
238.263;  444.250;    0.000;    0.000
238.332;  443.250;    0.000;    0.000
238.402;  477.250;    0.000;    0.000
238.471;  412.250;    0.000;    0.000
238.541;  434.250;    0.000;    0.000
238.611;  442.250;    0.000;    0.000
238.680;  447.250;    0.000;    0.000
238.750;  384.250;    0.000;    0.000
238.819;  442.250;    0.000;    0.000
238.889;  387.250;    0.000;    0.000
238.958;  425.250;    0.000;    0.000
239.028;  459.250;    0.000;    0.000
239.097;  394.250;    0.000;    0.000
239.167;  443.250;    0.000;    0.000
239.237;  455.250;    0.000;    0.000
239.306;  424.250;    0.000;    0.000
239.376;  475.250;    0.000;    0.000
239.445;  451.250;    0.000;    0.000
239.515;  431.250;    0.000;    0.000
239.584;  419.250;    0.000;    0.000
239.654;  422.250;    0.000;    0.000
239.723;  485.250;    0.000;    0.000
239.793;  389.250;    0.000;    0.000
239.862;  441.250;    0.000;    0.000
239.932;  435.250;    0.000;    0.000
240.001;  435.250;    0.000;    0.000
240.070;  398.250;    0.000;    0.000
240.140;  444.250;    0.000;    0.000
240.209;  420.250;    0.000;    0.000
240.279;  401.250;    0.000;    0.000
240.348;  479.250;    0.000;    0.000
240.418;  399.250;    0.000;    0.000
240.487;  446.250;    0.000;    0.000
240.556;  434.250;    0.000;    0.000
240.626;  406.250;    0.000;    0.000
240.695;  453.250;    0.000;    0.000
240.765;  387.250;    0.000;    0.000
240.834;  421.250;    0.000;    0.000
240.903;  447.250;    0.000;    0.000
240.973;  423.250;    0.000;    0.000
241.042;  436.250;    0.000;    0.000
241.112;  419.250;    0.000;    0.000
241.181;  454.250;    0.000;    0.000
241.250;  385.250;    0.000;    0.000
241.320;  437.250;    0.000;    0.000
241.389;  420.250;    0.000;    0.000
241.458;  457.250;    0.000;    0.000
241.528;  437.250;    0.000;    0.000
241.597;  420.250;    0.000;    0.000
241.666;  424.250;    0.000;    0.000
241.736;  468.250;    0.000;    0.000
241.805;  440.250;    0.000;    0.000
241.874;  456.250;    0.000;    0.000
241.943;  456.250;    0.000;    0.000
242.013;  464.250;    0.000;    0.000
242.082;  454.250;    0.000;    0.000
242.151;  414.250;    0.000;    0.000
242.221;  460.250;    0.000;    0.000
242.290;  446.250;    0.000;    0.000
242.359;  404.250;    0.000;    0.000
242.428;  477.250;    0.000;    0.000
242.498;  423.250;    0.000;    0.000
242.567;  450.250;    0.000;    0.000
242.636;  431.250;    0.000;    0.000
242.705;  410.250;    0.000;    0.000
242.774;  422.250;    0.000;    0.000
242.844;  437.250;    0.000;    0.000
242.913;  413.250;    0.000;    0.000
242.982;  455.250;    0.000;    0.000
243.051;  411.250;    0.000;    0.000
243.120;  431.250;    0.000;    0.000
243.190;  390.250;    0.000;    0.000
243.259;  446.250;    0.000;    0.000
243.328;  391.250;    0.000;    0.000
243.397;  451.250;    0.000;    0.000
243.466;  431.250;    0.000;    0.000
243.535;  423.250;    0.000;    0.000
243.605;  433.250;    0.000;    0.000
243.674;  449.250;    0.000;    0.000
243.743;  487.250;    0.000;    0.000
243.812;  359.250;    0.000;    0.000
243.881;  421.250;    0.000;    0.000
243.950;  418.250;    0.000;    0.000
244.019;  430.250;    0.000;    0.000
244.088;  449.250;    0.000;    0.000
244.158;  461.250;    0.000;    0.000
244.227;  358.250;    0.000;    0.000
244.296;  459.250;    0.000;    0.000
244.365;  401.250;    0.000;    0.000
244.434;  404.250;    0.000;    0.000
244.503;  406.250;    0.000;    0.000
244.572;  409.250;    0.000;    0.000
244.641;  381.250;    0.000;    0.000
244.710;  418.250;    0.000;    0.000
244.779;  442.250;    0.000;    0.000
244.848;  395.250;    0.000;    0.000
244.917;  418.250;    0.000;    0.000
244.986;  386.250;    0.000;    0.000
245.055;  495.250;    0.000;    0.000
245.124;  449.250;    0.000;    0.000
245.193;  417.250;    0.000;    0.000
245.262;  371.250;    0.000;    0.000
245.331;  413.250;    0.000;    0.000
245.400;  423.250;    0.000;    0.000
245.469;  446.250;    0.000;    0.000
245.538;  442.250;    0.000;    0.000
245.607;  431.250;    0.000;    0.000
245.676;  472.250;    0.000;    0.000
245.745;  439.250;    0.000;    0.000
245.814;  421.250;    0.000;    0.000
245.883;  443.250;    0.000;    0.000
245.952;  445.250;    0.000;    0.000
246.021;  418.250;    0.000;    0.000
246.090;  439.250;    0.000;    0.000
246.159;  422.250;    0.000;    0.000
246.227;  447.250;    0.000;    0.000
246.296;  396.250;    0.000;    0.000
246.365;  405.250;    0.000;    0.000
246.434;  443.250;    0.000;    0.000
246.503;  427.250;    0.000;    0.000
246.572;  439.250;    0.000;    0.000
246.641;  456.250;    0.000;    0.000
246.710;  436.250;    0.000;    0.000
246.779;  475.250;    0.000;    0.000
246.847;  411.250;    0.000;    0.000
246.916;  365.250;    0.000;    0.000
246.985;  450.250;    0.000;    0.000
247.054;  444.250;    0.000;    0.000
247.123;  403.250;    0.000;    0.000
247.192;  409.250;    0.000;    0.000
247.260;  454.250;    0.000;    0.000
247.329;  449.250;    0.000;    0.000
247.398;  424.250;    0.000;    0.000
247.467;  429.250;    0.000;    0.000
247.536;  508.250;    0.000;    0.000
247.604;  467.250;    0.000;    0.000
247.673;  456.250;    0.000;    0.000
247.742;  422.250;    0.000;    0.000
247.811;  460.250;    0.000;    0.000
247.879;  388.250;    0.000;    0.000
247.948;  447.250;    0.000;    0.000
248.017;  460.250;    0.000;    0.000
248.086;  481.250;    0.000;    0.000
248.154;  444.250;    0.000;    0.000
248.223;  424.250;    0.000;    0.000
248.292;  403.250;    0.000;    0.000
248.361;  432.250;    0.000;    0.000
248.429;  406.250;    0.000;    0.000
248.498;  446.250;    0.000;    0.000
248.567;  460.250;    0.000;    0.000
248.635;  477.250;    0.000;    0.000
248.704;  452.250;    0.000;    0.000
248.773;  381.250;    0.000;    0.000
248.841;  413.250;    0.000;    0.000
248.910;  398.250;    0.000;    0.000
248.979;  388.250;    0.000;    0.000
249.047;  394.250;    0.000;    0.000
249.116;  468.250;    0.000;    0.000
249.185;  442.250;    0.000;    0.000
249.253;  377.250;    0.000;    0.000
249.322;  396.250;    0.000;    0.000
249.390;  375.250;    0.000;    0.000
249.459;  434.250;    0.000;    0.000
249.528;  395.250;    0.000;    0.000
249.596;  410.250;    0.000;    0.000
249.665;  372.250;    0.000;    0.000
249.733;  407.250;    0.000;    0.000
249.802;  397.250;    0.000;    0.000
249.871;  419.250;    0.000;    0.000
249.939;  365.250;    0.000;    0.000
250.008;  374.250;    0.000;    0.000
250.076;  431.250;    0.000;    0.000
250.145;  424.250;    0.000;    0.000
250.213;  377.250;    0.000;    0.000
250.282;  362.250;    0.000;    0.000
250.350;  367.250;    0.000;    0.000
250.419;  397.250;    0.000;    0.000
250.487;  406.250;    0.000;    0.000
250.556;  380.250;    0.000;    0.000
250.624;  397.250;    0.000;    0.000
250.693;  377.250;    0.000;    0.000
250.761;  400.250;    0.000;    0.000
250.830;  435.250;    0.000;    0.000
250.898;  370.250;    0.000;    0.000
250.967;  360.250;    0.000;    0.000
251.035;  372.250;    0.000;    0.000
251.104;  382.250;    0.000;    0.000
251.172;  365.250;    0.000;    0.000
251.241;  359.250;    0.000;    0.000
251.309;  364.250;    0.000;    0.000
251.378;  408.250;    0.000;    0.000
251.446;  337.250;    0.000;    0.000
251.514;  412.250;    0.000;    0.000
251.583;  387.250;    0.000;    0.000
251.651;  374.250;    0.000;    0.000
251.720;  364.250;    0.000;    0.000
251.788;  414.250;    0.000;    0.000
251.856;  292.250;    0.000;    0.000
251.925;  335.250;    0.000;    0.000
251.993;  363.250;    0.000;    0.000
252.062;  372.250;    0.000;    0.000
252.130;  391.250;    0.000;    0.000
252.198;  380.250;    0.000;    0.000
252.267;  315.250;    0.000;    0.000
252.335;  373.250;    0.000;    0.000
252.403;  332.250;    0.000;    0.000
252.472;  339.250;    0.000;    0.000
252.540;  348.250;    0.000;    0.000
252.608;  291.250;    0.000;    0.000
252.677;  318.250;    0.000;    0.000
252.745;  352.250;    0.000;    0.000
252.813;  349.250;    0.000;    0.000
252.881;  346.250;    0.000;    0.000
252.950;  345.250;    0.000;    0.000
253.018;  351.250;    0.000;    0.000
253.086;  308.250;    0.000;    0.000
253.155;  312.250;    0.000;    0.000
253.223;  303.250;    0.000;    0.000
253.291;  330.250;    0.000;    0.000
253.359;  333.250;    0.000;    0.000
253.428;  384.250;    0.000;    0.000
253.496;  330.250;    0.000;    0.000
253.564;  259.250;    0.000;    0.000
253.632;  283.250;    0.000;    0.000
253.700;  316.250;    0.000;    0.000
253.769;  340.250;    0.000;    0.000
253.837;  321.250;    0.000;    0.000
253.905;  299.250;    0.000;    0.000
253.973;  323.250;    0.000;    0.000
254.041;  310.250;    0.000;    0.000
254.110;  292.250;    0.000;    0.000
254.178;  286.250;    0.000;    0.000
254.246;  303.250;    0.000;    0.000
254.314;  313.250;    0.000;    0.000
254.382;  327.250;    0.000;    0.000
254.450;  298.250;    0.000;    0.000
254.518;  309.250;    0.000;    0.000
254.587;  281.250;    0.000;    0.000
254.655;  338.250;    0.000;    0.000
254.723;  307.250;    0.000;    0.000
254.791;  345.250;    0.000;    0.000
254.859;  298.250;    0.000;    0.000
254.927;  332.250;    0.000;    0.000
254.995;  303.250;    0.000;    0.000
255.063;  301.250;    0.000;    0.000
255.131;  284.250;    0.000;    0.000
255.199;  289.250;    0.000;    0.000
255.267;  316.250;    0.000;    0.000
255.336;  313.250;    0.000;    0.000
255.404;  272.250;    0.000;    0.000
255.472;  296.250;    0.000;    0.000
255.540;  312.250;    0.000;    0.000
255.608;  308.250;    0.000;    0.000
255.676;  302.250;    0.000;    0.000
255.744;  322.250;    0.000;    0.000
255.812;  322.250;    0.000;    0.000
255.880;  354.250;    0.000;    0.000
255.948;  322.250;    0.000;    0.000
256.016;  335.250;    0.000;    0.000
256.084;  317.250;    0.000;    0.000
256.152;  299.250;    0.000;    0.000
256.220;  329.250;    0.000;    0.000
256.288;  315.250;    0.000;    0.000
256.356;  287.250;    0.000;    0.000
256.424;  288.250;    0.000;    0.000
256.491;  305.250;    0.000;    0.000
256.559;  308.250;    0.000;    0.000
256.627;  319.250;    0.000;    0.000
256.695;  273.250;    0.000;    0.000
256.763;  322.250;    0.000;    0.000
256.831;  302.250;    0.000;    0.000
256.899;  310.250;    0.000;    0.000
256.967;  291.250;    0.000;    0.000
257.035;  342.250;    0.000;    0.000
257.103;  327.250;    0.000;    0.000
257.171;  285.250;    0.000;    0.000
257.238;  289.250;    0.000;    0.000
257.306;  345.250;    0.000;    0.000
257.374;  343.250;    0.000;    0.000
257.442;  275.250;    0.000;    0.000
257.510;  338.250;    0.000;    0.000
257.578;  304.250;    0.000;    0.000
257.646;  342.250;    0.000;    0.000
257.713;  305.250;    0.000;    0.000
257.781;  349.250;    0.000;    0.000
257.849;  351.250;    0.000;    0.000
257.917;  322.250;    0.000;    0.000
257.985;  285.250;    0.000;    0.000
258.052;  348.250;    0.000;    0.000
258.120;  304.250;    0.000;    0.000
258.188;  319.250;    0.000;    0.000
258.256;  321.250;    0.000;    0.000
258.324;  326.250;    0.000;    0.000
258.391;  340.250;    0.000;    0.000
258.459;  346.250;    0.000;    0.000
258.527;  323.250;    0.000;    0.000
258.595;  330.250;    0.000;    0.000
258.662;  321.250;    0.000;    0.000
258.730;  356.250;    0.000;    0.000
258.798;  305.250;    0.000;    0.000
258.865;  369.250;    0.000;    0.000
258.933;  345.250;    0.000;    0.000
259.001;  380.250;    0.000;    0.000
259.069;  324.250;    0.000;    0.000
259.136;  362.250;    0.000;    0.000
259.204;  372.250;    0.000;    0.000
259.272;  418.250;    0.000;    0.000
259.339;  398.250;    0.000;    0.000
259.407;  372.250;    0.000;    0.000
259.475;  327.250;    0.000;    0.000
259.542;  360.250;    0.000;    0.000
259.610;  329.250;    0.000;    0.000
259.677;  393.250;    0.000;    0.000
259.745;  350.250;    0.000;    0.000
259.813;  381.250;    0.000;    0.000
259.880;  384.250;    0.000;    0.000
259.948;  412.250;    0.000;    0.000
260.016;  358.250;    0.000;    0.000
260.083;  405.250;    0.000;    0.000
260.151;  360.250;    0.000;    0.000
260.218;  384.250;    0.000;    0.000
260.286;  392.250;    0.000;    0.000
260.353;  435.250;    0.000;    0.000
260.421;  382.250;    0.000;    0.000
260.489;  418.250;    0.000;    0.000
260.556;  402.250;    0.000;    0.000
260.624;  396.250;    0.000;    0.000
260.691;  407.250;    0.000;    0.000
260.759;  417.250;    0.000;    0.000
260.826;  375.250;    0.000;    0.000
260.894;  411.250;    0.000;    0.000
260.961;  458.250;    0.000;    0.000
261.029;  425.250;    0.000;    0.000
261.096;  422.250;    0.000;    0.000
261.164;  425.250;    0.000;    0.000
261.231;  489.250;    0.000;    0.000
261.299;  399.250;    0.000;    0.000
261.366;  450.250;    0.000;    0.000
261.434;  445.250;    0.000;    0.000
261.501;  452.250;    0.000;    0.000
261.568;  466.250;    0.000;    0.000
261.636;  427.250;    0.000;    0.000
261.703;  493.250;    0.000;    0.000
261.771;  474.250;    0.000;    0.000
261.838;  476.250;    0.000;    0.000
261.906;  449.250;    0.000;    0.000
261.973;  445.250;    0.000;    0.000
262.040;  550.250;    0.000;    0.000
262.108;  469.250;    0.000;    0.000
262.175;  422.250;    0.000;    0.000
262.243;  476.250;    0.000;    0.000
262.310;  512.250;    0.000;    0.000
262.377;  487.250;    0.000;    0.000
262.445;  492.250;    0.000;    0.000
262.512;  493.250;    0.000;    0.000
262.579;  454.250;    0.000;    0.000
262.647;  484.250;    0.000;    0.000
262.714;  531.250;    0.000;    0.000
262.781;  498.250;    0.000;    0.000
262.849;  540.250;    0.000;    0.000
262.916;  535.250;    0.000;    0.000
262.983;  540.250;    0.000;    0.000
263.051;  527.250;    0.000;    0.000
263.118;  553.250;    0.000;    0.000
263.185;  562.250;    0.000;    0.000
263.252;  535.250;    0.000;    0.000
263.320;  528.250;    0.000;    0.000
263.387;  555.250;    0.000;    0.000
263.454;  496.250;    0.000;    0.000
263.522;  557.250;    0.000;    0.000
263.589;  563.250;    0.000;    0.000
263.656;  512.250;    0.000;    0.000
263.723;  533.250;    0.000;    0.000
263.790;  546.250;    0.000;    0.000
263.858;  606.250;    0.000;    0.000
263.925;  531.250;    0.000;    0.000
263.992;  542.250;    0.000;    0.000
264.059;  622.250;    0.000;    0.000
264.126;  611.250;    0.000;    0.000
264.194;  625.250;    0.000;    0.000
264.261;  619.250;    0.000;    0.000
264.328;  603.250;    0.000;    0.000
264.395;  607.250;    0.000;    0.000
264.462;  597.250;    0.000;    0.000
264.529;  688.250;    0.000;    0.000
264.597;  593.250;    0.000;    0.000
264.664;  617.250;    0.000;    0.000
264.731;  639.250;    0.000;    0.000
264.798;  626.250;    0.000;    0.000
264.865;  618.250;    0.000;    0.000
264.932;  576.250;    0.000;    0.000
264.999;  658.250;    0.000;    0.000
265.066;  595.250;    0.000;    0.000
265.133;  627.250;    0.000;    0.000
265.201;  643.250;    0.000;    0.000
265.268;  642.250;    0.000;    0.000
265.335;  633.250;    0.000;    0.000
265.402;  665.250;    0.000;    0.000
265.469;  683.250;    0.000;    0.000
265.536;  639.250;    0.000;    0.000
265.603;  675.250;    0.000;    0.000
265.670;  636.250;    0.000;    0.000
265.737;  694.250;    0.000;    0.000
265.804;  671.250;    0.000;    0.000
265.871;  709.250;    0.000;    0.000
265.938;  681.250;    0.000;    0.000
266.005;  684.250;    0.000;    0.000
266.072;  633.250;    0.000;    0.000
266.139;  727.250;    0.000;    0.000
266.206;  708.250;    0.000;    0.000
266.273;  652.250;    0.000;    0.000
266.340;  688.250;    0.000;    0.000
266.407;  656.250;    0.000;    0.000
266.474;  671.250;    0.000;    0.000
266.541;  702.250;    0.000;    0.000
266.608;  652.250;    0.000;    0.000
266.675;  746.250;    0.000;    0.000
266.742;  706.250;    0.000;    0.000
266.808;  717.250;    0.000;    0.000
266.875;  681.250;    0.000;    0.000
266.942;  666.250;    0.000;    0.000
267.009;  685.250;    0.000;    0.000
267.076;  769.250;    0.000;    0.000
267.143;  692.250;    0.000;    0.000
267.210;  682.250;    0.000;    0.000
267.277;  751.250;    0.000;    0.000
267.344;  726.250;    0.000;    0.000
267.410;  728.250;    0.000;    0.000
267.477;  784.250;    0.000;    0.000
267.544;  691.250;    0.000;    0.000
267.611;  717.250;    0.000;    0.000
267.678;  715.250;    0.000;    0.000
267.745;  766.250;    0.000;    0.000
267.811;  732.250;    0.000;    0.000
267.878;  747.250;    0.000;    0.000
267.945;  748.250;    0.000;    0.000
268.012;  733.250;    0.000;    0.000
268.079;  743.250;    0.000;    0.000
268.145;  730.250;    0.000;    0.000
268.212;  691.250;    0.000;    0.000
268.279;  722.250;    0.000;    0.000
268.346;  780.250;    0.000;    0.000
268.412;  767.250;    0.000;    0.000
268.479;  699.250;    0.000;    0.000
268.546;  739.250;    0.000;    0.000
268.613;  781.250;    0.000;    0.000
268.679;  716.250;    0.000;    0.000
268.746;  781.250;    0.000;    0.000
268.813;  753.250;    0.000;    0.000
268.879;  705.250;    0.000;    0.000
268.946;  768.250;    0.000;    0.000
269.013;  766.250;    0.000;    0.000
269.079;  782.250;    0.000;    0.000
269.146;  716.250;    0.000;    0.000
269.213;  766.250;    0.000;    0.000
269.280;  738.250;    0.000;    0.000
269.346;  751.250;    0.000;    0.000
269.413;  761.250;    0.000;    0.000
269.479;  758.250;    0.000;    0.000
269.546;  739.250;    0.000;    0.000
269.613;  693.250;    0.000;    0.000
269.679;  757.250;    0.000;    0.000
269.746;  726.250;    0.000;    0.000
269.813;  749.250;    0.000;    0.000
269.879;  747.250;    0.000;    0.000
269.946;  718.250;    0.000;    0.000
270.012;  784.250;    0.000;    0.000
270.079;  717.250;    0.000;    0.000
270.145;  768.250;    0.000;    0.000
270.212;  785.250;    0.000;    0.000
270.279;  795.250;    0.000;    0.000
270.345;  766.250;    0.000;    0.000
270.412;  770.250;    0.000;    0.000
270.478;  788.250;    0.000;    0.000
270.545;  800.250;    0.000;    0.000
270.611;  791.250;    0.000;    0.000
270.678;  723.250;    0.000;    0.000
270.744;  771.250;    0.000;    0.000
270.811;  776.250;    0.000;    0.000
270.877;  720.250;    0.000;    0.000
270.944;  723.250;    0.000;    0.000
271.010;  775.250;    0.000;    0.000
271.077;  759.250;    0.000;    0.000
271.143;  800.250;    0.000;    0.000
271.210;  746.250;    0.000;    0.000
271.276;  703.250;    0.000;    0.000
271.342;  761.250;    0.000;    0.000
271.409;  803.250;    0.000;    0.000
271.475;  786.250;    0.000;    0.000
271.542;  757.250;    0.000;    0.000
271.608;  753.250;    0.000;    0.000
271.675;  710.250;    0.000;    0.000
271.741;  777.250;    0.000;    0.000
271.807;  761.250;    0.000;    0.000
271.874;  752.250;    0.000;    0.000
271.940;  844.250;    0.000;    0.000
272.007;  677.250;    0.000;    0.000
272.073;  738.250;    0.000;    0.000
272.139;  768.250;    0.000;    0.000
272.206;  740.250;    0.000;    0.000
272.272;  776.250;    0.000;    0.000
272.338;  820.250;    0.000;    0.000
272.405;  763.250;    0.000;    0.000
272.471;  748.250;    0.000;    0.000
272.537;  740.250;    0.000;    0.000
272.604;  772.250;    0.000;    0.000
272.670;  782.250;    0.000;    0.000
272.736;  783.250;    0.000;    0.000
272.802;  766.250;    0.000;    0.000
272.869;  746.250;    0.000;    0.000
272.935;  774.250;    0.000;    0.000
273.001;  847.250;    0.000;    0.000
273.068;  725.250;    0.000;    0.000
273.134;  815.250;    0.000;    0.000
273.200;  787.250;    0.000;    0.000
273.266;  783.250;    0.000;    0.000
273.333;  781.250;    0.000;    0.000
273.399;  790.250;    0.000;    0.000
273.465;  811.250;    0.000;    0.000
273.531;  769.250;    0.000;    0.000
273.597;  827.250;    0.000;    0.000
273.664;  782.250;    0.000;    0.000
273.730;  801.250;    0.000;    0.000
273.796;  775.250;    0.000;    0.000
273.862;  808.250;    0.000;    0.000
273.928;  819.250;    0.000;    0.000
273.995;  811.250;    0.000;    0.000
274.061;  820.250;    0.000;    0.000
274.127;  757.250;    0.000;    0.000
274.193;  784.250;    0.000;    0.000
274.259;  837.250;    0.000;    0.000
274.325;  791.250;    0.000;    0.000
274.391;  814.250;    0.000;    0.000
274.457;  782.250;    0.000;    0.000
274.524;  804.250;    0.000;    0.000
274.590;  822.250;    0.000;    0.000
274.656;  811.250;    0.000;    0.000
274.722;  833.250;    0.000;    0.000
274.788;  865.250;    0.000;    0.000
274.854;  842.250;    0.000;    0.000
274.920;  855.250;    0.000;    0.000
274.986;  883.250;    0.000;    0.000
275.052;  914.250;    0.000;    0.000
275.118;  846.250;    0.000;    0.000
275.184;  863.250;    0.000;    0.000
275.250;  855.250;    0.000;    0.000
275.316;  873.250;    0.000;    0.000
275.382;  813.250;    0.000;    0.000
275.448;  939.250;    0.000;    0.000
275.514;  843.250;    0.000;    0.000
275.580;  941.250;    0.000;    0.000
275.646;  884.250;    0.000;    0.000
275.712;  910.250;    0.000;    0.000
275.778;  933.250;    0.000;    0.000
275.844;  937.250;    0.000;    0.000
275.910;  940.250;    0.000;    0.000
275.976;  932.250;    0.000;    0.000
276.042;  951.250;    0.000;    0.000
276.108;  922.250;    0.000;    0.000
276.174;  910.250;    0.000;    0.000
276.240;  956.250;    0.000;    0.000
276.306; 1018.250;    0.000;    0.000
276.372;  961.250;    0.000;    0.000
276.437; 1041.250;    0.000;    0.000
276.503; 1043.250;    0.000;    0.000
276.569; 1074.250;    0.000;    0.000
276.635; 1031.250;    0.000;    0.000
276.701; 1114.250;    0.000;    0.000
276.767; 1032.250;    0.000;    0.000
276.833; 1057.250;    0.000;    0.000
276.899; 1139.250;    0.000;    0.000
276.964; 1129.250;    0.000;    0.000
277.030; 1191.250;    0.000;    0.000
277.096; 1280.250;    0.000;    0.000
277.162; 1262.250;    0.000;    0.000
277.228; 1267.250;    0.000;    0.000
277.293; 1310.250;    0.000;    0.000
277.359; 1325.250;    0.000;    0.000
277.425; 1450.250;    0.000;    0.000
277.491; 1533.250;    0.000;    0.000
277.557; 1741.250;    0.000;    0.000
277.622; 2269.250;    0.000;    0.000
277.688; 2568.250;    0.000;    0.000
277.754; 2495.250;    0.000;    0.000
277.820; 2744.250;    0.000;    0.000
277.885; 3014.250;    0.000;    0.000
277.951; 3778.250;    0.000;    0.000
278.017; 3596.250;    0.000;    0.000
278.083; 3065.250;    0.000;    0.000
278.148; 3022.250;    0.000;    0.000
278.214; 2849.250;    0.000;    0.000
278.280; 3097.250;    0.000;    0.000
278.345; 2970.250;    0.000;    0.000
278.411; 2646.250;    0.000;    0.000
278.477; 2609.250;    0.000;    0.000
278.542; 2884.250;    0.000;    0.000
278.608; 3000.250;    0.000;    0.000
278.674; 3279.250;    0.000;    0.000
278.739; 3705.250;    0.000;    0.000
278.805; 4172.250;    0.000;    0.000
278.871; 4730.250;    0.000;    0.000
278.936; 5596.250;    0.000;    0.000
279.002; 7715.250;    0.000;    0.000
279.067;10368.250;    0.000;    0.000
279.133;11174.250;    0.000;    0.000
279.199;10229.250;    0.000;    0.000
279.264;10098.250;    0.000;    0.000
279.330;11093.250;    0.000;    0.000
279.395;13206.250;    0.000;    0.000
279.461;15915.250;    0.000;    0.000
279.527;17504.250;    0.000;    0.000
279.592;17343.250;    0.000;    0.000
279.658;16430.250;    0.000;    0.000
279.723;15395.250;    0.000;    0.000
279.789;15899.250;    0.000;    0.000
279.854;15132.250;    0.000;    0.000
279.920;13095.250;    0.000;    0.000
279.985;11837.250;    0.000;    0.000
280.051;11685.250;    0.000;    0.000
280.116;12785.250;    0.000;    0.000
280.182;15174.250;    0.000;    0.000
280.247;16915.250;    0.000;    0.000
280.313;16566.250;    0.000;    0.000
280.378;13594.250;    0.000;    0.000
280.444;10296.250;    0.000;    0.000
280.509; 8393.250;    0.000;    0.000
280.574; 6917.250;    0.000;    0.000
280.640; 5949.250;    0.000;    0.000
280.705; 5369.250;    0.000;    0.000
280.771; 4804.250;    0.000;    0.000
280.836; 4348.250;    0.000;    0.000
280.902; 4010.250;    0.000;    0.000
280.967; 3906.250;    0.000;    0.000
281.032; 3558.250;    0.000;    0.000
281.098; 3254.250;    0.000;    0.000
281.163; 3172.250;    0.000;    0.000
281.229; 3059.250;    0.000;    0.000
281.294; 2917.250;    0.000;    0.000
281.359; 2783.250;    0.000;    0.000
281.425; 2649.250;    0.000;    0.000
281.490; 2478.250;    0.000;    0.000
281.555; 2361.250;    0.000;    0.000
281.621; 2292.250;    0.000;    0.000
281.686; 2257.250;    0.000;    0.000
281.751; 2268.250;    0.000;    0.000
281.816; 2147.250;    0.000;    0.000
281.882; 2036.250;    0.000;    0.000
281.947; 1912.250;    0.000;    0.000
282.012; 1984.250;    0.000;    0.000
282.078; 1894.250;    0.000;    0.000
282.143; 1819.250;    0.000;    0.000
282.208; 1818.250;    0.000;    0.000
282.273; 1814.250;    0.000;    0.000
282.339; 1776.250;    0.000;    0.000
282.404; 1713.250;    0.000;    0.000
282.469; 1705.250;    0.000;    0.000
282.534; 1647.250;    0.000;    0.000
282.600; 1625.250;    0.000;    0.000
282.665; 1546.250;    0.000;    0.000
282.730; 1548.250;    0.000;    0.000
282.795; 1524.250;    0.000;    0.000
282.860; 1525.250;    0.000;    0.000
282.926; 1596.250;    0.000;    0.000
282.991; 1569.250;    0.000;    0.000
283.056; 1470.250;    0.000;    0.000
283.121; 1496.250;    0.000;    0.000
283.186; 1542.250;    0.000;    0.000
283.251; 1448.250;    0.000;    0.000
283.316; 1498.250;    0.000;    0.000
283.382; 1551.250;    0.000;    0.000
283.447; 1540.250;    0.000;    0.000
283.512; 1413.250;    0.000;    0.000
283.577; 1424.250;    0.000;    0.000
283.642; 1417.250;    0.000;    0.000
283.707; 1363.250;    0.000;    0.000
283.772; 1356.250;    0.000;    0.000
283.837; 1416.250;    0.000;    0.000
283.902; 1400.250;    0.000;    0.000
283.967; 1428.250;    0.000;    0.000
284.032; 1379.250;    0.000;    0.000
284.097; 1468.250;    0.000;    0.000
284.163; 1380.250;    0.000;    0.000
284.228; 1394.250;    0.000;    0.000
284.293; 1372.250;    0.000;    0.000
284.358; 1455.250;    0.000;    0.000
284.423; 1498.250;    0.000;    0.000
284.488; 1540.250;    0.000;    0.000
284.553; 1531.250;    0.000;    0.000
284.618; 1556.250;    0.000;    0.000
284.683; 1549.250;    0.000;    0.000
284.748; 1697.250;    0.000;    0.000
284.812; 1822.250;    0.000;    0.000
284.877; 2003.250;    0.000;    0.000
284.942; 2272.250;    0.000;    0.000
285.007; 2676.250;    0.000;    0.000
285.072; 3382.250;    0.000;    0.000
285.137; 4917.250;    0.000;    0.000
285.202; 6795.250;    0.000;    0.000
285.267; 7038.250;    0.000;    0.000
285.332; 5264.250;    0.000;    0.000
285.397; 3859.250;    0.000;    0.000
285.462; 3044.250;    0.000;    0.000
285.527; 2607.250;    0.000;    0.000
285.591; 2267.250;    0.000;    0.000
285.656; 2014.250;    0.000;    0.000
285.721; 1923.250;    0.000;    0.000
285.786; 1844.250;    0.000;    0.000
285.851; 1675.250;    0.000;    0.000
285.916; 1639.250;    0.000;    0.000
285.981; 1571.250;    0.000;    0.000
286.045; 1537.250;    0.000;    0.000
286.110; 1554.250;    0.000;    0.000
286.175; 1465.250;    0.000;    0.000
286.240; 1401.250;    0.000;    0.000
286.305; 1469.250;    0.000;    0.000
286.369; 1458.250;    0.000;    0.000
286.434; 1445.250;    0.000;    0.000
286.499; 1330.250;    0.000;    0.000
286.564; 1434.250;    0.000;    0.000
286.628; 1384.250;    0.000;    0.000
286.693; 1335.250;    0.000;    0.000
286.758; 1390.250;    0.000;    0.000
286.823; 1347.250;    0.000;    0.000
286.887; 1293.250;    0.000;    0.000
286.952; 1284.250;    0.000;    0.000
287.017; 1379.250;    0.000;    0.000
287.082; 1349.250;    0.000;    0.000
287.146; 1347.250;    0.000;    0.000
287.211; 1304.250;    0.000;    0.000
287.276; 1258.250;    0.000;    0.000
287.340; 1315.250;    0.000;    0.000
287.405; 1340.250;    0.000;    0.000
287.470; 1297.250;    0.000;    0.000
287.534; 1274.250;    0.000;    0.000
287.599; 1205.250;    0.000;    0.000
287.663; 1263.250;    0.000;    0.000
287.728; 1244.250;    0.000;    0.000
287.793; 1304.250;    0.000;    0.000
287.857; 1231.250;    0.000;    0.000
287.922; 1216.250;    0.000;    0.000
287.987; 1231.250;    0.000;    0.000
288.051; 1182.250;    0.000;    0.000
288.116; 1278.250;    0.000;    0.000
288.180; 1279.250;    0.000;    0.000
288.245; 1228.250;    0.000;    0.000
288.309; 1297.250;    0.000;    0.000
288.374; 1253.250;    0.000;    0.000
288.439; 1187.250;    0.000;    0.000
288.503; 1203.250;    0.000;    0.000
288.568; 1256.250;    0.000;    0.000
288.632; 1232.250;    0.000;    0.000
288.697; 1180.250;    0.000;    0.000
288.761; 1235.250;    0.000;    0.000
288.826; 1127.250;    0.000;    0.000
288.890; 1216.250;    0.000;    0.000
288.955; 1222.250;    0.000;    0.000
289.019; 1242.250;    0.000;    0.000
289.084; 1193.250;    0.000;    0.000
289.148; 1277.250;    0.000;    0.000
289.212; 1218.250;    0.000;    0.000
289.277; 1279.250;    0.000;    0.000
289.341; 1187.250;    0.000;    0.000
289.406; 1184.250;    0.000;    0.000
289.470; 1190.250;    0.000;    0.000
289.535; 1305.250;    0.000;    0.000
289.599; 1215.250;    0.000;    0.000
289.663; 1205.250;    0.000;    0.000
289.728; 1268.250;    0.000;    0.000
289.792; 1245.250;    0.000;    0.000
289.857; 1312.250;    0.000;    0.000
289.921; 1213.250;    0.000;    0.000
289.985; 1226.250;    0.000;    0.000
290.050; 1192.250;    0.000;    0.000
290.114; 1196.250;    0.000;    0.000
290.178; 1240.250;    0.000;    0.000
290.243; 1176.250;    0.000;    0.000
290.307; 1239.250;    0.000;    0.000
290.371; 1242.250;    0.000;    0.000
290.436; 1218.250;    0.000;    0.000
290.500; 1158.250;    0.000;    0.000
290.564; 1264.250;    0.000;    0.000
290.629; 1251.250;    0.000;    0.000
290.693; 1257.250;    0.000;    0.000
290.757; 1277.250;    0.000;    0.000
290.821; 1225.250;    0.000;    0.000
290.886; 1222.250;    0.000;    0.000
290.950; 1245.250;    0.000;    0.000
291.014; 1248.250;    0.000;    0.000
291.078; 1268.250;    0.000;    0.000
291.143; 1310.250;    0.000;    0.000
291.207; 1349.250;    0.000;    0.000
291.271; 1318.250;    0.000;    0.000
291.335; 1274.250;    0.000;    0.000
291.399; 1336.250;    0.000;    0.000
291.464; 1427.250;    0.000;    0.000
291.528; 1590.250;    0.000;    0.000
291.592; 1441.250;    0.000;    0.000
291.656; 1435.250;    0.000;    0.000
291.720; 1460.250;    0.000;    0.000
291.784; 1449.250;    0.000;    0.000
291.849; 1457.250;    0.000;    0.000
291.913; 1378.250;    0.000;    0.000
291.977; 1497.250;    0.000;    0.000
292.041; 1478.250;    0.000;    0.000
292.105; 1440.250;    0.000;    0.000
292.169; 1434.250;    0.000;    0.000
292.233; 1445.250;    0.000;    0.000
292.297; 1456.250;    0.000;    0.000
292.361; 1571.250;    0.000;    0.000
292.425; 1554.250;    0.000;    0.000
292.490; 1605.250;    0.000;    0.000
292.554; 1716.250;    0.000;    0.000
292.618; 1766.250;    0.000;    0.000
292.682; 2053.250;    0.000;    0.000
292.746; 2167.250;    0.000;    0.000
292.810; 2794.250;    0.000;    0.000
292.874; 3578.250;    0.000;    0.000
292.938; 3863.250;    0.000;    0.000
293.002; 3542.250;    0.000;    0.000
293.066; 3267.250;    0.000;    0.000
293.130; 3057.250;    0.000;    0.000
293.194; 2891.250;    0.000;    0.000
293.258; 2737.250;    0.000;    0.000
293.322; 2833.250;    0.000;    0.000
293.386; 2663.250;    0.000;    0.000
293.450; 2868.250;    0.000;    0.000
293.514; 3269.250;    0.000;    0.000
293.577; 3844.250;    0.000;    0.000
293.641; 5364.250;    0.000;    0.000
293.705; 6115.250;    0.000;    0.000
293.769; 5850.250;    0.000;    0.000
293.833; 5088.250;    0.000;    0.000
293.897; 4486.250;    0.000;    0.000
293.961; 3892.250;    0.000;    0.000
294.025; 3607.250;    0.000;    0.000
294.089; 3387.250;    0.000;    0.000
294.152; 3016.250;    0.000;    0.000
294.216; 2911.250;    0.000;    0.000
294.280; 2768.250;    0.000;    0.000
294.344; 2651.250;    0.000;    0.000
294.408; 2391.250;    0.000;    0.000
294.472; 2330.250;    0.000;    0.000
294.536; 2341.250;    0.000;    0.000
294.599; 2174.250;    0.000;    0.000
294.663; 2061.250;    0.000;    0.000
294.727; 2007.250;    0.000;    0.000
294.791; 2051.250;    0.000;    0.000
294.855; 1942.250;    0.000;    0.000
294.918; 1939.250;    0.000;    0.000
294.982; 1820.250;    0.000;    0.000
295.046; 1799.250;    0.000;    0.000
295.110; 1769.250;    0.000;    0.000
295.173; 1721.250;    0.000;    0.000
295.237; 1699.250;    0.000;    0.000
295.301; 1650.250;    0.000;    0.000
295.364; 1725.250;    0.000;    0.000
295.428; 1668.250;    0.000;    0.000
295.492; 1690.250;    0.000;    0.000
295.556; 1667.250;    0.000;    0.000
295.619; 1667.250;    0.000;    0.000
295.683; 1616.250;    0.000;    0.000
295.747; 1540.250;    0.000;    0.000
295.810; 1563.250;    0.000;    0.000
295.874; 1593.250;    0.000;    0.000
295.938; 1501.250;    0.000;    0.000
296.001; 1598.250;    0.000;    0.000
296.065; 1452.250;    0.000;    0.000
296.128; 1577.250;    0.000;    0.000
296.192; 1566.250;    0.000;    0.000
296.256; 1456.250;    0.000;    0.000
296.319; 1439.250;    0.000;    0.000
296.383; 1540.250;    0.000;    0.000
296.447; 1470.250;    0.000;    0.000
296.510; 1501.250;    0.000;    0.000
296.574; 1502.250;    0.000;    0.000
296.637; 1539.250;    0.000;    0.000
296.701; 1388.250;    0.000;    0.000
296.764; 1459.250;    0.000;    0.000
296.828; 1472.250;    0.000;    0.000
296.891; 1427.250;    0.000;    0.000
296.955; 1473.250;    0.000;    0.000
297.018; 1464.250;    0.000;    0.000
297.082; 1413.250;    0.000;    0.000
297.145; 1420.250;    0.000;    0.000
297.209; 1555.250;    0.000;    0.000
297.272; 1478.250;    0.000;    0.000
297.336; 1438.250;    0.000;    0.000
297.399; 1458.250;    0.000;    0.000
297.463; 1466.250;    0.000;    0.000
297.526; 1399.250;    0.000;    0.000
297.590; 1435.250;    0.000;    0.000
297.653; 1535.250;    0.000;    0.000
297.717; 1349.250;    0.000;    0.000
297.780; 1377.250;    0.000;    0.000
297.843; 1473.250;    0.000;    0.000
297.907; 1437.250;    0.000;    0.000
297.970; 1441.250;    0.000;    0.000
298.034; 1454.250;    0.000;    0.000
298.097; 1414.250;    0.000;    0.000
298.160; 1494.250;    0.000;    0.000
298.224; 1404.250;    0.000;    0.000
298.287; 1412.250;    0.000;    0.000
298.350; 1429.250;    0.000;    0.000
298.414; 1475.250;    0.000;    0.000
298.477; 1385.250;    0.000;    0.000
298.540; 1342.250;    0.000;    0.000
298.604; 1488.250;    0.000;    0.000
298.667; 1432.250;    0.000;    0.000
298.730; 1409.250;    0.000;    0.000
298.794; 1358.250;    0.000;    0.000
298.857; 1307.250;    0.000;    0.000
298.920; 1350.250;    0.000;    0.000
298.984; 1398.250;    0.000;    0.000
299.047; 1422.250;    0.000;    0.000
299.110; 1409.250;    0.000;    0.000
299.173; 1401.250;    0.000;    0.000
299.237; 1441.250;    0.000;    0.000
299.300; 1383.250;    0.000;    0.000
299.363; 1359.250;    0.000;    0.000
299.426; 1380.250;    0.000;    0.000
299.489; 1400.250;    0.000;    0.000
299.553; 1452.250;    0.000;    0.000
299.616; 1417.250;    0.000;    0.000
299.679; 1389.250;    0.000;    0.000
299.742; 1380.250;    0.000;    0.000
299.805; 1444.250;    0.000;    0.000
299.868; 1330.250;    0.000;    0.000
299.932; 1388.250;    0.000;    0.000
299.995; 1408.250;    0.000;    0.000
300.058; 1358.250;    0.000;    0.000
300.121; 1344.250;    0.000;    0.000
300.184; 1369.250;    0.000;    0.000
300.247; 1344.250;    0.000;    0.000
300.310; 1348.250;    0.000;    0.000
300.374; 1379.250;    0.000;    0.000
300.437; 1322.250;    0.000;    0.000
300.500; 1336.250;    0.000;    0.000
300.563; 1416.250;    0.000;    0.000
300.626; 1428.250;    0.000;    0.000
300.689; 1433.250;    0.000;    0.000
300.752; 1405.250;    0.000;    0.000
300.815; 1314.250;    0.000;    0.000
300.878; 1388.250;    0.000;    0.000
300.941; 1352.250;    0.000;    0.000
301.004; 1406.250;    0.000;    0.000
301.067; 1354.250;    0.000;    0.000
301.130; 1375.250;    0.000;    0.000
301.193; 1342.250;    0.000;    0.000
301.256; 1372.250;    0.000;    0.000
301.319; 1399.250;    0.000;    0.000
301.382; 1415.250;    0.000;    0.000
301.445; 1411.250;    0.000;    0.000
301.508; 1319.250;    0.000;    0.000
301.571; 1374.250;    0.000;    0.000
301.634; 1341.250;    0.000;    0.000
301.697; 1323.250;    0.000;    0.000
301.760; 1417.250;    0.000;    0.000
301.823; 1317.250;    0.000;    0.000
301.885; 1403.250;    0.000;    0.000
301.948; 1428.250;    0.000;    0.000
302.011; 1465.250;    0.000;    0.000
302.074; 1410.250;    0.000;    0.000
302.137; 1342.250;    0.000;    0.000
302.200; 1421.250;    0.000;    0.000
302.263; 1410.250;    0.000;    0.000
302.326; 1366.250;    0.000;    0.000
302.388; 1483.250;    0.000;    0.000
302.451; 1357.250;    0.000;    0.000
302.514; 1384.250;    0.000;    0.000
302.577; 1391.250;    0.000;    0.000
302.640; 1401.250;    0.000;    0.000
302.703; 1339.250;    0.000;    0.000
302.765; 1442.250;    0.000;    0.000
302.828; 1480.250;    0.000;    0.000
302.891; 1399.250;    0.000;    0.000
302.954; 1346.250;    0.000;    0.000
303.016; 1393.250;    0.000;    0.000
303.079; 1379.250;    0.000;    0.000
303.142; 1484.250;    0.000;    0.000
303.205; 1423.250;    0.000;    0.000
303.267; 1367.250;    0.000;    0.000
303.330; 1402.250;    0.000;    0.000
303.393; 1395.250;    0.000;    0.000
303.456; 1454.250;    0.000;    0.000
303.518; 1493.250;    0.000;    0.000
303.581; 1439.250;    0.000;    0.000
303.644; 1435.250;    0.000;    0.000
303.706; 1447.250;    0.000;    0.000
303.769; 1457.250;    0.000;    0.000
303.832; 1452.250;    0.000;    0.000
303.894; 1469.250;    0.000;    0.000
303.957; 1431.250;    0.000;    0.000
304.020; 1439.250;    0.000;    0.000
304.082; 1428.250;    0.000;    0.000
304.145; 1466.250;    0.000;    0.000
304.207; 1486.250;    0.000;    0.000
304.270; 1503.250;    0.000;    0.000
304.333; 1415.250;    0.000;    0.000
304.395; 1442.250;    0.000;    0.000
304.458; 1471.250;    0.000;    0.000
304.520; 1521.250;    0.000;    0.000
304.583; 1525.250;    0.000;    0.000
304.646; 1511.250;    0.000;    0.000
304.708; 1453.250;    0.000;    0.000
304.771; 1495.250;    0.000;    0.000
304.833; 1534.250;    0.000;    0.000
304.896; 1480.250;    0.000;    0.000
304.958; 1395.250;    0.000;    0.000
305.021; 1494.250;    0.000;    0.000
305.083; 1497.250;    0.000;    0.000
305.146; 1541.250;    0.000;    0.000
305.208; 1480.250;    0.000;    0.000
305.271; 1509.250;    0.000;    0.000
305.333; 1649.250;    0.000;    0.000
305.396; 1604.250;    0.000;    0.000
305.458; 1534.250;    0.000;    0.000
305.520; 1510.250;    0.000;    0.000
305.583; 1490.250;    0.000;    0.000
305.645; 1500.250;    0.000;    0.000
305.708; 1574.250;    0.000;    0.000
305.770; 1591.250;    0.000;    0.000
305.833; 1539.250;    0.000;    0.000
305.895; 1509.250;    0.000;    0.000
305.957; 1524.250;    0.000;    0.000
306.020; 1507.250;    0.000;    0.000
306.082; 1503.250;    0.000;    0.000
306.144; 1573.250;    0.000;    0.000
306.207; 1494.250;    0.000;    0.000
306.269; 1518.250;    0.000;    0.000
306.331; 1555.250;    0.000;    0.000
306.394; 1447.250;    0.000;    0.000
306.456; 1538.250;    0.000;    0.000
306.518; 1617.250;    0.000;    0.000
306.581; 1565.250;    0.000;    0.000
306.643; 1543.250;    0.000;    0.000
306.705; 1603.250;    0.000;    0.000
306.768; 1607.250;    0.000;    0.000
306.830; 1600.250;    0.000;    0.000
306.892; 1588.250;    0.000;    0.000
306.954; 1669.250;    0.000;    0.000
307.017; 1669.250;    0.000;    0.000
307.079; 1679.250;    0.000;    0.000
307.141; 1642.250;    0.000;    0.000
307.203; 1676.250;    0.000;    0.000
307.266; 1628.250;    0.000;    0.000
307.328; 1624.250;    0.000;    0.000
307.390; 1639.250;    0.000;    0.000
307.452; 1677.250;    0.000;    0.000
307.514; 1718.250;    0.000;    0.000
307.577; 1670.250;    0.000;    0.000
307.639; 1730.250;    0.000;    0.000
307.701; 1689.250;    0.000;    0.000
307.763; 1710.250;    0.000;    0.000
307.825; 1759.250;    0.000;    0.000
307.887; 1761.250;    0.000;    0.000
307.949; 1637.250;    0.000;    0.000
308.012; 1774.250;    0.000;    0.000
308.074; 1773.250;    0.000;    0.000
308.136; 1789.250;    0.000;    0.000
308.198; 1668.250;    0.000;    0.000
308.260; 1828.250;    0.000;    0.000
308.322; 1785.250;    0.000;    0.000
308.384; 1798.250;    0.000;    0.000
308.446; 1796.250;    0.000;    0.000
308.508; 1792.250;    0.000;    0.000
308.570; 1810.250;    0.000;    0.000
308.632; 1812.250;    0.000;    0.000
308.694; 1809.250;    0.000;    0.000
308.756; 1844.250;    0.000;    0.000
308.818; 1934.250;    0.000;    0.000
308.880; 1885.250;    0.000;    0.000
308.942; 1854.250;    0.000;    0.000
309.004; 1888.250;    0.000;    0.000
309.066; 1932.250;    0.000;    0.000
309.128; 1979.250;    0.000;    0.000
309.190; 2002.250;    0.000;    0.000
309.252; 2003.250;    0.000;    0.000
309.314; 2080.250;    0.000;    0.000
309.376; 2122.250;    0.000;    0.000
309.438; 2063.250;    0.000;    0.000
309.500; 2143.250;    0.000;    0.000
309.562; 2113.250;    0.000;    0.000
309.624; 2070.250;    0.000;    0.000
309.686; 2195.250;    0.000;    0.000
309.747; 2229.250;    0.000;    0.000
309.809; 2231.250;    0.000;    0.000
309.871; 2102.250;    0.000;    0.000
309.933; 2191.250;    0.000;    0.000
309.995; 2091.250;    0.000;    0.000
310.057; 2070.250;    0.000;    0.000
310.119; 2045.250;    0.000;    0.000
310.180; 2013.250;    0.000;    0.000
310.242; 1939.250;    0.000;    0.000
310.304; 1965.250;    0.000;    0.000
310.366; 1993.250;    0.000;    0.000
310.428; 1878.250;    0.000;    0.000
310.489; 1850.250;    0.000;    0.000
310.551; 2013.250;    0.000;    0.000
310.613; 1996.250;    0.000;    0.000
310.675; 1968.250;    0.000;    0.000
310.737; 1943.250;    0.000;    0.000
310.798; 1911.250;    0.000;    0.000
310.860; 1856.250;    0.000;    0.000
310.922; 1892.250;    0.000;    0.000
310.983; 1910.250;    0.000;    0.000
311.045; 1891.250;    0.000;    0.000
311.107; 1875.250;    0.000;    0.000
311.169; 1926.250;    0.000;    0.000
311.230; 1886.250;    0.000;    0.000
311.292; 1889.250;    0.000;    0.000
311.354; 1871.250;    0.000;    0.000
311.415; 1951.250;    0.000;    0.000
311.477; 1869.250;    0.000;    0.000
311.539; 1861.250;    0.000;    0.000
311.600; 1902.250;    0.000;    0.000
311.662; 1927.250;    0.000;    0.000
311.724; 1895.250;    0.000;    0.000
311.785; 1874.250;    0.000;    0.000
311.847; 1888.250;    0.000;    0.000
311.908; 1887.250;    0.000;    0.000
311.970; 1917.250;    0.000;    0.000
312.032; 1877.250;    0.000;    0.000
312.093; 1865.250;    0.000;    0.000
312.155; 1844.250;    0.000;    0.000
312.216; 1851.250;    0.000;    0.000
312.278; 1904.250;    0.000;    0.000
312.339; 1814.250;    0.000;    0.000
312.401; 1932.250;    0.000;    0.000
312.462; 1836.250;    0.000;    0.000
312.524; 1899.250;    0.000;    0.000
312.585; 1830.250;    0.000;    0.000
312.647; 1857.250;    0.000;    0.000
312.708; 1870.250;    0.000;    0.000
312.770; 1854.250;    0.000;    0.000
312.831; 1835.250;    0.000;    0.000
312.893; 1885.250;    0.000;    0.000
312.954; 1946.250;    0.000;    0.000
313.016; 1925.250;    0.000;    0.000
313.077; 1885.250;    0.000;    0.000
313.139; 1883.250;    0.000;    0.000
313.200; 1952.250;    0.000;    0.000
313.261; 1983.250;    0.000;    0.000
313.323; 1832.250;    0.000;    0.000
313.384; 1986.250;    0.000;    0.000
313.446; 1925.250;    0.000;    0.000
313.507; 1918.250;    0.000;    0.000
313.568; 1913.250;    0.000;    0.000
313.630; 1906.250;    0.000;    0.000
313.691; 1945.250;    0.000;    0.000
313.752; 1888.250;    0.000;    0.000
313.814; 1935.250;    0.000;    0.000
313.875; 1890.250;    0.000;    0.000
313.936; 1929.250;    0.000;    0.000
313.998; 1874.250;    0.000;    0.000
314.059; 1822.250;    0.000;    0.000
314.120; 1947.250;    0.000;    0.000
314.182; 2013.250;    0.000;    0.000
314.243; 1908.250;    0.000;    0.000
314.304; 1887.250;    0.000;    0.000
314.365; 1937.250;    0.000;    0.000
314.427; 1879.250;    0.000;    0.000
314.488; 1886.250;    0.000;    0.000
314.549; 2006.250;    0.000;    0.000
314.610; 1969.250;    0.000;    0.000
314.672; 1952.250;    0.000;    0.000
314.733; 1869.250;    0.000;    0.000
314.794; 1917.250;    0.000;    0.000
314.855; 1881.250;    0.000;    0.000
314.917; 1928.250;    0.000;    0.000
314.978; 1928.250;    0.000;    0.000
315.039; 1956.250;    0.000;    0.000
315.100; 1898.250;    0.000;    0.000
315.161; 1926.250;    0.000;    0.000
315.222; 1908.250;    0.000;    0.000
315.283; 1950.250;    0.000;    0.000
315.345; 1898.250;    0.000;    0.000
315.406; 1951.250;    0.000;    0.000
315.467; 1909.250;    0.000;    0.000
315.528; 1996.250;    0.000;    0.000
315.589; 1917.250;    0.000;    0.000
315.650; 1943.250;    0.000;    0.000
315.711; 2015.250;    0.000;    0.000
315.772; 1964.250;    0.000;    0.000
315.833; 1906.250;    0.000;    0.000
315.894; 1932.250;    0.000;    0.000
315.955; 1913.250;    0.000;    0.000
316.016; 1917.250;    0.000;    0.000
316.078; 1868.250;    0.000;    0.000
316.139; 1931.250;    0.000;    0.000
316.200; 1870.250;    0.000;    0.000
316.261; 1978.250;    0.000;    0.000
316.322; 1950.250;    0.000;    0.000
316.383; 1914.250;    0.000;    0.000
316.444; 1969.250;    0.000;    0.000
316.504; 1993.250;    0.000;    0.000
316.565; 1923.250;    0.000;    0.000
316.626; 1987.250;    0.000;    0.000
316.687; 2035.250;    0.000;    0.000
316.748; 2068.250;    0.000;    0.000
316.809; 2000.250;    0.000;    0.000
316.870; 1977.250;    0.000;    0.000
316.931; 2033.250;    0.000;    0.000
316.992; 2005.250;    0.000;    0.000
317.053; 1924.250;    0.000;    0.000
317.114; 1994.250;    0.000;    0.000
317.175; 2050.250;    0.000;    0.000
317.235; 1992.250;    0.000;    0.000
317.296; 2038.250;    0.000;    0.000
317.357; 1984.250;    0.000;    0.000
317.418; 1991.250;    0.000;    0.000
317.479; 1969.250;    0.000;    0.000
317.540; 2052.250;    0.000;    0.000
317.601; 1965.250;    0.000;    0.000
317.661; 2066.250;    0.000;    0.000
317.722; 1971.250;    0.000;    0.000
317.783; 1940.250;    0.000;    0.000
317.844; 2116.250;    0.000;    0.000
317.904; 1962.250;    0.000;    0.000
317.965; 1949.250;    0.000;    0.000
318.026; 2077.250;    0.000;    0.000
318.087; 1996.250;    0.000;    0.000
318.148; 1992.250;    0.000;    0.000
318.208; 2057.250;    0.000;    0.000
318.269; 1958.250;    0.000;    0.000
318.330; 2030.250;    0.000;    0.000
318.390; 2018.250;    0.000;    0.000
318.451; 2020.250;    0.000;    0.000
318.512; 2012.250;    0.000;    0.000
318.572; 2039.250;    0.000;    0.000
318.633; 2135.250;    0.000;    0.000
318.694; 2097.250;    0.000;    0.000
318.754; 2040.250;    0.000;    0.000
318.815; 2032.250;    0.000;    0.000
318.876; 2039.250;    0.000;    0.000
318.936; 2049.250;    0.000;    0.000
318.997; 1980.250;    0.000;    0.000
319.058; 2004.250;    0.000;    0.000
319.118; 2002.250;    0.000;    0.000
319.179; 2033.250;    0.000;    0.000
319.239; 2010.250;    0.000;    0.000
319.300; 1986.250;    0.000;    0.000
319.361; 1970.250;    0.000;    0.000
319.421; 2025.250;    0.000;    0.000
319.482; 2042.250;    0.000;    0.000
319.542; 1939.250;    0.000;    0.000
319.603; 1925.250;    0.000;    0.000
319.663; 1933.250;    0.000;    0.000
319.724; 1924.250;    0.000;    0.000
319.784; 1989.250;    0.000;    0.000
319.845; 2053.250;    0.000;    0.000
319.905; 1998.250;    0.000;    0.000
319.966; 2020.250;    0.000;    0.000
320.026; 2002.250;    0.000;    0.000
320.087; 2008.250;    0.000;    0.000
320.147; 2068.250;    0.000;    0.000
320.208; 2037.250;    0.000;    0.000
320.268; 2058.250;    0.000;    0.000
320.329; 2039.250;    0.000;    0.000
320.389; 2104.250;    0.000;    0.000
320.449; 2044.250;    0.000;    0.000
320.510; 2086.250;    0.000;    0.000
320.570; 2005.250;    0.000;    0.000
320.631; 2035.250;    0.000;    0.000
320.691; 1984.250;    0.000;    0.000
320.751; 1976.250;    0.000;    0.000
320.812; 1991.250;    0.000;    0.000
320.872; 2046.250;    0.000;    0.000
320.932; 2003.250;    0.000;    0.000
320.993; 2072.250;    0.000;    0.000
321.053; 2152.250;    0.000;    0.000
321.113; 2043.250;    0.000;    0.000
321.174; 2067.250;    0.000;    0.000
321.234; 2113.250;    0.000;    0.000
321.294; 1990.250;    0.000;    0.000
321.355; 1968.250;    0.000;    0.000
321.415; 2021.250;    0.000;    0.000
321.475; 2055.250;    0.000;    0.000
321.535; 2104.250;    0.000;    0.000
321.596; 2061.250;    0.000;    0.000
321.656; 2128.250;    0.000;    0.000
321.716; 2162.250;    0.000;    0.000
321.776; 2101.250;    0.000;    0.000
321.837; 2166.250;    0.000;    0.000
321.897; 2070.250;    0.000;    0.000
321.957; 2076.250;    0.000;    0.000
322.017; 2109.250;    0.000;    0.000
322.077; 2110.250;    0.000;    0.000
322.138; 2147.250;    0.000;    0.000
322.198; 2129.250;    0.000;    0.000
322.258; 2144.250;    0.000;    0.000
322.318; 2096.250;    0.000;    0.000
322.378; 2085.250;    0.000;    0.000
322.438; 2067.250;    0.000;    0.000
322.499; 2100.250;    0.000;    0.000
322.559; 2102.250;    0.000;    0.000
322.619; 2078.250;    0.000;    0.000
322.679; 2080.250;    0.000;    0.000
322.739; 2095.250;    0.000;    0.000
322.799; 2146.250;    0.000;    0.000
322.859; 2127.250;    0.000;    0.000
322.919; 2131.250;    0.000;    0.000
322.979; 2128.250;    0.000;    0.000
323.039; 2065.250;    0.000;    0.000
323.099; 2027.250;    0.000;    0.000
323.159; 2065.250;    0.000;    0.000
323.219; 2015.250;    0.000;    0.000
323.279; 2050.250;    0.000;    0.000
323.339; 2084.250;    0.000;    0.000
323.399; 2119.250;    0.000;    0.000
323.459; 2092.250;    0.000;    0.000
323.519; 2259.250;    0.000;    0.000
323.579; 2161.250;    0.000;    0.000
323.639; 2200.250;    0.000;    0.000
323.699; 2199.250;    0.000;    0.000
323.759; 2252.250;    0.000;    0.000
323.819; 2155.250;    0.000;    0.000
323.879; 2192.250;    0.000;    0.000
323.939; 2210.250;    0.000;    0.000
323.999; 2143.250;    0.000;    0.000
324.059; 2142.250;    0.000;    0.000
324.119; 2131.250;    0.000;    0.000
324.178; 2120.250;    0.000;    0.000
324.238; 2183.250;    0.000;    0.000
324.298; 2057.250;    0.000;    0.000
324.358; 2053.250;    0.000;    0.000
324.418; 2115.250;    0.000;    0.000
324.478; 2118.250;    0.000;    0.000
324.538; 2137.250;    0.000;    0.000
324.597; 2178.250;    0.000;    0.000
324.657; 2134.250;    0.000;    0.000
324.717; 2159.250;    0.000;    0.000
324.777; 2229.250;    0.000;    0.000
324.837; 2120.250;    0.000;    0.000
324.896; 2165.250;    0.000;    0.000
324.956; 2115.250;    0.000;    0.000
325.016; 2111.250;    0.000;    0.000
325.076; 2142.250;    0.000;    0.000
325.135; 2188.250;    0.000;    0.000
325.195; 2064.250;    0.000;    0.000
325.255; 2085.250;    0.000;    0.000
325.315; 2183.250;    0.000;    0.000
325.374; 2137.250;    0.000;    0.000
325.434; 2202.250;    0.000;    0.000
325.494; 2176.250;    0.000;    0.000
325.553; 2110.250;    0.000;    0.000
325.613; 2189.250;    0.000;    0.000
325.673; 2122.250;    0.000;    0.000
325.732; 2159.250;    0.000;    0.000
325.792; 2124.250;    0.000;    0.000
325.852; 2159.250;    0.000;    0.000
325.911; 2102.250;    0.000;    0.000
325.971; 2115.250;    0.000;    0.000
326.031; 2125.250;    0.000;    0.000
326.090; 2068.250;    0.000;    0.000
326.150; 2121.250;    0.000;    0.000
326.209; 2093.250;    0.000;    0.000
326.269; 2121.250;    0.000;    0.000
326.328; 2148.250;    0.000;    0.000
326.388; 2160.250;    0.000;    0.000
326.448; 2160.250;    0.000;    0.000
326.507; 2208.250;    0.000;    0.000
326.567; 2164.250;    0.000;    0.000
326.626; 2168.250;    0.000;    0.000
326.686; 2006.250;    0.000;    0.000
326.745; 2120.250;    0.000;    0.000
326.805; 2016.250;    0.000;    0.000
326.864; 2120.250;    0.000;    0.000
326.924; 2244.250;    0.000;    0.000
326.983; 2141.250;    0.000;    0.000
327.043; 2174.250;    0.000;    0.000
327.102; 2158.250;    0.000;    0.000
327.161; 2154.250;    0.000;    0.000
327.221; 2130.250;    0.000;    0.000
327.280; 2100.250;    0.000;    0.000
327.340; 2229.250;    0.000;    0.000
327.399; 2277.250;    0.000;    0.000
327.459; 2169.250;    0.000;    0.000
327.518; 2139.250;    0.000;    0.000
327.577; 2094.250;    0.000;    0.000
327.637; 2166.250;    0.000;    0.000
327.696; 2146.250;    0.000;    0.000
327.755; 2106.250;    0.000;    0.000
327.815; 2099.250;    0.000;    0.000
327.874; 2147.250;    0.000;    0.000
327.933; 2163.250;    0.000;    0.000
327.993; 2089.250;    0.000;    0.000
328.052; 2155.250;    0.000;    0.000
328.111; 2167.250;    0.000;    0.000
328.171; 2025.250;    0.000;    0.000
328.230; 2059.250;    0.000;    0.000
328.289; 2118.250;    0.000;    0.000
328.349; 2149.250;    0.000;    0.000
328.408; 2153.250;    0.000;    0.000
328.467; 2184.250;    0.000;    0.000
328.526; 2223.250;    0.000;    0.000
328.586; 2165.250;    0.000;    0.000
328.645; 2260.250;    0.000;    0.000
328.704; 2196.250;    0.000;    0.000
328.763; 2214.250;    0.000;    0.000
328.822; 2073.250;    0.000;    0.000
328.882; 2164.250;    0.000;    0.000
328.941; 2228.250;    0.000;    0.000
329.000; 2178.250;    0.000;    0.000
329.059; 2191.250;    0.000;    0.000
329.118; 2258.250;    0.000;    0.000
329.177; 2266.250;    0.000;    0.000
329.237; 2314.250;    0.000;    0.000
329.296; 2229.250;    0.000;    0.000
329.355; 2287.250;    0.000;    0.000
329.414; 2199.250;    0.000;    0.000
329.473; 2259.250;    0.000;    0.000
329.532; 2195.250;    0.000;    0.000
329.591; 2254.250;    0.000;    0.000
329.650; 2267.250;    0.000;    0.000
329.709; 2341.250;    0.000;    0.000
329.768; 2433.250;    0.000;    0.000
329.827; 2485.250;    0.000;    0.000
329.886; 2487.250;    0.000;    0.000
329.945; 2647.250;    0.000;    0.000
330.004; 2596.250;    0.000;    0.000
330.063; 2620.250;    0.000;    0.000
330.122; 2662.250;    0.000;    0.000
330.181; 2727.250;    0.000;    0.000
330.240; 2781.250;    0.000;    0.000
330.299; 2644.250;    0.000;    0.000
330.358; 2460.250;    0.000;    0.000
330.417; 2421.250;    0.000;    0.000
330.476; 2443.250;    0.000;    0.000
330.535; 2478.250;    0.000;    0.000
330.594; 2284.250;    0.000;    0.000
330.653; 2262.250;    0.000;    0.000
330.712; 2250.250;    0.000;    0.000
330.771; 2225.250;    0.000;    0.000
330.830; 2303.250;    0.000;    0.000
330.889; 2326.250;    0.000;    0.000
330.948; 2199.250;    0.000;    0.000
331.006; 2189.250;    0.000;    0.000
331.065; 2248.250;    0.000;    0.000
331.124; 2325.250;    0.000;    0.000
331.183; 2165.250;    0.000;    0.000
331.242; 2201.250;    0.000;    0.000
331.301; 2210.250;    0.000;    0.000
331.359; 2276.250;    0.000;    0.000
331.418; 2230.250;    0.000;    0.000
331.477; 2212.250;    0.000;    0.000
331.536; 2170.250;    0.000;    0.000
331.595; 2245.250;    0.000;    0.000
331.653; 2184.250;    0.000;    0.000
331.712; 2219.250;    0.000;    0.000
331.771; 2172.250;    0.000;    0.000
331.830; 2117.250;    0.000;    0.000
331.888; 2178.250;    0.000;    0.000
331.947; 2170.250;    0.000;    0.000
332.006; 2147.250;    0.000;    0.000
332.065; 2134.250;    0.000;    0.000
332.123; 2154.250;    0.000;    0.000
332.182; 2215.250;    0.000;    0.000
332.241; 2177.250;    0.000;    0.000
332.299; 2173.250;    0.000;    0.000
332.358; 2289.250;    0.000;    0.000
332.417; 2221.250;    0.000;    0.000
332.475; 2307.250;    0.000;    0.000
332.534; 2238.250;    0.000;    0.000
332.592; 2220.250;    0.000;    0.000
332.651; 2346.250;    0.000;    0.000
332.710; 2176.250;    0.000;    0.000
332.768; 2245.250;    0.000;    0.000
332.827; 2249.250;    0.000;    0.000
332.885; 2192.250;    0.000;    0.000
332.944; 2123.250;    0.000;    0.000
333.003; 2202.250;    0.000;    0.000
333.061; 2254.250;    0.000;    0.000
333.120; 2310.250;    0.000;    0.000
333.178; 2370.250;    0.000;    0.000
333.237; 2433.250;    0.000;    0.000
333.295; 2409.250;    0.000;    0.000
333.354; 2451.250;    0.000;    0.000
333.412; 2467.250;    0.000;    0.000
333.471; 2487.250;    0.000;    0.000
333.529; 2512.250;    0.000;    0.000
333.588; 2476.250;    0.000;    0.000
333.646; 2509.250;    0.000;    0.000
333.705; 2547.250;    0.000;    0.000
333.763; 2577.250;    0.000;    0.000
333.822; 2528.250;    0.000;    0.000
333.880; 2434.250;    0.000;    0.000
333.938; 2426.250;    0.000;    0.000
333.997; 2441.250;    0.000;    0.000
334.055; 2482.250;    0.000;    0.000
334.114; 2524.250;    0.000;    0.000
334.172; 2359.250;    0.000;    0.000
334.230; 2333.250;    0.000;    0.000
334.289; 2348.250;    0.000;    0.000
334.347; 2325.250;    0.000;    0.000
334.405; 2418.250;    0.000;    0.000
334.464; 2303.250;    0.000;    0.000
334.522; 2388.250;    0.000;    0.000
334.580; 2316.250;    0.000;    0.000
334.639; 2454.250;    0.000;    0.000
334.697; 2365.250;    0.000;    0.000
334.755; 2393.250;    0.000;    0.000
334.814; 2320.250;    0.000;    0.000
334.872; 2272.250;    0.000;    0.000
334.930; 2373.250;    0.000;    0.000
334.988; 2316.250;    0.000;    0.000
335.047; 2414.250;    0.000;    0.000
335.105; 2358.250;    0.000;    0.000
335.163; 2454.250;    0.000;    0.000
335.221; 2424.250;    0.000;    0.000
335.280; 2462.250;    0.000;    0.000
335.338; 2491.250;    0.000;    0.000
335.396; 2321.250;    0.000;    0.000
335.454; 2369.250;    0.000;    0.000
335.512; 2328.250;    0.000;    0.000
335.570; 2343.250;    0.000;    0.000
335.629; 2429.250;    0.000;    0.000
335.687; 2524.250;    0.000;    0.000
335.745; 2464.250;    0.000;    0.000
335.803; 2598.250;    0.000;    0.000
335.861; 2641.250;    0.000;    0.000
335.919; 2530.250;    0.000;    0.000
335.977; 2622.250;    0.000;    0.000
336.035; 2574.250;    0.000;    0.000
336.094; 2553.250;    0.000;    0.000
336.152; 2550.250;    0.000;    0.000
336.210; 2699.250;    0.000;    0.000
336.268; 2639.250;    0.000;    0.000
336.326; 2545.250;    0.000;    0.000
336.384; 2572.250;    0.000;    0.000
336.442; 2481.250;    0.000;    0.000
336.500; 2545.250;    0.000;    0.000
336.558; 2515.250;    0.000;    0.000
336.616; 2434.250;    0.000;    0.000
336.674; 2446.250;    0.000;    0.000
336.732; 2484.250;    0.000;    0.000
336.790; 2512.250;    0.000;    0.000
336.848; 2537.250;    0.000;    0.000
336.906; 2527.250;    0.000;    0.000
336.964; 2543.250;    0.000;    0.000
337.022; 2508.250;    0.000;    0.000
337.080; 2632.250;    0.000;    0.000
337.138; 2510.250;    0.000;    0.000
337.195; 2497.250;    0.000;    0.000
337.253; 2495.250;    0.000;    0.000
337.311; 2492.250;    0.000;    0.000
337.369; 2604.250;    0.000;    0.000
337.427; 2495.250;    0.000;    0.000
337.485; 2422.250;    0.000;    0.000
337.543; 2585.250;    0.000;    0.000
337.601; 2424.250;    0.000;    0.000
337.658; 2528.250;    0.000;    0.000
337.716; 2373.250;    0.000;    0.000
337.774; 2411.250;    0.000;    0.000
337.832; 2280.250;    0.000;    0.000
337.890; 2264.250;    0.000;    0.000
337.947; 2352.250;    0.000;    0.000
338.005; 2304.250;    0.000;    0.000
338.063; 2397.250;    0.000;    0.000
338.121; 2412.250;    0.000;    0.000
338.178; 2364.250;    0.000;    0.000
338.236; 2408.250;    0.000;    0.000
338.294; 2458.250;    0.000;    0.000
338.352; 2564.250;    0.000;    0.000
338.409; 2390.250;    0.000;    0.000
338.467; 2486.250;    0.000;    0.000
338.525; 2380.250;    0.000;    0.000
338.583; 2245.250;    0.000;    0.000
338.640; 2322.250;    0.000;    0.000
338.698; 2367.250;    0.000;    0.000
338.756; 2449.250;    0.000;    0.000
338.813; 2510.250;    0.000;    0.000
338.871; 2540.250;    0.000;    0.000
338.928; 2577.250;    0.000;    0.000
338.986; 2491.250;    0.000;    0.000
339.044; 2500.250;    0.000;    0.000
339.101; 2471.250;    0.000;    0.000
339.159; 2414.250;    0.000;    0.000
339.216; 2524.250;    0.000;    0.000
339.274; 2479.250;    0.000;    0.000
339.332; 2502.250;    0.000;    0.000
339.389; 2439.250;    0.000;    0.000
339.447; 2495.250;    0.000;    0.000
339.504; 2422.250;    0.000;    0.000
339.562; 2545.250;    0.000;    0.000
339.619; 2483.250;    0.000;    0.000
339.677; 2481.250;    0.000;    0.000
339.734; 2491.250;    0.000;    0.000
339.792; 2435.250;    0.000;    0.000
339.849; 2520.250;    0.000;    0.000
339.907; 2403.250;    0.000;    0.000
339.964; 2456.250;    0.000;    0.000
340.022; 2467.250;    0.000;    0.000
340.079; 2471.250;    0.000;    0.000
340.137; 2416.250;    0.000;    0.000
340.194; 2531.250;    0.000;    0.000
340.252; 2394.250;    0.000;    0.000
340.309; 2383.250;    0.000;    0.000
340.366; 2377.250;    0.000;    0.000
340.424; 2462.250;    0.000;    0.000
340.481; 2483.250;    0.000;    0.000
340.538; 2443.250;    0.000;    0.000
340.596; 2503.250;    0.000;    0.000
340.653; 2456.250;    0.000;    0.000
340.711; 2571.250;    0.000;    0.000
340.768; 2495.250;    0.000;    0.000
340.825; 2509.250;    0.000;    0.000
340.883; 2523.250;    0.000;    0.000
340.940; 2508.250;    0.000;    0.000
340.997; 2513.250;    0.000;    0.000
341.054; 2467.250;    0.000;    0.000
341.112; 2470.250;    0.000;    0.000
341.169; 2551.250;    0.000;    0.000
341.226; 2616.250;    0.000;    0.000
341.284; 2484.250;    0.000;    0.000
341.341; 2499.250;    0.000;    0.000
341.398; 2511.250;    0.000;    0.000
341.455; 2523.250;    0.000;    0.000
341.512; 2542.250;    0.000;    0.000
341.570; 2480.250;    0.000;    0.000
341.627; 2445.250;    0.000;    0.000
341.684; 2459.250;    0.000;    0.000
341.741; 2499.250;    0.000;    0.000
341.798; 2501.250;    0.000;    0.000
341.856; 2474.250;    0.000;    0.000
341.913; 2496.250;    0.000;    0.000
341.970; 2487.250;    0.000;    0.000
342.027; 2559.250;    0.000;    0.000
342.084; 2594.250;    0.000;    0.000
342.141; 2599.250;    0.000;    0.000
342.198; 2524.250;    0.000;    0.000
342.255; 2603.250;    0.000;    0.000
342.313; 2531.250;    0.000;    0.000
342.370; 2529.250;    0.000;    0.000
342.427; 2521.250;    0.000;    0.000
342.484; 2492.250;    0.000;    0.000
342.541; 2401.250;    0.000;    0.000
342.598; 2447.250;    0.000;    0.000
342.655; 2468.250;    0.000;    0.000
342.712; 2424.250;    0.000;    0.000
342.769; 2526.250;    0.000;    0.000
342.826; 2428.250;    0.000;    0.000
342.883; 2369.250;    0.000;    0.000
342.940; 2410.250;    0.000;    0.000
342.997; 2500.250;    0.000;    0.000
343.054; 2419.250;    0.000;    0.000
343.111; 2414.250;    0.000;    0.000
343.168; 2404.250;    0.000;    0.000
343.225; 2521.250;    0.000;    0.000
343.282; 2422.250;    0.000;    0.000
343.339; 2521.250;    0.000;    0.000
343.395; 2499.250;    0.000;    0.000
343.452; 2476.250;    0.000;    0.000
343.509; 2390.250;    0.000;    0.000
343.566; 2471.250;    0.000;    0.000
343.623; 2430.250;    0.000;    0.000
343.680; 2549.250;    0.000;    0.000
343.737; 2520.250;    0.000;    0.000
343.794; 2579.250;    0.000;    0.000
343.850; 2661.250;    0.000;    0.000
343.907; 2519.250;    0.000;    0.000
343.964; 2582.250;    0.000;    0.000
344.021; 2558.250;    0.000;    0.000
344.078; 2527.250;    0.000;    0.000
344.134; 2674.250;    0.000;    0.000
344.191; 2723.250;    0.000;    0.000
344.248; 2695.250;    0.000;    0.000
344.305; 2597.250;    0.000;    0.000
344.361; 2591.250;    0.000;    0.000
344.418; 2571.250;    0.000;    0.000
344.475; 2585.250;    0.000;    0.000
344.532; 2563.250;    0.000;    0.000
344.588; 2530.250;    0.000;    0.000
344.645; 2513.250;    0.000;    0.000
344.702; 2577.250;    0.000;    0.000
344.758; 2712.250;    0.000;    0.000
344.815; 2567.250;    0.000;    0.000
344.872; 2565.250;    0.000;    0.000
344.928; 2576.250;    0.000;    0.000
344.985; 2592.250;    0.000;    0.000
345.042; 2666.250;    0.000;    0.000
345.098; 2595.250;    0.000;    0.000
345.155; 2660.250;    0.000;    0.000
345.212; 2546.250;    0.000;    0.000
345.268; 2524.250;    0.000;    0.000
345.325; 2543.250;    0.000;    0.000
345.381; 2707.250;    0.000;    0.000
345.438; 2570.250;    0.000;    0.000
345.495; 2747.250;    0.000;    0.000
345.551; 2604.250;    0.000;    0.000
345.608; 2639.250;    0.000;    0.000
345.664; 2711.250;    0.000;    0.000
345.721; 2611.250;    0.000;    0.000
345.777; 2483.250;    0.000;    0.000
345.834; 2462.250;    0.000;    0.000
345.890; 2531.250;    0.000;    0.000
345.947; 2621.250;    0.000;    0.000
346.003; 2537.250;    0.000;    0.000
346.060; 2481.250;    0.000;    0.000
346.116; 2551.250;    0.000;    0.000
346.173; 2515.250;    0.000;    0.000
346.229; 2604.250;    0.000;    0.000
346.285; 2412.250;    0.000;    0.000
346.342; 2496.250;    0.000;    0.000
346.398; 2607.250;    0.000;    0.000
346.455; 2655.250;    0.000;    0.000
346.511; 2668.250;    0.000;    0.000
346.567; 2652.250;    0.000;    0.000
346.624; 2642.250;    0.000;    0.000
346.680; 2537.250;    0.000;    0.000
346.737; 2631.250;    0.000;    0.000
346.793; 2724.250;    0.000;    0.000
346.849; 2714.250;    0.000;    0.000
346.906; 2723.250;    0.000;    0.000
346.962; 2816.250;    0.000;    0.000
347.018; 2811.250;    0.000;    0.000
347.074; 2762.250;    0.000;    0.000
347.131; 2675.250;    0.000;    0.000
347.187; 2705.250;    0.000;    0.000
347.243; 2808.250;    0.000;    0.000
347.300; 2613.250;    0.000;    0.000
347.356; 2645.250;    0.000;    0.000
347.412; 2545.250;    0.000;    0.000
347.468; 2570.250;    0.000;    0.000
347.524; 2568.250;    0.000;    0.000
347.581; 2484.250;    0.000;    0.000
347.637; 2500.250;    0.000;    0.000
347.693; 2520.250;    0.000;    0.000
347.749; 2515.250;    0.000;    0.000
347.805; 2572.250;    0.000;    0.000
347.862; 2514.250;    0.000;    0.000
347.918; 2554.250;    0.000;    0.000
347.974; 2556.250;    0.000;    0.000
348.030; 2597.250;    0.000;    0.000
348.086; 2688.250;    0.000;    0.000
348.142; 2579.250;    0.000;    0.000
348.198; 2611.250;    0.000;    0.000
348.254; 2630.250;    0.000;    0.000
348.311; 2542.250;    0.000;    0.000
348.367; 2556.250;    0.000;    0.000
348.423; 2545.250;    0.000;    0.000
348.479; 2521.250;    0.000;    0.000
348.535; 2581.250;    0.000;    0.000
348.591; 2663.250;    0.000;    0.000
348.647; 2478.250;    0.000;    0.000
348.703; 2680.250;    0.000;    0.000
348.759; 2586.250;    0.000;    0.000
348.815; 2626.250;    0.000;    0.000
348.871; 2577.250;    0.000;    0.000
348.927; 2535.250;    0.000;    0.000
348.983; 2624.250;    0.000;    0.000
349.039; 2691.250;    0.000;    0.000
349.095; 2637.250;    0.000;    0.000
349.151; 2702.250;    0.000;    0.000
349.207; 2603.250;    0.000;    0.000
349.263; 2668.250;    0.000;    0.000
349.319; 2649.250;    0.000;    0.000
349.374; 2584.250;    0.000;    0.000
349.430; 2657.250;    0.000;    0.000
349.486; 2749.250;    0.000;    0.000
349.542; 2638.250;    0.000;    0.000
349.598; 2656.250;    0.000;    0.000
349.654; 2660.250;    0.000;    0.000
349.710; 2696.250;    0.000;    0.000
349.766; 2670.250;    0.000;    0.000
349.821; 2617.250;    0.000;    0.000
349.877; 2580.250;    0.000;    0.000
349.933; 2650.250;    0.000;    0.000
349.989; 2662.250;    0.000;    0.000
350.045; 2639.250;    0.000;    0.000
350.100; 2670.250;    0.000;    0.000
350.156; 2574.250;    0.000;    0.000
350.212; 2729.250;    0.000;    0.000
350.268; 2545.250;    0.000;    0.000
350.323; 2549.250;    0.000;    0.000
350.379; 2645.250;    0.000;    0.000
350.435; 2611.250;    0.000;    0.000
350.491; 2674.250;    0.000;    0.000
350.546; 2604.250;    0.000;    0.000
350.602; 2640.250;    0.000;    0.000
350.658; 2590.250;    0.000;    0.000
350.713; 2659.250;    0.000;    0.000
350.769; 2617.250;    0.000;    0.000
350.825; 2542.250;    0.000;    0.000
350.880; 2598.250;    0.000;    0.000
350.936; 2669.250;    0.000;    0.000
350.992; 2513.250;    0.000;    0.000
351.047; 2638.250;    0.000;    0.000
351.103; 2563.250;    0.000;    0.000
351.158; 2631.250;    0.000;    0.000
351.214; 2456.250;    0.000;    0.000
351.270; 2524.250;    0.000;    0.000
351.325; 2543.250;    0.000;    0.000
351.381; 2599.250;    0.000;    0.000
351.436; 2577.250;    0.000;    0.000
351.492; 2632.250;    0.000;    0.000
351.547; 2780.250;    0.000;    0.000
351.603; 2759.250;    0.000;    0.000
351.658; 2757.250;    0.000;    0.000
351.714; 2660.250;    0.000;    0.000
351.769; 2714.250;    0.000;    0.000
351.825; 2836.250;    0.000;    0.000
351.880; 2715.250;    0.000;    0.000
351.936; 2768.250;    0.000;    0.000
351.991; 2802.250;    0.000;    0.000
352.047; 2755.250;    0.000;    0.000
352.102; 2714.250;    0.000;    0.000
352.158; 2703.250;    0.000;    0.000
352.213; 2588.250;    0.000;    0.000
352.268; 2663.250;    0.000;    0.000
352.324; 2557.250;    0.000;    0.000
352.379; 2613.250;    0.000;    0.000
352.434; 2669.250;    0.000;    0.000
352.490; 2784.250;    0.000;    0.000
352.545; 2727.250;    0.000;    0.000
352.601; 2688.250;    0.000;    0.000
352.656; 2602.250;    0.000;    0.000
352.711; 2572.250;    0.000;    0.000
352.767; 2580.250;    0.000;    0.000
352.822; 2521.250;    0.000;    0.000
352.877; 2590.250;    0.000;    0.000
352.932; 2611.250;    0.000;    0.000
352.988; 2602.250;    0.000;    0.000
353.043; 2650.250;    0.000;    0.000
353.098; 2716.250;    0.000;    0.000
353.153; 2673.250;    0.000;    0.000
353.209; 2585.250;    0.000;    0.000
353.264; 2555.250;    0.000;    0.000
353.319; 2553.250;    0.000;    0.000
353.374; 2594.250;    0.000;    0.000
353.430; 2564.250;    0.000;    0.000
353.485; 2562.250;    0.000;    0.000
353.540; 2581.250;    0.000;    0.000
353.595; 2510.250;    0.000;    0.000
353.650; 2617.250;    0.000;    0.000
353.705; 2590.250;    0.000;    0.000
353.761; 2581.250;    0.000;    0.000
353.816; 2630.250;    0.000;    0.000
353.871; 2553.250;    0.000;    0.000
353.926; 2540.250;    0.000;    0.000
353.981; 2535.250;    0.000;    0.000
354.036; 2512.250;    0.000;    0.000
354.091; 2525.250;    0.000;    0.000
354.146; 2584.250;    0.000;    0.000
354.201; 2644.250;    0.000;    0.000
354.256; 2519.250;    0.000;    0.000
354.311; 2664.250;    0.000;    0.000
354.367; 2496.250;    0.000;    0.000
354.422; 2608.250;    0.000;    0.000
354.477; 2552.250;    0.000;    0.000
354.532; 2571.250;    0.000;    0.000
354.587; 2504.250;    0.000;    0.000
354.642; 2532.250;    0.000;    0.000
354.697; 2632.250;    0.000;    0.000
354.751; 2652.250;    0.000;    0.000
354.806; 2609.250;    0.000;    0.000
354.861; 2644.250;    0.000;    0.000
354.916; 2624.250;    0.000;    0.000
354.971; 2588.250;    0.000;    0.000
355.026; 2664.250;    0.000;    0.000
355.081; 2544.250;    0.000;    0.000
355.136; 2510.250;    0.000;    0.000
355.191; 2502.250;    0.000;    0.000
355.246; 2510.250;    0.000;    0.000
355.301; 2502.250;    0.000;    0.000
355.355; 2536.250;    0.000;    0.000
355.410; 2535.250;    0.000;    0.000
355.465; 2601.250;    0.000;    0.000
355.520; 2515.250;    0.000;    0.000
355.575; 2551.250;    0.000;    0.000
355.630; 2496.250;    0.000;    0.000
355.684; 2583.250;    0.000;    0.000
355.739; 2596.250;    0.000;    0.000
355.794; 2499.250;    0.000;    0.000
355.849; 2575.250;    0.000;    0.000
355.904; 2592.250;    0.000;    0.000
355.958; 2623.250;    0.000;    0.000
356.013; 2510.250;    0.000;    0.000
356.068; 2503.250;    0.000;    0.000
356.123; 2503.250;    0.000;    0.000
356.177; 2634.250;    0.000;    0.000
356.232; 2523.250;    0.000;    0.000
356.287; 2643.250;    0.000;    0.000
356.341; 2685.250;    0.000;    0.000
356.396; 2653.250;    0.000;    0.000
356.451; 2681.250;    0.000;    0.000
356.505; 2503.250;    0.000;    0.000
356.560; 2553.250;    0.000;    0.000
356.615; 2618.250;    0.000;    0.000
356.669; 2488.250;    0.000;    0.000
356.724; 2564.250;    0.000;    0.000
356.778; 2619.250;    0.000;    0.000
356.833; 2514.250;    0.000;    0.000
356.888; 2567.250;    0.000;    0.000
356.942; 2596.250;    0.000;    0.000
356.997; 2612.250;    0.000;    0.000
357.051; 2455.250;    0.000;    0.000
357.106; 2471.250;    0.000;    0.000
357.160; 2463.250;    0.000;    0.000
357.215; 2362.250;    0.000;    0.000
357.269; 2484.250;    0.000;    0.000
357.324; 2535.250;    0.000;    0.000
357.378; 2531.250;    0.000;    0.000
357.433; 2511.250;    0.000;    0.000
357.487; 2419.250;    0.000;    0.000
357.542; 2488.250;    0.000;    0.000
357.596; 2533.250;    0.000;    0.000
357.651; 2449.250;    0.000;    0.000
357.705; 2485.250;    0.000;    0.000
357.760; 2487.250;    0.000;    0.000
357.814; 2544.250;    0.000;    0.000
357.868; 2460.250;    0.000;    0.000
357.923; 2542.250;    0.000;    0.000
357.977; 2466.250;    0.000;    0.000
358.032; 2565.250;    0.000;    0.000
358.086; 2564.250;    0.000;    0.000
358.140; 2480.250;    0.000;    0.000
358.195; 2525.250;    0.000;    0.000
358.249; 2531.250;    0.000;    0.000
358.303; 2504.250;    0.000;    0.000
358.358; 2412.250;    0.000;    0.000
358.412; 2470.250;    0.000;    0.000
358.466; 2508.250;    0.000;    0.000
358.521; 2475.250;    0.000;    0.000
358.575; 2438.250;    0.000;    0.000
358.629; 2516.250;    0.000;    0.000
358.683; 2463.250;    0.000;    0.000
358.738; 2412.250;    0.000;    0.000
358.792; 2409.250;    0.000;    0.000
358.846; 2489.250;    0.000;    0.000
358.900; 2450.250;    0.000;    0.000
358.954; 2581.250;    0.000;    0.000
359.009; 2446.250;    0.000;    0.000
359.063; 2370.250;    0.000;    0.000
359.117; 2398.250;    0.000;    0.000
359.171; 2453.250;    0.000;    0.000
359.225; 2462.250;    0.000;    0.000
359.280; 2385.250;    0.000;    0.000
359.334; 2509.250;    0.000;    0.000
359.388; 2551.250;    0.000;    0.000
359.442; 2424.250;    0.000;    0.000
359.496; 2439.250;    0.000;    0.000
359.550; 2354.250;    0.000;    0.000
359.604; 2478.250;    0.000;    0.000
359.658; 2459.250;    0.000;    0.000
359.712; 2464.250;    0.000;    0.000
359.766; 2443.250;    0.000;    0.000
359.820; 2371.250;    0.000;    0.000
359.875; 2411.250;    0.000;    0.000
359.929; 2449.250;    0.000;    0.000
359.983; 2378.250;    0.000;    0.000
360.037; 2449.250;    0.000;    0.000
360.091; 2421.250;    0.000;    0.000
360.145; 2439.250;    0.000;    0.000
360.199; 2420.250;    0.000;    0.000
360.253; 2363.250;    0.000;    0.000
360.306; 2400.250;    0.000;    0.000
360.360; 2436.250;    0.000;    0.000
360.414; 2427.250;    0.000;    0.000
360.468; 2456.250;    0.000;    0.000
360.522; 2399.250;    0.000;    0.000
360.576; 2374.250;    0.000;    0.000
360.630; 2470.250;    0.000;    0.000
360.684; 2425.250;    0.000;    0.000
360.738; 2418.250;    0.000;    0.000
360.792; 2377.250;    0.000;    0.000
360.846; 2331.250;    0.000;    0.000
360.899; 2449.250;    0.000;    0.000
360.953; 2414.250;    0.000;    0.000
361.007; 2507.250;    0.000;    0.000
361.061; 2472.250;    0.000;    0.000
361.115; 2397.250;    0.000;    0.000
361.168; 2458.250;    0.000;    0.000
361.222; 2389.250;    0.000;    0.000
361.276; 2435.250;    0.000;    0.000
361.330; 2434.250;    0.000;    0.000
361.384; 2410.250;    0.000;    0.000
361.437; 2361.250;    0.000;    0.000
361.491; 2384.250;    0.000;    0.000
361.545; 2427.250;    0.000;    0.000
361.599; 2287.250;    0.000;    0.000
361.652; 2375.250;    0.000;    0.000
361.706; 2388.250;    0.000;    0.000
361.760; 2338.250;    0.000;    0.000
361.813; 2457.250;    0.000;    0.000
361.867; 2413.250;    0.000;    0.000
361.921; 2419.250;    0.000;    0.000
361.974; 2304.250;    0.000;    0.000
362.028; 2277.250;    0.000;    0.000
362.082; 2308.250;    0.000;    0.000
362.135; 2308.250;    0.000;    0.000
362.189; 2271.250;    0.000;    0.000
362.242; 2286.250;    0.000;    0.000
362.296; 2296.250;    0.000;    0.000
362.350; 2298.250;    0.000;    0.000
362.403; 2310.250;    0.000;    0.000
362.457; 2297.250;    0.000;    0.000
362.510; 2259.250;    0.000;    0.000
362.564; 2316.250;    0.000;    0.000
362.617; 2293.250;    0.000;    0.000
362.671; 2265.250;    0.000;    0.000
362.724; 2294.250;    0.000;    0.000
362.778; 2333.250;    0.000;    0.000
362.831; 2368.250;    0.000;    0.000
362.885; 2300.250;    0.000;    0.000
362.938; 2190.250;    0.000;    0.000
362.992;  429.250;    0.000;    0.000
363.045;  298.250;    0.000;    0.000
363.099;  302.250;    0.000;    0.000
363.152;  318.250;    0.000;    0.000
363.205;  311.250;    0.000;    0.000
363.259;  308.250;    0.000;    0.000
363.312;  327.250;    0.000;    0.000
363.366;  305.250;    0.000;    0.000
363.419;  317.250;    0.000;    0.000
363.472;  315.250;    0.000;    0.000
363.526;  298.250;    0.000;    0.000
363.579;  287.250;    0.000;    0.000
363.632;  314.250;    0.000;    0.000
363.686;  294.250;    0.000;    0.000
363.739;  301.250;    0.000;    0.000
363.792;  287.250;    0.000;    0.000

