
Integration time [ms]:   1.000
Averaging Nr. [scans]: 1
Smoothing Nr. [pixels]: 0
Data measured with spectrometer [name]: VIS
Wave   ;Sample   ;Dark     ;Reference
[nm]   ;[counts] ;[counts] ;[counts] 

450.961;  209.225;    0.000;    0.000
451.100;  219.225;    0.000;    0.000
451.239;  203.225;    0.000;    0.000
451.377;  244.225;    0.000;    0.000
451.516;  225.225;    0.000;    0.000
451.655;  224.225;    0.000;    0.000
451.794;  221.225;    0.000;    0.000
451.932;  239.225;    0.000;    0.000
452.071;  188.225;    0.000;    0.000
452.210;  208.225;    0.000;    0.000
452.348;  230.225;    0.000;    0.000
452.487;  262.225;    0.000;    0.000
452.626;  219.225;    0.000;    0.000
452.764;  214.225;    0.000;    0.000
452.903;  216.225;    0.000;    0.000
453.042;  329.225;    0.000;    0.000
453.180; 5883.225;    0.000;    0.000
453.319; 5961.225;    0.000;    0.000
453.458; 6121.225;    0.000;    0.000
453.596; 6174.225;    0.000;    0.000
453.735; 6224.225;    0.000;    0.000
453.873; 6283.225;    0.000;    0.000
454.012; 6200.225;    0.000;    0.000
454.150; 6336.225;    0.000;    0.000
454.289; 6387.225;    0.000;    0.000
454.427; 6486.225;    0.000;    0.000
454.566; 6497.225;    0.000;    0.000
454.704; 6604.225;    0.000;    0.000
454.843; 6626.225;    0.000;    0.000
454.981; 6681.225;    0.000;    0.000
455.120; 6647.225;    0.000;    0.000
455.258; 6746.225;    0.000;    0.000
455.397; 6786.225;    0.000;    0.000
455.535; 6873.225;    0.000;    0.000
455.674; 6784.225;    0.000;    0.000
455.812; 7079.225;    0.000;    0.000
455.951; 7137.225;    0.000;    0.000
456.089; 7025.225;    0.000;    0.000
456.227; 6978.225;    0.000;    0.000
456.366; 7262.225;    0.000;    0.000
456.504; 7319.225;    0.000;    0.000
456.642; 7490.225;    0.000;    0.000
456.781; 7354.225;    0.000;    0.000
456.919; 7137.225;    0.000;    0.000
457.057; 7069.225;    0.000;    0.000
457.196; 7175.225;    0.000;    0.000
457.334; 7179.225;    0.000;    0.000
457.472; 7401.225;    0.000;    0.000
457.610; 7378.225;    0.000;    0.000
457.749; 7500.225;    0.000;    0.000
457.887; 7871.225;    0.000;    0.000
458.025; 8031.225;    0.000;    0.000
458.163; 7920.225;    0.000;    0.000
458.301; 8315.225;    0.000;    0.000
458.440; 8164.225;    0.000;    0.000
458.578; 8257.225;    0.000;    0.000
458.716; 8537.225;    0.000;    0.000
458.854; 8546.225;    0.000;    0.000
458.992; 8643.225;    0.000;    0.000
459.130; 8634.225;    0.000;    0.000
459.269; 8862.225;    0.000;    0.000
459.407; 8880.225;    0.000;    0.000
459.545; 9053.225;    0.000;    0.000
459.683; 9127.225;    0.000;    0.000
459.821; 9151.225;    0.000;    0.000
459.959; 9193.225;    0.000;    0.000
460.097; 9300.225;    0.000;    0.000
460.235; 9394.225;    0.000;    0.000
460.373; 9289.225;    0.000;    0.000
460.511; 9563.225;    0.000;    0.000
460.649; 9490.225;    0.000;    0.000
460.787; 9600.225;    0.000;    0.000
460.925; 9637.225;    0.000;    0.000
461.063; 9706.225;    0.000;    0.000
461.201; 9651.225;    0.000;    0.000
461.339; 9643.225;    0.000;    0.000
461.477; 9836.225;    0.000;    0.000
461.615; 9914.225;    0.000;    0.000
461.753;10141.225;    0.000;    0.000
461.891;10049.225;    0.000;    0.000
462.029;10253.225;    0.000;    0.000
462.166;10380.225;    0.000;    0.000
462.304;10375.225;    0.000;    0.000
462.442;10632.225;    0.000;    0.000
462.580;10764.225;    0.000;    0.000
462.718;10930.225;    0.000;    0.000
462.856;10864.225;    0.000;    0.000
462.993;10835.225;    0.000;    0.000
463.131;10700.225;    0.000;    0.000
463.269;10790.225;    0.000;    0.000
463.407;10819.225;    0.000;    0.000
463.545;10748.225;    0.000;    0.000
463.682;10839.225;    0.000;    0.000
463.820;10910.225;    0.000;    0.000
463.958;11133.225;    0.000;    0.000
464.095;11187.225;    0.000;    0.000
464.233;11444.225;    0.000;    0.000
464.371;11349.225;    0.000;    0.000
464.509;11113.225;    0.000;    0.000
464.646;11374.225;    0.000;    0.000
464.784;11305.225;    0.000;    0.000
464.921;11030.225;    0.000;    0.000
465.059;11016.225;    0.000;    0.000
465.197;10890.225;    0.000;    0.000
465.334;10621.225;    0.000;    0.000
465.472;10662.225;    0.000;    0.000
465.609;10463.225;    0.000;    0.000
465.747;10550.225;    0.000;    0.000
465.885;10379.225;    0.000;    0.000
466.022;10320.225;    0.000;    0.000
466.160;10361.225;    0.000;    0.000
466.297;10141.225;    0.000;    0.000
466.435;10191.225;    0.000;    0.000
466.572;10207.225;    0.000;    0.000
466.710;10134.225;    0.000;    0.000
466.847;10282.225;    0.000;    0.000
466.985;10422.225;    0.000;    0.000
467.122;10123.225;    0.000;    0.000
467.260;10025.225;    0.000;    0.000
467.397; 9979.225;    0.000;    0.000
467.534;10117.225;    0.000;    0.000
467.672;10081.225;    0.000;    0.000
467.809;10111.225;    0.000;    0.000
467.947;10252.225;    0.000;    0.000
468.084;10085.225;    0.000;    0.000
468.221;10072.225;    0.000;    0.000
468.359;10052.225;    0.000;    0.000
468.496;10017.225;    0.000;    0.000
468.633;10030.225;    0.000;    0.000
468.771;10012.225;    0.000;    0.000
468.908;10150.225;    0.000;    0.000
469.045;10184.225;    0.000;    0.000
469.183;10300.225;    0.000;    0.000
469.320;10365.225;    0.000;    0.000
469.457;10412.225;    0.000;    0.000
469.594;10405.225;    0.000;    0.000
469.732;10576.225;    0.000;    0.000
469.869;10474.225;    0.000;    0.000
470.006;10562.225;    0.000;    0.000
470.143;10738.225;    0.000;    0.000
470.280;10596.225;    0.000;    0.000
470.417;10854.225;    0.000;    0.000
470.555;10893.225;    0.000;    0.000
470.692;10711.225;    0.000;    0.000
470.829;10607.225;    0.000;    0.000
470.966;10518.225;    0.000;    0.000
471.103;10603.225;    0.000;    0.000
471.240;10680.225;    0.000;    0.000
471.377;10559.225;    0.000;    0.000
471.514;10739.225;    0.000;    0.000
471.651;10413.225;    0.000;    0.000
471.789;10527.225;    0.000;    0.000
471.926;10268.225;    0.000;    0.000
472.063;10265.225;    0.000;    0.000
472.200;10099.225;    0.000;    0.000
472.337;10044.225;    0.000;    0.000
472.474;10179.225;    0.000;    0.000
472.611;10074.225;    0.000;    0.000
472.748;10334.225;    0.000;    0.000
472.884;10185.225;    0.000;    0.000
473.021;10228.225;    0.000;    0.000
473.158;10245.225;    0.000;    0.000
473.295;10177.225;    0.000;    0.000
473.432;10135.225;    0.000;    0.000
473.569;10020.225;    0.000;    0.000
473.706;10116.225;    0.000;    0.000
473.843;10050.225;    0.000;    0.000
473.980;10064.225;    0.000;    0.000
474.117;10151.225;    0.000;    0.000
474.253;10088.225;    0.000;    0.000
474.390;10022.225;    0.000;    0.000
474.527;10231.225;    0.000;    0.000
474.664;10218.225;    0.000;    0.000
474.801;10267.225;    0.000;    0.000
474.937;10132.225;    0.000;    0.000
475.074;10371.225;    0.000;    0.000
475.211;10235.225;    0.000;    0.000
475.348;10319.225;    0.000;    0.000
475.484;10165.225;    0.000;    0.000
475.621;10198.225;    0.000;    0.000
475.758;10349.225;    0.000;    0.000
475.894;10365.225;    0.000;    0.000
476.031;10421.225;    0.000;    0.000
476.168;10396.225;    0.000;    0.000
476.304;10471.225;    0.000;    0.000
476.441;10372.225;    0.000;    0.000
476.578;10414.225;    0.000;    0.000
476.714;10346.225;    0.000;    0.000
476.851;10486.225;    0.000;    0.000
476.987;10575.225;    0.000;    0.000
477.124;10512.225;    0.000;    0.000
477.261;10697.225;    0.000;    0.000
477.397;10733.225;    0.000;    0.000
477.534;10611.225;    0.000;    0.000
477.670;10741.225;    0.000;    0.000
477.807;10646.225;    0.000;    0.000
477.943;11020.225;    0.000;    0.000
478.080;10934.225;    0.000;    0.000
478.216;11095.225;    0.000;    0.000
478.353;11084.225;    0.000;    0.000
478.489;11157.225;    0.000;    0.000
478.626;11258.225;    0.000;    0.000
478.762;11297.225;    0.000;    0.000
478.898;11471.225;    0.000;    0.000
479.035;11256.225;    0.000;    0.000
479.171;11190.225;    0.000;    0.000
479.308;11409.225;    0.000;    0.000
479.444;11322.225;    0.000;    0.000
479.580;11321.225;    0.000;    0.000
479.717;11350.225;    0.000;    0.000
479.853;11345.225;    0.000;    0.000
479.989;11502.225;    0.000;    0.000
480.126;11457.225;    0.000;    0.000
480.262;11468.225;    0.000;    0.000
480.398;11381.225;    0.000;    0.000
480.535;11496.225;    0.000;    0.000
480.671;11555.225;    0.000;    0.000
480.807;11396.225;    0.000;    0.000
480.943;11472.225;    0.000;    0.000
481.080;11304.225;    0.000;    0.000
481.216;11402.225;    0.000;    0.000
481.352;11211.225;    0.000;    0.000
481.488;11332.225;    0.000;    0.000
481.624;11402.225;    0.000;    0.000
481.760;11214.225;    0.000;    0.000
481.897;11297.225;    0.000;    0.000
482.033;11173.225;    0.000;    0.000
482.169;11056.225;    0.000;    0.000
482.305;11145.225;    0.000;    0.000
482.441;11145.225;    0.000;    0.000
482.577;11072.225;    0.000;    0.000
482.713;11032.225;    0.000;    0.000
482.849;11136.225;    0.000;    0.000
482.985;11032.225;    0.000;    0.000
483.121;11140.225;    0.000;    0.000
483.258;11186.225;    0.000;    0.000
483.394;11224.225;    0.000;    0.000
483.530;11194.225;    0.000;    0.000
483.665;11096.225;    0.000;    0.000
483.801;11082.225;    0.000;    0.000
483.937;11155.225;    0.000;    0.000
484.073;11280.225;    0.000;    0.000
484.209;11297.225;    0.000;    0.000
484.345;11308.225;    0.000;    0.000
484.481;11347.225;    0.000;    0.000
484.617;11199.225;    0.000;    0.000
484.753;11290.225;    0.000;    0.000
484.889;11290.225;    0.000;    0.000
485.025;11228.225;    0.000;    0.000
485.161;11161.225;    0.000;    0.000
485.296;11235.225;    0.000;    0.000
485.432;11307.225;    0.000;    0.000
485.568;11175.225;    0.000;    0.000
485.704;11442.225;    0.000;    0.000
485.840;11558.225;    0.000;    0.000
485.975;11379.225;    0.000;    0.000
486.111;11299.225;    0.000;    0.000
486.247;11529.225;    0.000;    0.000
486.383;11379.225;    0.000;    0.000
486.518;11325.225;    0.000;    0.000
486.654;11405.225;    0.000;    0.000
486.790;11513.225;    0.000;    0.000
486.926;11202.225;    0.000;    0.000
487.061;11291.225;    0.000;    0.000
487.197;11368.225;    0.000;    0.000
487.333;11232.225;    0.000;    0.000
487.468;11248.225;    0.000;    0.000
487.604;11225.225;    0.000;    0.000
487.740;11505.225;    0.000;    0.000
487.875;11482.225;    0.000;    0.000
488.011;11320.225;    0.000;    0.000
488.146;11288.225;    0.000;    0.000
488.282;11398.225;    0.000;    0.000
488.417;11340.225;    0.000;    0.000
488.553;11469.225;    0.000;    0.000
488.688;11470.225;    0.000;    0.000
488.824;11246.225;    0.000;    0.000
488.960;11215.225;    0.000;    0.000
489.095;11298.225;    0.000;    0.000
489.230;11512.225;    0.000;    0.000
489.366;11359.225;    0.000;    0.000
489.501;11421.225;    0.000;    0.000
489.637;11503.225;    0.000;    0.000
489.772;11453.225;    0.000;    0.000
489.908;11488.225;    0.000;    0.000
490.043;11453.225;    0.000;    0.000
490.178;11418.225;    0.000;    0.000
490.314;11697.225;    0.000;    0.000
490.449;11496.225;    0.000;    0.000
490.585;11706.225;    0.000;    0.000
490.720;11514.225;    0.000;    0.000
490.855;11789.225;    0.000;    0.000
490.991;11382.225;    0.000;    0.000
491.126;11610.225;    0.000;    0.000
491.261;11635.225;    0.000;    0.000
491.396;11387.225;    0.000;    0.000
491.532;11466.225;    0.000;    0.000
491.667;11607.225;    0.000;    0.000
491.802;11585.225;    0.000;    0.000
491.937;11705.225;    0.000;    0.000
492.073;11783.225;    0.000;    0.000
492.208;11721.225;    0.000;    0.000
492.343;11739.225;    0.000;    0.000
492.478;11824.225;    0.000;    0.000
492.613;11876.225;    0.000;    0.000
492.749;11745.225;    0.000;    0.000
492.884;11642.225;    0.000;    0.000
493.019;11885.225;    0.000;    0.000
493.154;11816.225;    0.000;    0.000
493.289;11706.225;    0.000;    0.000
493.424;11938.225;    0.000;    0.000
493.559;11535.225;    0.000;    0.000
493.694;11540.225;    0.000;    0.000
493.829;11782.225;    0.000;    0.000
493.964;11531.225;    0.000;    0.000
494.099;11555.225;    0.000;    0.000
494.234;11701.225;    0.000;    0.000
494.369;11706.225;    0.000;    0.000
494.504;11667.225;    0.000;    0.000
494.639;11647.225;    0.000;    0.000
494.774;11513.225;    0.000;    0.000
494.909;11716.225;    0.000;    0.000
495.044;11571.225;    0.000;    0.000
495.179;11787.225;    0.000;    0.000
495.314;11717.225;    0.000;    0.000
495.449;11676.225;    0.000;    0.000
495.584;11714.225;    0.000;    0.000
495.719;11785.225;    0.000;    0.000
495.854;11781.225;    0.000;    0.000
495.988;11858.225;    0.000;    0.000
496.123;11822.225;    0.000;    0.000
496.258;11887.225;    0.000;    0.000
496.393;11808.225;    0.000;    0.000
496.528;12020.225;    0.000;    0.000
496.663;11901.225;    0.000;    0.000
496.797;12347.225;    0.000;    0.000
496.932;12239.225;    0.000;    0.000
497.067;12488.225;    0.000;    0.000
497.202;12304.225;    0.000;    0.000
497.336;12662.225;    0.000;    0.000
497.471;13015.225;    0.000;    0.000
497.606;13025.225;    0.000;    0.000
497.740;13232.225;    0.000;    0.000
497.875;13260.225;    0.000;    0.000
498.010;13547.225;    0.000;    0.000
498.144;13533.225;    0.000;    0.000
498.279;13950.225;    0.000;    0.000
498.414;14040.225;    0.000;    0.000
498.548;14310.225;    0.000;    0.000
498.683;14603.225;    0.000;    0.000
498.817;14638.225;    0.000;    0.000
498.952;14855.225;    0.000;    0.000
499.087;15356.225;    0.000;    0.000
499.221;15629.225;    0.000;    0.000
499.356;15909.225;    0.000;    0.000
499.490;16269.225;    0.000;    0.000
499.625;16649.225;    0.000;    0.000
499.759;17232.225;    0.000;    0.000
499.894;17532.225;    0.000;    0.000
500.028;17946.225;    0.000;    0.000
500.162;18180.225;    0.000;    0.000
500.297;18382.225;    0.000;    0.000
500.431;18412.225;    0.000;    0.000
500.566;18534.225;    0.000;    0.000
500.700;18325.225;    0.000;    0.000
500.835;18048.225;    0.000;    0.000
500.969;17581.225;    0.000;    0.000
501.103;17090.225;    0.000;    0.000
501.238;16781.225;    0.000;    0.000
501.372;16356.225;    0.000;    0.000
501.506;15728.225;    0.000;    0.000
501.641;15550.225;    0.000;    0.000
501.775;15077.225;    0.000;    0.000
501.909;14830.225;    0.000;    0.000
502.043;14368.225;    0.000;    0.000
502.178;14204.225;    0.000;    0.000
502.312;13897.225;    0.000;    0.000
502.446;13626.225;    0.000;    0.000
502.580;13407.225;    0.000;    0.000
502.715;13402.225;    0.000;    0.000
502.849;13074.225;    0.000;    0.000
502.983;12948.225;    0.000;    0.000
503.117;12847.225;    0.000;    0.000
503.251;12757.225;    0.000;    0.000
503.385;12653.225;    0.000;    0.000
503.520;12265.225;    0.000;    0.000
503.654;12196.225;    0.000;    0.000
503.788;12067.225;    0.000;    0.000
503.922;11980.225;    0.000;    0.000
504.056;11764.225;    0.000;    0.000
504.190;11710.225;    0.000;    0.000
504.324;11698.225;    0.000;    0.000
504.458;11493.225;    0.000;    0.000
504.592;11432.225;    0.000;    0.000
504.726;11250.225;    0.000;    0.000
504.860;11069.225;    0.000;    0.000
504.994;11057.225;    0.000;    0.000
505.128;11094.225;    0.000;    0.000
505.262;10900.225;    0.000;    0.000
505.396;10557.225;    0.000;    0.000
505.530;10532.225;    0.000;    0.000
505.664;10364.225;    0.000;    0.000
505.798;10347.225;    0.000;    0.000
505.932;10248.225;    0.000;    0.000
506.066;10146.225;    0.000;    0.000
506.199;10076.225;    0.000;    0.000
506.333;10018.225;    0.000;    0.000
506.467; 9777.225;    0.000;    0.000
506.601; 9826.225;    0.000;    0.000
506.735; 9629.225;    0.000;    0.000
506.869; 9698.225;    0.000;    0.000
507.002; 9671.225;    0.000;    0.000
507.136; 9534.225;    0.000;    0.000
507.270; 9481.225;    0.000;    0.000
507.404; 9414.225;    0.000;    0.000
507.537; 9397.225;    0.000;    0.000
507.671; 9247.225;    0.000;    0.000
507.805; 9391.225;    0.000;    0.000
507.939; 9338.225;    0.000;    0.000
508.072; 9159.225;    0.000;    0.000
508.206; 9342.225;    0.000;    0.000
508.340; 9219.225;    0.000;    0.000
508.473; 9153.225;    0.000;    0.000
508.607; 9223.225;    0.000;    0.000
508.740; 9065.225;    0.000;    0.000
508.874; 9167.225;    0.000;    0.000
509.008; 9113.225;    0.000;    0.000
509.141; 9028.225;    0.000;    0.000
509.275; 8925.225;    0.000;    0.000
509.408; 8980.225;    0.000;    0.000
509.542; 8801.225;    0.000;    0.000
509.675; 9040.225;    0.000;    0.000
509.809; 8940.225;    0.000;    0.000
509.942; 8854.225;    0.000;    0.000
510.076; 8828.225;    0.000;    0.000
510.209; 8856.225;    0.000;    0.000
510.343; 8802.225;    0.000;    0.000
510.476; 8928.225;    0.000;    0.000
510.610; 8721.225;    0.000;    0.000
510.743; 8590.225;    0.000;    0.000
510.877; 8736.225;    0.000;    0.000
511.010; 8683.225;    0.000;    0.000
511.143; 8606.225;    0.000;    0.000
511.277; 8778.225;    0.000;    0.000
511.410; 8569.225;    0.000;    0.000
511.543; 8598.225;    0.000;    0.000
511.677; 8577.225;    0.000;    0.000
511.810; 8437.225;    0.000;    0.000
511.943; 8577.225;    0.000;    0.000
512.077; 8510.225;    0.000;    0.000
512.210; 8465.225;    0.000;    0.000
512.343; 8526.225;    0.000;    0.000
512.476; 8710.225;    0.000;    0.000
512.610; 8574.225;    0.000;    0.000
512.743; 8515.225;    0.000;    0.000
512.876; 8688.225;    0.000;    0.000
513.009; 8547.225;    0.000;    0.000
513.142; 8631.225;    0.000;    0.000
513.276; 8287.225;    0.000;    0.000
513.409; 8599.225;    0.000;    0.000
513.542; 8602.225;    0.000;    0.000
513.675; 8543.225;    0.000;    0.000
513.808; 8495.225;    0.000;    0.000
513.941; 8613.225;    0.000;    0.000
514.074; 8587.225;    0.000;    0.000
514.207; 8569.225;    0.000;    0.000
514.340; 8565.225;    0.000;    0.000
514.474; 8695.225;    0.000;    0.000
514.607; 8648.225;    0.000;    0.000
514.740; 8743.225;    0.000;    0.000
514.873; 8808.225;    0.000;    0.000
515.006; 8784.225;    0.000;    0.000
515.139; 8763.225;    0.000;    0.000
515.272; 8948.225;    0.000;    0.000
515.404; 9219.225;    0.000;    0.000
515.537; 9152.225;    0.000;    0.000
515.670; 9082.225;    0.000;    0.000
515.803; 9045.225;    0.000;    0.000
515.936; 9194.225;    0.000;    0.000
516.069; 9543.225;    0.000;    0.000
516.202; 9596.225;    0.000;    0.000
516.335; 9671.225;    0.000;    0.000
516.468;10378.225;    0.000;    0.000
516.600;12363.225;    0.000;    0.000
516.733;15387.225;    0.000;    0.000
516.866;15196.225;    0.000;    0.000
516.999;13947.225;    0.000;    0.000
517.132;17721.225;    0.000;    0.000
517.264;24383.225;    0.000;    0.000
517.397;23283.225;    0.000;    0.000
517.530;17638.225;    0.000;    0.000
517.663;14897.225;    0.000;    0.000
517.795;13736.225;    0.000;    0.000
517.928;13207.225;    0.000;    0.000
518.061;13755.225;    0.000;    0.000
518.193;18567.225;    0.000;    0.000
518.326;28384.225;    0.000;    0.000
518.459;29924.225;    0.000;    0.000
518.591;22157.225;    0.000;    0.000
518.724;17033.225;    0.000;    0.000
518.857;14657.225;    0.000;    0.000
518.989;13274.225;    0.000;    0.000
519.122;12438.225;    0.000;    0.000
519.254;11590.225;    0.000;    0.000
519.387;11154.225;    0.000;    0.000
519.519;10824.225;    0.000;    0.000
519.652;10523.225;    0.000;    0.000
519.784;10061.225;    0.000;    0.000
519.917; 9783.225;    0.000;    0.000
520.049; 9629.225;    0.000;    0.000
520.182; 9336.225;    0.000;    0.000
520.314; 9263.225;    0.000;    0.000
520.447; 9164.225;    0.000;    0.000
520.579; 9029.225;    0.000;    0.000
520.712; 9144.225;    0.000;    0.000
520.844; 8898.225;    0.000;    0.000
520.976; 8713.225;    0.000;    0.000
521.109; 8600.225;    0.000;    0.000
521.241; 8580.225;    0.000;    0.000
521.373; 8596.225;    0.000;    0.000
521.506; 8321.225;    0.000;    0.000
521.638; 8510.225;    0.000;    0.000
521.770; 8310.225;    0.000;    0.000
521.903; 8312.225;    0.000;    0.000
522.035; 7964.225;    0.000;    0.000
522.167; 8000.225;    0.000;    0.000
522.300; 8075.225;    0.000;    0.000
522.432; 8005.225;    0.000;    0.000
522.564; 7830.225;    0.000;    0.000
522.696; 8060.225;    0.000;    0.000
522.828; 7992.225;    0.000;    0.000
522.961; 7769.225;    0.000;    0.000
523.093; 7802.225;    0.000;    0.000
523.225; 7819.225;    0.000;    0.000
523.357; 7742.225;    0.000;    0.000
523.489; 7566.225;    0.000;    0.000
523.621; 7640.225;    0.000;    0.000
523.753; 7633.225;    0.000;    0.000
523.885; 7519.225;    0.000;    0.000
524.018; 7347.225;    0.000;    0.000
524.150; 7593.225;    0.000;    0.000
524.282; 7398.225;    0.000;    0.000
524.414; 7510.225;    0.000;    0.000
524.546; 7425.225;    0.000;    0.000
524.678; 7441.225;    0.000;    0.000
524.810; 7306.225;    0.000;    0.000
524.942; 7293.225;    0.000;    0.000
525.074; 7293.225;    0.000;    0.000
525.206; 7260.225;    0.000;    0.000
525.338; 7274.225;    0.000;    0.000
525.469; 7205.225;    0.000;    0.000
525.601; 7184.225;    0.000;    0.000
525.733; 7038.225;    0.000;    0.000
525.865; 7228.225;    0.000;    0.000
525.997; 7197.225;    0.000;    0.000
526.129; 7072.225;    0.000;    0.000
526.261; 7160.225;    0.000;    0.000
526.393; 7131.225;    0.000;    0.000
526.524; 6996.225;    0.000;    0.000
526.656; 7064.225;    0.000;    0.000
526.788; 7074.225;    0.000;    0.000
526.920; 6952.225;    0.000;    0.000
527.052; 7007.225;    0.000;    0.000
527.183; 6906.225;    0.000;    0.000
527.315; 7042.225;    0.000;    0.000
527.447; 6979.225;    0.000;    0.000
527.578; 6828.225;    0.000;    0.000
527.710; 6903.225;    0.000;    0.000
527.842; 6987.225;    0.000;    0.000
527.973; 6851.225;    0.000;    0.000
528.105; 6809.225;    0.000;    0.000
528.237; 6944.225;    0.000;    0.000
528.368; 6835.225;    0.000;    0.000
528.500; 6895.225;    0.000;    0.000
528.632; 6955.225;    0.000;    0.000
528.763; 6922.225;    0.000;    0.000
528.895; 6966.225;    0.000;    0.000
529.026; 6965.225;    0.000;    0.000
529.158; 6879.225;    0.000;    0.000
529.289; 6749.225;    0.000;    0.000
529.421; 6915.225;    0.000;    0.000
529.552; 6871.225;    0.000;    0.000
529.684; 6958.225;    0.000;    0.000
529.815; 7075.225;    0.000;    0.000
529.947; 6844.225;    0.000;    0.000
530.078; 6891.225;    0.000;    0.000
530.210; 6941.225;    0.000;    0.000
530.341; 6899.225;    0.000;    0.000
530.472; 6853.225;    0.000;    0.000
530.604; 6874.225;    0.000;    0.000
530.735; 6835.225;    0.000;    0.000
530.867; 6888.225;    0.000;    0.000
530.998; 6873.225;    0.000;    0.000
531.129; 7028.225;    0.000;    0.000
531.260; 7007.225;    0.000;    0.000
531.392; 6985.225;    0.000;    0.000
531.523; 7052.225;    0.000;    0.000
531.654; 7154.225;    0.000;    0.000
531.786; 7174.225;    0.000;    0.000
531.917; 7065.225;    0.000;    0.000
532.048; 7054.225;    0.000;    0.000
532.179; 7136.225;    0.000;    0.000
532.311; 7049.225;    0.000;    0.000
532.442; 7031.225;    0.000;    0.000
532.573; 7004.225;    0.000;    0.000
532.704; 6939.225;    0.000;    0.000
532.835; 7008.225;    0.000;    0.000
532.966; 6898.225;    0.000;    0.000
533.097; 6949.225;    0.000;    0.000
533.229; 6900.225;    0.000;    0.000
533.360; 6929.225;    0.000;    0.000
533.491; 6924.225;    0.000;    0.000
533.622; 6903.225;    0.000;    0.000
533.753; 6962.225;    0.000;    0.000
533.884; 6924.225;    0.000;    0.000
534.015; 6940.225;    0.000;    0.000
534.146; 7060.225;    0.000;    0.000
534.277; 6975.225;    0.000;    0.000
534.408; 7071.225;    0.000;    0.000
534.539; 7094.225;    0.000;    0.000
534.670; 6896.225;    0.000;    0.000
534.801; 6874.225;    0.000;    0.000
534.932; 6843.225;    0.000;    0.000
535.063; 6717.225;    0.000;    0.000
535.194; 6867.225;    0.000;    0.000
535.324; 6862.225;    0.000;    0.000
535.455; 6743.225;    0.000;    0.000
535.586; 6813.225;    0.000;    0.000
535.717; 6776.225;    0.000;    0.000
535.848; 6817.225;    0.000;    0.000
535.979; 6697.225;    0.000;    0.000
536.109; 6707.225;    0.000;    0.000
536.240; 6728.225;    0.000;    0.000
536.371; 6642.225;    0.000;    0.000
536.502; 6720.225;    0.000;    0.000
536.632; 6576.225;    0.000;    0.000
536.763; 6763.225;    0.000;    0.000
536.894; 6744.225;    0.000;    0.000
537.025; 6625.225;    0.000;    0.000
537.155; 6640.225;    0.000;    0.000
537.286; 6604.225;    0.000;    0.000
537.417; 6593.225;    0.000;    0.000
537.547; 6564.225;    0.000;    0.000
537.678; 6494.225;    0.000;    0.000
537.808; 6562.225;    0.000;    0.000
537.939; 6614.225;    0.000;    0.000
538.070; 6546.225;    0.000;    0.000
538.200; 6654.225;    0.000;    0.000
538.331; 6661.225;    0.000;    0.000
538.461; 6545.225;    0.000;    0.000
538.592; 6685.225;    0.000;    0.000
538.722; 6525.225;    0.000;    0.000
538.853; 6539.225;    0.000;    0.000
538.983; 6592.225;    0.000;    0.000
539.114; 6582.225;    0.000;    0.000
539.244; 6580.225;    0.000;    0.000
539.375; 6644.225;    0.000;    0.000
539.505; 6539.225;    0.000;    0.000
539.636; 6582.225;    0.000;    0.000
539.766; 6663.225;    0.000;    0.000
539.896; 6666.225;    0.000;    0.000
540.027; 6652.225;    0.000;    0.000
540.157; 6611.225;    0.000;    0.000
540.287; 6711.225;    0.000;    0.000
540.418; 6583.225;    0.000;    0.000
540.548; 6769.225;    0.000;    0.000
540.678; 6780.225;    0.000;    0.000
540.809; 6737.225;    0.000;    0.000
540.939; 6767.225;    0.000;    0.000
541.069; 6671.225;    0.000;    0.000
541.200; 6556.225;    0.000;    0.000
541.330; 6696.225;    0.000;    0.000
541.460; 6776.225;    0.000;    0.000
541.590; 6743.225;    0.000;    0.000
541.720; 6765.225;    0.000;    0.000
541.851; 6858.225;    0.000;    0.000
541.981; 6872.225;    0.000;    0.000
542.111; 7116.225;    0.000;    0.000
542.241; 7015.225;    0.000;    0.000
542.371; 7090.225;    0.000;    0.000
542.501; 7045.225;    0.000;    0.000
542.631; 7248.225;    0.000;    0.000
542.761; 7198.225;    0.000;    0.000
542.891; 7265.225;    0.000;    0.000
543.021; 7391.225;    0.000;    0.000
543.151; 7362.225;    0.000;    0.000
543.281; 7236.225;    0.000;    0.000
543.411; 7137.225;    0.000;    0.000
543.542; 7112.225;    0.000;    0.000
543.671; 7153.225;    0.000;    0.000
543.801; 7061.225;    0.000;    0.000
543.931; 7048.225;    0.000;    0.000
544.061; 7090.225;    0.000;    0.000
544.191; 7200.225;    0.000;    0.000
544.321; 7192.225;    0.000;    0.000
544.451; 6992.225;    0.000;    0.000
544.581; 7178.225;    0.000;    0.000
544.711; 7369.225;    0.000;    0.000
544.841; 7304.225;    0.000;    0.000
544.970; 7410.225;    0.000;    0.000
545.100; 7554.225;    0.000;    0.000
545.230; 7521.225;    0.000;    0.000
545.360; 7574.225;    0.000;    0.000
545.490; 7376.225;    0.000;    0.000
545.619; 7367.225;    0.000;    0.000
545.749; 7187.225;    0.000;    0.000
545.879; 7276.225;    0.000;    0.000
546.009; 7271.225;    0.000;    0.000
546.138; 7102.225;    0.000;    0.000
546.268; 7069.225;    0.000;    0.000
546.398; 7077.225;    0.000;    0.000
546.527; 7082.225;    0.000;    0.000
546.657; 7067.225;    0.000;    0.000
546.786; 7131.225;    0.000;    0.000
546.916; 7148.225;    0.000;    0.000
547.046; 7126.225;    0.000;    0.000
547.175; 7159.225;    0.000;    0.000
547.305; 7165.225;    0.000;    0.000
547.434; 7009.225;    0.000;    0.000
547.564; 7078.225;    0.000;    0.000
547.693; 7023.225;    0.000;    0.000
547.823; 7047.225;    0.000;    0.000
547.953; 7200.225;    0.000;    0.000
548.082; 7066.225;    0.000;    0.000
548.211; 6927.225;    0.000;    0.000
548.341; 7013.225;    0.000;    0.000
548.470; 7101.225;    0.000;    0.000
548.600; 7022.225;    0.000;    0.000
548.729; 6991.225;    0.000;    0.000
548.859; 6951.225;    0.000;    0.000
548.988; 7034.225;    0.000;    0.000
549.117; 6962.225;    0.000;    0.000
549.247; 7005.225;    0.000;    0.000
549.376; 7199.225;    0.000;    0.000
549.505; 7089.225;    0.000;    0.000
549.635; 7101.225;    0.000;    0.000
549.764; 7157.225;    0.000;    0.000
549.893; 7074.225;    0.000;    0.000
550.023; 7259.225;    0.000;    0.000
550.152; 7194.225;    0.000;    0.000
550.281; 7176.225;    0.000;    0.000
550.410; 7218.225;    0.000;    0.000
550.539; 7289.225;    0.000;    0.000
550.669; 7309.225;    0.000;    0.000
550.798; 7353.225;    0.000;    0.000
550.927; 7130.225;    0.000;    0.000
551.056; 7307.225;    0.000;    0.000
551.185; 7262.225;    0.000;    0.000
551.314; 7156.225;    0.000;    0.000
551.443; 7170.225;    0.000;    0.000
551.573; 7249.225;    0.000;    0.000
551.702; 7345.225;    0.000;    0.000
551.831; 7431.225;    0.000;    0.000
551.960; 7326.225;    0.000;    0.000
552.089; 7401.225;    0.000;    0.000
552.218; 7298.225;    0.000;    0.000
552.347; 7448.225;    0.000;    0.000
552.476; 7419.225;    0.000;    0.000
552.605; 7665.225;    0.000;    0.000
552.734; 7800.225;    0.000;    0.000
552.863; 8117.225;    0.000;    0.000
552.992; 8096.225;    0.000;    0.000
553.121; 7945.225;    0.000;    0.000
553.249; 7838.225;    0.000;    0.000
553.378; 7804.225;    0.000;    0.000
553.507; 7702.225;    0.000;    0.000
553.636; 7724.225;    0.000;    0.000
553.765; 7444.225;    0.000;    0.000
553.894; 7645.225;    0.000;    0.000
554.023; 7472.225;    0.000;    0.000
554.151; 7449.225;    0.000;    0.000
554.280; 7486.225;    0.000;    0.000
554.409; 7604.225;    0.000;    0.000
554.538; 7298.225;    0.000;    0.000
554.666; 7434.225;    0.000;    0.000
554.795; 7336.225;    0.000;    0.000
554.924; 7343.225;    0.000;    0.000
555.052; 7406.225;    0.000;    0.000
555.181; 7233.225;    0.000;    0.000
555.310; 7345.225;    0.000;    0.000
555.439; 7352.225;    0.000;    0.000
555.567; 7291.225;    0.000;    0.000
555.696; 7225.225;    0.000;    0.000
555.824; 7318.225;    0.000;    0.000
555.953; 7310.225;    0.000;    0.000
556.082; 7276.225;    0.000;    0.000
556.210; 7243.225;    0.000;    0.000
556.339; 7144.225;    0.000;    0.000
556.467; 7265.225;    0.000;    0.000
556.596; 7143.225;    0.000;    0.000
556.724; 7172.225;    0.000;    0.000
556.853; 7223.225;    0.000;    0.000
556.981; 7078.225;    0.000;    0.000
557.110; 7116.225;    0.000;    0.000
557.238; 6959.225;    0.000;    0.000
557.367; 7072.225;    0.000;    0.000
557.495; 7199.225;    0.000;    0.000
557.623; 7051.225;    0.000;    0.000
557.752; 6986.225;    0.000;    0.000
557.880; 7143.225;    0.000;    0.000
558.008; 7042.225;    0.000;    0.000
558.137; 7313.225;    0.000;    0.000
558.265; 6973.225;    0.000;    0.000
558.393; 7237.225;    0.000;    0.000
558.522; 7123.225;    0.000;    0.000
558.650; 7101.225;    0.000;    0.000
558.778; 7154.225;    0.000;    0.000
558.906; 7146.225;    0.000;    0.000
559.035; 7174.225;    0.000;    0.000
559.163; 7205.225;    0.000;    0.000
559.291; 7150.225;    0.000;    0.000
559.419; 7107.225;    0.000;    0.000
559.548; 7227.225;    0.000;    0.000
559.676; 7253.225;    0.000;    0.000
559.804; 7226.225;    0.000;    0.000
559.932; 7239.225;    0.000;    0.000
560.060; 7295.225;    0.000;    0.000
560.188; 7421.225;    0.000;    0.000
560.316; 7324.225;    0.000;    0.000
560.444; 7467.225;    0.000;    0.000
560.572; 7517.225;    0.000;    0.000
560.700; 7623.225;    0.000;    0.000
560.828; 7678.225;    0.000;    0.000
560.956; 7644.225;    0.000;    0.000
561.085; 7453.225;    0.000;    0.000
561.212; 7456.225;    0.000;    0.000
561.340; 7505.225;    0.000;    0.000
561.468; 7571.225;    0.000;    0.000
561.596; 7624.225;    0.000;    0.000
561.724; 7562.225;    0.000;    0.000
561.852; 7536.225;    0.000;    0.000
561.980; 7608.225;    0.000;    0.000
562.108; 7523.225;    0.000;    0.000
562.236; 7674.225;    0.000;    0.000
562.364; 7729.225;    0.000;    0.000
562.492; 7676.225;    0.000;    0.000
562.619; 7938.225;    0.000;    0.000
562.747; 7727.225;    0.000;    0.000
562.875; 7897.225;    0.000;    0.000
563.003; 7936.225;    0.000;    0.000
563.130; 7820.225;    0.000;    0.000
563.258; 8147.225;    0.000;    0.000
563.386; 8079.225;    0.000;    0.000
563.514; 8124.225;    0.000;    0.000
563.641; 8318.225;    0.000;    0.000
563.769; 8406.225;    0.000;    0.000
563.897; 8433.225;    0.000;    0.000
564.024; 8641.225;    0.000;    0.000
564.152; 8838.225;    0.000;    0.000
564.280; 8549.225;    0.000;    0.000
564.407; 8603.225;    0.000;    0.000
564.535; 8700.225;    0.000;    0.000
564.662; 8824.225;    0.000;    0.000
564.790; 8879.225;    0.000;    0.000
564.917; 8910.225;    0.000;    0.000
565.045; 8913.225;    0.000;    0.000
565.173; 9130.225;    0.000;    0.000
565.300; 9164.225;    0.000;    0.000
565.428; 9167.225;    0.000;    0.000
565.555; 9133.225;    0.000;    0.000
565.682; 9326.225;    0.000;    0.000
565.810; 9593.225;    0.000;    0.000
565.937; 9808.225;    0.000;    0.000
566.065; 9813.225;    0.000;    0.000
566.192; 9916.225;    0.000;    0.000
566.320;10191.225;    0.000;    0.000
566.447;10250.225;    0.000;    0.000
566.574;10374.225;    0.000;    0.000
566.702;10578.225;    0.000;    0.000
566.829;10680.225;    0.000;    0.000
566.956;10751.225;    0.000;    0.000
567.083;10919.225;    0.000;    0.000
567.211;10893.225;    0.000;    0.000
567.338;10869.225;    0.000;    0.000
567.465;10958.225;    0.000;    0.000
567.593;11179.225;    0.000;    0.000
567.720;10969.225;    0.000;    0.000
567.847;10978.225;    0.000;    0.000
567.974;11094.225;    0.000;    0.000
568.101;11481.225;    0.000;    0.000
568.228;12181.225;    0.000;    0.000
568.356;12568.225;    0.000;    0.000
568.483;12177.225;    0.000;    0.000
568.610;11973.225;    0.000;    0.000
568.737;13150.225;    0.000;    0.000
568.864;14180.225;    0.000;    0.000
568.991;13458.225;    0.000;    0.000
569.118;12204.225;    0.000;    0.000
569.245;11416.225;    0.000;    0.000
569.372;11093.225;    0.000;    0.000
569.499;10758.225;    0.000;    0.000
569.626;10361.225;    0.000;    0.000
569.753;10194.225;    0.000;    0.000
569.880; 9994.225;    0.000;    0.000
570.007; 9870.225;    0.000;    0.000
570.134; 9665.225;    0.000;    0.000
570.261; 9622.225;    0.000;    0.000
570.388; 9437.225;    0.000;    0.000
570.515; 9351.225;    0.000;    0.000
570.642; 9487.225;    0.000;    0.000
570.768; 9214.225;    0.000;    0.000
570.895; 9247.225;    0.000;    0.000
571.022; 9048.225;    0.000;    0.000
571.149; 8945.225;    0.000;    0.000
571.276; 8983.225;    0.000;    0.000
571.402; 8951.225;    0.000;    0.000
571.529; 8873.225;    0.000;    0.000
571.656; 8814.225;    0.000;    0.000
571.783; 8740.225;    0.000;    0.000
571.909; 8797.225;    0.000;    0.000
572.036; 8619.225;    0.000;    0.000
572.163; 8556.225;    0.000;    0.000
572.289; 8445.225;    0.000;    0.000
572.416; 8678.225;    0.000;    0.000
572.543; 8524.225;    0.000;    0.000
572.669; 8407.225;    0.000;    0.000
572.796; 8440.225;    0.000;    0.000
572.922; 8332.225;    0.000;    0.000
573.049; 8307.225;    0.000;    0.000
573.176; 8332.225;    0.000;    0.000
573.302; 8409.225;    0.000;    0.000
573.429; 8446.225;    0.000;    0.000
573.555; 8300.225;    0.000;    0.000
573.682; 8291.225;    0.000;    0.000
573.808; 8224.225;    0.000;    0.000
573.935; 8084.225;    0.000;    0.000
574.061; 8235.225;    0.000;    0.000
574.188; 8140.225;    0.000;    0.000
574.314; 8187.225;    0.000;    0.000
574.440; 8074.225;    0.000;    0.000
574.567; 8164.225;    0.000;    0.000
574.693; 8079.225;    0.000;    0.000
574.820; 8178.225;    0.000;    0.000
574.946; 8055.225;    0.000;    0.000
575.072; 8043.225;    0.000;    0.000
575.198; 8110.225;    0.000;    0.000
575.325; 8155.225;    0.000;    0.000
575.451; 8189.225;    0.000;    0.000
575.577; 7989.225;    0.000;    0.000
575.704; 8259.225;    0.000;    0.000
575.830; 8067.225;    0.000;    0.000
575.956; 8031.225;    0.000;    0.000
576.082; 8190.225;    0.000;    0.000
576.208; 7998.225;    0.000;    0.000
576.335; 8031.225;    0.000;    0.000
576.461; 8057.225;    0.000;    0.000
576.587; 8205.225;    0.000;    0.000
576.713; 7963.225;    0.000;    0.000
576.839; 8191.225;    0.000;    0.000
576.965; 8151.225;    0.000;    0.000
577.091; 7916.225;    0.000;    0.000
577.217; 8098.225;    0.000;    0.000
577.343; 8007.225;    0.000;    0.000
577.469; 7991.225;    0.000;    0.000
577.596; 7947.225;    0.000;    0.000
577.722; 8128.225;    0.000;    0.000
577.848; 8027.225;    0.000;    0.000
577.974; 8027.225;    0.000;    0.000
578.099; 8007.225;    0.000;    0.000
578.225; 7969.225;    0.000;    0.000
578.351; 8128.225;    0.000;    0.000
578.477; 7987.225;    0.000;    0.000
578.603; 8081.225;    0.000;    0.000
578.729; 8073.225;    0.000;    0.000
578.855; 8050.225;    0.000;    0.000
578.981; 8086.225;    0.000;    0.000
579.107; 8183.225;    0.000;    0.000
579.232; 8228.225;    0.000;    0.000
579.358; 8088.225;    0.000;    0.000
579.484; 8107.225;    0.000;    0.000
579.610; 8289.225;    0.000;    0.000
579.735; 8137.225;    0.000;    0.000
579.861; 8212.225;    0.000;    0.000
579.987; 8238.225;    0.000;    0.000
580.113; 8095.225;    0.000;    0.000
580.238; 8248.225;    0.000;    0.000
580.364; 8170.225;    0.000;    0.000
580.490; 8184.225;    0.000;    0.000
580.615; 8311.225;    0.000;    0.000
580.741; 8227.225;    0.000;    0.000
580.867; 8228.225;    0.000;    0.000
580.992; 8337.225;    0.000;    0.000
581.118; 8400.225;    0.000;    0.000
581.243; 8279.225;    0.000;    0.000
581.369; 8463.225;    0.000;    0.000
581.494; 8494.225;    0.000;    0.000
581.620; 8614.225;    0.000;    0.000
581.745; 8604.225;    0.000;    0.000
581.871; 8605.225;    0.000;    0.000
581.996; 8649.225;    0.000;    0.000
582.122; 8657.225;    0.000;    0.000
582.247; 8619.225;    0.000;    0.000
582.373; 8710.225;    0.000;    0.000
582.498; 8758.225;    0.000;    0.000
582.624; 8884.225;    0.000;    0.000
582.749; 9024.225;    0.000;    0.000
582.874; 8949.225;    0.000;    0.000
583.000; 9163.225;    0.000;    0.000
583.125; 8999.225;    0.000;    0.000
583.250; 9092.225;    0.000;    0.000
583.376; 9164.225;    0.000;    0.000
583.501; 9186.225;    0.000;    0.000
583.626; 9315.225;    0.000;    0.000
583.751; 9389.225;    0.000;    0.000
583.877; 9448.225;    0.000;    0.000
584.002; 9532.225;    0.000;    0.000
584.127; 9753.225;    0.000;    0.000
584.252; 9765.225;    0.000;    0.000
584.377; 9942.225;    0.000;    0.000
584.503;10112.225;    0.000;    0.000
584.628;10252.225;    0.000;    0.000
584.753;10088.225;    0.000;    0.000
584.878;10198.225;    0.000;    0.000
585.003;10565.225;    0.000;    0.000
585.128;11000.225;    0.000;    0.000
585.253;11336.225;    0.000;    0.000
585.378;11308.225;    0.000;    0.000
585.503;11161.225;    0.000;    0.000
585.628;11368.225;    0.000;    0.000
585.753;11564.225;    0.000;    0.000
585.878;11712.225;    0.000;    0.000
586.003;11910.225;    0.000;    0.000
586.128;12324.225;    0.000;    0.000
586.253;12394.225;    0.000;    0.000
586.378;12832.225;    0.000;    0.000
586.503;13026.225;    0.000;    0.000
586.628;13381.225;    0.000;    0.000
586.753;13912.225;    0.000;    0.000
586.878;14451.225;    0.000;    0.000
587.003;14826.225;    0.000;    0.000
587.127;15561.225;    0.000;    0.000
587.252;16106.225;    0.000;    0.000
587.377;17054.225;    0.000;    0.000
587.502;17889.225;    0.000;    0.000
587.627;18901.225;    0.000;    0.000
587.751;20266.225;    0.000;    0.000
587.876;21839.225;    0.000;    0.000
588.001;23437.225;    0.000;    0.000
588.125;25502.225;    0.000;    0.000
588.250;28150.225;    0.000;    0.000
588.375;31567.225;    0.000;    0.000
588.499;36223.227;    0.000;    0.000
588.624;42586.227;    0.000;    0.000
588.749;51277.227;    0.000;    0.000
588.873;62503.227;    0.000;    0.000
588.998;65263.227;    0.000;    0.000
589.122;65263.227;    0.000;    0.000
589.247;65263.227;    0.000;    0.000
589.372;62720.227;    0.000;    0.000
589.496;64119.227;    0.000;    0.000
589.621;65263.227;    0.000;    0.000
589.745;65263.227;    0.000;    0.000
589.870;56062.227;    0.000;    0.000
589.994;46426.227;    0.000;    0.000
590.118;39655.227;    0.000;    0.000
590.243;34639.227;    0.000;    0.000
590.367;31140.225;    0.000;    0.000
590.492;28031.225;    0.000;    0.000
590.616;26041.225;    0.000;    0.000
590.740;23871.225;    0.000;    0.000
590.865;22215.225;    0.000;    0.000
590.989;20942.225;    0.000;    0.000
591.114;19949.225;    0.000;    0.000
591.238;18814.225;    0.000;    0.000
591.362;18051.225;    0.000;    0.000
591.486;17325.225;    0.000;    0.000
591.611;16875.225;    0.000;    0.000
591.735;16316.225;    0.000;    0.000
591.859;15671.225;    0.000;    0.000
591.983;15289.225;    0.000;    0.000
592.107;14778.225;    0.000;    0.000
592.232;14389.225;    0.000;    0.000
592.356;14136.225;    0.000;    0.000
592.480;13795.225;    0.000;    0.000
592.604;13570.225;    0.000;    0.000
592.728;13191.225;    0.000;    0.000
592.852;12988.225;    0.000;    0.000
592.976;12774.225;    0.000;    0.000
593.100;12689.225;    0.000;    0.000
593.224;12403.225;    0.000;    0.000
593.349;12373.225;    0.000;    0.000
593.473;11912.225;    0.000;    0.000
593.597;11783.225;    0.000;    0.000
593.721;11848.225;    0.000;    0.000
593.844;11761.225;    0.000;    0.000
593.968;11550.225;    0.000;    0.000
594.092;11246.225;    0.000;    0.000
594.216;11211.225;    0.000;    0.000
594.340;11134.225;    0.000;    0.000
594.464;11008.225;    0.000;    0.000
594.588;10825.225;    0.000;    0.000
594.712;10757.225;    0.000;    0.000
594.836;10441.225;    0.000;    0.000
594.959;10493.225;    0.000;    0.000
595.083;10274.225;    0.000;    0.000
595.207;10362.225;    0.000;    0.000
595.331;10244.225;    0.000;    0.000
595.455;10032.225;    0.000;    0.000
595.578; 9912.225;    0.000;    0.000
595.702; 9755.225;    0.000;    0.000
595.826; 9833.225;    0.000;    0.000
595.949; 9616.225;    0.000;    0.000
596.073; 9392.225;    0.000;    0.000
596.197; 9498.225;    0.000;    0.000
596.320; 9255.225;    0.000;    0.000
596.444; 9298.225;    0.000;    0.000
596.568; 9186.225;    0.000;    0.000
596.691; 9186.225;    0.000;    0.000
596.815; 8949.225;    0.000;    0.000
596.938; 9113.225;    0.000;    0.000
597.062; 8959.225;    0.000;    0.000
597.186; 8901.225;    0.000;    0.000
597.309; 8885.225;    0.000;    0.000
597.433; 8776.225;    0.000;    0.000
597.556; 8746.225;    0.000;    0.000
597.680; 8807.225;    0.000;    0.000
597.803; 8632.225;    0.000;    0.000
597.926; 8620.225;    0.000;    0.000
598.050; 8454.225;    0.000;    0.000
598.173; 8557.225;    0.000;    0.000
598.297; 8289.225;    0.000;    0.000
598.420; 8388.225;    0.000;    0.000
598.543; 8522.225;    0.000;    0.000
598.667; 8527.225;    0.000;    0.000
598.790; 8372.225;    0.000;    0.000
598.913; 8248.225;    0.000;    0.000
599.037; 8308.225;    0.000;    0.000
599.160; 8229.225;    0.000;    0.000
599.283; 8327.225;    0.000;    0.000
599.406; 8218.225;    0.000;    0.000
599.530; 8124.225;    0.000;    0.000
599.653; 8100.225;    0.000;    0.000
599.776; 8166.225;    0.000;    0.000
599.899; 8103.225;    0.000;    0.000
600.022; 7987.225;    0.000;    0.000
600.145; 8012.225;    0.000;    0.000
600.269; 8012.225;    0.000;    0.000
600.392; 8029.225;    0.000;    0.000
600.515; 7923.225;    0.000;    0.000
600.638; 8081.225;    0.000;    0.000
600.761; 8002.225;    0.000;    0.000
600.884; 7962.225;    0.000;    0.000
601.007; 7966.225;    0.000;    0.000
601.130; 7929.225;    0.000;    0.000
601.253; 7888.225;    0.000;    0.000
601.376; 7953.225;    0.000;    0.000
601.499; 7743.225;    0.000;    0.000
601.622; 7969.225;    0.000;    0.000
601.745; 7732.225;    0.000;    0.000
601.868; 7706.225;    0.000;    0.000
601.991; 7792.225;    0.000;    0.000
602.113; 7789.225;    0.000;    0.000
602.236; 7766.225;    0.000;    0.000
602.359; 7684.225;    0.000;    0.000
602.482; 7795.225;    0.000;    0.000
602.605; 7704.225;    0.000;    0.000
602.728; 7588.225;    0.000;    0.000
602.850; 7665.225;    0.000;    0.000
602.973; 7540.225;    0.000;    0.000
603.096; 7465.225;    0.000;    0.000
603.219; 7540.225;    0.000;    0.000
603.341; 7510.225;    0.000;    0.000
603.464; 7700.225;    0.000;    0.000
603.587; 7458.225;    0.000;    0.000
603.709; 7456.225;    0.000;    0.000
603.832; 7656.225;    0.000;    0.000
603.955; 7385.225;    0.000;    0.000
604.077; 7400.225;    0.000;    0.000
604.200; 7345.225;    0.000;    0.000
604.323; 7378.225;    0.000;    0.000
604.445; 7218.225;    0.000;    0.000
604.568; 7266.225;    0.000;    0.000
604.690; 7182.225;    0.000;    0.000
604.813; 7394.225;    0.000;    0.000
604.935; 7287.225;    0.000;    0.000
605.058; 7275.225;    0.000;    0.000
605.180; 7341.225;    0.000;    0.000
605.303; 7341.225;    0.000;    0.000
605.425; 7331.225;    0.000;    0.000
605.547; 7285.225;    0.000;    0.000
605.670; 7271.225;    0.000;    0.000
605.792; 7294.225;    0.000;    0.000
605.915; 7206.225;    0.000;    0.000
606.037; 7321.225;    0.000;    0.000
606.159; 7222.225;    0.000;    0.000
606.282; 7261.225;    0.000;    0.000
606.404; 7129.225;    0.000;    0.000
606.526; 7063.225;    0.000;    0.000
606.648; 7120.225;    0.000;    0.000
606.771; 7099.225;    0.000;    0.000
606.893; 6930.225;    0.000;    0.000
607.015; 7012.225;    0.000;    0.000
607.137; 7177.225;    0.000;    0.000
607.260; 7160.225;    0.000;    0.000
607.382; 7027.225;    0.000;    0.000
607.504; 7147.225;    0.000;    0.000
607.626; 7186.225;    0.000;    0.000
607.748; 7138.225;    0.000;    0.000
607.870; 7108.225;    0.000;    0.000
607.992; 7005.225;    0.000;    0.000
608.114; 7055.225;    0.000;    0.000
608.237; 7127.225;    0.000;    0.000
608.359; 7037.225;    0.000;    0.000
608.481; 7030.225;    0.000;    0.000
608.603; 6976.225;    0.000;    0.000
608.725; 7089.225;    0.000;    0.000
608.847; 7063.225;    0.000;    0.000
608.969; 7100.225;    0.000;    0.000
609.090; 7091.225;    0.000;    0.000
609.212; 7074.225;    0.000;    0.000
609.334; 7010.225;    0.000;    0.000
609.456; 7077.225;    0.000;    0.000
609.578; 6958.225;    0.000;    0.000
609.700; 6955.225;    0.000;    0.000
609.822; 7009.225;    0.000;    0.000
609.944; 7229.225;    0.000;    0.000
610.065; 6984.225;    0.000;    0.000
610.187; 7097.225;    0.000;    0.000
610.309; 6925.225;    0.000;    0.000
610.431; 7078.225;    0.000;    0.000
610.552; 7028.225;    0.000;    0.000
610.674; 6928.225;    0.000;    0.000
610.796; 6986.225;    0.000;    0.000
610.918; 6988.225;    0.000;    0.000
611.039; 6983.225;    0.000;    0.000
611.161; 6902.225;    0.000;    0.000
611.282; 6876.225;    0.000;    0.000
611.404; 6915.225;    0.000;    0.000
611.526; 6998.225;    0.000;    0.000
611.647; 6911.225;    0.000;    0.000
611.769; 6801.225;    0.000;    0.000
611.890; 6894.225;    0.000;    0.000
612.012; 6881.225;    0.000;    0.000
612.133; 6933.225;    0.000;    0.000
612.255; 6839.225;    0.000;    0.000
612.377; 6894.225;    0.000;    0.000
612.498; 6959.225;    0.000;    0.000
612.619; 6860.225;    0.000;    0.000
612.741; 6828.225;    0.000;    0.000
612.862; 6839.225;    0.000;    0.000
612.984; 6755.225;    0.000;    0.000
613.105; 6993.225;    0.000;    0.000
613.226; 6758.225;    0.000;    0.000
613.348; 6878.225;    0.000;    0.000
613.469; 6875.225;    0.000;    0.000
613.590; 6899.225;    0.000;    0.000
613.712; 6892.225;    0.000;    0.000
613.833; 7103.225;    0.000;    0.000
613.954; 6835.225;    0.000;    0.000
614.076; 7039.225;    0.000;    0.000
614.197; 6855.225;    0.000;    0.000
614.318; 6944.225;    0.000;    0.000
614.439; 6801.225;    0.000;    0.000
614.560; 6979.225;    0.000;    0.000
614.682; 6905.225;    0.000;    0.000
614.803; 6999.225;    0.000;    0.000
614.924; 6918.225;    0.000;    0.000
615.045; 6936.225;    0.000;    0.000
615.166; 7141.225;    0.000;    0.000
615.287; 7152.225;    0.000;    0.000
615.408; 7585.225;    0.000;    0.000
615.529; 7795.225;    0.000;    0.000
615.650; 7576.225;    0.000;    0.000
615.771; 7278.225;    0.000;    0.000
615.892; 7310.225;    0.000;    0.000
616.013; 8106.225;    0.000;    0.000
616.134; 8497.225;    0.000;    0.000
616.255; 8138.225;    0.000;    0.000
616.376; 7661.225;    0.000;    0.000
616.497; 7311.225;    0.000;    0.000
616.618; 7175.225;    0.000;    0.000
616.739; 7188.225;    0.000;    0.000
616.860; 7023.225;    0.000;    0.000
616.981; 6832.225;    0.000;    0.000
617.102; 6989.225;    0.000;    0.000
617.222; 6983.225;    0.000;    0.000
617.343; 6818.225;    0.000;    0.000
617.464; 6905.225;    0.000;    0.000
617.585; 6898.225;    0.000;    0.000
617.705; 6894.225;    0.000;    0.000
617.826; 6857.225;    0.000;    0.000
617.947; 6809.225;    0.000;    0.000
618.068; 6810.225;    0.000;    0.000
618.188; 6793.225;    0.000;    0.000
618.309; 6771.225;    0.000;    0.000
618.430; 6808.225;    0.000;    0.000
618.550; 6706.225;    0.000;    0.000
618.671; 6725.225;    0.000;    0.000
618.791; 6612.225;    0.000;    0.000
618.912; 6611.225;    0.000;    0.000
619.033; 6708.225;    0.000;    0.000
619.153; 6625.225;    0.000;    0.000
619.274; 6622.225;    0.000;    0.000
619.394; 6774.225;    0.000;    0.000
619.515; 6703.225;    0.000;    0.000
619.635; 6572.225;    0.000;    0.000
619.756; 6506.225;    0.000;    0.000
619.876; 6707.225;    0.000;    0.000
619.996; 6545.225;    0.000;    0.000
620.117; 6651.225;    0.000;    0.000
620.237; 6610.225;    0.000;    0.000
620.358; 6607.225;    0.000;    0.000
620.478; 6491.225;    0.000;    0.000
620.598; 6568.225;    0.000;    0.000
620.719; 6515.225;    0.000;    0.000
620.839; 6811.225;    0.000;    0.000
620.959; 6649.225;    0.000;    0.000
621.079; 6621.225;    0.000;    0.000
621.200; 6452.225;    0.000;    0.000
621.320; 6457.225;    0.000;    0.000
621.440; 6543.225;    0.000;    0.000
621.560; 6474.225;    0.000;    0.000
621.681; 6650.225;    0.000;    0.000
621.801; 6634.225;    0.000;    0.000
621.921; 6506.225;    0.000;    0.000
622.041; 6561.225;    0.000;    0.000
622.161; 6629.225;    0.000;    0.000
622.281; 6493.225;    0.000;    0.000
622.401; 6635.225;    0.000;    0.000
622.521; 6691.225;    0.000;    0.000
622.641; 6630.225;    0.000;    0.000
622.761; 6654.225;    0.000;    0.000
622.882; 6678.225;    0.000;    0.000
623.002; 6613.225;    0.000;    0.000
623.121; 6583.225;    0.000;    0.000
623.241; 6585.225;    0.000;    0.000
623.361; 6523.225;    0.000;    0.000
623.481; 6467.225;    0.000;    0.000
623.601; 6530.225;    0.000;    0.000
623.721; 6545.225;    0.000;    0.000
623.841; 6628.225;    0.000;    0.000
623.961; 6487.225;    0.000;    0.000
624.081; 6489.225;    0.000;    0.000
624.201; 6525.225;    0.000;    0.000
624.320; 6476.225;    0.000;    0.000
624.440; 6422.225;    0.000;    0.000
624.560; 6499.225;    0.000;    0.000
624.680; 6368.225;    0.000;    0.000
624.799; 6292.225;    0.000;    0.000
624.919; 6416.225;    0.000;    0.000
625.039; 6361.225;    0.000;    0.000
625.159; 6325.225;    0.000;    0.000
625.278; 6264.225;    0.000;    0.000
625.398; 6394.225;    0.000;    0.000
625.518; 6298.225;    0.000;    0.000
625.637; 6312.225;    0.000;    0.000
625.757; 6402.225;    0.000;    0.000
625.876; 6340.225;    0.000;    0.000
625.996; 6253.225;    0.000;    0.000
626.115; 6267.225;    0.000;    0.000
626.235; 6304.225;    0.000;    0.000
626.354; 6437.225;    0.000;    0.000
626.474; 6308.225;    0.000;    0.000
626.594; 6190.225;    0.000;    0.000
626.713; 6275.225;    0.000;    0.000
626.832; 6238.225;    0.000;    0.000
626.952; 6384.225;    0.000;    0.000
627.071; 6244.225;    0.000;    0.000
627.191; 6289.225;    0.000;    0.000
627.310; 6271.225;    0.000;    0.000
627.429; 6345.225;    0.000;    0.000
627.549; 6260.225;    0.000;    0.000
627.668; 6194.225;    0.000;    0.000
627.787; 6326.225;    0.000;    0.000
627.907; 6287.225;    0.000;    0.000
628.026; 6188.225;    0.000;    0.000
628.145; 6128.225;    0.000;    0.000
628.264; 6087.225;    0.000;    0.000
628.384; 6147.225;    0.000;    0.000
628.503; 6177.225;    0.000;    0.000
628.622; 6198.225;    0.000;    0.000
628.741; 6222.225;    0.000;    0.000
628.860; 6191.225;    0.000;    0.000
628.980; 6307.225;    0.000;    0.000
629.099; 6204.225;    0.000;    0.000
629.218; 6157.225;    0.000;    0.000
629.337; 6149.225;    0.000;    0.000
629.456; 6225.225;    0.000;    0.000
629.575; 6077.225;    0.000;    0.000
629.694; 6120.225;    0.000;    0.000
629.813; 6132.225;    0.000;    0.000
629.932; 6052.225;    0.000;    0.000
630.051; 6218.225;    0.000;    0.000
630.170; 6074.225;    0.000;    0.000
630.289; 6086.225;    0.000;    0.000
630.408; 6052.225;    0.000;    0.000
630.527; 6172.225;    0.000;    0.000
630.646; 6193.225;    0.000;    0.000
630.764; 5977.225;    0.000;    0.000
630.883; 6019.225;    0.000;    0.000
631.002; 6108.225;    0.000;    0.000
631.121; 6022.225;    0.000;    0.000
631.240; 6166.225;    0.000;    0.000
631.359; 6206.225;    0.000;    0.000
631.477; 6057.225;    0.000;    0.000
631.596; 6026.225;    0.000;    0.000
631.715; 6085.225;    0.000;    0.000
631.834; 5969.225;    0.000;    0.000
631.952; 6165.225;    0.000;    0.000
632.071; 6042.225;    0.000;    0.000
632.190; 6043.225;    0.000;    0.000
632.308; 5998.225;    0.000;    0.000
632.427; 6010.225;    0.000;    0.000
632.546; 5922.225;    0.000;    0.000
632.664; 5933.225;    0.000;    0.000
632.783; 5993.225;    0.000;    0.000
632.901; 6009.225;    0.000;    0.000
633.020; 6001.225;    0.000;    0.000
633.138; 6009.225;    0.000;    0.000
633.257; 6084.225;    0.000;    0.000
633.375; 6102.225;    0.000;    0.000
633.494; 5980.225;    0.000;    0.000
633.612; 5918.225;    0.000;    0.000
633.731; 6108.225;    0.000;    0.000
633.849; 6026.225;    0.000;    0.000
633.968; 5945.225;    0.000;    0.000
634.086; 5988.225;    0.000;    0.000
634.204; 6023.225;    0.000;    0.000
634.323; 5952.225;    0.000;    0.000
634.441; 6059.225;    0.000;    0.000
634.559; 6000.225;    0.000;    0.000
634.678; 5944.225;    0.000;    0.000
634.796; 5857.225;    0.000;    0.000
634.914; 5928.225;    0.000;    0.000
635.032; 5895.225;    0.000;    0.000
635.151; 6018.225;    0.000;    0.000
635.269; 5876.225;    0.000;    0.000
635.387; 5924.225;    0.000;    0.000
635.505; 5860.225;    0.000;    0.000
635.623; 5875.225;    0.000;    0.000
635.742; 5947.225;    0.000;    0.000
635.860; 5738.225;    0.000;    0.000
635.978; 5824.225;    0.000;    0.000
636.096; 5830.225;    0.000;    0.000
636.214; 5897.225;    0.000;    0.000
636.332; 5633.225;    0.000;    0.000
636.450; 6001.225;    0.000;    0.000
636.568; 5860.225;    0.000;    0.000
636.686; 5799.225;    0.000;    0.000
636.804; 5854.225;    0.000;    0.000
636.922; 5834.225;    0.000;    0.000
637.040; 5884.225;    0.000;    0.000
637.158; 5904.225;    0.000;    0.000
637.276; 5907.225;    0.000;    0.000
637.394; 5769.225;    0.000;    0.000
637.512; 5927.225;    0.000;    0.000
637.629; 5876.225;    0.000;    0.000
637.747; 5740.225;    0.000;    0.000
637.865; 5867.225;    0.000;    0.000
637.983; 5872.225;    0.000;    0.000
638.101; 5789.225;    0.000;    0.000
638.218; 5920.225;    0.000;    0.000
638.336; 5820.225;    0.000;    0.000
638.454; 5697.225;    0.000;    0.000
638.572; 5904.225;    0.000;    0.000
638.689; 5882.225;    0.000;    0.000
638.807; 5800.225;    0.000;    0.000
638.925; 5754.225;    0.000;    0.000
639.042; 5740.225;    0.000;    0.000
639.160; 5742.225;    0.000;    0.000
639.278; 5761.225;    0.000;    0.000
639.395; 5728.225;    0.000;    0.000
639.513; 5721.225;    0.000;    0.000
639.630; 5760.225;    0.000;    0.000
639.748; 5693.225;    0.000;    0.000
639.865; 5826.225;    0.000;    0.000
639.983; 5822.225;    0.000;    0.000
640.100; 5728.225;    0.000;    0.000
640.218; 5616.225;    0.000;    0.000
640.335; 5826.225;    0.000;    0.000
640.453; 5743.225;    0.000;    0.000
640.570; 5755.225;    0.000;    0.000
640.688; 5686.225;    0.000;    0.000
640.805; 5748.225;    0.000;    0.000
640.922; 5743.225;    0.000;    0.000
641.040; 5807.225;    0.000;    0.000
641.157; 5687.225;    0.000;    0.000
641.274; 5745.225;    0.000;    0.000
641.391; 5746.225;    0.000;    0.000
641.509; 5769.225;    0.000;    0.000
641.626; 5809.225;    0.000;    0.000
641.743; 5625.225;    0.000;    0.000
641.860; 5716.225;    0.000;    0.000
641.978; 5771.225;    0.000;    0.000
642.095; 5736.225;    0.000;    0.000
642.212; 5666.225;    0.000;    0.000
642.329; 5686.225;    0.000;    0.000
642.446; 5832.225;    0.000;    0.000
642.563; 5849.225;    0.000;    0.000
642.681; 5706.225;    0.000;    0.000
642.798; 5793.225;    0.000;    0.000
642.915; 5687.225;    0.000;    0.000
643.032; 5680.225;    0.000;    0.000
643.149; 5736.225;    0.000;    0.000
643.266; 5815.225;    0.000;    0.000
643.383; 5756.225;    0.000;    0.000
643.500; 5663.225;    0.000;    0.000
643.617; 5774.225;    0.000;    0.000
643.734; 5780.225;    0.000;    0.000
643.850; 5681.225;    0.000;    0.000
643.967; 5766.225;    0.000;    0.000
644.084; 5893.225;    0.000;    0.000
644.201; 5723.225;    0.000;    0.000
644.318; 5884.225;    0.000;    0.000
644.435; 5822.225;    0.000;    0.000
644.552; 5849.225;    0.000;    0.000
644.668; 5858.225;    0.000;    0.000
644.785; 5749.225;    0.000;    0.000
644.902; 5862.225;    0.000;    0.000
645.019; 5807.225;    0.000;    0.000
645.135; 5788.225;    0.000;    0.000
645.252; 5771.225;    0.000;    0.000
645.369; 5878.225;    0.000;    0.000
645.485; 5909.225;    0.000;    0.000
645.602; 5821.225;    0.000;    0.000
645.719; 5850.225;    0.000;    0.000
645.835; 6027.225;    0.000;    0.000
645.952; 5955.225;    0.000;    0.000
646.068; 6024.225;    0.000;    0.000
646.185; 5954.225;    0.000;    0.000
646.302; 6071.225;    0.000;    0.000
646.418; 6057.225;    0.000;    0.000
646.535; 6071.225;    0.000;    0.000
646.651; 6010.225;    0.000;    0.000
646.768; 5969.225;    0.000;    0.000
646.884; 6081.225;    0.000;    0.000
647.000; 6012.225;    0.000;    0.000
647.117; 6069.225;    0.000;    0.000
647.233; 6013.225;    0.000;    0.000
647.350; 6124.225;    0.000;    0.000
647.466; 6284.225;    0.000;    0.000
647.582; 6178.225;    0.000;    0.000
647.699; 6194.225;    0.000;    0.000
647.815; 6050.225;    0.000;    0.000
647.931; 6246.225;    0.000;    0.000
648.047; 6306.225;    0.000;    0.000
648.164; 6277.225;    0.000;    0.000
648.280; 6247.225;    0.000;    0.000
648.396; 6217.225;    0.000;    0.000
648.512; 6333.225;    0.000;    0.000
648.629; 6273.225;    0.000;    0.000
648.745; 6350.225;    0.000;    0.000
648.861; 6475.225;    0.000;    0.000
648.977; 6274.225;    0.000;    0.000
649.093; 6270.225;    0.000;    0.000
649.209; 6390.225;    0.000;    0.000
649.325; 6403.225;    0.000;    0.000
649.441; 6461.225;    0.000;    0.000
649.557; 6509.225;    0.000;    0.000
649.673; 6403.225;    0.000;    0.000
649.789; 6403.225;    0.000;    0.000
649.905; 6303.225;    0.000;    0.000
650.021; 6470.225;    0.000;    0.000
650.137; 6404.225;    0.000;    0.000
650.253; 6349.225;    0.000;    0.000
650.369; 6441.225;    0.000;    0.000
650.485; 6543.225;    0.000;    0.000
650.601; 6631.225;    0.000;    0.000
650.717; 6628.225;    0.000;    0.000
650.833; 6578.225;    0.000;    0.000
650.948; 6544.225;    0.000;    0.000
651.064; 6663.225;    0.000;    0.000
651.180; 6793.225;    0.000;    0.000
651.296; 6748.225;    0.000;    0.000
651.411; 6509.225;    0.000;    0.000
651.527; 6724.225;    0.000;    0.000
651.643; 6795.225;    0.000;    0.000
651.759; 6886.225;    0.000;    0.000
651.874; 6810.225;    0.000;    0.000
651.990; 6884.225;    0.000;    0.000
652.105; 6816.225;    0.000;    0.000
652.221; 7079.225;    0.000;    0.000
652.337; 7129.225;    0.000;    0.000
652.452; 6941.225;    0.000;    0.000
652.568; 7070.225;    0.000;    0.000
652.683; 6976.225;    0.000;    0.000
652.799; 7205.225;    0.000;    0.000
652.914; 7116.225;    0.000;    0.000
653.030; 7180.225;    0.000;    0.000
653.145; 7493.225;    0.000;    0.000
653.261; 7406.225;    0.000;    0.000
653.376; 7418.225;    0.000;    0.000
653.492; 7600.225;    0.000;    0.000
653.607; 7640.225;    0.000;    0.000
653.722; 7740.225;    0.000;    0.000
653.838; 7927.225;    0.000;    0.000
653.953; 7825.225;    0.000;    0.000
654.068; 7938.225;    0.000;    0.000
654.184; 8112.225;    0.000;    0.000
654.299; 8180.225;    0.000;    0.000
654.414; 8253.225;    0.000;    0.000
654.530; 8436.225;    0.000;    0.000
654.645; 8649.225;    0.000;    0.000
654.760; 8606.225;    0.000;    0.000
654.875; 9022.225;    0.000;    0.000
654.990; 9250.225;    0.000;    0.000
655.106; 9238.225;    0.000;    0.000
655.221; 9406.225;    0.000;    0.000
655.336; 9811.225;    0.000;    0.000
655.451; 9713.225;    0.000;    0.000
655.566;10071.225;    0.000;    0.000
655.681;10391.225;    0.000;    0.000
655.796;10857.225;    0.000;    0.000
655.911;10969.225;    0.000;    0.000
656.026;11426.225;    0.000;    0.000
656.141;11981.225;    0.000;    0.000
656.256;12189.225;    0.000;    0.000
656.371;12180.225;    0.000;    0.000
656.486;12226.225;    0.000;    0.000
656.601;12181.225;    0.000;    0.000
656.716;11752.225;    0.000;    0.000
656.831;11830.225;    0.000;    0.000
656.946;11476.225;    0.000;    0.000
657.060;11167.225;    0.000;    0.000
657.175;11046.225;    0.000;    0.000
657.290;10692.225;    0.000;    0.000
657.405;10641.225;    0.000;    0.000
657.520;10296.225;    0.000;    0.000
657.634;10027.225;    0.000;    0.000
657.749; 9871.225;    0.000;    0.000
657.864; 9882.225;    0.000;    0.000
657.979; 9600.225;    0.000;    0.000
658.093; 9434.225;    0.000;    0.000
658.208; 9331.225;    0.000;    0.000
658.323; 9075.225;    0.000;    0.000
658.437; 9057.225;    0.000;    0.000
658.552; 9106.225;    0.000;    0.000
658.666; 8787.225;    0.000;    0.000
658.781; 8651.225;    0.000;    0.000
658.895; 8533.225;    0.000;    0.000
659.010; 8504.225;    0.000;    0.000
659.125; 8175.225;    0.000;    0.000
659.239; 8291.225;    0.000;    0.000
659.353; 8223.225;    0.000;    0.000
659.468; 8038.225;    0.000;    0.000
659.582; 8012.225;    0.000;    0.000
659.697; 8083.225;    0.000;    0.000
659.811; 7935.225;    0.000;    0.000
659.926; 7901.225;    0.000;    0.000
660.040; 7713.225;    0.000;    0.000
660.154; 7768.225;    0.000;    0.000
660.269; 7721.225;    0.000;    0.000
660.383; 7521.225;    0.000;    0.000
660.497; 7460.225;    0.000;    0.000
660.612; 7426.225;    0.000;    0.000
660.726; 7422.225;    0.000;    0.000
660.840; 7248.225;    0.000;    0.000
660.954; 7268.225;    0.000;    0.000
661.068; 7126.225;    0.000;    0.000
661.183; 6919.225;    0.000;    0.000
661.297; 6881.225;    0.000;    0.000
661.411; 6936.225;    0.000;    0.000
661.525; 7052.225;    0.000;    0.000
661.639; 6819.225;    0.000;    0.000
661.753; 6741.225;    0.000;    0.000
661.867; 6812.225;    0.000;    0.000
661.981; 6762.225;    0.000;    0.000
662.095; 6640.225;    0.000;    0.000
662.209; 6683.225;    0.000;    0.000
662.323; 6670.225;    0.000;    0.000
662.437; 6442.225;    0.000;    0.000
662.551; 6437.225;    0.000;    0.000
662.665; 6580.225;    0.000;    0.000
662.779; 6391.225;    0.000;    0.000
662.893; 6347.225;    0.000;    0.000
663.007; 6267.225;    0.000;    0.000
663.121; 6304.225;    0.000;    0.000
663.235; 6212.225;    0.000;    0.000
663.349; 6227.225;    0.000;    0.000
663.462; 6157.225;    0.000;    0.000
663.576; 6155.225;    0.000;    0.000
663.690; 6140.225;    0.000;    0.000
663.804; 6118.225;    0.000;    0.000
663.917; 6033.225;    0.000;    0.000
664.031; 5984.225;    0.000;    0.000
664.145; 6025.225;    0.000;    0.000
664.258; 5986.225;    0.000;    0.000
664.372; 5863.225;    0.000;    0.000
664.486; 5846.225;    0.000;    0.000
664.599; 5850.225;    0.000;    0.000
664.713; 5860.225;    0.000;    0.000
664.827; 5799.225;    0.000;    0.000
664.940; 5857.225;    0.000;    0.000
665.054; 5737.225;    0.000;    0.000
665.167; 5757.225;    0.000;    0.000
665.281; 5766.225;    0.000;    0.000
665.394; 5729.225;    0.000;    0.000
665.508; 5708.225;    0.000;    0.000
665.621; 5748.225;    0.000;    0.000
665.735; 5616.225;    0.000;    0.000
665.848; 5679.225;    0.000;    0.000
665.961; 5586.225;    0.000;    0.000
666.075; 5668.225;    0.000;    0.000
666.188; 5592.225;    0.000;    0.000
666.301; 5556.225;    0.000;    0.000
666.415; 5425.225;    0.000;    0.000
666.528; 5607.225;    0.000;    0.000
666.641; 5480.225;    0.000;    0.000
666.755; 5544.225;    0.000;    0.000
666.868; 5456.225;    0.000;    0.000
666.981; 5460.225;    0.000;    0.000
667.094; 5339.225;    0.000;    0.000
667.207; 5380.225;    0.000;    0.000
667.321; 5438.225;    0.000;    0.000
667.434; 5300.225;    0.000;    0.000
667.547; 5354.225;    0.000;    0.000
667.660; 5381.225;    0.000;    0.000
667.773; 5224.225;    0.000;    0.000
667.886; 5223.225;    0.000;    0.000
667.999; 5458.225;    0.000;    0.000
668.112; 5261.225;    0.000;    0.000
668.225; 5278.225;    0.000;    0.000
668.338; 5232.225;    0.000;    0.000
668.451; 5277.225;    0.000;    0.000
668.564; 5255.225;    0.000;    0.000
668.677; 5148.225;    0.000;    0.000
668.790; 5121.225;    0.000;    0.000
668.903; 5250.225;    0.000;    0.000
669.016; 5160.225;    0.000;    0.000
669.129; 5211.225;    0.000;    0.000
669.242; 5070.225;    0.000;    0.000
669.354; 5040.225;    0.000;    0.000
669.467; 5047.225;    0.000;    0.000
669.580; 5124.225;    0.000;    0.000
669.693; 5091.225;    0.000;    0.000
669.806; 4905.225;    0.000;    0.000
669.918; 5044.225;    0.000;    0.000
670.031; 5097.225;    0.000;    0.000
670.144; 4980.225;    0.000;    0.000
670.256; 5015.225;    0.000;    0.000
670.369; 5122.225;    0.000;    0.000
670.482; 5008.225;    0.000;    0.000
670.594; 4946.225;    0.000;    0.000
670.707; 5022.225;    0.000;    0.000
670.820; 5005.225;    0.000;    0.000
670.932; 4935.225;    0.000;    0.000
671.045; 5046.225;    0.000;    0.000
671.157; 5011.225;    0.000;    0.000
671.270; 5011.225;    0.000;    0.000
671.382; 4838.225;    0.000;    0.000
671.495; 4919.225;    0.000;    0.000
671.607; 4921.225;    0.000;    0.000
671.720; 4855.225;    0.000;    0.000
671.832; 4899.225;    0.000;    0.000
671.944; 4919.225;    0.000;    0.000
672.057; 4941.225;    0.000;    0.000
672.169; 4864.225;    0.000;    0.000
672.281; 4889.225;    0.000;    0.000
672.394; 4947.225;    0.000;    0.000
672.506; 4801.225;    0.000;    0.000
672.618; 4910.225;    0.000;    0.000
672.731; 4828.225;    0.000;    0.000
672.843; 4764.225;    0.000;    0.000
672.955; 4767.225;    0.000;    0.000
673.067; 4826.225;    0.000;    0.000
673.180; 4931.225;    0.000;    0.000
673.292; 4866.225;    0.000;    0.000
673.404; 4902.225;    0.000;    0.000
673.516; 4843.225;    0.000;    0.000
673.628; 4737.225;    0.000;    0.000
673.740; 4767.225;    0.000;    0.000
673.852; 4827.225;    0.000;    0.000
673.964; 4747.225;    0.000;    0.000
674.076; 4801.225;    0.000;    0.000
674.188; 4714.225;    0.000;    0.000
674.300; 4787.225;    0.000;    0.000
674.412; 4825.225;    0.000;    0.000
674.524; 4589.225;    0.000;    0.000
674.636; 4796.225;    0.000;    0.000
674.748; 4661.225;    0.000;    0.000
674.860; 4769.225;    0.000;    0.000
674.972; 4714.225;    0.000;    0.000
675.084; 4664.225;    0.000;    0.000
675.196; 4720.225;    0.000;    0.000
675.307; 4642.225;    0.000;    0.000
675.419; 4694.225;    0.000;    0.000
675.531; 4725.225;    0.000;    0.000
675.643; 4704.225;    0.000;    0.000
675.755; 4670.225;    0.000;    0.000
675.866; 4615.225;    0.000;    0.000
675.978; 4679.225;    0.000;    0.000
676.090; 4608.225;    0.000;    0.000
676.201; 4714.225;    0.000;    0.000
676.313; 4619.225;    0.000;    0.000
676.425; 4669.225;    0.000;    0.000
676.536; 4657.225;    0.000;    0.000
676.648; 4534.225;    0.000;    0.000
676.759; 4683.225;    0.000;    0.000
676.871; 4679.225;    0.000;    0.000
676.983; 4516.225;    0.000;    0.000
677.094; 4456.225;    0.000;    0.000
677.206; 4491.225;    0.000;    0.000
677.317; 4639.225;    0.000;    0.000
677.429; 4593.225;    0.000;    0.000
677.540; 4618.225;    0.000;    0.000
677.651; 4490.225;    0.000;    0.000
677.763; 4579.225;    0.000;    0.000
677.874; 4569.225;    0.000;    0.000
677.986; 4578.225;    0.000;    0.000
678.097; 4485.225;    0.000;    0.000
678.208; 4499.225;    0.000;    0.000
678.320; 4553.225;    0.000;    0.000
678.431; 4536.225;    0.000;    0.000
678.542; 4429.225;    0.000;    0.000
678.653; 4522.225;    0.000;    0.000
678.765; 4415.225;    0.000;    0.000
678.876; 4486.225;    0.000;    0.000
678.987; 4476.225;    0.000;    0.000
679.098; 4410.225;    0.000;    0.000
679.209; 4513.225;    0.000;    0.000
679.320; 4357.225;    0.000;    0.000
679.432; 4429.225;    0.000;    0.000
679.543; 4360.225;    0.000;    0.000
679.654; 4463.225;    0.000;    0.000
679.765; 4532.225;    0.000;    0.000
679.876; 4434.225;    0.000;    0.000
679.987; 4438.225;    0.000;    0.000
680.098; 4506.225;    0.000;    0.000
680.209; 4409.225;    0.000;    0.000
680.320; 4396.225;    0.000;    0.000
680.431; 4479.225;    0.000;    0.000
680.542; 4461.225;    0.000;    0.000
680.653; 4381.225;    0.000;    0.000
680.763; 4336.225;    0.000;    0.000
680.874; 4410.225;    0.000;    0.000
680.985; 4373.225;    0.000;    0.000
681.096; 4424.225;    0.000;    0.000
681.207; 4372.225;    0.000;    0.000
681.318; 4464.225;    0.000;    0.000
681.428; 4361.225;    0.000;    0.000
681.539; 4330.225;    0.000;    0.000
681.650; 4360.225;    0.000;    0.000
681.760; 4378.225;    0.000;    0.000
681.871; 4376.225;    0.000;    0.000
681.982; 4330.225;    0.000;    0.000
682.093; 4241.225;    0.000;    0.000
682.203; 4202.225;    0.000;    0.000
682.314; 4269.225;    0.000;    0.000
682.424; 4326.225;    0.000;    0.000
682.535; 4357.225;    0.000;    0.000
682.646; 4288.225;    0.000;    0.000
682.756; 4309.225;    0.000;    0.000
682.867; 4254.225;    0.000;    0.000
682.977; 4303.225;    0.000;    0.000
683.088; 4318.225;    0.000;    0.000
683.198; 4288.225;    0.000;    0.000
683.308; 4340.225;    0.000;    0.000
683.419; 4295.225;    0.000;    0.000
683.529; 4307.225;    0.000;    0.000
683.640; 4293.225;    0.000;    0.000
683.750; 4366.225;    0.000;    0.000
683.860; 4290.225;    0.000;    0.000
683.971; 4357.225;    0.000;    0.000
684.081; 4147.225;    0.000;    0.000
684.191; 4436.225;    0.000;    0.000
684.301; 4297.225;    0.000;    0.000
684.412; 4189.225;    0.000;    0.000
684.522; 4340.225;    0.000;    0.000
684.632; 4393.225;    0.000;    0.000
684.742; 4352.225;    0.000;    0.000
684.852; 4316.225;    0.000;    0.000
684.963; 4412.225;    0.000;    0.000
685.073; 4242.225;    0.000;    0.000
685.183; 4412.225;    0.000;    0.000
685.293; 4348.225;    0.000;    0.000
685.403; 4344.225;    0.000;    0.000
685.513; 4316.225;    0.000;    0.000
685.623; 4233.225;    0.000;    0.000
685.733; 4296.225;    0.000;    0.000
685.843; 4306.225;    0.000;    0.000
685.953; 4288.225;    0.000;    0.000
686.063; 4238.225;    0.000;    0.000
686.173; 4198.225;    0.000;    0.000
686.283; 4202.225;    0.000;    0.000
686.393; 4147.225;    0.000;    0.000
686.503; 4334.225;    0.000;    0.000
686.612; 4321.225;    0.000;    0.000
686.722; 4279.225;    0.000;    0.000
686.832; 4333.225;    0.000;    0.000
686.942; 4347.225;    0.000;    0.000
687.052; 4435.225;    0.000;    0.000
687.161; 4246.225;    0.000;    0.000
687.271; 4275.225;    0.000;    0.000
687.381; 4258.225;    0.000;    0.000
687.491; 4305.225;    0.000;    0.000
687.600; 4251.225;    0.000;    0.000
687.710; 4239.225;    0.000;    0.000
687.820; 4313.225;    0.000;    0.000
687.929; 4199.225;    0.000;    0.000
688.039; 4226.225;    0.000;    0.000
688.148; 4259.225;    0.000;    0.000
688.258; 4229.225;    0.000;    0.000
688.367; 4234.225;    0.000;    0.000
688.477; 4133.225;    0.000;    0.000
688.586; 4191.225;    0.000;    0.000
688.696; 4309.225;    0.000;    0.000
688.805; 4198.225;    0.000;    0.000
688.915; 4267.225;    0.000;    0.000
689.024; 4140.225;    0.000;    0.000
689.134; 4303.225;    0.000;    0.000
689.243; 4156.225;    0.000;    0.000
689.352; 4229.225;    0.000;    0.000
689.462; 4203.225;    0.000;    0.000
689.571; 4244.225;    0.000;    0.000
689.680; 4239.225;    0.000;    0.000
689.790; 4178.225;    0.000;    0.000
689.899; 4288.225;    0.000;    0.000
690.008; 4275.225;    0.000;    0.000
690.117; 4214.225;    0.000;    0.000
690.227; 4283.225;    0.000;    0.000
690.336; 4235.225;    0.000;    0.000
690.445; 4158.225;    0.000;    0.000
690.554; 4217.225;    0.000;    0.000
690.663; 4161.225;    0.000;    0.000
690.772; 4119.225;    0.000;    0.000
690.881; 4241.225;    0.000;    0.000
690.990; 4073.225;    0.000;    0.000
691.099; 4172.225;    0.000;    0.000
691.209; 4152.225;    0.000;    0.000
691.318; 4179.225;    0.000;    0.000
691.427; 4174.225;    0.000;    0.000
691.536; 4262.225;    0.000;    0.000
691.644; 4120.225;    0.000;    0.000
691.753; 4294.225;    0.000;    0.000
691.862; 4187.225;    0.000;    0.000
691.971; 4239.225;    0.000;    0.000
692.080; 4225.225;    0.000;    0.000
692.189; 4218.225;    0.000;    0.000
692.298; 4267.225;    0.000;    0.000
692.406; 4219.225;    0.000;    0.000
692.515; 4219.225;    0.000;    0.000
692.624; 4128.225;    0.000;    0.000
692.733; 4083.225;    0.000;    0.000
692.842; 4143.225;    0.000;    0.000
692.950; 4161.225;    0.000;    0.000
693.059; 4165.225;    0.000;    0.000
693.168; 4206.225;    0.000;    0.000
693.276; 4287.225;    0.000;    0.000
693.385; 4207.225;    0.000;    0.000
693.494; 4268.225;    0.000;    0.000
693.602; 4222.225;    0.000;    0.000
693.711; 4225.225;    0.000;    0.000
693.819; 4161.225;    0.000;    0.000
693.928; 4165.225;    0.000;    0.000
694.036; 4108.225;    0.000;    0.000
694.145; 4215.225;    0.000;    0.000
694.253; 4258.225;    0.000;    0.000
694.362; 4228.225;    0.000;    0.000
694.470; 4244.225;    0.000;    0.000
694.579; 4198.225;    0.000;    0.000
694.687; 4243.225;    0.000;    0.000
694.795; 4173.225;    0.000;    0.000
694.904; 4210.225;    0.000;    0.000
695.012; 4260.225;    0.000;    0.000
695.120; 4375.225;    0.000;    0.000
695.229; 4199.225;    0.000;    0.000
695.337; 4258.225;    0.000;    0.000
695.445; 4265.225;    0.000;    0.000
695.553; 4166.225;    0.000;    0.000
695.662; 4153.225;    0.000;    0.000
695.770; 4221.225;    0.000;    0.000
695.878; 4153.225;    0.000;    0.000
695.986; 4214.225;    0.000;    0.000
696.094; 4165.225;    0.000;    0.000
696.202; 4146.225;    0.000;    0.000
696.310; 4304.225;    0.000;    0.000
696.419; 4254.225;    0.000;    0.000
696.527; 4189.225;    0.000;    0.000
696.635; 4184.225;    0.000;    0.000
696.743; 4163.225;    0.000;    0.000
696.851; 4316.225;    0.000;    0.000
696.959; 4219.225;    0.000;    0.000
697.067; 4280.225;    0.000;    0.000
697.174; 4226.225;    0.000;    0.000
697.282; 4223.225;    0.000;    0.000
697.390; 4328.225;    0.000;    0.000
697.498; 4229.225;    0.000;    0.000
697.606; 4266.225;    0.000;    0.000
697.714; 4229.225;    0.000;    0.000
697.822; 4253.225;    0.000;    0.000
697.929; 4198.225;    0.000;    0.000
698.037; 4268.225;    0.000;    0.000
698.145; 4279.225;    0.000;    0.000
698.253; 4180.225;    0.000;    0.000
698.360; 4264.225;    0.000;    0.000
698.468; 4151.225;    0.000;    0.000
698.576; 4352.225;    0.000;    0.000
698.683; 4301.225;    0.000;    0.000
698.791; 4168.225;    0.000;    0.000
698.899; 4248.225;    0.000;    0.000
699.006; 4251.225;    0.000;    0.000
699.114; 4238.225;    0.000;    0.000
699.221; 4242.225;    0.000;    0.000
699.329; 4252.225;    0.000;    0.000
699.436; 4212.225;    0.000;    0.000
699.544; 4281.225;    0.000;    0.000
699.651; 4235.225;    0.000;    0.000
699.759; 4119.225;    0.000;    0.000
699.866; 4216.225;    0.000;    0.000
699.974; 4170.225;    0.000;    0.000
700.081; 4250.225;    0.000;    0.000
700.188; 4295.225;    0.000;    0.000
700.296; 4123.225;    0.000;    0.000
700.403; 4170.225;    0.000;    0.000
700.510; 4309.225;    0.000;    0.000
700.618; 4177.225;    0.000;    0.000
700.725; 4239.225;    0.000;    0.000
700.832; 4139.225;    0.000;    0.000
700.940; 4319.225;    0.000;    0.000
701.047; 4190.225;    0.000;    0.000
701.154; 4224.225;    0.000;    0.000
701.261; 4187.225;    0.000;    0.000
701.368; 4241.225;    0.000;    0.000
701.475; 4301.225;    0.000;    0.000
701.582; 4085.225;    0.000;    0.000
701.690; 4264.225;    0.000;    0.000
701.797; 4253.225;    0.000;    0.000
701.904; 4268.225;    0.000;    0.000
702.011; 4328.225;    0.000;    0.000
702.118; 4128.225;    0.000;    0.000
702.225; 4302.225;    0.000;    0.000
702.332; 4142.225;    0.000;    0.000
702.439; 4166.225;    0.000;    0.000
702.546; 4300.225;    0.000;    0.000
702.652; 4114.225;    0.000;    0.000
702.759; 4307.225;    0.000;    0.000
702.866; 4185.225;    0.000;    0.000
702.973; 4185.225;    0.000;    0.000
703.080; 4198.225;    0.000;    0.000
703.187; 4133.225;    0.000;    0.000
703.294; 4281.225;    0.000;    0.000
703.400; 3918.225;    0.000;    0.000
703.507;  784.225;    0.000;    0.000
703.614;  339.225;    0.000;    0.000
703.720;  312.225;    0.000;    0.000
703.827;  334.225;    0.000;    0.000
703.934;  317.225;    0.000;    0.000
704.040;  262.225;    0.000;    0.000
704.147;  287.225;    0.000;    0.000
704.254;  346.225;    0.000;    0.000
704.360;  307.225;    0.000;    0.000
704.467;  346.225;    0.000;    0.000
704.573;  325.225;    0.000;    0.000
704.680;  313.225;    0.000;    0.000
704.786;  345.225;    0.000;    0.000
704.893;  317.225;    0.000;    0.000
704.999;  323.225;    0.000;    0.000
705.106;  342.225;    0.000;    0.000

