
Integration time [ms]:   1.000
Averaging Nr. [scans]: 1
Smoothing Nr. [pixels]: 0
Data measured with spectrometer [name]: UV1
Wave   ;Sample   ;Dark     ;Reference
[nm]   ;[counts] ;[counts] ;[counts] 

236.381;  170.025;    0.000;    0.000
236.451;  180.025;    0.000;    0.000
236.520;  174.025;    0.000;    0.000
236.590;  231.025;    0.000;    0.000
236.660;  194.025;    0.000;    0.000
236.730;  184.025;    0.000;    0.000
236.799;  203.025;    0.000;    0.000
236.869;  214.025;    0.000;    0.000
236.939;  158.025;    0.000;    0.000
237.009;  168.025;    0.000;    0.000
237.078;  153.025;    0.000;    0.000
237.148;  174.025;    0.000;    0.000
237.218;  178.025;    0.000;    0.000
237.287;  192.025;    0.000;    0.000
237.357;  181.025;    0.000;    0.000
237.427;  195.025;    0.000;    0.000
237.496;  460.025;    0.000;    0.000
237.566;  480.025;    0.000;    0.000
237.636;  463.025;    0.000;    0.000
237.705;  479.025;    0.000;    0.000
237.775;  458.025;    0.000;    0.000
237.845;  477.025;    0.000;    0.000
237.914;  473.025;    0.000;    0.000
237.984;  456.025;    0.000;    0.000
238.054;  472.025;    0.000;    0.000
238.123;  460.025;    0.000;    0.000
238.193;  483.025;    0.000;    0.000
238.263;  507.025;    0.000;    0.000
238.332;  425.025;    0.000;    0.000
238.402;  437.025;    0.000;    0.000
238.471;  463.025;    0.000;    0.000
238.541;  414.025;    0.000;    0.000
238.611;  430.025;    0.000;    0.000
238.680;  453.025;    0.000;    0.000
238.750;  443.025;    0.000;    0.000
238.819;  488.025;    0.000;    0.000
238.889;  422.025;    0.000;    0.000
238.958;  456.025;    0.000;    0.000
239.028;  445.025;    0.000;    0.000
239.097;  428.025;    0.000;    0.000
239.167;  493.025;    0.000;    0.000
239.237;  426.025;    0.000;    0.000
239.306;  455.025;    0.000;    0.000
239.376;  491.025;    0.000;    0.000
239.445;  487.025;    0.000;    0.000
239.515;  531.025;    0.000;    0.000
239.584;  412.025;    0.000;    0.000
239.654;  436.025;    0.000;    0.000
239.723;  482.025;    0.000;    0.000
239.793;  418.025;    0.000;    0.000
239.862;  456.025;    0.000;    0.000
239.932;  463.025;    0.000;    0.000
240.001;  445.025;    0.000;    0.000
240.070;  502.025;    0.000;    0.000
240.140;  442.025;    0.000;    0.000
240.209;  427.025;    0.000;    0.000
240.279;  436.025;    0.000;    0.000
240.348;  463.025;    0.000;    0.000
240.418;  438.025;    0.000;    0.000
240.487;  450.025;    0.000;    0.000
240.556;  464.025;    0.000;    0.000
240.626;  495.025;    0.000;    0.000
240.695;  432.025;    0.000;    0.000
240.765;  482.025;    0.000;    0.000
240.834;  390.025;    0.000;    0.000
240.903;  459.025;    0.000;    0.000
240.973;  464.025;    0.000;    0.000
241.042;  457.025;    0.000;    0.000
241.112;  474.025;    0.000;    0.000
241.181;  450.025;    0.000;    0.000
241.250;  416.025;    0.000;    0.000
241.320;  463.025;    0.000;    0.000
241.389;  461.025;    0.000;    0.000
241.458;  444.025;    0.000;    0.000
241.528;  494.025;    0.000;    0.000
241.597;  467.025;    0.000;    0.000
241.666;  428.025;    0.000;    0.000
241.736;  491.025;    0.000;    0.000
241.805;  463.025;    0.000;    0.000
241.874;  496.025;    0.000;    0.000
241.943;  456.025;    0.000;    0.000
242.013;  511.025;    0.000;    0.000
242.082;  442.025;    0.000;    0.000
242.151;  436.025;    0.000;    0.000
242.221;  447.025;    0.000;    0.000
242.290;  451.025;    0.000;    0.000
242.359;  432.025;    0.000;    0.000
242.428;  466.025;    0.000;    0.000
242.498;  459.025;    0.000;    0.000
242.567;  462.025;    0.000;    0.000
242.636;  428.025;    0.000;    0.000
242.705;  463.025;    0.000;    0.000
242.774;  456.025;    0.000;    0.000
242.844;  492.025;    0.000;    0.000
242.913;  426.025;    0.000;    0.000
242.982;  465.025;    0.000;    0.000
243.051;  416.025;    0.000;    0.000
243.120;  423.025;    0.000;    0.000
243.190;  433.025;    0.000;    0.000
243.259;  476.025;    0.000;    0.000
243.328;  437.025;    0.000;    0.000
243.397;  437.025;    0.000;    0.000
243.466;  442.025;    0.000;    0.000
243.535;  441.025;    0.000;    0.000
243.605;  431.025;    0.000;    0.000
243.674;  441.025;    0.000;    0.000
243.743;  429.025;    0.000;    0.000
243.812;  436.025;    0.000;    0.000
243.881;  457.025;    0.000;    0.000
243.950;  424.025;    0.000;    0.000
244.019;  477.025;    0.000;    0.000
244.088;  483.025;    0.000;    0.000
244.158;  467.025;    0.000;    0.000
244.227;  493.025;    0.000;    0.000
244.296;  423.025;    0.000;    0.000
244.365;  469.025;    0.000;    0.000
244.434;  440.025;    0.000;    0.000
244.503;  444.025;    0.000;    0.000
244.572;  445.025;    0.000;    0.000
244.641;  404.025;    0.000;    0.000
244.710;  437.025;    0.000;    0.000
244.779;  473.025;    0.000;    0.000
244.848;  423.025;    0.000;    0.000
244.917;  445.025;    0.000;    0.000
244.986;  407.025;    0.000;    0.000
245.055;  441.025;    0.000;    0.000
245.124;  431.025;    0.000;    0.000
245.193;  474.025;    0.000;    0.000
245.262;  433.025;    0.000;    0.000
245.331;  422.025;    0.000;    0.000
245.400;  417.025;    0.000;    0.000
245.469;  508.025;    0.000;    0.000
245.538;  460.025;    0.000;    0.000
245.607;  447.025;    0.000;    0.000
245.676;  466.025;    0.000;    0.000
245.745;  433.025;    0.000;    0.000
245.814;  413.025;    0.000;    0.000
245.883;  423.025;    0.000;    0.000
245.952;  472.025;    0.000;    0.000
246.021;  470.025;    0.000;    0.000
246.090;  457.025;    0.000;    0.000
246.159;  437.025;    0.000;    0.000
246.227;  416.025;    0.000;    0.000
246.296;  469.025;    0.000;    0.000
246.365;  430.025;    0.000;    0.000
246.434;  501.025;    0.000;    0.000
246.503;  427.025;    0.000;    0.000
246.572;  499.025;    0.000;    0.000
246.641;  447.025;    0.000;    0.000
246.710;  444.025;    0.000;    0.000
246.779;  457.025;    0.000;    0.000
246.847;  424.025;    0.000;    0.000
246.916;  482.025;    0.000;    0.000
246.985;  456.025;    0.000;    0.000
247.054;  443.025;    0.000;    0.000
247.123;  431.025;    0.000;    0.000
247.192;  459.025;    0.000;    0.000
247.260;  432.025;    0.000;    0.000
247.329;  459.025;    0.000;    0.000
247.398;  448.025;    0.000;    0.000
247.467;  468.025;    0.000;    0.000
247.536;  514.025;    0.000;    0.000
247.604;  479.025;    0.000;    0.000
247.673;  444.025;    0.000;    0.000
247.742;  439.025;    0.000;    0.000
247.811;  441.025;    0.000;    0.000
247.879;  438.025;    0.000;    0.000
247.948;  464.025;    0.000;    0.000
248.017;  435.025;    0.000;    0.000
248.086;  492.025;    0.000;    0.000
248.154;  435.025;    0.000;    0.000
248.223;  478.025;    0.000;    0.000
248.292;  483.025;    0.000;    0.000
248.361;  446.025;    0.000;    0.000
248.429;  463.025;    0.000;    0.000
248.498;  428.025;    0.000;    0.000
248.567;  494.025;    0.000;    0.000
248.635;  452.025;    0.000;    0.000
248.704;  450.025;    0.000;    0.000
248.773;  466.025;    0.000;    0.000
248.841;  393.025;    0.000;    0.000
248.910;  442.025;    0.000;    0.000
248.979;  413.025;    0.000;    0.000
249.047;  400.025;    0.000;    0.000
249.116;  466.025;    0.000;    0.000
249.185;  437.025;    0.000;    0.000
249.253;  376.025;    0.000;    0.000
249.322;  423.025;    0.000;    0.000
249.390;  443.025;    0.000;    0.000
249.459;  454.025;    0.000;    0.000
249.528;  403.025;    0.000;    0.000
249.596;  415.025;    0.000;    0.000
249.665;  398.025;    0.000;    0.000
249.733;  416.025;    0.000;    0.000
249.802;  462.025;    0.000;    0.000
249.871;  400.025;    0.000;    0.000
249.939;  420.025;    0.000;    0.000
250.008;  418.025;    0.000;    0.000
250.076;  457.025;    0.000;    0.000
250.145;  382.025;    0.000;    0.000
250.213;  395.025;    0.000;    0.000
250.282;  381.025;    0.000;    0.000
250.350;  396.025;    0.000;    0.000
250.419;  461.025;    0.000;    0.000
250.487;  386.025;    0.000;    0.000
250.556;  420.025;    0.000;    0.000
250.624;  441.025;    0.000;    0.000
250.693;  361.025;    0.000;    0.000
250.761;  393.025;    0.000;    0.000
250.830;  396.025;    0.000;    0.000
250.898;  359.025;    0.000;    0.000
250.967;  415.025;    0.000;    0.000
251.035;  381.025;    0.000;    0.000
251.104;  369.025;    0.000;    0.000
251.172;  389.025;    0.000;    0.000
251.241;  334.025;    0.000;    0.000
251.309;  364.025;    0.000;    0.000
251.378;  379.025;    0.000;    0.000
251.446;  353.025;    0.000;    0.000
251.514;  373.025;    0.000;    0.000
251.583;  392.025;    0.000;    0.000
251.651;  363.025;    0.000;    0.000
251.720;  376.025;    0.000;    0.000
251.788;  381.025;    0.000;    0.000
251.856;  295.025;    0.000;    0.000
251.925;  391.025;    0.000;    0.000
251.993;  394.025;    0.000;    0.000
252.062;  433.025;    0.000;    0.000
252.130;  353.025;    0.000;    0.000
252.198;  390.025;    0.000;    0.000
252.267;  380.025;    0.000;    0.000
252.335;  336.025;    0.000;    0.000
252.403;  327.025;    0.000;    0.000
252.472;  367.025;    0.000;    0.000
252.540;  352.025;    0.000;    0.000
252.608;  383.025;    0.000;    0.000
252.677;  323.025;    0.000;    0.000
252.745;  378.025;    0.000;    0.000
252.813;  312.025;    0.000;    0.000
252.881;  303.025;    0.000;    0.000
252.950;  282.025;    0.000;    0.000
253.018;  372.025;    0.000;    0.000
253.086;  306.025;    0.000;    0.000
253.155;  323.025;    0.000;    0.000
253.223;  312.025;    0.000;    0.000
253.291;  324.025;    0.000;    0.000
253.359;  357.025;    0.000;    0.000
253.428;  386.025;    0.000;    0.000
253.496;  322.025;    0.000;    0.000
253.564;  315.025;    0.000;    0.000
253.632;  311.025;    0.000;    0.000
253.700;  337.025;    0.000;    0.000
253.769;  348.025;    0.000;    0.000
253.837;  328.025;    0.000;    0.000
253.905;  348.025;    0.000;    0.000
253.973;  330.025;    0.000;    0.000
254.041;  361.025;    0.000;    0.000
254.110;  329.025;    0.000;    0.000
254.178;  317.025;    0.000;    0.000
254.246;  307.025;    0.000;    0.000
254.314;  310.025;    0.000;    0.000
254.382;  317.025;    0.000;    0.000
254.450;  341.025;    0.000;    0.000
254.518;  369.025;    0.000;    0.000
254.587;  316.025;    0.000;    0.000
254.655;  324.025;    0.000;    0.000
254.723;  269.025;    0.000;    0.000
254.791;  315.025;    0.000;    0.000
254.859;  359.025;    0.000;    0.000
254.927;  351.025;    0.000;    0.000
254.995;  279.025;    0.000;    0.000
255.063;  307.025;    0.000;    0.000
255.131;  296.025;    0.000;    0.000
255.199;  310.025;    0.000;    0.000
255.267;  290.025;    0.000;    0.000
255.336;  338.025;    0.000;    0.000
255.404;  288.025;    0.000;    0.000
255.472;  363.025;    0.000;    0.000
255.540;  300.025;    0.000;    0.000
255.608;  336.025;    0.000;    0.000
255.676;  322.025;    0.000;    0.000
255.744;  291.025;    0.000;    0.000
255.812;  350.025;    0.000;    0.000
255.880;  361.025;    0.000;    0.000
255.948;  311.025;    0.000;    0.000
256.016;  322.025;    0.000;    0.000
256.084;  380.025;    0.000;    0.000
256.152;  328.025;    0.000;    0.000
256.220;  273.025;    0.000;    0.000
256.288;  318.025;    0.000;    0.000
256.356;  350.025;    0.000;    0.000
256.424;  299.025;    0.000;    0.000
256.491;  313.025;    0.000;    0.000
256.559;  325.025;    0.000;    0.000
256.627;  350.025;    0.000;    0.000
256.695;  308.025;    0.000;    0.000
256.763;  356.025;    0.000;    0.000
256.831;  319.025;    0.000;    0.000
256.899;  331.025;    0.000;    0.000
256.967;  308.025;    0.000;    0.000
257.035;  327.025;    0.000;    0.000
257.103;  297.025;    0.000;    0.000
257.171;  272.025;    0.000;    0.000
257.238;  318.025;    0.000;    0.000
257.306;  327.025;    0.000;    0.000
257.374;  322.025;    0.000;    0.000
257.442;  313.025;    0.000;    0.000
257.510;  353.025;    0.000;    0.000
257.578;  296.025;    0.000;    0.000
257.646;  326.025;    0.000;    0.000
257.713;  330.025;    0.000;    0.000
257.781;  319.025;    0.000;    0.000
257.849;  343.025;    0.000;    0.000
257.917;  299.025;    0.000;    0.000
257.985;  310.025;    0.000;    0.000
258.052;  362.025;    0.000;    0.000
258.120;  340.025;    0.000;    0.000
258.188;  352.025;    0.000;    0.000
258.256;  356.025;    0.000;    0.000
258.324;  340.025;    0.000;    0.000
258.391;  366.025;    0.000;    0.000
258.459;  361.025;    0.000;    0.000
258.527;  309.025;    0.000;    0.000
258.595;  331.025;    0.000;    0.000
258.662;  289.025;    0.000;    0.000
258.730;  388.025;    0.000;    0.000
258.798;  303.025;    0.000;    0.000
258.865;  351.025;    0.000;    0.000
258.933;  378.025;    0.000;    0.000
259.001;  359.025;    0.000;    0.000
259.069;  339.025;    0.000;    0.000
259.136;  390.025;    0.000;    0.000
259.204;  366.025;    0.000;    0.000
259.272;  378.025;    0.000;    0.000
259.339;  332.025;    0.000;    0.000
259.407;  400.025;    0.000;    0.000
259.475;  376.025;    0.000;    0.000
259.542;  360.025;    0.000;    0.000
259.610;  338.025;    0.000;    0.000
259.677;  383.025;    0.000;    0.000
259.745;  351.025;    0.000;    0.000
259.813;  393.025;    0.000;    0.000
259.880;  419.025;    0.000;    0.000
259.948;  396.025;    0.000;    0.000
260.016;  372.025;    0.000;    0.000
260.083;  396.025;    0.000;    0.000
260.151;  393.025;    0.000;    0.000
260.218;  404.025;    0.000;    0.000
260.286;  417.025;    0.000;    0.000
260.353;  435.025;    0.000;    0.000
260.421;  371.025;    0.000;    0.000
260.489;  441.025;    0.000;    0.000
260.556;  481.025;    0.000;    0.000
260.624;  409.025;    0.000;    0.000
260.691;  432.025;    0.000;    0.000
260.759;  432.025;    0.000;    0.000
260.826;  411.025;    0.000;    0.000
260.894;  483.025;    0.000;    0.000
260.961;  479.025;    0.000;    0.000
261.029;  437.025;    0.000;    0.000
261.096;  443.025;    0.000;    0.000
261.164;  442.025;    0.000;    0.000
261.231;  470.025;    0.000;    0.000
261.299;  430.025;    0.000;    0.000
261.366;  505.025;    0.000;    0.000
261.434;  462.025;    0.000;    0.000
261.501;  428.025;    0.000;    0.000
261.568;  506.025;    0.000;    0.000
261.636;  472.025;    0.000;    0.000
261.703;  545.025;    0.000;    0.000
261.771;  544.025;    0.000;    0.000
261.838;  515.025;    0.000;    0.000
261.906;  470.025;    0.000;    0.000
261.973;  537.025;    0.000;    0.000
262.040;  519.025;    0.000;    0.000
262.108;  515.025;    0.000;    0.000
262.175;  488.025;    0.000;    0.000
262.243;  536.025;    0.000;    0.000
262.310;  503.025;    0.000;    0.000
262.377;  494.025;    0.000;    0.000
262.445;  518.025;    0.000;    0.000
262.512;  519.025;    0.000;    0.000
262.579;  557.025;    0.000;    0.000
262.647;  552.025;    0.000;    0.000
262.714;  582.025;    0.000;    0.000
262.781;  524.025;    0.000;    0.000
262.849;  522.025;    0.000;    0.000
262.916;  549.025;    0.000;    0.000
262.983;  527.025;    0.000;    0.000
263.051;  558.025;    0.000;    0.000
263.118;  619.025;    0.000;    0.000
263.185;  580.025;    0.000;    0.000
263.252;  567.025;    0.000;    0.000
263.320;  554.025;    0.000;    0.000
263.387;  574.025;    0.000;    0.000
263.454;  544.025;    0.000;    0.000
263.522;  593.025;    0.000;    0.000
263.589;  600.025;    0.000;    0.000
263.656;  568.025;    0.000;    0.000
263.723;  558.025;    0.000;    0.000
263.790;  569.025;    0.000;    0.000
263.858;  579.025;    0.000;    0.000
263.925;  595.025;    0.000;    0.000
263.992;  629.025;    0.000;    0.000
264.059;  574.025;    0.000;    0.000
264.126;  607.025;    0.000;    0.000
264.194;  620.025;    0.000;    0.000
264.261;  656.025;    0.000;    0.000
264.328;  639.025;    0.000;    0.000
264.395;  630.025;    0.000;    0.000
264.462;  626.025;    0.000;    0.000
264.529;  625.025;    0.000;    0.000
264.597;  627.025;    0.000;    0.000
264.664;  666.025;    0.000;    0.000
264.731;  608.025;    0.000;    0.000
264.798;  636.025;    0.000;    0.000
264.865;  635.025;    0.000;    0.000
264.932;  642.025;    0.000;    0.000
264.999;  678.025;    0.000;    0.000
265.066;  603.025;    0.000;    0.000
265.133;  657.025;    0.000;    0.000
265.201;  650.025;    0.000;    0.000
265.268;  704.025;    0.000;    0.000
265.335;  678.025;    0.000;    0.000
265.402;  696.025;    0.000;    0.000
265.469;  657.025;    0.000;    0.000
265.536;  712.025;    0.000;    0.000
265.603;  681.025;    0.000;    0.000
265.670;  668.025;    0.000;    0.000
265.737;  715.025;    0.000;    0.000
265.804;  701.025;    0.000;    0.000
265.871;  767.025;    0.000;    0.000
265.938;  695.025;    0.000;    0.000
266.005;  759.025;    0.000;    0.000
266.072;  676.025;    0.000;    0.000
266.139;  721.025;    0.000;    0.000
266.206;  772.025;    0.000;    0.000
266.273;  674.025;    0.000;    0.000
266.340;  752.025;    0.000;    0.000
266.407;  671.025;    0.000;    0.000
266.474;  719.025;    0.000;    0.000
266.541;  709.025;    0.000;    0.000
266.608;  714.025;    0.000;    0.000
266.675;  821.025;    0.000;    0.000
266.742;  698.025;    0.000;    0.000
266.808;  730.025;    0.000;    0.000
266.875;  723.025;    0.000;    0.000
266.942;  732.025;    0.000;    0.000
267.009;  771.025;    0.000;    0.000
267.076;  792.025;    0.000;    0.000
267.143;  752.025;    0.000;    0.000
267.210;  754.025;    0.000;    0.000
267.277;  713.025;    0.000;    0.000
267.344;  730.025;    0.000;    0.000
267.410;  769.025;    0.000;    0.000
267.477;  803.025;    0.000;    0.000
267.544;  770.025;    0.000;    0.000
267.611;  815.025;    0.000;    0.000
267.678;  766.025;    0.000;    0.000
267.745;  819.025;    0.000;    0.000
267.811;  744.025;    0.000;    0.000
267.878;  834.025;    0.000;    0.000
267.945;  768.025;    0.000;    0.000
268.012;  764.025;    0.000;    0.000
268.079;  756.025;    0.000;    0.000
268.145;  835.025;    0.000;    0.000
268.212;  758.025;    0.000;    0.000
268.279;  757.025;    0.000;    0.000
268.346;  767.025;    0.000;    0.000
268.412;  735.025;    0.000;    0.000
268.479;  776.025;    0.000;    0.000
268.546;  754.025;    0.000;    0.000
268.613;  837.025;    0.000;    0.000
268.679;  800.025;    0.000;    0.000
268.746;  788.025;    0.000;    0.000
268.813;  775.025;    0.000;    0.000
268.879;  710.025;    0.000;    0.000
268.946;  803.025;    0.000;    0.000
269.013;  749.025;    0.000;    0.000
269.079;  775.025;    0.000;    0.000
269.146;  768.025;    0.000;    0.000
269.213;  800.025;    0.000;    0.000
269.280;  758.025;    0.000;    0.000
269.346;  785.025;    0.000;    0.000
269.413;  782.025;    0.000;    0.000
269.479;  769.025;    0.000;    0.000
269.546;  819.025;    0.000;    0.000
269.613;  746.025;    0.000;    0.000
269.679;  787.025;    0.000;    0.000
269.746;  768.025;    0.000;    0.000
269.813;  833.025;    0.000;    0.000
269.879;  752.025;    0.000;    0.000
269.946;  800.025;    0.000;    0.000
270.012;  796.025;    0.000;    0.000
270.079;  775.025;    0.000;    0.000
270.145;  813.025;    0.000;    0.000
270.212;  783.025;    0.000;    0.000
270.279;  791.025;    0.000;    0.000
270.345;  743.025;    0.000;    0.000
270.412;  770.025;    0.000;    0.000
270.478;  791.025;    0.000;    0.000
270.545;  808.025;    0.000;    0.000
270.611;  762.025;    0.000;    0.000
270.678;  836.025;    0.000;    0.000
270.744;  780.025;    0.000;    0.000
270.811;  784.025;    0.000;    0.000
270.877;  751.025;    0.000;    0.000
270.944;  750.025;    0.000;    0.000
271.010;  759.025;    0.000;    0.000
271.077;  785.025;    0.000;    0.000
271.143;  779.025;    0.000;    0.000
271.210;  798.025;    0.000;    0.000
271.276;  762.025;    0.000;    0.000
271.342;  830.025;    0.000;    0.000
271.409;  769.025;    0.000;    0.000
271.475;  764.025;    0.000;    0.000
271.542;  810.025;    0.000;    0.000
271.608;  796.025;    0.000;    0.000
271.675;  786.025;    0.000;    0.000
271.741;  853.025;    0.000;    0.000
271.807;  763.025;    0.000;    0.000
271.874;  776.025;    0.000;    0.000
271.940;  761.025;    0.000;    0.000
272.007;  810.025;    0.000;    0.000
272.073;  825.025;    0.000;    0.000
272.139;  818.025;    0.000;    0.000
272.206;  777.025;    0.000;    0.000
272.272;  867.025;    0.000;    0.000
272.338;  822.025;    0.000;    0.000
272.405;  823.025;    0.000;    0.000
272.471;  826.025;    0.000;    0.000
272.537;  803.025;    0.000;    0.000
272.604;  772.025;    0.000;    0.000
272.670;  752.025;    0.000;    0.000
272.736;  802.025;    0.000;    0.000
272.802;  808.025;    0.000;    0.000
272.869;  854.025;    0.000;    0.000
272.935;  787.025;    0.000;    0.000
273.001;  805.025;    0.000;    0.000
273.068;  820.025;    0.000;    0.000
273.134;  831.025;    0.000;    0.000
273.200;  854.025;    0.000;    0.000
273.266;  814.025;    0.000;    0.000
273.333;  819.025;    0.000;    0.000
273.399;  765.025;    0.000;    0.000
273.465;  804.025;    0.000;    0.000
273.531;  792.025;    0.000;    0.000
273.597;  858.025;    0.000;    0.000
273.664;  802.025;    0.000;    0.000
273.730;  867.025;    0.000;    0.000
273.796;  829.025;    0.000;    0.000
273.862;  847.025;    0.000;    0.000
273.928;  832.025;    0.000;    0.000
273.995;  828.025;    0.000;    0.000
274.061;  846.025;    0.000;    0.000
274.127;  859.025;    0.000;    0.000
274.193;  792.025;    0.000;    0.000
274.259;  841.025;    0.000;    0.000
274.325;  871.025;    0.000;    0.000
274.391;  888.025;    0.000;    0.000
274.457;  788.025;    0.000;    0.000
274.524;  907.025;    0.000;    0.000
274.590;  865.025;    0.000;    0.000
274.656;  846.025;    0.000;    0.000
274.722;  871.025;    0.000;    0.000
274.788;  845.025;    0.000;    0.000
274.854;  934.025;    0.000;    0.000
274.920;  875.025;    0.000;    0.000
274.986;  890.025;    0.000;    0.000
275.052;  898.025;    0.000;    0.000
275.118;  839.025;    0.000;    0.000
275.184;  894.025;    0.000;    0.000
275.250;  870.025;    0.000;    0.000
275.316;  924.025;    0.000;    0.000
275.382;  906.025;    0.000;    0.000
275.448;  996.025;    0.000;    0.000
275.514;  896.025;    0.000;    0.000
275.580;  890.025;    0.000;    0.000
275.646;  941.025;    0.000;    0.000
275.712;  970.025;    0.000;    0.000
275.778;  953.025;    0.000;    0.000
275.844;  945.025;    0.000;    0.000
275.910; 1004.025;    0.000;    0.000
275.976;  993.025;    0.000;    0.000
276.042;  928.025;    0.000;    0.000
276.108; 1023.025;    0.000;    0.000
276.174; 1013.025;    0.000;    0.000
276.240; 1041.025;    0.000;    0.000
276.306;  997.025;    0.000;    0.000
276.372; 1077.025;    0.000;    0.000
276.437; 1030.025;    0.000;    0.000
276.503; 1117.025;    0.000;    0.000
276.569; 1085.025;    0.000;    0.000
276.635; 1161.025;    0.000;    0.000
276.701; 1149.025;    0.000;    0.000
276.767; 1110.025;    0.000;    0.000
276.833; 1173.025;    0.000;    0.000
276.899; 1243.025;    0.000;    0.000
276.964; 1201.025;    0.000;    0.000
277.030; 1305.025;    0.000;    0.000
277.096; 1328.025;    0.000;    0.000
277.162; 1415.025;    0.000;    0.000
277.228; 1322.025;    0.000;    0.000
277.293; 1429.025;    0.000;    0.000
277.359; 1483.025;    0.000;    0.000
277.425; 1549.025;    0.000;    0.000
277.491; 1668.025;    0.000;    0.000
277.557; 1802.025;    0.000;    0.000
277.622; 2433.025;    0.000;    0.000
277.688; 2648.025;    0.000;    0.000
277.754; 2603.025;    0.000;    0.000
277.820; 2913.025;    0.000;    0.000
277.885; 3222.025;    0.000;    0.000
277.951; 4217.025;    0.000;    0.000
278.017; 4017.025;    0.000;    0.000
278.083; 3258.025;    0.000;    0.000
278.148; 3117.025;    0.000;    0.000
278.214; 3062.025;    0.000;    0.000
278.280; 3337.025;    0.000;    0.000
278.345; 3231.025;    0.000;    0.000
278.411; 2834.025;    0.000;    0.000
278.477; 2969.025;    0.000;    0.000
278.542; 2986.025;    0.000;    0.000
278.608; 3439.025;    0.000;    0.000
278.674; 3658.025;    0.000;    0.000
278.739; 4060.025;    0.000;    0.000
278.805; 4445.025;    0.000;    0.000
278.871; 5338.025;    0.000;    0.000
278.936; 6328.025;    0.000;    0.000
279.002; 8884.025;    0.000;    0.000
279.067;12397.025;    0.000;    0.000
279.133;12941.025;    0.000;    0.000
279.199;11772.025;    0.000;    0.000
279.264;11577.025;    0.000;    0.000
279.330;12751.025;    0.000;    0.000
279.395;15419.025;    0.000;    0.000
279.461;18865.025;    0.000;    0.000
279.527;20657.025;    0.000;    0.000
279.592;20753.025;    0.000;    0.000
279.658;19358.025;    0.000;    0.000
279.723;17966.025;    0.000;    0.000
279.789;18679.025;    0.000;    0.000
279.854;17765.025;    0.000;    0.000
279.920;15089.025;    0.000;    0.000
279.985;13432.025;    0.000;    0.000
280.051;13216.025;    0.000;    0.000
280.116;14430.025;    0.000;    0.000
280.182;17987.025;    0.000;    0.000
280.247;20375.025;    0.000;    0.000
280.313;19273.025;    0.000;    0.000
280.378;15713.025;    0.000;    0.000
280.444;11624.025;    0.000;    0.000
280.509; 9290.025;    0.000;    0.000
280.574; 7788.025;    0.000;    0.000
280.640; 6653.025;    0.000;    0.000
280.705; 5837.025;    0.000;    0.000
280.771; 5207.025;    0.000;    0.000
280.836; 4750.025;    0.000;    0.000
280.902; 4445.025;    0.000;    0.000
280.967; 4007.025;    0.000;    0.000
281.032; 3831.025;    0.000;    0.000
281.098; 3630.025;    0.000;    0.000
281.163; 3386.025;    0.000;    0.000
281.229; 3251.025;    0.000;    0.000
281.294; 3126.025;    0.000;    0.000
281.359; 2966.025;    0.000;    0.000
281.425; 2898.025;    0.000;    0.000
281.490; 2684.025;    0.000;    0.000
281.555; 2682.025;    0.000;    0.000
281.621; 2450.025;    0.000;    0.000
281.686; 2430.025;    0.000;    0.000
281.751; 2354.025;    0.000;    0.000
281.816; 2287.025;    0.000;    0.000
281.882; 2238.025;    0.000;    0.000
281.947; 2158.025;    0.000;    0.000
282.012; 2052.025;    0.000;    0.000
282.078; 2100.025;    0.000;    0.000
282.143; 2058.025;    0.000;    0.000
282.208; 1902.025;    0.000;    0.000
282.273; 1926.025;    0.000;    0.000
282.339; 1865.025;    0.000;    0.000
282.404; 1785.025;    0.000;    0.000
282.469; 1848.025;    0.000;    0.000
282.534; 1738.025;    0.000;    0.000
282.600; 1800.025;    0.000;    0.000
282.665; 1553.025;    0.000;    0.000
282.730; 1677.025;    0.000;    0.000
282.795; 1749.025;    0.000;    0.000
282.860; 1652.025;    0.000;    0.000
282.926; 1599.025;    0.000;    0.000
282.991; 1593.025;    0.000;    0.000
283.056; 1577.025;    0.000;    0.000
283.121; 1543.025;    0.000;    0.000
283.186; 1557.025;    0.000;    0.000
283.251; 1480.025;    0.000;    0.000
283.316; 1593.025;    0.000;    0.000
283.382; 1501.025;    0.000;    0.000
283.447; 1530.025;    0.000;    0.000
283.512; 1543.025;    0.000;    0.000
283.577; 1517.025;    0.000;    0.000
283.642; 1479.025;    0.000;    0.000
283.707; 1439.025;    0.000;    0.000
283.772; 1486.025;    0.000;    0.000
283.837; 1458.025;    0.000;    0.000
283.902; 1459.025;    0.000;    0.000
283.967; 1422.025;    0.000;    0.000
284.032; 1504.025;    0.000;    0.000
284.097; 1548.025;    0.000;    0.000
284.163; 1394.025;    0.000;    0.000
284.228; 1484.025;    0.000;    0.000
284.293; 1432.025;    0.000;    0.000
284.358; 1459.025;    0.000;    0.000
284.423; 1445.025;    0.000;    0.000
284.488; 1500.025;    0.000;    0.000
284.553; 1629.025;    0.000;    0.000
284.618; 1629.025;    0.000;    0.000
284.683; 1592.025;    0.000;    0.000
284.748; 1719.025;    0.000;    0.000
284.812; 1877.025;    0.000;    0.000
284.877; 2007.025;    0.000;    0.000
284.942; 2227.025;    0.000;    0.000
285.007; 2641.025;    0.000;    0.000
285.072; 3504.025;    0.000;    0.000
285.137; 5085.025;    0.000;    0.000
285.202; 7626.025;    0.000;    0.000
285.267; 7728.025;    0.000;    0.000
285.332; 5537.025;    0.000;    0.000
285.397; 3889.025;    0.000;    0.000
285.462; 3071.025;    0.000;    0.000
285.527; 2518.025;    0.000;    0.000
285.591; 2241.025;    0.000;    0.000
285.656; 2025.025;    0.000;    0.000
285.721; 1965.025;    0.000;    0.000
285.786; 1876.025;    0.000;    0.000
285.851; 1744.025;    0.000;    0.000
285.916; 1725.025;    0.000;    0.000
285.981; 1691.025;    0.000;    0.000
286.045; 1601.025;    0.000;    0.000
286.110; 1569.025;    0.000;    0.000
286.175; 1583.025;    0.000;    0.000
286.240; 1485.025;    0.000;    0.000
286.305; 1522.025;    0.000;    0.000
286.369; 1469.025;    0.000;    0.000
286.434; 1493.025;    0.000;    0.000
286.499; 1454.025;    0.000;    0.000
286.564; 1503.025;    0.000;    0.000
286.628; 1362.025;    0.000;    0.000
286.693; 1413.025;    0.000;    0.000
286.758; 1481.025;    0.000;    0.000
286.823; 1378.025;    0.000;    0.000
286.887; 1334.025;    0.000;    0.000
286.952; 1406.025;    0.000;    0.000
287.017; 1417.025;    0.000;    0.000
287.082; 1371.025;    0.000;    0.000
287.146; 1366.025;    0.000;    0.000
287.211; 1388.025;    0.000;    0.000
287.276; 1320.025;    0.000;    0.000
287.340; 1361.025;    0.000;    0.000
287.405; 1370.025;    0.000;    0.000
287.470; 1300.025;    0.000;    0.000
287.534; 1369.025;    0.000;    0.000
287.599; 1373.025;    0.000;    0.000
287.663; 1317.025;    0.000;    0.000
287.728; 1234.025;    0.000;    0.000
287.793; 1335.025;    0.000;    0.000
287.857; 1349.025;    0.000;    0.000
287.922; 1225.025;    0.000;    0.000
287.987; 1343.025;    0.000;    0.000
288.051; 1286.025;    0.000;    0.000
288.116; 1402.025;    0.000;    0.000
288.180; 1355.025;    0.000;    0.000
288.245; 1337.025;    0.000;    0.000
288.309; 1286.025;    0.000;    0.000
288.374; 1362.025;    0.000;    0.000
288.439; 1278.025;    0.000;    0.000
288.503; 1316.025;    0.000;    0.000
288.568; 1317.025;    0.000;    0.000
288.632; 1328.025;    0.000;    0.000
288.697; 1394.025;    0.000;    0.000
288.761; 1318.025;    0.000;    0.000
288.826; 1271.025;    0.000;    0.000
288.890; 1325.025;    0.000;    0.000
288.955; 1229.025;    0.000;    0.000
289.019; 1290.025;    0.000;    0.000
289.084; 1280.025;    0.000;    0.000
289.148; 1314.025;    0.000;    0.000
289.212; 1243.025;    0.000;    0.000
289.277; 1329.025;    0.000;    0.000
289.341; 1246.025;    0.000;    0.000
289.406; 1273.025;    0.000;    0.000
289.470; 1258.025;    0.000;    0.000
289.535; 1366.025;    0.000;    0.000
289.599; 1277.025;    0.000;    0.000
289.663; 1338.025;    0.000;    0.000
289.728; 1333.025;    0.000;    0.000
289.792; 1364.025;    0.000;    0.000
289.857; 1358.025;    0.000;    0.000
289.921; 1271.025;    0.000;    0.000
289.985; 1234.025;    0.000;    0.000
290.050; 1311.025;    0.000;    0.000
290.114; 1307.025;    0.000;    0.000
290.178; 1310.025;    0.000;    0.000
290.243; 1310.025;    0.000;    0.000
290.307; 1322.025;    0.000;    0.000
290.371; 1326.025;    0.000;    0.000
290.436; 1320.025;    0.000;    0.000
290.500; 1288.025;    0.000;    0.000
290.564; 1374.025;    0.000;    0.000
290.629; 1300.025;    0.000;    0.000
290.693; 1324.025;    0.000;    0.000
290.757; 1329.025;    0.000;    0.000
290.821; 1351.025;    0.000;    0.000
290.886; 1390.025;    0.000;    0.000
290.950; 1377.025;    0.000;    0.000
291.014; 1345.025;    0.000;    0.000
291.078; 1357.025;    0.000;    0.000
291.143; 1366.025;    0.000;    0.000
291.207; 1468.025;    0.000;    0.000
291.271; 1425.025;    0.000;    0.000
291.335; 1391.025;    0.000;    0.000
291.399; 1475.025;    0.000;    0.000
291.464; 1548.025;    0.000;    0.000
291.528; 1633.025;    0.000;    0.000
291.592; 1653.025;    0.000;    0.000
291.656; 1636.025;    0.000;    0.000
291.720; 1496.025;    0.000;    0.000
291.784; 1505.025;    0.000;    0.000
291.849; 1491.025;    0.000;    0.000
291.913; 1475.025;    0.000;    0.000
291.977; 1481.025;    0.000;    0.000
292.041; 1565.025;    0.000;    0.000
292.105; 1517.025;    0.000;    0.000
292.169; 1526.025;    0.000;    0.000
292.233; 1578.025;    0.000;    0.000
292.297; 1591.025;    0.000;    0.000
292.361; 1613.025;    0.000;    0.000
292.425; 1739.025;    0.000;    0.000
292.490; 1826.025;    0.000;    0.000
292.554; 1918.025;    0.000;    0.000
292.618; 1964.025;    0.000;    0.000
292.682; 2129.025;    0.000;    0.000
292.746; 2448.025;    0.000;    0.000
292.810; 3250.025;    0.000;    0.000
292.874; 4224.025;    0.000;    0.000
292.938; 4643.025;    0.000;    0.000
293.002; 4271.025;    0.000;    0.000
293.066; 3677.025;    0.000;    0.000
293.130; 3352.025;    0.000;    0.000
293.194; 3205.025;    0.000;    0.000
293.258; 3150.025;    0.000;    0.000
293.322; 3142.025;    0.000;    0.000
293.386; 3029.025;    0.000;    0.000
293.450; 3191.025;    0.000;    0.000
293.514; 3587.025;    0.000;    0.000
293.577; 4622.025;    0.000;    0.000
293.641; 6686.025;    0.000;    0.000
293.705; 7823.025;    0.000;    0.000
293.769; 7030.025;    0.000;    0.000
293.833; 6032.025;    0.000;    0.000
293.897; 5304.025;    0.000;    0.000
293.961; 4494.025;    0.000;    0.000
294.025; 4166.025;    0.000;    0.000
294.089; 3782.025;    0.000;    0.000
294.152; 3471.025;    0.000;    0.000
294.216; 3183.025;    0.000;    0.000
294.280; 2976.025;    0.000;    0.000
294.344; 2774.025;    0.000;    0.000
294.408; 2644.025;    0.000;    0.000
294.472; 2608.025;    0.000;    0.000
294.536; 2458.025;    0.000;    0.000
294.599; 2363.025;    0.000;    0.000
294.663; 2246.025;    0.000;    0.000
294.727; 2215.025;    0.000;    0.000
294.791; 2141.025;    0.000;    0.000
294.855; 2064.025;    0.000;    0.000
294.918; 2004.025;    0.000;    0.000
294.982; 1974.025;    0.000;    0.000
295.046; 2028.025;    0.000;    0.000
295.110; 1925.025;    0.000;    0.000
295.173; 1913.025;    0.000;    0.000
295.237; 1855.025;    0.000;    0.000
295.301; 1886.025;    0.000;    0.000
295.364; 1829.025;    0.000;    0.000
295.428; 1727.025;    0.000;    0.000
295.492; 1823.025;    0.000;    0.000
295.556; 1796.025;    0.000;    0.000
295.619; 1792.025;    0.000;    0.000
295.683; 1715.025;    0.000;    0.000
295.747; 1696.025;    0.000;    0.000
295.810; 1682.025;    0.000;    0.000
295.874; 1697.025;    0.000;    0.000
295.938; 1589.025;    0.000;    0.000
296.001; 1726.025;    0.000;    0.000
296.065; 1687.025;    0.000;    0.000
296.128; 1612.025;    0.000;    0.000
296.192; 1631.025;    0.000;    0.000
296.256; 1655.025;    0.000;    0.000
296.319; 1638.025;    0.000;    0.000
296.383; 1558.025;    0.000;    0.000
296.447; 1541.025;    0.000;    0.000
296.510; 1568.025;    0.000;    0.000
296.574; 1558.025;    0.000;    0.000
296.637; 1598.025;    0.000;    0.000
296.701; 1618.025;    0.000;    0.000
296.764; 1585.025;    0.000;    0.000
296.828; 1661.025;    0.000;    0.000
296.891; 1508.025;    0.000;    0.000
296.955; 1644.025;    0.000;    0.000
297.018; 1526.025;    0.000;    0.000
297.082; 1665.025;    0.000;    0.000
297.145; 1537.025;    0.000;    0.000
297.209; 1555.025;    0.000;    0.000
297.272; 1527.025;    0.000;    0.000
297.336; 1508.025;    0.000;    0.000
297.399; 1533.025;    0.000;    0.000
297.463; 1479.025;    0.000;    0.000
297.526; 1540.025;    0.000;    0.000
297.590; 1528.025;    0.000;    0.000
297.653; 1589.025;    0.000;    0.000
297.717; 1495.025;    0.000;    0.000
297.780; 1516.025;    0.000;    0.000
297.843; 1511.025;    0.000;    0.000
297.907; 1463.025;    0.000;    0.000
297.970; 1573.025;    0.000;    0.000
298.034; 1518.025;    0.000;    0.000
298.097; 1583.025;    0.000;    0.000
298.160; 1554.025;    0.000;    0.000
298.224; 1506.025;    0.000;    0.000
298.287; 1487.025;    0.000;    0.000
298.350; 1568.025;    0.000;    0.000
298.414; 1442.025;    0.000;    0.000
298.477; 1428.025;    0.000;    0.000
298.540; 1448.025;    0.000;    0.000
298.604; 1532.025;    0.000;    0.000
298.667; 1543.025;    0.000;    0.000
298.730; 1480.025;    0.000;    0.000
298.794; 1507.025;    0.000;    0.000
298.857; 1477.025;    0.000;    0.000
298.920; 1497.025;    0.000;    0.000
298.984; 1452.025;    0.000;    0.000
299.047; 1451.025;    0.000;    0.000
299.110; 1470.025;    0.000;    0.000
299.173; 1525.025;    0.000;    0.000
299.237; 1467.025;    0.000;    0.000
299.300; 1477.025;    0.000;    0.000
299.363; 1440.025;    0.000;    0.000
299.426; 1400.025;    0.000;    0.000
299.489; 1429.025;    0.000;    0.000
299.553; 1442.025;    0.000;    0.000
299.616; 1469.025;    0.000;    0.000
299.679; 1529.025;    0.000;    0.000
299.742; 1483.025;    0.000;    0.000
299.805; 1465.025;    0.000;    0.000
299.868; 1458.025;    0.000;    0.000
299.932; 1497.025;    0.000;    0.000
299.995; 1427.025;    0.000;    0.000
300.058; 1410.025;    0.000;    0.000
300.121; 1429.025;    0.000;    0.000
300.184; 1450.025;    0.000;    0.000
300.247; 1379.025;    0.000;    0.000
300.310; 1392.025;    0.000;    0.000
300.374; 1514.025;    0.000;    0.000
300.437; 1459.025;    0.000;    0.000
300.500; 1438.025;    0.000;    0.000
300.563; 1408.025;    0.000;    0.000
300.626; 1469.025;    0.000;    0.000
300.689; 1458.025;    0.000;    0.000
300.752; 1472.025;    0.000;    0.000
300.815; 1502.025;    0.000;    0.000
300.878; 1457.025;    0.000;    0.000
300.941; 1435.025;    0.000;    0.000
301.004; 1396.025;    0.000;    0.000
301.067; 1437.025;    0.000;    0.000
301.130; 1448.025;    0.000;    0.000
301.193; 1457.025;    0.000;    0.000
301.256; 1450.025;    0.000;    0.000
301.319; 1511.025;    0.000;    0.000
301.382; 1495.025;    0.000;    0.000
301.445; 1469.025;    0.000;    0.000
301.508; 1425.025;    0.000;    0.000
301.571; 1448.025;    0.000;    0.000
301.634; 1460.025;    0.000;    0.000
301.697; 1472.025;    0.000;    0.000
301.760; 1465.025;    0.000;    0.000
301.823; 1373.025;    0.000;    0.000
301.885; 1435.025;    0.000;    0.000
301.948; 1435.025;    0.000;    0.000
302.011; 1479.025;    0.000;    0.000
302.074; 1489.025;    0.000;    0.000
302.137; 1457.025;    0.000;    0.000
302.200; 1514.025;    0.000;    0.000
302.263; 1502.025;    0.000;    0.000
302.326; 1490.025;    0.000;    0.000
302.388; 1475.025;    0.000;    0.000
302.451; 1485.025;    0.000;    0.000
302.514; 1498.025;    0.000;    0.000
302.577; 1436.025;    0.000;    0.000
302.640; 1462.025;    0.000;    0.000
302.703; 1486.025;    0.000;    0.000
302.765; 1503.025;    0.000;    0.000
302.828; 1522.025;    0.000;    0.000
302.891; 1531.025;    0.000;    0.000
302.954; 1490.025;    0.000;    0.000
303.016; 1540.025;    0.000;    0.000
303.079; 1464.025;    0.000;    0.000
303.142; 1512.025;    0.000;    0.000
303.205; 1532.025;    0.000;    0.000
303.267; 1470.025;    0.000;    0.000
303.330; 1515.025;    0.000;    0.000
303.393; 1563.025;    0.000;    0.000
303.456; 1543.025;    0.000;    0.000
303.518; 1499.025;    0.000;    0.000
303.581; 1556.025;    0.000;    0.000
303.644; 1538.025;    0.000;    0.000
303.706; 1514.025;    0.000;    0.000
303.769; 1520.025;    0.000;    0.000
303.832; 1526.025;    0.000;    0.000
303.894; 1569.025;    0.000;    0.000
303.957; 1514.025;    0.000;    0.000
304.020; 1498.025;    0.000;    0.000
304.082; 1505.025;    0.000;    0.000
304.145; 1558.025;    0.000;    0.000
304.207; 1533.025;    0.000;    0.000
304.270; 1504.025;    0.000;    0.000
304.333; 1556.025;    0.000;    0.000
304.395; 1547.025;    0.000;    0.000
304.458; 1538.025;    0.000;    0.000
304.520; 1615.025;    0.000;    0.000
304.583; 1565.025;    0.000;    0.000
304.646; 1583.025;    0.000;    0.000
304.708; 1490.025;    0.000;    0.000
304.771; 1606.025;    0.000;    0.000
304.833; 1588.025;    0.000;    0.000
304.896; 1645.025;    0.000;    0.000
304.958; 1514.025;    0.000;    0.000
305.021; 1540.025;    0.000;    0.000
305.083; 1620.025;    0.000;    0.000
305.146; 1669.025;    0.000;    0.000
305.208; 1581.025;    0.000;    0.000
305.271; 1542.025;    0.000;    0.000
305.333; 1607.025;    0.000;    0.000
305.396; 1625.025;    0.000;    0.000
305.458; 1601.025;    0.000;    0.000
305.520; 1601.025;    0.000;    0.000
305.583; 1630.025;    0.000;    0.000
305.645; 1692.025;    0.000;    0.000
305.708; 1647.025;    0.000;    0.000
305.770; 1663.025;    0.000;    0.000
305.833; 1635.025;    0.000;    0.000
305.895; 1598.025;    0.000;    0.000
305.957; 1607.025;    0.000;    0.000
306.020; 1588.025;    0.000;    0.000
306.082; 1668.025;    0.000;    0.000
306.144; 1702.025;    0.000;    0.000
306.207; 1642.025;    0.000;    0.000
306.269; 1642.025;    0.000;    0.000
306.331; 1625.025;    0.000;    0.000
306.394; 1629.025;    0.000;    0.000
306.456; 1596.025;    0.000;    0.000
306.518; 1686.025;    0.000;    0.000
306.581; 1652.025;    0.000;    0.000
306.643; 1707.025;    0.000;    0.000
306.705; 1715.025;    0.000;    0.000
306.768; 1709.025;    0.000;    0.000
306.830; 1726.025;    0.000;    0.000
306.892; 1687.025;    0.000;    0.000
306.954; 1750.025;    0.000;    0.000
307.017; 1720.025;    0.000;    0.000
307.079; 1779.025;    0.000;    0.000
307.141; 1744.025;    0.000;    0.000
307.203; 1738.025;    0.000;    0.000
307.266; 1732.025;    0.000;    0.000
307.328; 1749.025;    0.000;    0.000
307.390; 1714.025;    0.000;    0.000
307.452; 1775.025;    0.000;    0.000
307.514; 1816.025;    0.000;    0.000
307.577; 1835.025;    0.000;    0.000
307.639; 1767.025;    0.000;    0.000
307.701; 1774.025;    0.000;    0.000
307.763; 1730.025;    0.000;    0.000
307.825; 1819.025;    0.000;    0.000
307.887; 1814.025;    0.000;    0.000
307.949; 1792.025;    0.000;    0.000
308.012; 1886.025;    0.000;    0.000
308.074; 1880.025;    0.000;    0.000
308.136; 1880.025;    0.000;    0.000
308.198; 1776.025;    0.000;    0.000
308.260; 1885.025;    0.000;    0.000
308.322; 1930.025;    0.000;    0.000
308.384; 1875.025;    0.000;    0.000
308.446; 1825.025;    0.000;    0.000
308.508; 1863.025;    0.000;    0.000
308.570; 1951.025;    0.000;    0.000
308.632; 1926.025;    0.000;    0.000
308.694; 1932.025;    0.000;    0.000
308.756; 1933.025;    0.000;    0.000
308.818; 1950.025;    0.000;    0.000
308.880; 1952.025;    0.000;    0.000
308.942; 1948.025;    0.000;    0.000
309.004; 2081.025;    0.000;    0.000
309.066; 2059.025;    0.000;    0.000
309.128; 2040.025;    0.000;    0.000
309.190; 2089.025;    0.000;    0.000
309.252; 2121.025;    0.000;    0.000
309.314; 2191.025;    0.000;    0.000
309.376; 2220.025;    0.000;    0.000
309.438; 2259.025;    0.000;    0.000
309.500; 2145.025;    0.000;    0.000
309.562; 2167.025;    0.000;    0.000
309.624; 2212.025;    0.000;    0.000
309.686; 2255.025;    0.000;    0.000
309.747; 2310.025;    0.000;    0.000
309.809; 2257.025;    0.000;    0.000
309.871; 2220.025;    0.000;    0.000
309.933; 2137.025;    0.000;    0.000
309.995; 2142.025;    0.000;    0.000
310.057; 2130.025;    0.000;    0.000
310.119; 2131.025;    0.000;    0.000
310.180; 2101.025;    0.000;    0.000
310.242; 2037.025;    0.000;    0.000
310.304; 2036.025;    0.000;    0.000
310.366; 2062.025;    0.000;    0.000
310.428; 2022.025;    0.000;    0.000
310.489; 2037.025;    0.000;    0.000
310.551; 1989.025;    0.000;    0.000
310.613; 2007.025;    0.000;    0.000
310.675; 2014.025;    0.000;    0.000
310.737; 2068.025;    0.000;    0.000
310.798; 1963.025;    0.000;    0.000
310.860; 2051.025;    0.000;    0.000
310.922; 1966.025;    0.000;    0.000
310.983; 1942.025;    0.000;    0.000
311.045; 1983.025;    0.000;    0.000
311.107; 1956.025;    0.000;    0.000
311.169; 2004.025;    0.000;    0.000
311.230; 1970.025;    0.000;    0.000
311.292; 1970.025;    0.000;    0.000
311.354; 1958.025;    0.000;    0.000
311.415; 1991.025;    0.000;    0.000
311.477; 1943.025;    0.000;    0.000
311.539; 2042.025;    0.000;    0.000
311.600; 1958.025;    0.000;    0.000
311.662; 1986.025;    0.000;    0.000
311.724; 2038.025;    0.000;    0.000
311.785; 2006.025;    0.000;    0.000
311.847; 1964.025;    0.000;    0.000
311.908; 1926.025;    0.000;    0.000
311.970; 2000.025;    0.000;    0.000
312.032; 1958.025;    0.000;    0.000
312.093; 2000.025;    0.000;    0.000
312.155; 2053.025;    0.000;    0.000
312.216; 2048.025;    0.000;    0.000
312.278; 2019.025;    0.000;    0.000
312.339; 1964.025;    0.000;    0.000
312.401; 1997.025;    0.000;    0.000
312.462; 1895.025;    0.000;    0.000
312.524; 1991.025;    0.000;    0.000
312.585; 1876.025;    0.000;    0.000
312.647; 1907.025;    0.000;    0.000
312.708; 1955.025;    0.000;    0.000
312.770; 2000.025;    0.000;    0.000
312.831; 2056.025;    0.000;    0.000
312.893; 1973.025;    0.000;    0.000
312.954; 2040.025;    0.000;    0.000
313.016; 2096.025;    0.000;    0.000
313.077; 1953.025;    0.000;    0.000
313.139; 1945.025;    0.000;    0.000
313.200; 2035.025;    0.000;    0.000
313.261; 2061.025;    0.000;    0.000
313.323; 2039.025;    0.000;    0.000
313.384; 1915.025;    0.000;    0.000
313.446; 2039.025;    0.000;    0.000
313.507; 1984.025;    0.000;    0.000
313.568; 2015.025;    0.000;    0.000
313.630; 1994.025;    0.000;    0.000
313.691; 2028.025;    0.000;    0.000
313.752; 1984.025;    0.000;    0.000
313.814; 2045.025;    0.000;    0.000
313.875; 1982.025;    0.000;    0.000
313.936; 2052.025;    0.000;    0.000
313.998; 1993.025;    0.000;    0.000
314.059; 2001.025;    0.000;    0.000
314.120; 2021.025;    0.000;    0.000
314.182; 2030.025;    0.000;    0.000
314.243; 2135.025;    0.000;    0.000
314.304; 2033.025;    0.000;    0.000
314.365; 2113.025;    0.000;    0.000
314.427; 2045.025;    0.000;    0.000
314.488; 2012.025;    0.000;    0.000
314.549; 2042.025;    0.000;    0.000
314.610; 2081.025;    0.000;    0.000
314.672; 2055.025;    0.000;    0.000
314.733; 2057.025;    0.000;    0.000
314.794; 1995.025;    0.000;    0.000
314.855; 2054.025;    0.000;    0.000
314.917; 1937.025;    0.000;    0.000
314.978; 2064.025;    0.000;    0.000
315.039; 2029.025;    0.000;    0.000
315.100; 2042.025;    0.000;    0.000
315.161; 2026.025;    0.000;    0.000
315.222; 2103.025;    0.000;    0.000
315.283; 2209.025;    0.000;    0.000
315.345; 1937.025;    0.000;    0.000
315.406; 2078.025;    0.000;    0.000
315.467; 2008.025;    0.000;    0.000
315.528; 2066.025;    0.000;    0.000
315.589; 2055.025;    0.000;    0.000
315.650; 2049.025;    0.000;    0.000
315.711; 2050.025;    0.000;    0.000
315.772; 2071.025;    0.000;    0.000
315.833; 2064.025;    0.000;    0.000
315.894; 2070.025;    0.000;    0.000
315.955; 2009.025;    0.000;    0.000
316.016; 2018.025;    0.000;    0.000
316.078; 2066.025;    0.000;    0.000
316.139; 2067.025;    0.000;    0.000
316.200; 2092.025;    0.000;    0.000
316.261; 2053.025;    0.000;    0.000
316.322; 2066.025;    0.000;    0.000
316.383; 2130.025;    0.000;    0.000
316.444; 2146.025;    0.000;    0.000
316.504; 1959.025;    0.000;    0.000
316.565; 2083.025;    0.000;    0.000
316.626; 2074.025;    0.000;    0.000
316.687; 2118.025;    0.000;    0.000
316.748; 2036.025;    0.000;    0.000
316.809; 2128.025;    0.000;    0.000
316.870; 2062.025;    0.000;    0.000
316.931; 2064.025;    0.000;    0.000
316.992; 2148.025;    0.000;    0.000
317.053; 2101.025;    0.000;    0.000
317.114; 2093.025;    0.000;    0.000
317.175; 2100.025;    0.000;    0.000
317.235; 2121.025;    0.000;    0.000
317.296; 2127.025;    0.000;    0.000
317.357; 2047.025;    0.000;    0.000
317.418; 2101.025;    0.000;    0.000
317.479; 2019.025;    0.000;    0.000
317.540; 2059.025;    0.000;    0.000
317.601; 2126.025;    0.000;    0.000
317.661; 2016.025;    0.000;    0.000
317.722; 2039.025;    0.000;    0.000
317.783; 2030.025;    0.000;    0.000
317.844; 2072.025;    0.000;    0.000
317.904; 2028.025;    0.000;    0.000
317.965; 2117.025;    0.000;    0.000
318.026; 2136.025;    0.000;    0.000
318.087; 2106.025;    0.000;    0.000
318.148; 2043.025;    0.000;    0.000
318.208; 2109.025;    0.000;    0.000
318.269; 2061.025;    0.000;    0.000
318.330; 2137.025;    0.000;    0.000
318.390; 2082.025;    0.000;    0.000
318.451; 2180.025;    0.000;    0.000
318.512; 2185.025;    0.000;    0.000
318.572; 2129.025;    0.000;    0.000
318.633; 2107.025;    0.000;    0.000
318.694; 2182.025;    0.000;    0.000
318.754; 2097.025;    0.000;    0.000
318.815; 2133.025;    0.000;    0.000
318.876; 2109.025;    0.000;    0.000
318.936; 2122.025;    0.000;    0.000
318.997; 2094.025;    0.000;    0.000
319.058; 2109.025;    0.000;    0.000
319.118; 2061.025;    0.000;    0.000
319.179; 2069.025;    0.000;    0.000
319.239; 2070.025;    0.000;    0.000
319.300; 2118.025;    0.000;    0.000
319.361; 2029.025;    0.000;    0.000
319.421; 2067.025;    0.000;    0.000
319.482; 2059.025;    0.000;    0.000
319.542; 2016.025;    0.000;    0.000
319.603; 2058.025;    0.000;    0.000
319.663; 2083.025;    0.000;    0.000
319.724; 2030.025;    0.000;    0.000
319.784; 2080.025;    0.000;    0.000
319.845; 2113.025;    0.000;    0.000
319.905; 2138.025;    0.000;    0.000
319.966; 2118.025;    0.000;    0.000
320.026; 2198.025;    0.000;    0.000
320.087; 2145.025;    0.000;    0.000
320.147; 2239.025;    0.000;    0.000
320.208; 2138.025;    0.000;    0.000
320.268; 2102.025;    0.000;    0.000
320.329; 2182.025;    0.000;    0.000
320.389; 2141.025;    0.000;    0.000
320.449; 2166.025;    0.000;    0.000
320.510; 2134.025;    0.000;    0.000
320.570; 2174.025;    0.000;    0.000
320.631; 2110.025;    0.000;    0.000
320.691; 2057.025;    0.000;    0.000
320.751; 2148.025;    0.000;    0.000
320.812; 2196.025;    0.000;    0.000
320.872; 2124.025;    0.000;    0.000
320.932; 2176.025;    0.000;    0.000
320.993; 2213.025;    0.000;    0.000
321.053; 2207.025;    0.000;    0.000
321.113; 2155.025;    0.000;    0.000
321.174; 2171.025;    0.000;    0.000
321.234; 2133.025;    0.000;    0.000
321.294; 2147.025;    0.000;    0.000
321.355; 2138.025;    0.000;    0.000
321.415; 2162.025;    0.000;    0.000
321.475; 2172.025;    0.000;    0.000
321.535; 2257.025;    0.000;    0.000
321.596; 2122.025;    0.000;    0.000
321.656; 2216.025;    0.000;    0.000
321.716; 2126.025;    0.000;    0.000
321.776; 2189.025;    0.000;    0.000
321.837; 2197.025;    0.000;    0.000
321.897; 2234.025;    0.000;    0.000
321.957; 2249.025;    0.000;    0.000
322.017; 2222.025;    0.000;    0.000
322.077; 2247.025;    0.000;    0.000
322.138; 2163.025;    0.000;    0.000
322.198; 2220.025;    0.000;    0.000
322.258; 2245.025;    0.000;    0.000
322.318; 2080.025;    0.000;    0.000
322.378; 2246.025;    0.000;    0.000
322.438; 2194.025;    0.000;    0.000
322.499; 2243.025;    0.000;    0.000
322.559; 2203.025;    0.000;    0.000
322.619; 2193.025;    0.000;    0.000
322.679; 2116.025;    0.000;    0.000
322.739; 2194.025;    0.000;    0.000
322.799; 2254.025;    0.000;    0.000
322.859; 2198.025;    0.000;    0.000
322.919; 2185.025;    0.000;    0.000
322.979; 2233.025;    0.000;    0.000
323.039; 2226.025;    0.000;    0.000
323.099; 2258.025;    0.000;    0.000
323.159; 2200.025;    0.000;    0.000
323.219; 2109.025;    0.000;    0.000
323.279; 2145.025;    0.000;    0.000
323.339; 2270.025;    0.000;    0.000
323.399; 2284.025;    0.000;    0.000
323.459; 2283.025;    0.000;    0.000
323.519; 2203.025;    0.000;    0.000
323.579; 2271.025;    0.000;    0.000
323.639; 2246.025;    0.000;    0.000
323.699; 2347.025;    0.000;    0.000
323.759; 2286.025;    0.000;    0.000
323.819; 2338.025;    0.000;    0.000
323.879; 2296.025;    0.000;    0.000
323.939; 2182.025;    0.000;    0.000
323.999; 2206.025;    0.000;    0.000
324.059; 2252.025;    0.000;    0.000
324.119; 2234.025;    0.000;    0.000
324.178; 2215.025;    0.000;    0.000
324.238; 2226.025;    0.000;    0.000
324.298; 2210.025;    0.000;    0.000
324.358; 2257.025;    0.000;    0.000
324.418; 2258.025;    0.000;    0.000
324.478; 2192.025;    0.000;    0.000
324.538; 2210.025;    0.000;    0.000
324.597; 2242.025;    0.000;    0.000
324.657; 2131.025;    0.000;    0.000
324.717; 2228.025;    0.000;    0.000
324.777; 2195.025;    0.000;    0.000
324.837; 2184.025;    0.000;    0.000
324.896; 2238.025;    0.000;    0.000
324.956; 2136.025;    0.000;    0.000
325.016; 2177.025;    0.000;    0.000
325.076; 2180.025;    0.000;    0.000
325.135; 2205.025;    0.000;    0.000
325.195; 2226.025;    0.000;    0.000
325.255; 2201.025;    0.000;    0.000
325.315; 2345.025;    0.000;    0.000
325.374; 2281.025;    0.000;    0.000
325.434; 2345.025;    0.000;    0.000
325.494; 2212.025;    0.000;    0.000
325.553; 2171.025;    0.000;    0.000
325.613; 2213.025;    0.000;    0.000
325.673; 2243.025;    0.000;    0.000
325.732; 2145.025;    0.000;    0.000
325.792; 2191.025;    0.000;    0.000
325.852; 2134.025;    0.000;    0.000
325.911; 2137.025;    0.000;    0.000
325.971; 2210.025;    0.000;    0.000
326.031; 2211.025;    0.000;    0.000
326.090; 2192.025;    0.000;    0.000
326.150; 2182.025;    0.000;    0.000
326.209; 2159.025;    0.000;    0.000
326.269; 2146.025;    0.000;    0.000
326.328; 2224.025;    0.000;    0.000
326.388; 2155.025;    0.000;    0.000
326.448; 2328.025;    0.000;    0.000
326.507; 2338.025;    0.000;    0.000
326.567; 2292.025;    0.000;    0.000
326.626; 2281.025;    0.000;    0.000
326.686; 2122.025;    0.000;    0.000
326.745; 2173.025;    0.000;    0.000
326.805; 2224.025;    0.000;    0.000
326.864; 2231.025;    0.000;    0.000
326.924; 2237.025;    0.000;    0.000
326.983; 2186.025;    0.000;    0.000
327.043; 2239.025;    0.000;    0.000
327.102; 2311.025;    0.000;    0.000
327.161; 2224.025;    0.000;    0.000
327.221; 2317.025;    0.000;    0.000
327.280; 2228.025;    0.000;    0.000
327.340; 2216.025;    0.000;    0.000
327.399; 2272.025;    0.000;    0.000
327.459; 2229.025;    0.000;    0.000
327.518; 2261.025;    0.000;    0.000
327.577; 2207.025;    0.000;    0.000
327.637; 2191.025;    0.000;    0.000
327.696; 2277.025;    0.000;    0.000
327.755; 2203.025;    0.000;    0.000
327.815; 2211.025;    0.000;    0.000
327.874; 2162.025;    0.000;    0.000
327.933; 2132.025;    0.000;    0.000
327.993; 2213.025;    0.000;    0.000
328.052; 2256.025;    0.000;    0.000
328.111; 2260.025;    0.000;    0.000
328.171; 2288.025;    0.000;    0.000
328.230; 2269.025;    0.000;    0.000
328.289; 2243.025;    0.000;    0.000
328.349; 2325.025;    0.000;    0.000
328.408; 2283.025;    0.000;    0.000
328.467; 2275.025;    0.000;    0.000
328.526; 2187.025;    0.000;    0.000
328.586; 2278.025;    0.000;    0.000
328.645; 2289.025;    0.000;    0.000
328.704; 2244.025;    0.000;    0.000
328.763; 2148.025;    0.000;    0.000
328.822; 2172.025;    0.000;    0.000
328.882; 2290.025;    0.000;    0.000
328.941; 2347.025;    0.000;    0.000
329.000; 2353.025;    0.000;    0.000
329.059; 2273.025;    0.000;    0.000
329.118; 2317.025;    0.000;    0.000
329.177; 2278.025;    0.000;    0.000
329.237; 2302.025;    0.000;    0.000
329.296; 2347.025;    0.000;    0.000
329.355; 2435.025;    0.000;    0.000
329.414; 2313.025;    0.000;    0.000
329.473; 2352.025;    0.000;    0.000
329.532; 2388.025;    0.000;    0.000
329.591; 2250.025;    0.000;    0.000
329.650; 2376.025;    0.000;    0.000
329.709; 2519.025;    0.000;    0.000
329.768; 2449.025;    0.000;    0.000
329.827; 2579.025;    0.000;    0.000
329.886; 2568.025;    0.000;    0.000
329.945; 2631.025;    0.000;    0.000
330.004; 2634.025;    0.000;    0.000
330.063; 2671.025;    0.000;    0.000
330.122; 2636.025;    0.000;    0.000
330.181; 2763.025;    0.000;    0.000
330.240; 2806.025;    0.000;    0.000
330.299; 2592.025;    0.000;    0.000
330.358; 2538.025;    0.000;    0.000
330.417; 2483.025;    0.000;    0.000
330.476; 2390.025;    0.000;    0.000
330.535; 2454.025;    0.000;    0.000
330.594; 2327.025;    0.000;    0.000
330.653; 2220.025;    0.000;    0.000
330.712; 2318.025;    0.000;    0.000
330.771; 2474.025;    0.000;    0.000
330.830; 2318.025;    0.000;    0.000
330.889; 2314.025;    0.000;    0.000
330.948; 2345.025;    0.000;    0.000
331.006; 2278.025;    0.000;    0.000
331.065; 2414.025;    0.000;    0.000
331.124; 2374.025;    0.000;    0.000
331.183; 2334.025;    0.000;    0.000
331.242; 2275.025;    0.000;    0.000
331.301; 2328.025;    0.000;    0.000
331.359; 2290.025;    0.000;    0.000
331.418; 2322.025;    0.000;    0.000
331.477; 2340.025;    0.000;    0.000
331.536; 2216.025;    0.000;    0.000
331.595; 2261.025;    0.000;    0.000
331.653; 2220.025;    0.000;    0.000
331.712; 2280.025;    0.000;    0.000
331.771; 2243.025;    0.000;    0.000
331.830; 2229.025;    0.000;    0.000
331.888; 2257.025;    0.000;    0.000
331.947; 2243.025;    0.000;    0.000
332.006; 2325.025;    0.000;    0.000
332.065; 2204.025;    0.000;    0.000
332.123; 2371.025;    0.000;    0.000
332.182; 2253.025;    0.000;    0.000
332.241; 2302.025;    0.000;    0.000
332.299; 2369.025;    0.000;    0.000
332.358; 2369.025;    0.000;    0.000
332.417; 2386.025;    0.000;    0.000
332.475; 2345.025;    0.000;    0.000
332.534; 2292.025;    0.000;    0.000
332.592; 2263.025;    0.000;    0.000
332.651; 2333.025;    0.000;    0.000
332.710; 2292.025;    0.000;    0.000
332.768; 2329.025;    0.000;    0.000
332.827; 2307.025;    0.000;    0.000
332.885; 2270.025;    0.000;    0.000
332.944; 2297.025;    0.000;    0.000
333.003; 2249.025;    0.000;    0.000
333.061; 2363.025;    0.000;    0.000
333.120; 2388.025;    0.000;    0.000
333.178; 2468.025;    0.000;    0.000
333.237; 2565.025;    0.000;    0.000
333.295; 2393.025;    0.000;    0.000
333.354; 2496.025;    0.000;    0.000
333.412; 2501.025;    0.000;    0.000
333.471; 2561.025;    0.000;    0.000
333.529; 2511.025;    0.000;    0.000
333.588; 2611.025;    0.000;    0.000
333.646; 2601.025;    0.000;    0.000
333.705; 2653.025;    0.000;    0.000
333.763; 2609.025;    0.000;    0.000
333.822; 2556.025;    0.000;    0.000
333.880; 2548.025;    0.000;    0.000
333.938; 2569.025;    0.000;    0.000
333.997; 2521.025;    0.000;    0.000
334.055; 2563.025;    0.000;    0.000
334.114; 2663.025;    0.000;    0.000
334.172; 2459.025;    0.000;    0.000
334.230; 2501.025;    0.000;    0.000
334.289; 2471.025;    0.000;    0.000
334.347; 2536.025;    0.000;    0.000
334.405; 2484.025;    0.000;    0.000
334.464; 2444.025;    0.000;    0.000
334.522; 2423.025;    0.000;    0.000
334.580; 2508.025;    0.000;    0.000
334.639; 2465.025;    0.000;    0.000
334.697; 2473.025;    0.000;    0.000
334.755; 2541.025;    0.000;    0.000
334.814; 2478.025;    0.000;    0.000
334.872; 2467.025;    0.000;    0.000
334.930; 2421.025;    0.000;    0.000
334.988; 2391.025;    0.000;    0.000
335.047; 2443.025;    0.000;    0.000
335.105; 2484.025;    0.000;    0.000
335.163; 2452.025;    0.000;    0.000
335.221; 2517.025;    0.000;    0.000
335.280; 2428.025;    0.000;    0.000
335.338; 2478.025;    0.000;    0.000
335.396; 2467.025;    0.000;    0.000
335.454; 2423.025;    0.000;    0.000
335.512; 2443.025;    0.000;    0.000
335.570; 2501.025;    0.000;    0.000
335.629; 2650.025;    0.000;    0.000
335.687; 2568.025;    0.000;    0.000
335.745; 2666.025;    0.000;    0.000
335.803; 2734.025;    0.000;    0.000
335.861; 2653.025;    0.000;    0.000
335.919; 2664.025;    0.000;    0.000
335.977; 2715.025;    0.000;    0.000
336.035; 2640.025;    0.000;    0.000
336.094; 2514.025;    0.000;    0.000
336.152; 2559.025;    0.000;    0.000
336.210; 2665.025;    0.000;    0.000
336.268; 2712.025;    0.000;    0.000
336.326; 2677.025;    0.000;    0.000
336.384; 2616.025;    0.000;    0.000
336.442; 2602.025;    0.000;    0.000
336.500; 2619.025;    0.000;    0.000
336.558; 2669.025;    0.000;    0.000
336.616; 2691.025;    0.000;    0.000
336.674; 2583.025;    0.000;    0.000
336.732; 2626.025;    0.000;    0.000
336.790; 2604.025;    0.000;    0.000
336.848; 2575.025;    0.000;    0.000
336.906; 2596.025;    0.000;    0.000
336.964; 2586.025;    0.000;    0.000
337.022; 2678.025;    0.000;    0.000
337.080; 2689.025;    0.000;    0.000
337.138; 2656.025;    0.000;    0.000
337.195; 2651.025;    0.000;    0.000
337.253; 2636.025;    0.000;    0.000
337.311; 2596.025;    0.000;    0.000
337.369; 2647.025;    0.000;    0.000
337.427; 2605.025;    0.000;    0.000
337.485; 2568.025;    0.000;    0.000
337.543; 2523.025;    0.000;    0.000
337.601; 2523.025;    0.000;    0.000
337.658; 2472.025;    0.000;    0.000
337.716; 2519.025;    0.000;    0.000
337.774; 2491.025;    0.000;    0.000
337.832; 2400.025;    0.000;    0.000
337.890; 2292.025;    0.000;    0.000
337.947; 2469.025;    0.000;    0.000
338.005; 2430.025;    0.000;    0.000
338.063; 2458.025;    0.000;    0.000
338.121; 2433.025;    0.000;    0.000
338.178; 2415.025;    0.000;    0.000
338.236; 2535.025;    0.000;    0.000
338.294; 2540.025;    0.000;    0.000
338.352; 2536.025;    0.000;    0.000
338.409; 2467.025;    0.000;    0.000
338.467; 2452.025;    0.000;    0.000
338.525; 2412.025;    0.000;    0.000
338.583; 2369.025;    0.000;    0.000
338.640; 2301.025;    0.000;    0.000
338.698; 2436.025;    0.000;    0.000
338.756; 2433.025;    0.000;    0.000
338.813; 2517.025;    0.000;    0.000
338.871; 2683.025;    0.000;    0.000
338.928; 2501.025;    0.000;    0.000
338.986; 2681.025;    0.000;    0.000
339.044; 2741.025;    0.000;    0.000
339.101; 2525.025;    0.000;    0.000
339.159; 2554.025;    0.000;    0.000
339.216; 2563.025;    0.000;    0.000
339.274; 2583.025;    0.000;    0.000
339.332; 2599.025;    0.000;    0.000
339.389; 2589.025;    0.000;    0.000
339.447; 2532.025;    0.000;    0.000
339.504; 2572.025;    0.000;    0.000
339.562; 2504.025;    0.000;    0.000
339.619; 2494.025;    0.000;    0.000
339.677; 2605.025;    0.000;    0.000
339.734; 2525.025;    0.000;    0.000
339.792; 2549.025;    0.000;    0.000
339.849; 2479.025;    0.000;    0.000
339.907; 2584.025;    0.000;    0.000
339.964; 2573.025;    0.000;    0.000
340.022; 2585.025;    0.000;    0.000
340.079; 2493.025;    0.000;    0.000
340.137; 2590.025;    0.000;    0.000
340.194; 2409.025;    0.000;    0.000
340.252; 2497.025;    0.000;    0.000
340.309; 2415.025;    0.000;    0.000
340.366; 2509.025;    0.000;    0.000
340.424; 2526.025;    0.000;    0.000
340.481; 2511.025;    0.000;    0.000
340.538; 2515.025;    0.000;    0.000
340.596; 2452.025;    0.000;    0.000
340.653; 2671.025;    0.000;    0.000
340.711; 2614.025;    0.000;    0.000
340.768; 2550.025;    0.000;    0.000
340.825; 2632.025;    0.000;    0.000
340.883; 2623.025;    0.000;    0.000
340.940; 2596.025;    0.000;    0.000
340.997; 2580.025;    0.000;    0.000
341.054; 2458.025;    0.000;    0.000
341.112; 2611.025;    0.000;    0.000
341.169; 2624.025;    0.000;    0.000
341.226; 2601.025;    0.000;    0.000
341.284; 2619.025;    0.000;    0.000
341.341; 2632.025;    0.000;    0.000
341.398; 2654.025;    0.000;    0.000
341.455; 2565.025;    0.000;    0.000
341.512; 2597.025;    0.000;    0.000
341.570; 2632.025;    0.000;    0.000
341.627; 2545.025;    0.000;    0.000
341.684; 2546.025;    0.000;    0.000
341.741; 2577.025;    0.000;    0.000
341.798; 2631.025;    0.000;    0.000
341.856; 2571.025;    0.000;    0.000
341.913; 2581.025;    0.000;    0.000
341.970; 2684.025;    0.000;    0.000
342.027; 2595.025;    0.000;    0.000
342.084; 2694.025;    0.000;    0.000
342.141; 2728.025;    0.000;    0.000
342.198; 2603.025;    0.000;    0.000
342.255; 2557.025;    0.000;    0.000
342.313; 2704.025;    0.000;    0.000
342.370; 2542.025;    0.000;    0.000
342.427; 2525.025;    0.000;    0.000
342.484; 2530.025;    0.000;    0.000
342.541; 2457.025;    0.000;    0.000
342.598; 2545.025;    0.000;    0.000
342.655; 2474.025;    0.000;    0.000
342.712; 2583.025;    0.000;    0.000
342.769; 2640.025;    0.000;    0.000
342.826; 2611.025;    0.000;    0.000
342.883; 2561.025;    0.000;    0.000
342.940; 2498.025;    0.000;    0.000
342.997; 2580.025;    0.000;    0.000
343.054; 2531.025;    0.000;    0.000
343.111; 2540.025;    0.000;    0.000
343.168; 2509.025;    0.000;    0.000
343.225; 2638.025;    0.000;    0.000
343.282; 2625.025;    0.000;    0.000
343.339; 2658.025;    0.000;    0.000
343.395; 2617.025;    0.000;    0.000
343.452; 2693.025;    0.000;    0.000
343.509; 2602.025;    0.000;    0.000
343.566; 2613.025;    0.000;    0.000
343.623; 2644.025;    0.000;    0.000
343.680; 2557.025;    0.000;    0.000
343.737; 2631.025;    0.000;    0.000
343.794; 2630.025;    0.000;    0.000
343.850; 2689.025;    0.000;    0.000
343.907; 2677.025;    0.000;    0.000
343.964; 2715.025;    0.000;    0.000
344.021; 2796.025;    0.000;    0.000
344.078; 2796.025;    0.000;    0.000
344.134; 2703.025;    0.000;    0.000
344.191; 2699.025;    0.000;    0.000
344.248; 2782.025;    0.000;    0.000
344.305; 2631.025;    0.000;    0.000
344.361; 2727.025;    0.000;    0.000
344.418; 2656.025;    0.000;    0.000
344.475; 2732.025;    0.000;    0.000
344.532; 2708.025;    0.000;    0.000
344.588; 2702.025;    0.000;    0.000
344.645; 2590.025;    0.000;    0.000
344.702; 2669.025;    0.000;    0.000
344.758; 2801.025;    0.000;    0.000
344.815; 2765.025;    0.000;    0.000
344.872; 2720.025;    0.000;    0.000
344.928; 2786.025;    0.000;    0.000
344.985; 2747.025;    0.000;    0.000
345.042; 2635.025;    0.000;    0.000
345.098; 2661.025;    0.000;    0.000
345.155; 2727.025;    0.000;    0.000
345.212; 2772.025;    0.000;    0.000
345.268; 2668.025;    0.000;    0.000
345.325; 2580.025;    0.000;    0.000
345.381; 2729.025;    0.000;    0.000
345.438; 2754.025;    0.000;    0.000
345.495; 2783.025;    0.000;    0.000
345.551; 2729.025;    0.000;    0.000
345.608; 2745.025;    0.000;    0.000
345.664; 2703.025;    0.000;    0.000
345.721; 2642.025;    0.000;    0.000
345.777; 2618.025;    0.000;    0.000
345.834; 2579.025;    0.000;    0.000
345.890; 2515.025;    0.000;    0.000
345.947; 2636.025;    0.000;    0.000
346.003; 2598.025;    0.000;    0.000
346.060; 2674.025;    0.000;    0.000
346.116; 2720.025;    0.000;    0.000
346.173; 2738.025;    0.000;    0.000
346.229; 2623.025;    0.000;    0.000
346.285; 2666.025;    0.000;    0.000
346.342; 2642.025;    0.000;    0.000
346.398; 2721.025;    0.000;    0.000
346.455; 2774.025;    0.000;    0.000
346.511; 2708.025;    0.000;    0.000
346.567; 2802.025;    0.000;    0.000
346.624; 2744.025;    0.000;    0.000
346.680; 2779.025;    0.000;    0.000
346.737; 2894.025;    0.000;    0.000
346.793; 2877.025;    0.000;    0.000
346.849; 2890.025;    0.000;    0.000
346.906; 2941.025;    0.000;    0.000
346.962; 2926.025;    0.000;    0.000
347.018; 2898.025;    0.000;    0.000
347.074; 2897.025;    0.000;    0.000
347.131; 2772.025;    0.000;    0.000
347.187; 2759.025;    0.000;    0.000
347.243; 2688.025;    0.000;    0.000
347.300; 2740.025;    0.000;    0.000
347.356; 2765.025;    0.000;    0.000
347.412; 2825.025;    0.000;    0.000
347.468; 2664.025;    0.000;    0.000
347.524; 2655.025;    0.000;    0.000
347.581; 2657.025;    0.000;    0.000
347.637; 2739.025;    0.000;    0.000
347.693; 2597.025;    0.000;    0.000
347.749; 2735.025;    0.000;    0.000
347.805; 2790.025;    0.000;    0.000
347.862; 2623.025;    0.000;    0.000
347.918; 2654.025;    0.000;    0.000
347.974; 2721.025;    0.000;    0.000
348.030; 2616.025;    0.000;    0.000
348.086; 2628.025;    0.000;    0.000
348.142; 2650.025;    0.000;    0.000
348.198; 2710.025;    0.000;    0.000
348.254; 2693.025;    0.000;    0.000
348.311; 2625.025;    0.000;    0.000
348.367; 2691.025;    0.000;    0.000
348.423; 2688.025;    0.000;    0.000
348.479; 2576.025;    0.000;    0.000
348.535; 2681.025;    0.000;    0.000
348.591; 2691.025;    0.000;    0.000
348.647; 2652.025;    0.000;    0.000
348.703; 2701.025;    0.000;    0.000
348.759; 2731.025;    0.000;    0.000
348.815; 2701.025;    0.000;    0.000
348.871; 2698.025;    0.000;    0.000
348.927; 2739.025;    0.000;    0.000
348.983; 2799.025;    0.000;    0.000
349.039; 2720.025;    0.000;    0.000
349.095; 2759.025;    0.000;    0.000
349.151; 2820.025;    0.000;    0.000
349.207; 2750.025;    0.000;    0.000
349.263; 2778.025;    0.000;    0.000
349.319; 2667.025;    0.000;    0.000
349.374; 2726.025;    0.000;    0.000
349.430; 2759.025;    0.000;    0.000
349.486; 2844.025;    0.000;    0.000
349.542; 2842.025;    0.000;    0.000
349.598; 2764.025;    0.000;    0.000
349.654; 2812.025;    0.000;    0.000
349.710; 2804.025;    0.000;    0.000
349.766; 2847.025;    0.000;    0.000
349.821; 2830.025;    0.000;    0.000
349.877; 2817.025;    0.000;    0.000
349.933; 2793.025;    0.000;    0.000
349.989; 2817.025;    0.000;    0.000
350.045; 2740.025;    0.000;    0.000
350.100; 2710.025;    0.000;    0.000
350.156; 2689.025;    0.000;    0.000
350.212; 2727.025;    0.000;    0.000
350.268; 2699.025;    0.000;    0.000
350.323; 2781.025;    0.000;    0.000
350.379; 2666.025;    0.000;    0.000
350.435; 2715.025;    0.000;    0.000
350.491; 2728.025;    0.000;    0.000
350.546; 2726.025;    0.000;    0.000
350.602; 2773.025;    0.000;    0.000
350.658; 2680.025;    0.000;    0.000
350.713; 2658.025;    0.000;    0.000
350.769; 2697.025;    0.000;    0.000
350.825; 2702.025;    0.000;    0.000
350.880; 2589.025;    0.000;    0.000
350.936; 2619.025;    0.000;    0.000
350.992; 2738.025;    0.000;    0.000
351.047; 2759.025;    0.000;    0.000
351.103; 2736.025;    0.000;    0.000
351.158; 2655.025;    0.000;    0.000
351.214; 2782.025;    0.000;    0.000
351.270; 2624.025;    0.000;    0.000
351.325; 2642.025;    0.000;    0.000
351.381; 2681.025;    0.000;    0.000
351.436; 2766.025;    0.000;    0.000
351.492; 2828.025;    0.000;    0.000
351.547; 2813.025;    0.000;    0.000
351.603; 2860.025;    0.000;    0.000
351.658; 2849.025;    0.000;    0.000
351.714; 2808.025;    0.000;    0.000
351.769; 2845.025;    0.000;    0.000
351.825; 2863.025;    0.000;    0.000
351.880; 2877.025;    0.000;    0.000
351.936; 2873.025;    0.000;    0.000
351.991; 2913.025;    0.000;    0.000
352.047; 2895.025;    0.000;    0.000
352.102; 2914.025;    0.000;    0.000
352.158; 2787.025;    0.000;    0.000
352.213; 2745.025;    0.000;    0.000
352.268; 2727.025;    0.000;    0.000
352.324; 2794.025;    0.000;    0.000
352.379; 2888.025;    0.000;    0.000
352.434; 2764.025;    0.000;    0.000
352.490; 2833.025;    0.000;    0.000
352.545; 2848.025;    0.000;    0.000
352.601; 2782.025;    0.000;    0.000
352.656; 2683.025;    0.000;    0.000
352.711; 2747.025;    0.000;    0.000
352.767; 2697.025;    0.000;    0.000
352.822; 2623.025;    0.000;    0.000
352.877; 2724.025;    0.000;    0.000
352.932; 2864.025;    0.000;    0.000
352.988; 2812.025;    0.000;    0.000
353.043; 2895.025;    0.000;    0.000
353.098; 2816.025;    0.000;    0.000
353.153; 2765.025;    0.000;    0.000
353.209; 2703.025;    0.000;    0.000
353.264; 2707.025;    0.000;    0.000
353.319; 2666.025;    0.000;    0.000
353.374; 2679.025;    0.000;    0.000
353.430; 2691.025;    0.000;    0.000
353.485; 2628.025;    0.000;    0.000
353.540; 2724.025;    0.000;    0.000
353.595; 2712.025;    0.000;    0.000
353.650; 2738.025;    0.000;    0.000
353.705; 2670.025;    0.000;    0.000
353.761; 2641.025;    0.000;    0.000
353.816; 2711.025;    0.000;    0.000
353.871; 2723.025;    0.000;    0.000
353.926; 2682.025;    0.000;    0.000
353.981; 2646.025;    0.000;    0.000
354.036; 2661.025;    0.000;    0.000
354.091; 2618.025;    0.000;    0.000
354.146; 2612.025;    0.000;    0.000
354.201; 2662.025;    0.000;    0.000
354.256; 2618.025;    0.000;    0.000
354.311; 2741.025;    0.000;    0.000
354.367; 2760.025;    0.000;    0.000
354.422; 2721.025;    0.000;    0.000
354.477; 2690.025;    0.000;    0.000
354.532; 2614.025;    0.000;    0.000
354.587; 2777.025;    0.000;    0.000
354.642; 2753.025;    0.000;    0.000
354.697; 2715.025;    0.000;    0.000
354.751; 2762.025;    0.000;    0.000
354.806; 2726.025;    0.000;    0.000
354.861; 2799.025;    0.000;    0.000
354.916; 2759.025;    0.000;    0.000
354.971; 2664.025;    0.000;    0.000
355.026; 2772.025;    0.000;    0.000
355.081; 2700.025;    0.000;    0.000
355.136; 2610.025;    0.000;    0.000
355.191; 2664.025;    0.000;    0.000
355.246; 2671.025;    0.000;    0.000
355.301; 2633.025;    0.000;    0.000
355.355; 2687.025;    0.000;    0.000
355.410; 2686.025;    0.000;    0.000
355.465; 2721.025;    0.000;    0.000
355.520; 2672.025;    0.000;    0.000
355.575; 2667.025;    0.000;    0.000
355.630; 2650.025;    0.000;    0.000
355.684; 2586.025;    0.000;    0.000
355.739; 2735.025;    0.000;    0.000
355.794; 2701.025;    0.000;    0.000
355.849; 2674.025;    0.000;    0.000
355.904; 2672.025;    0.000;    0.000
355.958; 2654.025;    0.000;    0.000
356.013; 2606.025;    0.000;    0.000
356.068; 2757.025;    0.000;    0.000
356.123; 2780.025;    0.000;    0.000
356.177; 2731.025;    0.000;    0.000
356.232; 2802.025;    0.000;    0.000
356.287; 2786.025;    0.000;    0.000
356.341; 2815.025;    0.000;    0.000
356.396; 2721.025;    0.000;    0.000
356.451; 2746.025;    0.000;    0.000
356.505; 2662.025;    0.000;    0.000
356.560; 2718.025;    0.000;    0.000
356.615; 2648.025;    0.000;    0.000
356.669; 2697.025;    0.000;    0.000
356.724; 2694.025;    0.000;    0.000
356.778; 2640.025;    0.000;    0.000
356.833; 2534.025;    0.000;    0.000
356.888; 2747.025;    0.000;    0.000
356.942; 2657.025;    0.000;    0.000
356.997; 2730.025;    0.000;    0.000
357.051; 2689.025;    0.000;    0.000
357.106; 2626.025;    0.000;    0.000
357.160; 2646.025;    0.000;    0.000
357.215; 2517.025;    0.000;    0.000
357.269; 2660.025;    0.000;    0.000
357.324; 2591.025;    0.000;    0.000
357.378; 2548.025;    0.000;    0.000
357.433; 2646.025;    0.000;    0.000
357.487; 2635.025;    0.000;    0.000
357.542; 2573.025;    0.000;    0.000
357.596; 2594.025;    0.000;    0.000
357.651; 2617.025;    0.000;    0.000
357.705; 2636.025;    0.000;    0.000
357.760; 2634.025;    0.000;    0.000
357.814; 2571.025;    0.000;    0.000
357.868; 2570.025;    0.000;    0.000
357.923; 2613.025;    0.000;    0.000
357.977; 2633.025;    0.000;    0.000
358.032; 2658.025;    0.000;    0.000
358.086; 2708.025;    0.000;    0.000
358.140; 2612.025;    0.000;    0.000
358.195; 2641.025;    0.000;    0.000
358.249; 2567.025;    0.000;    0.000
358.303; 2594.025;    0.000;    0.000
358.358; 2537.025;    0.000;    0.000
358.412; 2609.025;    0.000;    0.000
358.466; 2627.025;    0.000;    0.000
358.521; 2516.025;    0.000;    0.000
358.575; 2528.025;    0.000;    0.000
358.629; 2511.025;    0.000;    0.000
358.683; 2557.025;    0.000;    0.000
358.738; 2484.025;    0.000;    0.000
358.792; 2601.025;    0.000;    0.000
358.846; 2563.025;    0.000;    0.000
358.900; 2512.025;    0.000;    0.000
358.954; 2613.025;    0.000;    0.000
359.009; 2563.025;    0.000;    0.000
359.063; 2623.025;    0.000;    0.000
359.117; 2590.025;    0.000;    0.000
359.171; 2643.025;    0.000;    0.000
359.225; 2581.025;    0.000;    0.000
359.280; 2576.025;    0.000;    0.000
359.334; 2660.025;    0.000;    0.000
359.388; 2694.025;    0.000;    0.000
359.442; 2646.025;    0.000;    0.000
359.496; 2499.025;    0.000;    0.000
359.550; 2593.025;    0.000;    0.000
359.604; 2503.025;    0.000;    0.000
359.658; 2456.025;    0.000;    0.000
359.712; 2564.025;    0.000;    0.000
359.766; 2520.025;    0.000;    0.000
359.820; 2581.025;    0.000;    0.000
359.875; 2532.025;    0.000;    0.000
359.929; 2557.025;    0.000;    0.000
359.983; 2455.025;    0.000;    0.000
360.037; 2579.025;    0.000;    0.000
360.091; 2545.025;    0.000;    0.000
360.145; 2517.025;    0.000;    0.000
360.199; 2521.025;    0.000;    0.000
360.253; 2538.025;    0.000;    0.000
360.306; 2530.025;    0.000;    0.000
360.360; 2485.025;    0.000;    0.000
360.414; 2583.025;    0.000;    0.000
360.468; 2519.025;    0.000;    0.000
360.522; 2554.025;    0.000;    0.000
360.576; 2554.025;    0.000;    0.000
360.630; 2571.025;    0.000;    0.000
360.684; 2486.025;    0.000;    0.000
360.738; 2506.025;    0.000;    0.000
360.792; 2508.025;    0.000;    0.000
360.846; 2514.025;    0.000;    0.000
360.899; 2664.025;    0.000;    0.000
360.953; 2554.025;    0.000;    0.000
361.007; 2580.025;    0.000;    0.000
361.061; 2521.025;    0.000;    0.000
361.115; 2544.025;    0.000;    0.000
361.168; 2531.025;    0.000;    0.000
361.222; 2550.025;    0.000;    0.000
361.276; 2581.025;    0.000;    0.000
361.330; 2471.025;    0.000;    0.000
361.384; 2519.025;    0.000;    0.000
361.437; 2558.025;    0.000;    0.000
361.491; 2530.025;    0.000;    0.000
361.545; 2481.025;    0.000;    0.000
361.599; 2576.025;    0.000;    0.000
361.652; 2416.025;    0.000;    0.000
361.706; 2522.025;    0.000;    0.000
361.760; 2492.025;    0.000;    0.000
361.813; 2449.025;    0.000;    0.000
361.867; 2509.025;    0.000;    0.000
361.921; 2469.025;    0.000;    0.000
361.974; 2406.025;    0.000;    0.000
362.028; 2509.025;    0.000;    0.000
362.082; 2499.025;    0.000;    0.000
362.135; 2491.025;    0.000;    0.000
362.189; 2439.025;    0.000;    0.000
362.242; 2468.025;    0.000;    0.000
362.296; 2587.025;    0.000;    0.000
362.350; 2426.025;    0.000;    0.000
362.403; 2502.025;    0.000;    0.000
362.457; 2492.025;    0.000;    0.000
362.510; 2437.025;    0.000;    0.000
362.564; 2520.025;    0.000;    0.000
362.617; 2510.025;    0.000;    0.000
362.671; 2432.025;    0.000;    0.000
362.724; 2375.025;    0.000;    0.000
362.778; 2379.025;    0.000;    0.000
362.831; 2403.025;    0.000;    0.000
362.885; 2414.025;    0.000;    0.000
362.938; 2301.025;    0.000;    0.000
362.992;  404.025;    0.000;    0.000
363.045;  294.025;    0.000;    0.000
363.099;  316.025;    0.000;    0.000
363.152;  318.025;    0.000;    0.000
363.205;  321.025;    0.000;    0.000
363.259;  303.025;    0.000;    0.000
363.312;  320.025;    0.000;    0.000
363.366;  319.025;    0.000;    0.000
363.419;  306.025;    0.000;    0.000
363.472;  289.025;    0.000;    0.000
363.526;  316.025;    0.000;    0.000
363.579;  295.025;    0.000;    0.000
363.632;  298.025;    0.000;    0.000
363.686;  302.025;    0.000;    0.000
363.739;  287.025;    0.000;    0.000
363.792;  311.025;    0.000;    0.000

