
Integration time [ms]:   1.000
Averaging Nr. [scans]: 1
Smoothing Nr. [pixels]: 0
Data measured with spectrometer [name]: UV1
Wave   ;Sample   ;Dark     ;Reference
[nm]   ;[counts] ;[counts] ;[counts] 

236.381;  156.825;  175.825;    0.000
236.451;  169.825;  220.825;    0.000
236.520;  191.825;  178.825;    0.000
236.590;  183.825;  182.825;    0.000
236.660;  163.825;  180.825;    0.000
236.730;  179.825;  201.825;    0.000
236.799;  163.825;  168.825;    0.000
236.869;  190.825;  205.825;    0.000
236.939;  190.825;  175.825;    0.000
237.009;  180.825;  186.825;    0.000
237.078;  180.825;  200.825;    0.000
237.148;  154.825;  156.825;    0.000
237.218;  152.825;  190.825;    0.000
237.287;  176.825;  167.825;    0.000
237.357;  137.825;  213.825;    0.000
237.427;  169.825;  164.825;    0.000
237.496; 1118.825;  210.825;    0.000
237.566; 1103.825;  193.825;    0.000
237.636; 1143.825;  179.825;    0.000
237.705; 1123.825;  218.825;    0.000
237.775; 1083.825;  160.825;    0.000
237.845; 1112.825;  207.825;    0.000
237.914; 1108.825;  180.825;    0.000
237.984; 1124.825;  207.825;    0.000
238.054; 1074.825;  149.825;    0.000
238.123; 1134.825;  190.825;    0.000
238.193; 1143.825;  167.825;    0.000
238.263; 1097.825;  172.825;    0.000
238.332; 1085.825;  173.825;    0.000
238.402; 1100.825;  214.825;    0.000
238.471; 1060.825;  181.825;    0.000
238.541; 1118.825;  177.825;    0.000
238.611; 1095.825;  138.825;    0.000
238.680; 1081.825;  168.825;    0.000
238.750; 1065.825;  171.825;    0.000
238.819; 1045.825;  156.825;    0.000
238.889; 1146.825;  194.825;    0.000
238.958; 1144.825;  185.825;    0.000
239.028; 1103.825;  170.825;    0.000
239.097; 1087.825;  159.825;    0.000
239.167; 1063.825;  208.825;    0.000
239.237; 1148.825;  167.825;    0.000
239.306; 1053.825;  154.825;    0.000
239.376; 1122.825;  183.825;    0.000
239.445; 1158.825;  221.825;    0.000
239.515; 1078.825;  208.825;    0.000
239.584; 1103.825;  177.825;    0.000
239.654; 1095.825;  133.825;    0.000
239.723; 1074.825;  167.825;    0.000
239.793; 1130.825;  190.825;    0.000
239.862; 1090.825;  192.825;    0.000
239.932; 1062.825;  174.825;    0.000
240.001; 1072.825;  166.825;    0.000
240.070; 1050.825;  179.825;    0.000
240.140; 1110.825;  191.825;    0.000
240.209; 1044.825;  134.825;    0.000
240.279; 1090.825;  185.825;    0.000
240.348; 1115.825;  193.825;    0.000
240.418; 1126.825;  149.825;    0.000
240.487; 1092.825;  197.825;    0.000
240.556; 1067.825;  193.825;    0.000
240.626; 1072.825;  178.825;    0.000
240.695; 1034.825;  194.825;    0.000
240.765; 1082.825;  178.825;    0.000
240.834; 1087.825;  190.825;    0.000
240.903; 1020.825;  212.825;    0.000
240.973; 1067.825;  153.825;    0.000
241.042; 1054.825;  177.825;    0.000
241.112; 1112.825;  193.825;    0.000
241.181; 1044.825;  171.825;    0.000
241.250; 1045.825;  152.825;    0.000
241.320; 1040.825;  176.825;    0.000
241.389; 1112.825;  186.825;    0.000
241.458; 1113.825;  182.825;    0.000
241.528; 1035.825;  175.825;    0.000
241.597; 1089.825;  180.825;    0.000
241.666; 1085.825;  162.825;    0.000
241.736; 1093.825;  187.825;    0.000
241.805; 1041.825;  173.825;    0.000
241.874; 1052.825;  177.825;    0.000
241.943; 1079.825;  208.825;    0.000
242.013; 1139.825;  183.825;    0.000
242.082; 1065.825;  171.825;    0.000
242.151; 1063.825;  208.825;    0.000
242.221; 1043.825;  160.825;    0.000
242.290; 1104.825;  200.825;    0.000
242.359; 1006.825;  167.825;    0.000
242.428; 1143.825;  213.825;    0.000
242.498; 1008.825;  156.825;    0.000
242.567; 1104.825;  200.825;    0.000
242.636; 1105.825;  178.825;    0.000
242.705; 1046.825;  185.825;    0.000
242.774; 1090.825;  190.825;    0.000
242.844; 1077.825;  194.825;    0.000
242.913; 1013.825;  162.825;    0.000
242.982; 1081.825;  189.825;    0.000
243.051; 1014.825;  176.825;    0.000
243.120; 1040.825;  213.825;    0.000
243.190; 1001.825;  155.825;    0.000
243.259; 1067.825;  183.825;    0.000
243.328; 1037.825;  170.825;    0.000
243.397; 1072.825;  224.825;    0.000
243.466; 1047.825;  172.825;    0.000
243.535; 1043.825;  145.825;    0.000
243.605; 1068.825;  157.825;    0.000
243.674; 1101.825;  199.825;    0.000
243.743; 1025.825;  196.825;    0.000
243.812; 1012.825;  152.825;    0.000
243.881; 1052.825;  188.825;    0.000
243.950; 1001.825;  154.825;    0.000
244.019; 1021.825;  195.825;    0.000
244.088; 1067.825;  164.825;    0.000
244.158; 1039.825;  220.825;    0.000
244.227;  983.825;  150.825;    0.000
244.296;  995.825;  153.825;    0.000
244.365; 1073.825;  195.825;    0.000
244.434; 1010.825;  136.825;    0.000
244.503; 1090.825;  172.825;    0.000
244.572;  982.825;  129.825;    0.000
244.641;  992.825;  132.825;    0.000
244.710; 1021.825;  185.825;    0.000
244.779; 1028.825;  164.825;    0.000
244.848; 1016.825;  132.825;    0.000
244.917; 1032.825;  196.825;    0.000
244.986; 1021.825;  148.825;    0.000
245.055; 1007.825;  192.825;    0.000
245.124;  977.825;  170.825;    0.000
245.193;  991.825;  172.825;    0.000
245.262;  955.825;  146.825;    0.000
245.331;  961.825;  178.825;    0.000
245.400;  904.825;  108.825;    0.000
245.469;  905.825;  173.825;    0.000
245.538;  944.825;  180.825;    0.000
245.607;  962.825;  171.825;    0.000
245.676;  979.825;  149.825;    0.000
245.745;  931.825;  194.825;    0.000
245.814;  885.825;  186.825;    0.000
245.883;  931.825;  192.825;    0.000
245.952;  904.825;  169.825;    0.000
246.021;  908.825;  190.825;    0.000
246.090;  902.825;  181.825;    0.000
246.159;  871.825;  179.825;    0.000
246.227;  854.825;  182.825;    0.000
246.296;  895.825;  182.825;    0.000
246.365;  921.825;  171.825;    0.000
246.434;  932.825;  218.825;    0.000
246.503;  856.825;  147.825;    0.000
246.572;  986.825;  227.825;    0.000
246.641;  896.825;  193.825;    0.000
246.710;  919.825;  207.825;    0.000
246.779;  857.825;  181.825;    0.000
246.847;  873.825;  179.825;    0.000
246.916;  902.825;  155.825;    0.000
246.985;  947.825;  168.825;    0.000
247.054;  876.825;  137.825;    0.000
247.123;  875.825;  128.825;    0.000
247.192;  835.825;  163.825;    0.000
247.260;  870.825;  173.825;    0.000
247.329;  878.825;  174.825;    0.000
247.398;  865.825;  238.825;    0.000
247.467;  862.825;  168.825;    0.000
247.536;  948.825;  203.825;    0.000
247.604;  932.825;  194.825;    0.000
247.673;  838.825;  145.825;    0.000
247.742;  843.825;  167.825;    0.000
247.811;  852.825;  180.825;    0.000
247.879;  891.825;  187.825;    0.000
247.948;  891.825;  187.825;    0.000
248.017;  846.825;  170.825;    0.000
248.086;  894.825;  223.825;    0.000
248.154;  877.825;  160.825;    0.000
248.223;  858.825;  163.825;    0.000
248.292;  870.825;  201.825;    0.000
248.361;  864.825;  205.825;    0.000
248.429;  800.825;  191.825;    0.000
248.498;  847.825;  194.825;    0.000
248.567;  820.825;  217.825;    0.000
248.635;  892.825;  224.825;    0.000
248.704;  849.825;  204.825;    0.000
248.773;  791.825;  175.825;    0.000
248.841;  884.825;  157.825;    0.000
248.910;  855.825;  206.825;    0.000
248.979;  789.825;  170.825;    0.000
249.047;  879.825;  178.825;    0.000
249.116;  836.825;  183.825;    0.000
249.185;  845.825;  202.825;    0.000
249.253;  814.825;  159.825;    0.000
249.322;  913.825;  177.825;    0.000
249.390;  820.825;  157.825;    0.000
249.459;  913.825;  211.825;    0.000
249.528;  883.825;  181.825;    0.000
249.596;  860.825;  179.825;    0.000
249.665;  823.825;  176.825;    0.000
249.733;  745.825;  186.825;    0.000
249.802;  861.825;  185.825;    0.000
249.871;  868.825;  166.825;    0.000
249.939;  795.825;  163.825;    0.000
250.008;  812.825;  212.825;    0.000
250.076;  841.825;  227.825;    0.000
250.145;  849.825;  172.825;    0.000
250.213;  787.825;  173.825;    0.000
250.282;  834.825;  189.825;    0.000
250.350;  789.825;  166.825;    0.000
250.419;  803.825;  161.825;    0.000
250.487;  851.825;  178.825;    0.000
250.556;  834.825;  208.825;    0.000
250.624;  790.825;  190.825;    0.000
250.693;  757.825;  163.825;    0.000
250.761;  804.825;  194.825;    0.000
250.830;  796.825;  225.825;    0.000
250.898;  776.825;  140.825;    0.000
250.967;  742.825;  167.825;    0.000
251.035;  771.825;  155.825;    0.000
251.104;  777.825;  189.825;    0.000
251.172;  839.825;  136.825;    0.000
251.241;  767.825;  148.825;    0.000
251.309;  808.825;  201.825;    0.000
251.378;  774.825;  169.825;    0.000
251.446;  763.825;  178.825;    0.000
251.514;  840.825;  206.825;    0.000
251.583;  768.825;  178.825;    0.000
251.651;  719.825;  168.825;    0.000
251.720;  798.825;  190.825;    0.000
251.788;  802.825;  209.825;    0.000
251.856;  753.825;  173.825;    0.000
251.925;  837.825;  171.825;    0.000
251.993;  824.825;  188.825;    0.000
252.062;  774.825;  169.825;    0.000
252.130;  784.825;  196.825;    0.000
252.198;  775.825;  210.825;    0.000
252.267;  759.825;  181.825;    0.000
252.335;  775.825;  164.825;    0.000
252.403;  748.825;  152.825;    0.000
252.472;  803.825;  166.825;    0.000
252.540;  770.825;  189.825;    0.000
252.608;  732.825;  198.825;    0.000
252.677;  756.825;  156.825;    0.000
252.745;  721.825;  184.825;    0.000
252.813;  716.825;  163.825;    0.000
252.881;  720.825;  130.825;    0.000
252.950;  669.825;  189.825;    0.000
253.018;  681.825;  164.825;    0.000
253.086;  679.825;  172.825;    0.000
253.155;  617.825;  205.825;    0.000
253.223;  619.825;  175.825;    0.000
253.291;  647.825;  176.825;    0.000
253.359;  583.825;  182.825;    0.000
253.428;  654.825;  222.825;    0.000
253.496;  631.825;  166.825;    0.000
253.564;  598.825;  135.825;    0.000
253.632;  608.825;  184.825;    0.000
253.700;  586.825;  173.825;    0.000
253.769;  612.825;  163.825;    0.000
253.837;  602.825;  179.825;    0.000
253.905;  614.825;  157.825;    0.000
253.973;  621.825;  164.825;    0.000
254.041;  620.825;  170.825;    0.000
254.110;  597.825;  169.825;    0.000
254.178;  598.825;  165.825;    0.000
254.246;  622.825;  126.825;    0.000
254.314;  585.825;  166.825;    0.000
254.382;  605.825;  169.825;    0.000
254.450;  577.825;  170.825;    0.000
254.518;  608.825;  196.825;    0.000
254.587;  598.825;  161.825;    0.000
254.655;  637.825;  187.825;    0.000
254.723;  587.825;  144.825;    0.000
254.791;  625.825;  175.825;    0.000
254.859;  627.825;  168.825;    0.000
254.927;  592.825;  198.825;    0.000
254.995;  617.825;  165.825;    0.000
255.063;  620.825;  150.825;    0.000
255.131;  623.825;  181.825;    0.000
255.199;  672.825;  160.825;    0.000
255.267;  591.825;  131.825;    0.000
255.336;  623.825;  188.825;    0.000
255.404;  629.825;  163.825;    0.000
255.472;  648.825;  192.825;    0.000
255.540;  627.825;  158.825;    0.000
255.608;  638.825;  147.825;    0.000
255.676;  642.825;  166.825;    0.000
255.744;  691.825;  159.825;    0.000
255.812;  649.825;  164.825;    0.000
255.880;  690.825;  195.825;    0.000
255.948;  634.825;  167.825;    0.000
256.016;  664.825;  185.825;    0.000
256.084;  702.825;  191.825;    0.000
256.152;  685.825;  214.825;    0.000
256.220;  670.825;  195.825;    0.000
256.288;  670.825;  185.825;    0.000
256.356;  667.825;  168.825;    0.000
256.424;  686.825;  161.825;    0.000
256.491;  725.825;  161.825;    0.000
256.559;  678.825;  157.825;    0.000
256.627;  706.825;  164.825;    0.000
256.695;  612.825;  146.825;    0.000
256.763;  714.825;  194.825;    0.000
256.831;  745.825;  182.825;    0.000
256.899;  708.825;  192.825;    0.000
256.967;  734.825;  172.825;    0.000
257.035;  757.825;  169.825;    0.000
257.103;  798.825;  223.825;    0.000
257.171;  751.825;  141.825;    0.000
257.238;  709.825;  146.825;    0.000
257.306;  806.825;  180.825;    0.000
257.374;  777.825;  138.825;    0.000
257.442;  792.825;  135.825;    0.000
257.510;  776.825;  130.825;    0.000
257.578;  805.825;  123.825;    0.000
257.646;  850.825;  162.825;    0.000
257.713;  815.825;  149.825;    0.000
257.781;  801.825;  125.825;    0.000
257.849;  843.825;  149.825;    0.000
257.917;  789.825;  177.825;    0.000
257.985;  838.825;  143.825;    0.000
258.052;  892.825;  154.825;    0.000
258.120;  873.825;  162.825;    0.000
258.188;  864.825;  172.825;    0.000
258.256;  825.825;  160.825;    0.000
258.324;  914.825;  209.825;    0.000
258.391;  881.825;  153.825;    0.000
258.459;  929.825;  133.825;    0.000
258.527;  965.825;  160.825;    0.000
258.595;  927.825;  128.825;    0.000
258.662;  892.825;  114.825;    0.000
258.730;  925.825;  192.825;    0.000
258.798;  965.825;  144.825;    0.000
258.865;  999.825;  140.825;    0.000
258.933; 1048.825;  150.825;    0.000
259.001;  999.825;  149.825;    0.000
259.069;  961.825;  110.825;    0.000
259.136; 1011.825;  150.825;    0.000
259.204; 1054.825;  156.825;    0.000
259.272; 1025.825;  185.825;    0.000
259.339; 1096.825;  148.825;    0.000
259.407; 1087.825;  163.825;    0.000
259.475; 1030.825;  129.825;    0.000
259.542; 1050.825;  144.825;    0.000
259.610; 1105.825;  164.825;    0.000
259.677; 1131.825;  188.825;    0.000
259.745; 1132.825;  113.825;    0.000
259.813; 1194.825;  188.825;    0.000
259.880; 1196.825;  174.825;    0.000
259.948; 1205.825;  166.825;    0.000
260.016; 1170.825;  150.825;    0.000
260.083; 1247.825;  178.825;    0.000
260.151; 1192.825;  120.825;    0.000
260.218; 1185.825;  175.825;    0.000
260.286; 1247.825;  155.825;    0.000
260.353; 1238.825;  165.825;    0.000
260.421; 1244.825;  169.825;    0.000
260.489; 1235.825;  194.825;    0.000
260.556; 1219.825;  161.825;    0.000
260.624; 1266.825;  179.825;    0.000
260.691; 1312.825;  174.825;    0.000
260.759; 1389.825;  164.825;    0.000
260.826; 1310.825;  125.825;    0.000
260.894; 1308.825;  164.825;    0.000
260.961; 1426.825;  147.825;    0.000
261.029; 1419.825;  167.825;    0.000
261.096; 1395.825;  136.825;    0.000
261.164; 1428.825;  146.825;    0.000
261.231; 1351.825;  190.825;    0.000
261.299; 1474.825;  171.825;    0.000
261.366; 1438.825;  165.825;    0.000
261.434; 1488.825;  160.825;    0.000
261.501; 1505.825;  149.825;    0.000
261.568; 1486.825;  155.825;    0.000
261.636; 1496.825;  137.825;    0.000
261.703; 1546.825;  186.825;    0.000
261.771; 1545.825;  162.825;    0.000
261.838; 1523.825;  190.825;    0.000
261.906; 1528.825;  133.825;    0.000
261.973; 1597.825;  202.825;    0.000
262.040; 1588.825;  179.825;    0.000
262.108; 1611.825;  161.825;    0.000
262.175; 1618.825;  155.825;    0.000
262.243; 1639.825;  158.825;    0.000
262.310; 1693.825;  129.825;    0.000
262.377; 1661.825;  157.825;    0.000
262.445; 1734.825;  132.825;    0.000
262.512; 1724.825;  161.825;    0.000
262.579; 1746.825;  151.825;    0.000
262.647; 1675.825;  174.825;    0.000
262.714; 1705.825;  174.825;    0.000
262.781; 1752.825;  164.825;    0.000
262.849; 1707.825;  168.825;    0.000
262.916; 1682.825;  153.825;    0.000
262.983; 1778.825;  201.825;    0.000
263.051; 1789.825;  117.825;    0.000
263.118; 1793.825;  150.825;    0.000
263.185; 1774.825;  172.825;    0.000
263.252; 1810.825;  154.825;    0.000
263.320; 1942.825;  152.825;    0.000
263.387; 1855.825;  136.825;    0.000
263.454; 1833.825;  167.825;    0.000
263.522; 1802.825;  122.825;    0.000
263.589; 1938.825;  147.825;    0.000
263.656; 1850.825;  130.825;    0.000
263.723; 1926.825;  182.825;    0.000
263.790; 1935.825;  163.825;    0.000
263.858; 1994.825;  161.825;    0.000
263.925; 2008.825;  153.825;    0.000
263.992; 1928.825;  139.825;    0.000
264.059; 1922.825;  141.825;    0.000
264.126; 1984.825;  153.825;    0.000
264.194; 1936.825;  144.825;    0.000
264.261; 1975.825;  188.825;    0.000
264.328; 2013.825;  161.825;    0.000
264.395; 2006.825;  184.825;    0.000
264.462; 2123.825;  162.825;    0.000
264.529; 2031.825;  178.825;    0.000
264.597; 2050.825;  160.825;    0.000
264.664; 2033.825;  158.825;    0.000
264.731; 2102.825;  176.825;    0.000
264.798; 2054.825;  137.825;    0.000
264.865; 2032.825;  175.825;    0.000
264.932; 2046.825;  162.825;    0.000
264.999; 2205.825;  153.825;    0.000
265.066; 2132.825;  168.825;    0.000
265.133; 2122.825;  142.825;    0.000
265.201; 2149.825;  163.825;    0.000
265.268; 2168.825;  143.825;    0.000
265.335; 2125.825;  156.825;    0.000
265.402; 2107.825;  136.825;    0.000
265.469; 2222.825;  127.825;    0.000
265.536; 2121.825;  159.825;    0.000
265.603; 2285.825;  191.825;    0.000
265.670; 2169.825;  136.825;    0.000
265.737; 2272.825;  186.825;    0.000
265.804; 2212.825;  147.825;    0.000
265.871; 2323.825;  147.825;    0.000
265.938; 2269.825;  153.825;    0.000
266.005; 2279.825;  172.825;    0.000
266.072; 2293.825;  151.825;    0.000
266.139; 2403.825;  175.825;    0.000
266.206; 2220.825;  165.825;    0.000
266.273; 2309.825;  162.825;    0.000
266.340; 2312.825;  150.825;    0.000
266.407; 2361.825;  169.825;    0.000
266.474; 2446.825;  151.825;    0.000
266.541; 2365.825;  164.825;    0.000
266.608; 2337.825;  111.825;    0.000
266.675; 2393.825;  173.825;    0.000
266.742; 2369.825;  148.825;    0.000
266.808; 2382.825;  185.825;    0.000
266.875; 2379.825;  188.825;    0.000
266.942; 2443.825;  131.825;    0.000
267.009; 2389.825;  184.825;    0.000
267.076; 2355.825;  200.825;    0.000
267.143; 2482.825;  216.825;    0.000
267.210; 2388.825;  138.825;    0.000
267.277; 2528.825;  143.825;    0.000
267.344; 2467.825;  172.825;    0.000
267.410; 2476.825;  172.825;    0.000
267.477; 2486.825;  160.825;    0.000
267.544; 2511.825;  175.825;    0.000
267.611; 2535.825;  189.825;    0.000
267.678; 2474.825;  162.825;    0.000
267.745; 2545.825;  206.825;    0.000
267.811; 2410.825;  146.825;    0.000
267.878; 2484.825;  147.825;    0.000
267.945; 2542.825;  170.825;    0.000
268.012; 2488.825;  153.825;    0.000
268.079; 2517.825;  185.825;    0.000
268.145; 2466.825;  197.825;    0.000
268.212; 2465.825;  167.825;    0.000
268.279; 2474.825;  145.825;    0.000
268.346; 2523.825;  182.825;    0.000
268.412; 2495.825;  144.825;    0.000
268.479; 2530.825;  186.825;    0.000
268.546; 2497.825;  147.825;    0.000
268.613; 2520.825;  188.825;    0.000
268.679; 2528.825;  173.825;    0.000
268.746; 2554.825;  204.825;    0.000
268.813; 2412.825;  199.825;    0.000
268.879; 2425.825;  157.825;    0.000
268.946; 2559.825;  192.825;    0.000
269.013; 2545.825;  136.825;    0.000
269.079; 2526.825;  166.825;    0.000
269.146; 2505.825;  129.825;    0.000
269.213; 2615.825;  178.825;    0.000
269.280; 2472.825;  148.825;    0.000
269.346; 2575.825;  194.825;    0.000
269.413; 2546.825;  135.825;    0.000
269.479; 2419.825;  180.825;    0.000
269.546; 2416.825;  169.825;    0.000
269.613; 2509.825;  160.825;    0.000
269.679; 2444.825;  161.825;    0.000
269.746; 2470.825;  143.825;    0.000
269.813; 2484.825;  172.825;    0.000
269.879; 2555.825;  152.825;    0.000
269.946; 2469.825;  156.825;    0.000
270.012; 2499.825;  190.825;    0.000
270.079; 2450.825;  143.825;    0.000
270.145; 2475.825;  148.825;    0.000
270.212; 2454.825;  176.825;    0.000
270.279; 2441.825;  168.825;    0.000
270.345; 2480.825;  143.825;    0.000
270.412; 2452.825;  155.825;    0.000
270.478; 2356.825;  176.825;    0.000
270.545; 2470.825;  112.825;    0.000
270.611; 2527.825;  186.825;    0.000
270.678; 2391.825;  141.825;    0.000
270.744; 2379.825;  145.825;    0.000
270.811; 2479.825;  120.825;    0.000
270.877; 2472.825;  118.825;    0.000
270.944; 2470.825;  135.825;    0.000
271.010; 2522.825;  128.825;    0.000
271.077; 2446.825;  176.825;    0.000
271.143; 2430.825;  162.825;    0.000
271.210; 2451.825;  133.825;    0.000
271.276; 2504.825;  107.825;    0.000
271.342; 2502.825;  202.825;    0.000
271.409; 2482.825;  160.825;    0.000
271.475; 2414.825;  165.825;    0.000
271.542; 2368.825;  152.825;    0.000
271.608; 2395.825;  163.825;    0.000
271.675; 2376.825;  149.825;    0.000
271.741; 2422.825;  164.825;    0.000
271.807; 2382.825;  128.825;    0.000
271.874; 2419.825;  148.825;    0.000
271.940; 2480.825;  179.825;    0.000
272.007; 2495.825;  148.825;    0.000
272.073; 2478.825;  146.825;    0.000
272.139; 2454.825;  166.825;    0.000
272.206; 2532.825;  198.825;    0.000
272.272; 2413.825;  201.825;    0.000
272.338; 2378.825;  208.825;    0.000
272.405; 2464.825;  181.825;    0.000
272.471; 2440.825;  167.825;    0.000
272.537; 2383.825;  189.825;    0.000
272.604; 2453.825;  162.825;    0.000
272.670; 2432.825;  194.825;    0.000
272.736; 2443.825;  176.825;    0.000
272.802; 2537.825;  163.825;    0.000
272.869; 2440.825;  170.825;    0.000
272.935; 2459.825;  145.825;    0.000
273.001; 2451.825;  149.825;    0.000
273.068; 2408.825;  172.825;    0.000
273.134; 2483.825;  155.825;    0.000
273.200; 2575.825;  183.825;    0.000
273.266; 2428.825;  160.825;    0.000
273.333; 2554.825;  190.825;    0.000
273.399; 2415.825;  132.825;    0.000
273.465; 2472.825;  179.825;    0.000
273.531; 2452.825;  161.825;    0.000
273.597; 2531.825;  194.825;    0.000
273.664; 2538.825;  193.825;    0.000
273.730; 2486.825;  180.825;    0.000
273.796; 2529.825;  145.825;    0.000
273.862; 2629.825;  176.825;    0.000
273.928; 2528.825;  169.825;    0.000
273.995; 2564.825;  202.825;    0.000
274.061; 2540.825;  176.825;    0.000
274.127; 2541.825;  178.825;    0.000
274.193; 2501.825;  106.825;    0.000
274.259; 2437.825;  186.825;    0.000
274.325; 2493.825;  163.825;    0.000
274.391; 2597.825;  162.825;    0.000
274.457; 2599.825;  145.825;    0.000
274.524; 2681.825;  189.825;    0.000
274.590; 2637.825;  161.825;    0.000
274.656; 2625.825;  157.825;    0.000
274.722; 2705.825;  143.825;    0.000
274.788; 2712.825;  166.825;    0.000
274.854; 2793.825;  200.825;    0.000
274.920; 2749.825;  132.825;    0.000
274.986; 2735.825;  184.825;    0.000
275.052; 2737.825;  169.825;    0.000
275.118; 2751.825;  153.825;    0.000
275.184; 2759.825;  182.825;    0.000
275.250; 2699.825;  124.825;    0.000
275.316; 2798.825;  154.825;    0.000
275.382; 2891.825;  150.825;    0.000
275.448; 2808.825;  180.825;    0.000
275.514; 2892.825;  143.825;    0.000
275.580; 2864.825;  120.825;    0.000
275.646; 2792.825;  127.825;    0.000
275.712; 2868.825;  109.825;    0.000
275.778; 2917.825;  126.825;    0.000
275.844; 3025.825;  155.825;    0.000
275.910; 3003.825;  164.825;    0.000
275.976; 3157.825;  161.825;    0.000
276.042; 3037.825;  152.825;    0.000
276.108; 3115.825;  159.825;    0.000
276.174; 3097.825;  149.825;    0.000
276.240; 3136.825;  112.825;    0.000
276.306; 3241.825;  142.825;    0.000
276.372; 3241.825;  136.825;    0.000
276.437; 3250.825;  141.825;    0.000
276.503; 3281.825;  150.825;    0.000
276.569; 3307.825;  178.825;    0.000
276.635; 3401.825;  117.825;    0.000
276.701; 3587.825;  174.825;    0.000
276.767; 3436.825;  136.825;    0.000
276.833; 3593.825;  119.825;    0.000
276.899; 3638.825;  171.825;    0.000
276.964; 3827.825;  146.825;    0.000
277.030; 3862.825;  157.825;    0.000
277.096; 3965.825;  124.825;    0.000
277.162; 4061.825;  185.825;    0.000
277.228; 4168.825;  125.825;    0.000
277.293; 4212.825;  159.825;    0.000
277.359; 4342.825;  186.825;    0.000
277.425; 4617.825;  176.825;    0.000
277.491; 4881.825;  140.825;    0.000
277.557; 5801.825;  172.825;    0.000
277.622; 7477.825;  187.825;    0.000
277.688; 7524.825;  203.825;    0.000
277.754; 7719.825;  170.825;    0.000
277.820; 8325.825;  142.825;    0.000
277.885;10043.825;  182.825;    0.000
277.951;12245.825;  171.825;    0.000
278.017;10495.825;  173.825;    0.000
278.083; 9230.825;  151.825;    0.000
278.148; 8835.825;  159.825;    0.000
278.214; 8994.825;  173.825;    0.000
278.280; 9601.825;  137.825;    0.000
278.345; 8612.825;  190.825;    0.000
278.411; 8134.825;  149.825;    0.000
278.477; 8546.825;  157.825;    0.000
278.542; 8978.825;  136.825;    0.000
278.608; 9619.825;  144.825;    0.000
278.674;10591.825;  215.825;    0.000
278.739;11820.825;  148.825;    0.000
278.805;13582.825;  152.825;    0.000
278.871;16060.825;  170.825;    0.000
278.936;20612.824;  180.825;    0.000
279.002;31354.824;  177.825;    0.000
279.067;41105.824;  172.825;    0.000
279.133;39348.824;  160.825;    0.000
279.199;35323.824;  165.825;    0.000
279.264;36401.824;  130.825;    0.000
279.330;42806.824;  154.825;    0.000
279.395;55163.824;  170.825;    0.000
279.461;65305.824;  136.825;    0.000
279.527;65305.824;  174.825;    0.000
279.592;65305.824;  179.825;    0.000
279.658;62192.824;  187.825;    0.000
279.723;60274.824;  201.825;    0.000
279.789;62798.824;  194.825;    0.000
279.854;56229.824;  171.825;    0.000
279.920;45898.824;  183.825;    0.000
279.985;42271.824;  173.825;    0.000
280.051;42760.824;  194.825;    0.000
280.116;50456.824;  197.825;    0.000
280.182;65305.824;  171.825;    0.000
280.247;65305.824;  131.825;    0.000
280.313;63742.824;  166.825;    0.000
280.378;45549.824;  159.825;    0.000
280.444;33285.824;  190.825;    0.000
280.509;25956.824;  189.825;    0.000
280.574;21501.824;  171.825;    0.000
280.640;18572.824;  167.825;    0.000
280.705;16593.824;  129.825;    0.000
280.771;15063.825;  193.825;    0.000
280.836;13593.825;  172.825;    0.000
280.902;12523.825;  189.825;    0.000
280.967;11631.825;  143.825;    0.000
281.032;11005.825;  182.825;    0.000
281.098;10390.825;  172.825;    0.000
281.163; 9707.825;  184.825;    0.000
281.229; 9392.825;  210.825;    0.000
281.294; 8936.825;  223.825;    0.000
281.359; 8529.825;  197.825;    0.000
281.425; 8284.825;  192.825;    0.000
281.490; 7948.825;  162.825;    0.000
281.555; 7687.825;  193.825;    0.000
281.621; 7365.825;  141.825;    0.000
281.686; 7177.825;  166.825;    0.000
281.751; 6939.825;  204.825;    0.000
281.816; 6627.825;  159.825;    0.000
281.882; 6640.825;  146.825;    0.000
281.947; 6307.825;  176.825;    0.000
282.012; 6177.825;  139.825;    0.000
282.078; 6116.825;  186.825;    0.000
282.143; 5968.825;  151.825;    0.000
282.208; 5983.825;  213.825;    0.000
282.273; 5732.825;  160.825;    0.000
282.339; 5611.825;  175.825;    0.000
282.404; 5437.825;  157.825;    0.000
282.469; 5385.825;  185.825;    0.000
282.534; 5324.825;  166.825;    0.000
282.600; 5185.825;  168.825;    0.000
282.665; 5136.825;  167.825;    0.000
282.730; 5251.825;  148.825;    0.000
282.795; 4983.825;  186.825;    0.000
282.860; 5037.825;  161.825;    0.000
282.926; 5081.825;  178.825;    0.000
282.991; 4919.825;  139.825;    0.000
283.056; 4836.825;  158.825;    0.000
283.121; 4840.825;  191.825;    0.000
283.186; 4865.825;  182.825;    0.000
283.251; 4787.825;  181.825;    0.000
283.316; 4832.825;  187.825;    0.000
283.382; 4777.825;  175.825;    0.000
283.447; 4807.825;  183.825;    0.000
283.512; 4569.825;  175.825;    0.000
283.577; 4502.825;  180.825;    0.000
283.642; 4611.825;  193.825;    0.000
283.707; 4545.825;  145.825;    0.000
283.772; 4574.825;  143.825;    0.000
283.837; 4595.825;  143.825;    0.000
283.902; 4432.825;  150.825;    0.000
283.967; 4430.825;  166.825;    0.000
284.032; 4553.825;  126.825;    0.000
284.097; 4580.825;  201.825;    0.000
284.163; 4534.825;  133.825;    0.000
284.228; 4363.825;  193.825;    0.000
284.293; 4464.825;  157.825;    0.000
284.358; 4639.825;  185.825;    0.000
284.423; 4481.825;  142.825;    0.000
284.488; 4704.825;  192.825;    0.000
284.553; 4784.825;  146.825;    0.000
284.618; 4667.825;  154.825;    0.000
284.683; 5034.825;  172.825;    0.000
284.748; 5149.825;  195.825;    0.000
284.812; 5453.825;  190.825;    0.000
284.877; 5857.825;  169.825;    0.000
284.942; 6600.825;  195.825;    0.000
285.007; 8030.825;  204.825;    0.000
285.072;11113.825;  189.825;    0.000
285.137;19189.824;  149.825;    0.000
285.202;25225.824;  164.825;    0.000
285.267;20697.824;  161.825;    0.000
285.332;13196.825;  140.825;    0.000
285.397; 9705.825;  142.825;    0.000
285.462; 7983.825;  146.825;    0.000
285.527; 6961.825;  132.825;    0.000
285.591; 6193.825;  160.825;    0.000
285.656; 5791.825;  136.825;    0.000
285.721; 5429.825;  135.825;    0.000
285.786; 5248.825;  171.825;    0.000
285.851; 4947.825;  168.825;    0.000
285.916; 4741.825;  178.825;    0.000
285.981; 4866.825;  152.825;    0.000
286.045; 4639.825;  167.825;    0.000
286.110; 4631.825;  187.825;    0.000
286.175; 4436.825;  162.825;    0.000
286.240; 4563.825;  163.825;    0.000
286.305; 4538.825;  190.825;    0.000
286.369; 4344.825;  143.825;    0.000
286.434; 4326.825;  185.825;    0.000
286.499; 4225.825;  195.825;    0.000
286.564; 4212.825;  173.825;    0.000
286.628; 4150.825;  159.825;    0.000
286.693; 4173.825;  175.825;    0.000
286.758; 4116.825;  170.825;    0.000
286.823; 4085.825;  129.825;    0.000
286.887; 4175.825;  172.825;    0.000
286.952; 4044.825;  163.825;    0.000
287.017; 4097.825;  217.825;    0.000
287.082; 4001.825;  165.825;    0.000
287.146; 3989.825;  176.825;    0.000
287.211; 3992.825;  192.825;    0.000
287.276; 3969.825;  147.825;    0.000
287.340; 3913.825;  162.825;    0.000
287.405; 3923.825;  196.825;    0.000
287.470; 3921.825;  148.825;    0.000
287.534; 4043.825;  166.825;    0.000
287.599; 3959.825;  193.825;    0.000
287.663; 3961.825;  191.825;    0.000
287.728; 3864.825;  146.825;    0.000
287.793; 3997.825;  234.825;    0.000
287.857; 3976.825;  177.825;    0.000
287.922; 3838.825;  166.825;    0.000
287.987; 4001.825;  169.825;    0.000
288.051; 4021.825;  169.825;    0.000
288.116; 4025.825;  187.825;    0.000
288.180; 4029.825;  200.825;    0.000
288.245; 3998.825;  201.825;    0.000
288.309; 3879.825;  176.825;    0.000
288.374; 4021.825;  162.825;    0.000
288.439; 3945.825;  195.825;    0.000
288.503; 3819.825;  162.825;    0.000
288.568; 3864.825;  228.825;    0.000
288.632; 3916.825;  194.825;    0.000
288.697; 3905.825;  173.825;    0.000
288.761; 3837.825;  153.825;    0.000
288.826; 3742.825;  151.825;    0.000
288.890; 3841.825;  208.825;    0.000
288.955; 3923.825;  159.825;    0.000
289.019; 3877.825;  198.825;    0.000
289.084; 3845.825;  152.825;    0.000
289.148; 3822.825;  171.825;    0.000
289.212; 3839.825;  184.825;    0.000
289.277; 3796.825;  165.825;    0.000
289.341; 3783.825;  207.825;    0.000
289.406; 3717.825;  156.825;    0.000
289.470; 3824.825;  191.825;    0.000
289.535; 3850.825;  222.825;    0.000
289.599; 3841.825;  214.825;    0.000
289.663; 3838.825;  183.825;    0.000
289.728; 3707.825;  192.825;    0.000
289.792; 3749.825;  197.825;    0.000
289.857; 3790.825;  221.825;    0.000
289.921; 3789.825;  177.825;    0.000
289.985; 3768.825;  177.825;    0.000
290.050; 3676.825;  178.825;    0.000
290.114; 3687.825;  112.825;    0.000
290.178; 3804.825;  170.825;    0.000
290.243; 3723.825;  162.825;    0.000
290.307; 3849.825;  178.825;    0.000
290.371; 3787.825;  141.825;    0.000
290.436; 3822.825;  178.825;    0.000
290.500; 3717.825;  135.825;    0.000
290.564; 3804.825;  199.825;    0.000
290.629; 3679.825;  165.825;    0.000
290.693; 3836.825;  154.825;    0.000
290.757; 3772.825;  159.825;    0.000
290.821; 3919.825;  179.825;    0.000
290.886; 3781.825;  141.825;    0.000
290.950; 3804.825;  166.825;    0.000
291.014; 3825.825;  169.825;    0.000
291.078; 3839.825;  191.825;    0.000
291.143; 3952.825;  169.825;    0.000
291.207; 3893.825;  164.825;    0.000
291.271; 3881.825;  193.825;    0.000
291.335; 3919.825;  150.825;    0.000
291.399; 4056.825;  175.825;    0.000
291.464; 4235.825;  128.825;    0.000
291.528; 4543.825;  162.825;    0.000
291.592; 4265.825;  152.825;    0.000
291.656; 4390.825;  175.825;    0.000
291.720; 4131.825;  173.825;    0.000
291.784; 4010.825;  192.825;    0.000
291.849; 4140.825;  159.825;    0.000
291.913; 3993.825;  174.825;    0.000
291.977; 3954.825;  177.825;    0.000
292.041; 4048.825;  188.825;    0.000
292.105; 4132.825;  174.825;    0.000
292.169; 4189.825;  143.825;    0.000
292.233; 4149.825;  149.825;    0.000
292.297; 4260.825;  176.825;    0.000
292.361; 4233.825;  178.825;    0.000
292.425; 4419.825;  153.825;    0.000
292.490; 4551.825;  185.825;    0.000
292.554; 4729.825;  144.825;    0.000
292.618; 4881.825;  166.825;    0.000
292.682; 5355.825;  181.825;    0.000
292.746; 6174.825;  152.825;    0.000
292.810; 8220.825;  208.825;    0.000
292.874;10175.825;  142.825;    0.000
292.938;10321.825;  195.825;    0.000
293.002; 9008.825;  156.825;    0.000
293.066; 8160.825;  108.825;    0.000
293.130; 7425.825;  136.825;    0.000
293.194; 7066.825;  135.825;    0.000
293.258; 6843.825;  187.825;    0.000
293.322; 6627.825;  148.825;    0.000
293.386; 6905.825;  186.825;    0.000
293.450; 7381.825;  196.825;    0.000
293.514; 8308.825;  175.825;    0.000
293.577;11126.825;  137.825;    0.000
293.641;15080.825;  142.825;    0.000
293.705;16073.825;  201.825;    0.000
293.769;14209.825;  150.825;    0.000
293.833;12183.825;  147.825;    0.000
293.897;10538.825;  170.825;    0.000
293.961; 9337.825;  121.825;    0.000
294.025; 8535.825;  172.825;    0.000
294.089; 7669.825;  167.825;    0.000
294.152; 7146.825;  167.825;    0.000
294.216; 6716.825;  165.825;    0.000
294.280; 6365.825;  168.825;    0.000
294.344; 6090.825;  160.825;    0.000
294.408; 5789.825;  187.825;    0.000
294.472; 5478.825;  141.825;    0.000
294.536; 5357.825;  184.825;    0.000
294.599; 5259.825;  176.825;    0.000
294.663; 4990.825;  120.825;    0.000
294.727; 4891.825;  159.825;    0.000
294.791; 4766.825;  190.825;    0.000
294.855; 4663.825;  148.825;    0.000
294.918; 4662.825;  160.825;    0.000
294.982; 4570.825;  156.825;    0.000
295.046; 4524.825;  177.825;    0.000
295.110; 4364.825;  149.825;    0.000
295.173; 4378.825;  156.825;    0.000
295.237; 4362.825;  174.825;    0.000
295.301; 4278.825;  152.825;    0.000
295.364; 4185.825;  204.825;    0.000
295.428; 4165.825;  196.825;    0.000
295.492; 4098.825;  178.825;    0.000
295.556; 4098.825;  161.825;    0.000
295.619; 3982.825;  178.825;    0.000
295.683; 3993.825;  152.825;    0.000
295.747; 3949.825;  148.825;    0.000
295.810; 3956.825;  177.825;    0.000
295.874; 3922.825;  146.825;    0.000
295.938; 3934.825;  115.825;    0.000
296.001; 3875.825;  172.825;    0.000
296.065; 3805.825;  146.825;    0.000
296.128; 3907.825;  164.825;    0.000
296.192; 3764.825;  137.825;    0.000
296.256; 3724.825;  143.825;    0.000
296.319; 3940.825;  156.825;    0.000
296.383; 3745.825;  165.825;    0.000
296.447; 3754.825;  170.825;    0.000
296.510; 3755.825;  174.825;    0.000
296.574; 3621.825;  127.825;    0.000
296.637; 3643.825;  132.825;    0.000
296.701; 3631.825;  206.825;    0.000
296.764; 3538.825;  179.825;    0.000
296.828; 3562.825;  213.825;    0.000
296.891; 3533.825;  149.825;    0.000
296.955; 3690.825;  170.825;    0.000
297.018; 3666.825;  185.825;    0.000
297.082; 3442.825;  205.825;    0.000
297.145; 3486.825;  154.825;    0.000
297.209; 3559.825;  200.825;    0.000
297.272; 3566.825;  157.825;    0.000
297.336; 3522.825;  164.825;    0.000
297.399; 3550.825;  166.825;    0.000
297.463; 3502.825;  195.825;    0.000
297.526; 3476.825;  176.825;    0.000
297.590; 3478.825;  198.825;    0.000
297.653; 3516.825;  146.825;    0.000
297.717; 3478.825;  175.825;    0.000
297.780; 3472.825;  139.825;    0.000
297.843; 3563.825;  174.825;    0.000
297.907; 3358.825;  149.825;    0.000
297.970; 3425.825;  161.825;    0.000
298.034; 3552.825;  185.825;    0.000
298.097; 3561.825;  167.825;    0.000
298.160; 3466.825;  195.825;    0.000
298.224; 3476.825;  178.825;    0.000
298.287; 3419.825;  164.825;    0.000
298.350; 3413.825;  194.825;    0.000
298.414; 3373.825;  191.825;    0.000
298.477; 3418.825;  155.825;    0.000
298.540; 3425.825;  139.825;    0.000
298.604; 3344.825;  198.825;    0.000
298.667; 3449.825;  183.825;    0.000
298.730; 3337.825;  185.825;    0.000
298.794; 3372.825;  153.825;    0.000
298.857; 3325.825;  169.825;    0.000
298.920; 3299.825;  159.825;    0.000
298.984; 3345.825;  179.825;    0.000
299.047; 3171.825;  174.825;    0.000
299.110; 3411.825;  144.825;    0.000
299.173; 3303.825;  190.825;    0.000
299.237; 3214.825;  163.825;    0.000
299.300; 3209.825;  153.825;    0.000
299.363; 3148.825;  145.825;    0.000
299.426; 3162.825;  160.825;    0.000
299.489; 3194.825;  173.825;    0.000
299.553; 3070.825;  209.825;    0.000
299.616; 3189.825;  172.825;    0.000
299.679; 3123.825;  204.825;    0.000
299.742; 3070.825;  162.825;    0.000
299.805; 3180.825;  198.825;    0.000
299.868; 3104.825;  176.825;    0.000
299.932; 3197.825;  166.825;    0.000
299.995; 3156.825;  162.825;    0.000
300.058; 3074.825;  175.825;    0.000
300.121; 3137.825;  197.825;    0.000
300.184; 3137.825;  188.825;    0.000
300.247; 3165.825;  181.825;    0.000
300.310; 3131.825;  161.825;    0.000
300.374; 3112.825;  201.825;    0.000
300.437; 3083.825;  156.825;    0.000
300.500; 3097.825;  180.825;    0.000
300.563; 3079.825;  174.825;    0.000
300.626; 3088.825;  206.825;    0.000
300.689; 3067.825;  218.825;    0.000
300.752; 3114.825;  192.825;    0.000
300.815; 3161.825;  172.825;    0.000
300.878; 3118.825;  207.825;    0.000
300.941; 3143.825;  163.825;    0.000
301.004; 3070.825;  171.825;    0.000
301.067; 3124.825;  198.825;    0.000
301.130; 3061.825;  156.825;    0.000
301.193; 3024.825;  173.825;    0.000
301.256; 3014.825;  167.825;    0.000
301.319; 3050.825;  211.825;    0.000
301.382; 3069.825;  167.825;    0.000
301.445; 2967.825;  224.825;    0.000
301.508; 3069.825;  168.825;    0.000
301.571; 3004.825;  161.825;    0.000
301.634; 3046.825;  177.825;    0.000
301.697; 3063.825;  203.825;    0.000
301.760; 3204.825;  190.825;    0.000
301.823; 3035.825;  182.825;    0.000
301.885; 3023.825;  202.825;    0.000
301.948; 2962.825;  200.825;    0.000
302.011; 3082.825;  157.825;    0.000
302.074; 3039.825;  205.825;    0.000
302.137; 3000.825;  149.825;    0.000
302.200; 3048.825;  201.825;    0.000
302.263; 2960.825;  178.825;    0.000
302.326; 2984.825;  184.825;    0.000
302.388; 2998.825;  176.825;    0.000
302.451; 3083.825;  146.825;    0.000
302.514; 2983.825;  192.825;    0.000
302.577; 2959.825;  181.825;    0.000
302.640; 2919.825;  186.825;    0.000
302.703; 3006.825;  164.825;    0.000
302.765; 2912.825;  197.825;    0.000
302.828; 3104.825;  208.825;    0.000
302.891; 2922.825;  168.825;    0.000
302.954; 2980.825;  177.825;    0.000
303.016; 2952.825;  190.825;    0.000
303.079; 2995.825;  216.825;    0.000
303.142; 2925.825;  228.825;    0.000
303.205; 2904.825;  192.825;    0.000
303.267; 2929.825;  182.825;    0.000
303.330; 2975.825;  201.825;    0.000
303.393; 2964.825;  196.825;    0.000
303.456; 2877.825;  184.825;    0.000
303.518; 2919.825;  194.825;    0.000
303.581; 2859.825;  195.825;    0.000
303.644; 2982.825;  184.825;    0.000
303.706; 2913.825;  150.825;    0.000
303.769; 2975.825;  182.825;    0.000
303.832; 2878.825;  143.825;    0.000
303.894; 2946.825;  207.825;    0.000
303.957; 3052.825;  178.825;    0.000
304.020; 2885.825;  203.825;    0.000
304.082; 3028.825;  175.825;    0.000
304.145; 2926.825;  171.825;    0.000
304.207; 2926.825;  157.825;    0.000
304.270; 2893.825;  195.825;    0.000
304.333; 3013.825;  195.825;    0.000
304.395; 3001.825;  197.825;    0.000
304.458; 3000.825;  231.825;    0.000
304.520; 2892.825;  218.825;    0.000
304.583; 2941.825;  177.825;    0.000
304.646; 2871.825;  177.825;    0.000
304.708; 2903.825;  178.825;    0.000
304.771; 2893.825;  143.825;    0.000
304.833; 2845.825;  241.825;    0.000
304.896; 2969.825;  200.825;    0.000
304.958; 2862.825;  176.825;    0.000
305.021; 2826.825;  159.825;    0.000
305.083; 2955.825;  159.825;    0.000
305.146; 2925.825;  190.825;    0.000
305.208; 2925.825;  152.825;    0.000
305.271; 2814.825;  162.825;    0.000
305.333; 2910.825;  219.825;    0.000
305.396; 2966.825;  163.825;    0.000
305.458; 2995.825;  215.825;    0.000
305.520; 2967.825;  174.825;    0.000
305.583; 2918.825;  161.825;    0.000
305.645; 2980.825;  203.825;    0.000
305.708; 2970.825;  163.825;    0.000
305.770; 3022.825;  215.825;    0.000
305.833; 2944.825;  207.825;    0.000
305.895; 2980.825;  166.825;    0.000
305.957; 2933.825;  175.825;    0.000
306.020; 2958.825;  169.825;    0.000
306.082; 2890.825;  203.825;    0.000
306.144; 2869.825;  181.825;    0.000
306.207; 2939.825;  199.825;    0.000
306.269; 2935.825;  177.825;    0.000
306.331; 2914.825;  160.825;    0.000
306.394; 2934.825;  193.825;    0.000
306.456; 2875.825;  136.825;    0.000
306.518; 2854.825;  189.825;    0.000
306.581; 3018.825;  156.825;    0.000
306.643; 2916.825;  190.825;    0.000
306.705; 2906.825;  190.825;    0.000
306.768; 2890.825;  172.825;    0.000
306.830; 2972.825;  214.825;    0.000
306.892; 2956.825;  198.825;    0.000
306.954; 2985.825;  177.825;    0.000
307.017; 3074.825;  183.825;    0.000
307.079; 2884.825;  170.825;    0.000
307.141; 2993.825;  173.825;    0.000
307.203; 3005.825;  171.825;    0.000
307.266; 3035.825;  166.825;    0.000
307.328; 3054.825;  207.825;    0.000
307.390; 3047.825;  201.825;    0.000
307.452; 2963.825;  182.825;    0.000
307.514; 3065.825;  213.825;    0.000
307.577; 2992.825;  213.825;    0.000
307.639; 3104.825;  197.825;    0.000
307.701; 2982.825;  174.825;    0.000
307.763; 3076.825;  181.825;    0.000
307.825; 3033.825;  186.825;    0.000
307.887; 3109.825;  198.825;    0.000
307.949; 3017.825;  158.825;    0.000
308.012; 3070.825;  209.825;    0.000
308.074; 3001.825;  176.825;    0.000
308.136; 3065.825;  227.825;    0.000
308.198; 3029.825;  187.825;    0.000
308.260; 3123.825;  211.825;    0.000
308.322; 3106.825;  206.825;    0.000
308.384; 3095.825;  186.825;    0.000
308.446; 3105.825;  175.825;    0.000
308.508; 3109.825;  211.825;    0.000
308.570; 3134.825;  191.825;    0.000
308.632; 3082.825;  195.825;    0.000
308.694; 3118.825;  173.825;    0.000
308.756; 3083.825;  185.825;    0.000
308.818; 3289.825;  195.825;    0.000
308.880; 3218.825;  189.825;    0.000
308.942; 3242.825;  231.825;    0.000
309.004; 3278.825;  188.825;    0.000
309.066; 3370.825;  196.825;    0.000
309.128; 3269.825;  155.825;    0.000
309.190; 3440.825;  176.825;    0.000
309.252; 3578.825;  191.825;    0.000
309.314; 3756.825;  236.825;    0.000
309.376; 3506.825;  212.825;    0.000
309.438; 3457.825;  201.825;    0.000
309.500; 3461.825;  206.825;    0.000
309.562; 3450.825;  213.825;    0.000
309.624; 3619.825;  196.825;    0.000
309.686; 3814.825;  198.825;    0.000
309.747; 3751.825;  186.825;    0.000
309.809; 3591.825;  215.825;    0.000
309.871; 3466.825;  242.825;    0.000
309.933; 3472.825;  162.825;    0.000
309.995; 3414.825;  163.825;    0.000
310.057; 3514.825;  145.825;    0.000
310.119; 3336.825;  205.825;    0.000
310.180; 3262.825;  195.825;    0.000
310.242; 3273.825;  167.825;    0.000
310.304; 3256.825;  213.825;    0.000
310.366; 3310.825;  224.825;    0.000
310.428; 3265.825;  170.825;    0.000
310.489; 3354.825;  195.825;    0.000
310.551; 3299.825;  207.825;    0.000
310.613; 3297.825;  168.825;    0.000
310.675; 3172.825;  188.825;    0.000
310.737; 3191.825;  211.825;    0.000
310.798; 3290.825;  221.825;    0.000
310.860; 3208.825;  201.825;    0.000
310.922; 3273.825;  206.825;    0.000
310.983; 3231.825;  222.825;    0.000
311.045; 3238.825;  235.825;    0.000
311.107; 3304.825;  184.825;    0.000
311.169; 3209.825;  148.825;    0.000
311.230; 3229.825;  211.825;    0.000
311.292; 3214.825;  235.825;    0.000
311.354; 3132.825;  183.825;    0.000
311.415; 3293.825;  196.825;    0.000
311.477; 3405.825;  200.825;    0.000
311.539; 3177.825;  171.825;    0.000
311.600; 3254.825;  169.825;    0.000
311.662; 3285.825;  231.825;    0.000
311.724; 3233.825;  204.825;    0.000
311.785; 3273.825;  214.825;    0.000
311.847; 3259.825;  193.825;    0.000
311.908; 3216.825;  180.825;    0.000
311.970; 3201.825;  233.825;    0.000
312.032; 3207.825;  192.825;    0.000
312.093; 3209.825;  195.825;    0.000
312.155; 3286.825;  194.825;    0.000
312.216; 3205.825;  238.825;    0.000
312.278; 3095.825;  146.825;    0.000
312.339; 3248.825;  184.825;    0.000
312.401; 3251.825;  201.825;    0.000
312.462; 3196.825;  173.825;    0.000
312.524; 3291.825;  205.825;    0.000
312.585; 3194.825;  199.825;    0.000
312.647; 3231.825;  168.825;    0.000
312.708; 3232.825;  180.825;    0.000
312.770; 3121.825;  180.825;    0.000
312.831; 3262.825;  176.825;    0.000
312.893; 3340.825;  211.825;    0.000
312.954; 3258.825;  178.825;    0.000
313.016; 3125.825;  204.825;    0.000
313.077; 3249.825;  216.825;    0.000
313.139; 3302.825;  172.825;    0.000
313.200; 3171.825;  197.825;    0.000
313.261; 3428.825;  227.825;    0.000
313.323; 3265.825;  204.825;    0.000
313.384; 3253.825;  182.825;    0.000
313.446; 3248.825;  204.825;    0.000
313.507; 3214.825;  164.825;    0.000
313.568; 3263.825;  197.825;    0.000
313.630; 3207.825;  190.825;    0.000
313.691; 3367.825;  185.825;    0.000
313.752; 3199.825;  192.825;    0.000
313.814; 3210.825;  176.825;    0.000
313.875; 3326.825;  210.825;    0.000
313.936; 3364.825;  165.825;    0.000
313.998; 3234.825;  162.825;    0.000
314.059; 3210.825;  178.825;    0.000
314.120; 3282.825;  176.825;    0.000
314.182; 3248.825;  167.825;    0.000
314.243; 3349.825;  204.825;    0.000
314.304; 3226.825;  197.825;    0.000
314.365; 3266.825;  183.825;    0.000
314.427; 3192.825;  176.825;    0.000
314.488; 3265.825;  149.825;    0.000
314.549; 3275.825;  218.825;    0.000
314.610; 3248.825;  160.825;    0.000
314.672; 3122.825;  187.825;    0.000
314.733; 3279.825;  184.825;    0.000
314.794; 3229.825;  164.825;    0.000
314.855; 3246.825;  191.825;    0.000
314.917; 3175.825;  172.825;    0.000
314.978; 3254.825;  185.825;    0.000
315.039; 3280.825;  194.825;    0.000
315.100; 3281.825;  190.825;    0.000
315.161; 3284.825;  185.825;    0.000
315.222; 3220.825;  204.825;    0.000
315.283; 3306.825;  166.825;    0.000
315.345; 3281.825;  133.825;    0.000
315.406; 3257.825;  191.825;    0.000
315.467; 3231.825;  166.825;    0.000
315.528; 3135.825;  194.825;    0.000
315.589; 3238.825;  193.825;    0.000
315.650; 3229.825;  190.825;    0.000
315.711; 3179.825;  219.825;    0.000
315.772; 3192.825;  159.825;    0.000
315.833; 3226.825;  191.825;    0.000
315.894; 3320.825;  202.825;    0.000
315.955; 3245.825;  167.825;    0.000
316.016; 3178.825;  177.825;    0.000
316.078; 3185.825;  185.825;    0.000
316.139; 3204.825;  219.825;    0.000
316.200; 3189.825;  163.825;    0.000
316.261; 3169.825;  183.825;    0.000
316.322; 3178.825;  230.825;    0.000
316.383; 3211.825;  198.825;    0.000
316.444; 3163.825;  209.825;    0.000
316.504; 3147.825;  179.825;    0.000
316.565; 3197.825;  185.825;    0.000
316.626; 3234.825;  155.825;    0.000
316.687; 3176.825;  211.825;    0.000
316.748; 3252.825;  192.825;    0.000
316.809; 3196.825;  183.825;    0.000
316.870; 3179.825;  196.825;    0.000
316.931; 3158.825;  173.825;    0.000
316.992; 3231.825;  179.825;    0.000
317.053; 3065.825;  186.825;    0.000
317.114; 3171.825;  189.825;    0.000
317.175; 3258.825;  226.825;    0.000
317.235; 3118.825;  206.825;    0.000
317.296; 3128.825;  191.825;    0.000
317.357; 3085.825;  173.825;    0.000
317.418; 3160.825;  212.825;    0.000
317.479; 3184.825;  247.825;    0.000
317.540; 3170.825;  205.825;    0.000
317.601; 3117.825;  205.825;    0.000
317.661; 3147.825;  150.825;    0.000
317.722; 3159.825;  198.825;    0.000
317.783; 3107.825;  153.825;    0.000
317.844; 3200.825;  202.825;    0.000
317.904; 3203.825;  180.825;    0.000
317.965; 3148.825;  205.825;    0.000
318.026; 3226.825;  223.825;    0.000
318.087; 3188.825;  218.825;    0.000
318.148; 3127.825;  207.825;    0.000
318.208; 3142.825;  212.825;    0.000
318.269; 3135.825;  174.825;    0.000
318.330; 3194.825;  191.825;    0.000
318.390; 3111.825;  197.825;    0.000
318.451; 3120.825;  167.825;    0.000
318.512; 3100.825;  174.825;    0.000
318.572; 3090.825;  199.825;    0.000
318.633; 3170.825;  233.825;    0.000
318.694; 3202.825;  232.825;    0.000
318.754; 3283.825;  181.825;    0.000
318.815; 3205.825;  199.825;    0.000
318.876; 3142.825;  207.825;    0.000
318.936; 3148.825;  202.825;    0.000
318.997; 3182.825;  182.825;    0.000
319.058; 3220.825;  180.825;    0.000
319.118; 3079.825;  199.825;    0.000
319.179; 3138.825;  199.825;    0.000
319.239; 3129.825;  229.825;    0.000
319.300; 3006.825;  223.825;    0.000
319.361; 3227.825;  210.825;    0.000
319.421; 3086.825;  205.825;    0.000
319.482; 3074.825;  205.825;    0.000
319.542; 3109.825;  176.825;    0.000
319.603; 3098.825;  191.825;    0.000
319.663; 3172.825;  183.825;    0.000
319.724; 3088.825;  174.825;    0.000
319.784; 3126.825;  198.825;    0.000
319.845; 3179.825;  218.825;    0.000
319.905; 3144.825;  217.825;    0.000
319.966; 3111.825;  197.825;    0.000
320.026; 3095.825;  209.825;    0.000
320.087; 3104.825;  225.825;    0.000
320.147; 3078.825;  201.825;    0.000
320.208; 3129.825;  176.825;    0.000
320.268; 3082.825;  168.825;    0.000
320.329; 3042.825;  238.825;    0.000
320.389; 3039.825;  220.825;    0.000
320.449; 3082.825;  230.825;    0.000
320.510; 3097.825;  234.825;    0.000
320.570; 3104.825;  210.825;    0.000
320.631; 3104.825;  207.825;    0.000
320.691; 3064.825;  222.825;    0.000
320.751; 3026.825;  195.825;    0.000
320.812; 3189.825;  193.825;    0.000
320.872; 3219.825;  237.825;    0.000
320.932; 3093.825;  213.825;    0.000
320.993; 3059.825;  185.825;    0.000
321.053; 3156.825;  245.825;    0.000
321.113; 3013.825;  206.825;    0.000
321.174; 3234.825;  202.825;    0.000
321.234; 3153.825;  244.825;    0.000
321.294; 3088.825;  228.825;    0.000
321.355; 3101.825;  208.825;    0.000
321.415; 3157.825;  223.825;    0.000
321.475; 3016.825;  203.825;    0.000
321.535; 3071.825;  230.825;    0.000
321.596; 3027.825;  186.825;    0.000
321.656; 3153.825;  216.825;    0.000
321.716; 3079.825;  207.825;    0.000
321.776; 3089.825;  181.825;    0.000
321.837; 3026.825;  207.825;    0.000
321.897; 3142.825;  225.825;    0.000
321.957; 3071.825;  222.825;    0.000
322.017; 3060.825;  215.825;    0.000
322.077; 3219.825;  250.825;    0.000
322.138; 3040.825;  189.825;    0.000
322.198; 3074.825;  200.825;    0.000
322.258; 3074.825;  217.825;    0.000
322.318; 3007.825;  183.825;    0.000
322.378; 3070.825;  231.825;    0.000
322.438; 2933.825;  228.825;    0.000
322.499; 3064.825;  248.825;    0.000
322.559; 2964.825;  198.825;    0.000
322.619; 3088.825;  221.825;    0.000
322.679; 2966.825;  217.825;    0.000
322.739; 2949.825;  204.825;    0.000
322.799; 2977.825;  236.825;    0.000
322.859; 3083.825;  213.825;    0.000
322.919; 3035.825;  210.825;    0.000
322.979; 3048.825;  244.825;    0.000
323.039; 2985.825;  218.825;    0.000
323.099; 2991.825;  232.825;    0.000
323.159; 3054.825;  216.825;    0.000
323.219; 3084.825;  169.825;    0.000
323.279; 3067.825;  236.825;    0.000
323.339; 3011.825;  243.825;    0.000
323.399; 3088.825;  208.825;    0.000
323.459; 3026.825;  220.825;    0.000
323.519; 3059.825;  228.825;    0.000
323.579; 3064.825;  164.825;    0.000
323.639; 3114.825;  209.825;    0.000
323.699; 3009.825;  188.825;    0.000
323.759; 3058.825;  206.825;    0.000
323.819; 3046.825;  204.825;    0.000
323.879; 3063.825;  222.825;    0.000
323.939; 3028.825;  206.825;    0.000
323.999; 3027.825;  202.825;    0.000
324.059; 2988.825;  245.825;    0.000
324.119; 3040.825;  214.825;    0.000
324.178; 3028.825;  183.825;    0.000
324.238; 3035.825;  193.825;    0.000
324.298; 3040.825;  207.825;    0.000
324.358; 3123.825;  196.825;    0.000
324.418; 3049.825;  193.825;    0.000
324.478; 2967.825;  191.825;    0.000
324.538; 3040.825;  224.825;    0.000
324.597; 3129.825;  187.825;    0.000
324.657; 2944.825;  208.825;    0.000
324.717; 3049.825;  198.825;    0.000
324.777; 2956.825;  159.825;    0.000
324.837; 2917.825;  180.825;    0.000
324.896; 3033.825;  215.825;    0.000
324.956; 3065.825;  210.825;    0.000
325.016; 2927.825;  187.825;    0.000
325.076; 3067.825;  197.825;    0.000
325.135; 3073.825;  226.825;    0.000
325.195; 2983.825;  201.825;    0.000
325.255; 3015.825;  167.825;    0.000
325.315; 2976.825;  217.825;    0.000
325.374; 3098.825;  196.825;    0.000
325.434; 3017.825;  167.825;    0.000
325.494; 3038.825;  214.825;    0.000
325.553; 3026.825;  203.825;    0.000
325.613; 3017.825;  206.825;    0.000
325.673; 2966.825;  148.825;    0.000
325.732; 2975.825;  207.825;    0.000
325.792; 3122.825;  151.825;    0.000
325.852; 2986.825;  195.825;    0.000
325.911; 3041.825;  201.825;    0.000
325.971; 3066.825;  224.825;    0.000
326.031; 3008.825;  201.825;    0.000
326.090; 2988.825;  203.825;    0.000
326.150; 3024.825;  183.825;    0.000
326.209; 3049.825;  226.825;    0.000
326.269; 2940.825;  194.825;    0.000
326.328; 2999.825;  200.825;    0.000
326.388; 2935.825;  177.825;    0.000
326.448; 3053.825;  239.825;    0.000
326.507; 2973.825;  197.825;    0.000
326.567; 2969.825;  161.825;    0.000
326.626; 2980.825;  220.825;    0.000
326.686; 2892.825;  178.825;    0.000
326.745; 3015.825;  167.825;    0.000
326.805; 3035.825;  176.825;    0.000
326.864; 2925.825;  204.825;    0.000
326.924; 2993.825;  218.825;    0.000
326.983; 2845.825;  201.825;    0.000
327.043; 2932.825;  219.825;    0.000
327.102; 2850.825;  202.825;    0.000
327.161; 2945.825;  228.825;    0.000
327.221; 2911.825;  217.825;    0.000
327.280; 2869.825;  188.825;    0.000
327.340; 2907.825;  209.825;    0.000
327.399; 2952.825;  189.825;    0.000
327.459; 2919.825;  216.825;    0.000
327.518; 2912.825;  200.825;    0.000
327.577; 2901.825;  194.825;    0.000
327.637; 2910.825;  180.825;    0.000
327.696; 2911.825;  208.825;    0.000
327.755; 2912.825;  218.825;    0.000
327.815; 2903.825;  234.825;    0.000
327.874; 2983.825;  259.825;    0.000
327.933; 2900.825;  192.825;    0.000
327.993; 2916.825;  208.825;    0.000
328.052; 2891.825;  221.825;    0.000
328.111; 2870.825;  203.825;    0.000
328.171; 2860.825;  221.825;    0.000
328.230; 2839.825;  222.825;    0.000
328.289; 2915.825;  254.825;    0.000
328.349; 2860.825;  232.825;    0.000
328.408; 2954.825;  223.825;    0.000
328.467; 2897.825;  198.825;    0.000
328.526; 2834.825;  217.825;    0.000
328.586; 2854.825;  185.825;    0.000
328.645; 2887.825;  210.825;    0.000
328.704; 2810.825;  211.825;    0.000
328.763; 2751.825;  231.825;    0.000
328.822; 2810.825;  254.825;    0.000
328.882; 2832.825;  216.825;    0.000
328.941; 2908.825;  239.825;    0.000
329.000; 2902.825;  251.825;    0.000
329.059; 2692.825;  227.825;    0.000
329.118; 2840.825;  233.825;    0.000
329.177; 2777.825;  188.825;    0.000
329.237; 2925.825;  257.825;    0.000
329.296; 2918.825;  265.825;    0.000
329.355; 2777.825;  245.825;    0.000
329.414; 2759.825;  236.825;    0.000
329.473; 2789.825;  242.825;    0.000
329.532; 2893.825;  228.825;    0.000
329.591; 2816.825;  206.825;    0.000
329.650; 2845.825;  250.825;    0.000
329.709; 2908.825;  278.825;    0.000
329.768; 2799.825;  219.825;    0.000
329.827; 2843.825;  254.825;    0.000
329.886; 3009.825;  221.825;    0.000
329.945; 2903.825;  239.825;    0.000
330.004; 2897.825;  245.825;    0.000
330.063; 2880.825;  201.825;    0.000
330.122; 3052.825;  227.825;    0.000
330.181; 3159.825;  196.825;    0.000
330.240; 3234.825;  203.825;    0.000
330.299; 3009.825;  214.825;    0.000
330.358; 2945.825;  196.825;    0.000
330.417; 2853.825;  201.825;    0.000
330.476; 2826.825;  248.825;    0.000
330.535; 2828.825;  253.825;    0.000
330.594; 2767.825;  231.825;    0.000
330.653; 2861.825;  210.825;    0.000
330.712; 2819.825;  242.825;    0.000
330.771; 2730.825;  240.825;    0.000
330.830; 2657.825;  230.825;    0.000
330.889; 2746.825;  217.825;    0.000
330.948; 2801.825;  211.825;    0.000
331.006; 2816.825;  217.825;    0.000
331.065; 2714.825;  170.825;    0.000
331.124; 2791.825;  211.825;    0.000
331.183; 2748.825;  192.825;    0.000
331.242; 2793.825;  227.825;    0.000
331.301; 2827.825;  240.825;    0.000
331.359; 2736.825;  223.825;    0.000
331.418; 2882.825;  215.825;    0.000
331.477; 2743.825;  230.825;    0.000
331.536; 2843.825;  221.825;    0.000
331.595; 2688.825;  198.825;    0.000
331.653; 2715.825;  207.825;    0.000
331.712; 2758.825;  217.825;    0.000
331.771; 2758.825;  221.825;    0.000
331.830; 2756.825;  222.825;    0.000
331.888; 2851.825;  213.825;    0.000
331.947; 2686.825;  233.825;    0.000
332.006; 2766.825;  212.825;    0.000
332.065; 2724.825;  200.825;    0.000
332.123; 2733.825;  223.825;    0.000
332.182; 2692.825;  180.825;    0.000
332.241; 2734.825;  192.825;    0.000
332.299; 2692.825;  172.825;    0.000
332.358; 2805.825;  216.825;    0.000
332.417; 2831.825;  211.825;    0.000
332.475; 2813.825;  222.825;    0.000
332.534; 2770.825;  238.825;    0.000
332.592; 2829.825;  216.825;    0.000
332.651; 2865.825;  196.825;    0.000
332.710; 2782.825;  215.825;    0.000
332.768; 2769.825;  193.825;    0.000
332.827; 2846.825;  201.825;    0.000
332.885; 2803.825;  226.825;    0.000
332.944; 2937.825;  174.825;    0.000
333.003; 2848.825;  187.825;    0.000
333.061; 3015.825;  208.825;    0.000
333.120; 2938.825;  202.825;    0.000
333.178; 2996.825;  227.825;    0.000
333.237; 2993.825;  215.825;    0.000
333.295; 3119.825;  245.825;    0.000
333.354; 3062.825;  194.825;    0.000
333.412; 3010.825;  165.825;    0.000
333.471; 3031.825;  219.825;    0.000
333.529; 3095.825;  255.825;    0.000
333.588; 3040.825;  264.825;    0.000
333.646; 3112.825;  231.825;    0.000
333.705; 3136.825;  232.825;    0.000
333.763; 3092.825;  233.825;    0.000
333.822; 3062.825;  221.825;    0.000
333.880; 3011.825;  180.825;    0.000
333.938; 3073.825;  229.825;    0.000
333.997; 2957.825;  194.825;    0.000
334.055; 3041.825;  230.825;    0.000
334.114; 3002.825;  230.825;    0.000
334.172; 2876.825;  170.825;    0.000
334.230; 2965.825;  192.825;    0.000
334.289; 2951.825;  225.825;    0.000
334.347; 2897.825;  233.825;    0.000
334.405; 2926.825;  207.825;    0.000
334.464; 2977.825;  175.825;    0.000
334.522; 2871.825;  180.825;    0.000
334.580; 2916.825;  172.825;    0.000
334.639; 2987.825;  230.825;    0.000
334.697; 2978.825;  217.825;    0.000
334.755; 2961.825;  217.825;    0.000
334.814; 3000.825;  210.825;    0.000
334.872; 3015.825;  170.825;    0.000
334.930; 2890.825;  167.825;    0.000
334.988; 2934.825;  244.825;    0.000
335.047; 2961.825;  202.825;    0.000
335.105; 2935.825;  181.825;    0.000
335.163; 2878.825;  195.825;    0.000
335.221; 2988.825;  203.825;    0.000
335.280; 2942.825;  216.825;    0.000
335.338; 2839.825;  197.825;    0.000
335.396; 2918.825;  232.825;    0.000
335.454; 2904.825;  211.825;    0.000
335.512; 2873.825;  221.825;    0.000
335.570; 2896.825;  216.825;    0.000
335.629; 2920.825;  244.825;    0.000
335.687; 2974.825;  244.825;    0.000
335.745; 2839.825;  189.825;    0.000
335.803; 2895.825;  198.825;    0.000
335.861; 2967.825;  236.825;    0.000
335.919; 2883.825;  234.825;    0.000
335.977; 2928.825;  214.825;    0.000
336.035; 2896.825;  242.825;    0.000
336.094; 3006.825;  219.825;    0.000
336.152; 2936.825;  196.825;    0.000
336.210; 2854.825;  221.825;    0.000
336.268; 3027.825;  257.825;    0.000
336.326; 2999.825;  211.825;    0.000
336.384; 2976.825;  217.825;    0.000
336.442; 2981.825;  176.825;    0.000
336.500; 2996.825;  242.825;    0.000
336.558; 2912.825;  238.825;    0.000
336.616; 3040.825;  261.825;    0.000
336.674; 2783.825;  200.825;    0.000
336.732; 2891.825;  208.825;    0.000
336.790; 2847.825;  183.825;    0.000
336.848; 2859.825;  199.825;    0.000
336.906; 2901.825;  240.825;    0.000
336.964; 2962.825;  234.825;    0.000
337.022; 2906.825;  282.825;    0.000
337.080; 2914.825;  265.825;    0.000
337.138; 2784.825;  255.825;    0.000
337.195; 2849.825;  200.825;    0.000
337.253; 2890.825;  199.825;    0.000
337.311; 2854.825;  233.825;    0.000
337.369; 2808.825;  250.825;    0.000
337.427; 2745.825;  201.825;    0.000
337.485; 2843.825;  228.825;    0.000
337.543; 2792.825;  221.825;    0.000
337.601; 2798.825;  232.825;    0.000
337.658; 2783.825;  215.825;    0.000
337.716; 2735.825;  198.825;    0.000
337.774; 2838.825;  262.825;    0.000
337.832; 2797.825;  220.825;    0.000
337.890; 2756.825;  194.825;    0.000
337.947; 2778.825;  205.825;    0.000
338.005; 2722.825;  229.825;    0.000
338.063; 2658.825;  237.825;    0.000
338.121; 2833.825;  220.825;    0.000
338.178; 2715.825;  227.825;    0.000
338.236; 2804.825;  238.825;    0.000
338.294; 2748.825;  242.825;    0.000
338.352; 2762.825;  230.825;    0.000
338.409; 2623.825;  222.825;    0.000
338.467; 2678.825;  233.825;    0.000
338.525; 2693.825;  253.825;    0.000
338.583; 2691.825;  221.825;    0.000
338.640; 2640.825;  225.825;    0.000
338.698; 2694.825;  229.825;    0.000
338.756; 2716.825;  238.825;    0.000
338.813; 2745.825;  260.825;    0.000
338.871; 2706.825;  246.825;    0.000
338.928; 2709.825;  240.825;    0.000
338.986; 2726.825;  228.825;    0.000
339.044; 2809.825;  265.825;    0.000
339.101; 2671.825;  224.825;    0.000
339.159; 2714.825;  235.825;    0.000
339.216; 2681.825;  244.825;    0.000
339.274; 2766.825;  266.825;    0.000
339.332; 2707.825;  248.825;    0.000
339.389; 2762.825;  246.825;    0.000
339.447; 2616.825;  237.825;    0.000
339.504; 2691.825;  244.825;    0.000
339.562; 2656.825;  249.825;    0.000
339.619; 2716.825;  266.825;    0.000
339.677; 2758.825;  263.825;    0.000
339.734; 2607.825;  216.825;    0.000
339.792; 2690.825;  276.825;    0.000
339.849; 2705.825;  240.825;    0.000
339.907; 2767.825;  275.825;    0.000
339.964; 2690.825;  243.825;    0.000
340.022; 2758.825;  224.825;    0.000
340.079; 2684.825;  230.825;    0.000
340.137; 2753.825;  232.825;    0.000
340.194; 2668.825;  261.825;    0.000
340.252; 2690.825;  219.825;    0.000
340.309; 2738.825;  212.825;    0.000
340.366; 2571.825;  231.825;    0.000
340.424; 2609.825;  244.825;    0.000
340.481; 2685.825;  238.825;    0.000
340.538; 2688.825;  217.825;    0.000
340.596; 2592.825;  224.825;    0.000
340.653; 2662.825;  225.825;    0.000
340.711; 2695.825;  276.825;    0.000
340.768; 2677.825;  239.825;    0.000
340.825; 2643.825;  216.825;    0.000
340.883; 2689.825;  264.825;    0.000
340.940; 2740.825;  256.825;    0.000
340.997; 2678.825;  230.825;    0.000
341.054; 2719.825;  229.825;    0.000
341.112; 2738.825;  220.825;    0.000
341.169; 2781.825;  276.825;    0.000
341.226; 2789.825;  224.825;    0.000
341.284; 2678.825;  235.825;    0.000
341.341; 2658.825;  226.825;    0.000
341.398; 2674.825;  200.825;    0.000
341.455; 2687.825;  242.825;    0.000
341.512; 2739.825;  226.825;    0.000
341.570; 2674.825;  299.825;    0.000
341.627; 2738.825;  221.825;    0.000
341.684; 2634.825;  204.825;    0.000
341.741; 2798.825;  285.825;    0.000
341.798; 2706.825;  237.825;    0.000
341.856; 2692.825;  223.825;    0.000
341.913; 2694.825;  232.825;    0.000
341.970; 2734.825;  250.825;    0.000
342.027; 2780.825;  272.825;    0.000
342.084; 2736.825;  242.825;    0.000
342.141; 2799.825;  207.825;    0.000
342.198; 2756.825;  252.825;    0.000
342.255; 2700.825;  189.825;    0.000
342.313; 2727.825;  222.825;    0.000
342.370; 2675.825;  203.825;    0.000
342.427; 2690.825;  261.825;    0.000
342.484; 2683.825;  230.825;    0.000
342.541; 2721.825;  224.825;    0.000
342.598; 2706.825;  245.825;    0.000
342.655; 2734.825;  235.825;    0.000
342.712; 2712.825;  238.825;    0.000
342.769; 2724.825;  235.825;    0.000
342.826; 2745.825;  232.825;    0.000
342.883; 2740.825;  212.825;    0.000
342.940; 2668.825;  189.825;    0.000
342.997; 2813.825;  241.825;    0.000
343.054; 2757.825;  235.825;    0.000
343.111; 2695.825;  216.825;    0.000
343.168; 2825.825;  202.825;    0.000
343.225; 2801.825;  228.825;    0.000
343.282; 2841.825;  208.825;    0.000
343.339; 2883.825;  241.825;    0.000
343.395; 2880.825;  206.825;    0.000
343.452; 2893.825;  227.825;    0.000
343.509; 2905.825;  212.825;    0.000
343.566; 2797.825;  266.825;    0.000
343.623; 2854.825;  240.825;    0.000
343.680; 2879.825;  215.825;    0.000
343.737; 2977.825;  231.825;    0.000
343.794; 3039.825;  256.825;    0.000
343.850; 3045.825;  235.825;    0.000
343.907; 3020.825;  246.825;    0.000
343.964; 3072.825;  241.825;    0.000
344.021; 3011.825;  237.825;    0.000
344.078; 3118.825;  248.825;    0.000
344.134; 2993.825;  225.825;    0.000
344.191; 3097.825;  209.825;    0.000
344.248; 2977.825;  234.825;    0.000
344.305; 3000.825;  224.825;    0.000
344.361; 2930.825;  194.825;    0.000
344.418; 3049.825;  240.825;    0.000
344.475; 3021.825;  252.825;    0.000
344.532; 2891.825;  251.825;    0.000
344.588; 2991.825;  240.825;    0.000
344.645; 3004.825;  253.825;    0.000
344.702; 3025.825;  216.825;    0.000
344.758; 2979.825;  258.825;    0.000
344.815; 2944.825;  239.825;    0.000
344.872; 2822.825;  216.825;    0.000
344.928; 2927.825;  236.825;    0.000
344.985; 2937.825;  238.825;    0.000
345.042; 2836.825;  211.825;    0.000
345.098; 2927.825;  223.825;    0.000
345.155; 2984.825;  266.825;    0.000
345.212; 2962.825;  266.825;    0.000
345.268; 2887.825;  245.825;    0.000
345.325; 2923.825;  225.825;    0.000
345.381; 2948.825;  223.825;    0.000
345.438; 2927.825;  259.825;    0.000
345.495; 2994.825;  233.825;    0.000
345.551; 2944.825;  254.825;    0.000
345.608; 2842.825;  212.825;    0.000
345.664; 2853.825;  225.825;    0.000
345.721; 2940.825;  223.825;    0.000
345.777; 2824.825;  226.825;    0.000
345.834; 2803.825;  215.825;    0.000
345.890; 2856.825;  230.825;    0.000
345.947; 2907.825;  232.825;    0.000
346.003; 2845.825;  241.825;    0.000
346.060; 2793.825;  241.825;    0.000
346.116; 2894.825;  231.825;    0.000
346.173; 2905.825;  229.825;    0.000
346.229; 2856.825;  262.825;    0.000
346.285; 2959.825;  232.825;    0.000
346.342; 2881.825;  228.825;    0.000
346.398; 2888.825;  203.825;    0.000
346.455; 3015.825;  214.825;    0.000
346.511; 3045.825;  245.825;    0.000
346.567; 2938.825;  192.825;    0.000
346.624; 2951.825;  206.825;    0.000
346.680; 2889.825;  209.825;    0.000
346.737; 2976.825;  239.825;    0.000
346.793; 2953.825;  234.825;    0.000
346.849; 2968.825;  252.825;    0.000
346.906; 2974.825;  247.825;    0.000
346.962; 2929.825;  274.825;    0.000
347.018; 3011.825;  225.825;    0.000
347.074; 2971.825;  261.825;    0.000
347.131; 2957.825;  230.825;    0.000
347.187; 2954.825;  269.825;    0.000
347.243; 2975.825;  261.825;    0.000
347.300; 2996.825;  236.825;    0.000
347.356; 2956.825;  284.825;    0.000
347.412; 2941.825;  243.825;    0.000
347.468; 2992.825;  276.825;    0.000
347.524; 2896.825;  232.825;    0.000
347.581; 3025.825;  242.825;    0.000
347.637; 2969.825;  270.825;    0.000
347.693; 2921.825;  269.825;    0.000
347.749; 2977.825;  278.825;    0.000
347.805; 2979.825;  224.825;    0.000
347.862; 2957.825;  207.825;    0.000
347.918; 2993.825;  259.825;    0.000
347.974; 2911.825;  244.825;    0.000
348.030; 2971.825;  219.825;    0.000
348.086; 2888.825;  250.825;    0.000
348.142; 3023.825;  251.825;    0.000
348.198; 2949.825;  267.825;    0.000
348.254; 3002.825;  230.825;    0.000
348.311; 2956.825;  261.825;    0.000
348.367; 2977.825;  259.825;    0.000
348.423; 3004.825;  251.825;    0.000
348.479; 2933.825;  251.825;    0.000
348.535; 2948.825;  269.825;    0.000
348.591; 2935.825;  238.825;    0.000
348.647; 2891.825;  273.825;    0.000
348.703; 3061.825;  291.825;    0.000
348.759; 2977.825;  231.825;    0.000
348.815; 2977.825;  286.825;    0.000
348.871; 3068.825;  265.825;    0.000
348.927; 2972.825;  234.825;    0.000
348.983; 2953.825;  267.825;    0.000
349.039; 3039.825;  233.825;    0.000
349.095; 2997.825;  225.825;    0.000
349.151; 2985.825;  242.825;    0.000
349.207; 3025.825;  223.825;    0.000
349.263; 2927.825;  219.825;    0.000
349.319; 3068.825;  226.825;    0.000
349.374; 2977.825;  232.825;    0.000
349.430; 3003.825;  235.825;    0.000
349.486; 2987.825;  227.825;    0.000
349.542; 3102.825;  253.825;    0.000
349.598; 3141.825;  227.825;    0.000
349.654; 2995.825;  270.825;    0.000
349.710; 3004.825;  233.825;    0.000
349.766; 3108.825;  245.825;    0.000
349.821; 2942.825;  242.825;    0.000
349.877; 3103.825;  229.825;    0.000
349.933; 3040.825;  229.825;    0.000
349.989; 3087.825;  230.825;    0.000
350.045; 2987.825;  236.825;    0.000
350.100; 3040.825;  237.825;    0.000
350.156; 3080.825;  230.825;    0.000
350.212; 3029.825;  254.825;    0.000
350.268; 3034.825;  239.825;    0.000
350.323; 2972.825;  204.825;    0.000
350.379; 3065.825;  246.825;    0.000
350.435; 2971.825;  249.825;    0.000
350.491; 2943.825;  217.825;    0.000
350.546; 2988.825;  231.825;    0.000
350.602; 3005.825;  240.825;    0.000
350.658; 3001.825;  235.825;    0.000
350.713; 3002.825;  234.825;    0.000
350.769; 3014.825;  218.825;    0.000
350.825; 3055.825;  227.825;    0.000
350.880; 3093.825;  226.825;    0.000
350.936; 3095.825;  247.825;    0.000
350.992; 3008.825;  213.825;    0.000
351.047; 3048.825;  207.825;    0.000
351.103; 2990.825;  271.825;    0.000
351.158; 3013.825;  251.825;    0.000
351.214; 3016.825;  199.825;    0.000
351.270; 3053.825;  214.825;    0.000
351.325; 3017.825;  235.825;    0.000
351.381; 3010.825;  223.825;    0.000
351.436; 3051.825;  237.825;    0.000
351.492; 3183.825;  221.825;    0.000
351.547; 2901.825;  237.825;    0.000
351.603; 3017.825;  239.825;    0.000
351.658; 3092.825;  209.825;    0.000
351.714; 3094.825;  226.825;    0.000
351.769; 3008.825;  238.825;    0.000
351.825; 3099.825;  226.825;    0.000
351.880; 3007.825;  217.825;    0.000
351.936; 3123.825;  246.825;    0.000
351.991; 3122.825;  233.825;    0.000
352.047; 3003.825;  215.825;    0.000
352.102; 2974.825;  243.825;    0.000
352.158; 3040.825;  234.825;    0.000
352.213; 3010.825;  201.825;    0.000
352.268; 2972.825;  234.825;    0.000
352.324; 3096.825;  211.825;    0.000
352.379; 3048.825;  221.825;    0.000
352.434; 3113.825;  259.825;    0.000
352.490; 3082.825;  250.825;    0.000
352.545; 3069.825;  251.825;    0.000
352.601; 3111.825;  283.825;    0.000
352.656; 3059.825;  236.825;    0.000
352.711; 3067.825;  237.825;    0.000
352.767; 3050.825;  201.825;    0.000
352.822; 3131.825;  209.825;    0.000
352.877; 3082.825;  239.825;    0.000
352.932; 3114.825;  228.825;    0.000
352.988; 3068.825;  202.825;    0.000
353.043; 3034.825;  268.825;    0.000
353.098; 3160.825;  208.825;    0.000
353.153; 3074.825;  219.825;    0.000
353.209; 3024.825;  252.825;    0.000
353.264; 3049.825;  225.825;    0.000
353.319; 3020.825;  234.825;    0.000
353.374; 2951.825;  236.825;    0.000
353.430; 3112.825;  245.825;    0.000
353.485; 2983.825;  238.825;    0.000
353.540; 3053.825;  238.825;    0.000
353.595; 2999.825;  215.825;    0.000
353.650; 3048.825;  238.825;    0.000
353.705; 3063.825;  274.825;    0.000
353.761; 3000.825;  229.825;    0.000
353.816; 3067.825;  275.825;    0.000
353.871; 3076.825;  245.825;    0.000
353.926; 3063.825;  253.825;    0.000
353.981; 3164.825;  269.825;    0.000
354.036; 3085.825;  246.825;    0.000
354.091; 3184.825;  257.825;    0.000
354.146; 3077.825;  278.825;    0.000
354.201; 3106.825;  276.825;    0.000
354.256; 3097.825;  224.825;    0.000
354.311; 3091.825;  287.825;    0.000
354.367; 3055.825;  210.825;    0.000
354.422; 3127.825;  231.825;    0.000
354.477; 3004.825;  226.825;    0.000
354.532; 3119.825;  262.825;    0.000
354.587; 3122.825;  275.825;    0.000
354.642; 3072.825;  247.825;    0.000
354.697; 3146.825;  251.825;    0.000
354.751; 3067.825;  249.825;    0.000
354.806; 3074.825;  217.825;    0.000
354.861; 3086.825;  247.825;    0.000
354.916; 3147.825;  259.825;    0.000
354.971; 3046.825;  241.825;    0.000
355.026; 3178.825;  250.825;    0.000
355.081; 3126.825;  244.825;    0.000
355.136; 3082.825;  203.825;    0.000
355.191; 3166.825;  241.825;    0.000
355.246; 3188.825;  248.825;    0.000
355.301; 3102.825;  259.825;    0.000
355.355; 3076.825;  236.825;    0.000
355.410; 3134.825;  221.825;    0.000
355.465; 3116.825;  206.825;    0.000
355.520; 3167.825;  258.825;    0.000
355.575; 3152.825;  273.825;    0.000
355.630; 3123.825;  252.825;    0.000
355.684; 3178.825;  246.825;    0.000
355.739; 3141.825;  251.825;    0.000
355.794; 3048.825;  247.825;    0.000
355.849; 3117.825;  246.825;    0.000
355.904; 3140.825;  262.825;    0.000
355.958; 3020.825;  249.825;    0.000
356.013; 3099.825;  213.825;    0.000
356.068; 3029.825;  255.825;    0.000
356.123; 3145.825;  205.825;    0.000
356.177; 3173.825;  239.825;    0.000
356.232; 3149.825;  258.825;    0.000
356.287; 3180.825;  248.825;    0.000
356.341; 3209.825;  221.825;    0.000
356.396; 3161.825;  220.825;    0.000
356.451; 3171.825;  231.825;    0.000
356.505; 3081.825;  231.825;    0.000
356.560; 3171.825;  254.825;    0.000
356.615; 3151.825;  234.825;    0.000
356.669; 3059.825;  250.825;    0.000
356.724; 3062.825;  261.825;    0.000
356.778; 3119.825;  207.825;    0.000
356.833; 3138.825;  205.825;    0.000
356.888; 3152.825;  235.825;    0.000
356.942; 3216.825;  205.825;    0.000
356.997; 3110.825;  276.825;    0.000
357.051; 3162.825;  243.825;    0.000
357.106; 3136.825;  242.825;    0.000
357.160; 3025.825;  241.825;    0.000
357.215; 3139.825;  212.825;    0.000
357.269; 3128.825;  238.825;    0.000
357.324; 3228.825;  223.825;    0.000
357.378; 3151.825;  221.825;    0.000
357.433; 3181.825;  262.825;    0.000
357.487; 3148.825;  246.825;    0.000
357.542; 3093.825;  221.825;    0.000
357.596; 3181.825;  225.825;    0.000
357.651; 3070.825;  244.825;    0.000
357.705; 3121.825;  269.825;    0.000
357.760; 3179.825;  209.825;    0.000
357.814; 3177.825;  250.825;    0.000
357.868; 3215.825;  266.825;    0.000
357.923; 3072.825;  248.825;    0.000
357.977; 3097.825;  262.825;    0.000
358.032; 3076.825;  228.825;    0.000
358.086; 3111.825;  257.825;    0.000
358.140; 3182.825;  217.825;    0.000
358.195; 3049.825;  246.825;    0.000
358.249; 3191.825;  255.825;    0.000
358.303; 3165.825;  252.825;    0.000
358.358; 3126.825;  278.825;    0.000
358.412; 3124.825;  276.825;    0.000
358.466; 3101.825;  275.825;    0.000
358.521; 3112.825;  229.825;    0.000
358.575; 3109.825;  270.825;    0.000
358.629; 3140.825;  239.825;    0.000
358.683; 3013.825;  254.825;    0.000
358.738; 3127.825;  239.825;    0.000
358.792; 3025.825;  272.825;    0.000
358.846; 3027.825;  289.825;    0.000
358.900; 3081.825;  299.825;    0.000
358.954; 3079.825;  247.825;    0.000
359.009; 2990.825;  245.825;    0.000
359.063; 3143.825;  272.825;    0.000
359.117; 3250.825;  242.825;    0.000
359.171; 3061.825;  279.825;    0.000
359.225; 3098.825;  221.825;    0.000
359.280; 3186.825;  238.825;    0.000
359.334; 3146.825;  264.825;    0.000
359.388; 3200.825;  273.825;    0.000
359.442; 3045.825;  233.825;    0.000
359.496; 3086.825;  226.825;    0.000
359.550; 3062.825;  271.825;    0.000
359.604; 3118.825;  296.825;    0.000
359.658; 3129.825;  252.825;    0.000
359.712; 3099.825;  256.825;    0.000
359.766; 3124.825;  257.825;    0.000
359.820; 3120.825;  239.825;    0.000
359.875; 3140.825;  252.825;    0.000
359.929; 3183.825;  258.825;    0.000
359.983; 3056.825;  232.825;    0.000
360.037; 3031.825;  268.825;    0.000
360.091; 3139.825;  303.825;    0.000
360.145; 3039.825;  232.825;    0.000
360.199; 3188.825;  255.825;    0.000
360.253; 3075.825;  252.825;    0.000
360.306; 3140.825;  278.825;    0.000
360.360; 3034.825;  249.825;    0.000
360.414; 3132.825;  274.825;    0.000
360.468; 3161.825;  247.825;    0.000
360.522; 3098.825;  268.825;    0.000
360.576; 3155.825;  263.825;    0.000
360.630; 3178.825;  296.825;    0.000
360.684; 3033.825;  253.825;    0.000
360.738; 3099.825;  301.825;    0.000
360.792; 3182.825;  282.825;    0.000
360.846; 3030.825;  277.825;    0.000
360.899; 3152.825;  292.825;    0.000
360.953; 3175.825;  266.825;    0.000
361.007; 3072.825;  240.825;    0.000
361.061; 3170.825;  247.825;    0.000
361.115; 3066.825;  276.825;    0.000
361.168; 3109.825;  288.825;    0.000
361.222; 3102.825;  271.825;    0.000
361.276; 3065.825;  270.825;    0.000
361.330; 3082.825;  295.825;    0.000
361.384; 3054.825;  276.825;    0.000
361.437; 3061.825;  280.825;    0.000
361.491; 3150.825;  261.825;    0.000
361.545; 3143.825;  273.825;    0.000
361.599; 3090.825;  269.825;    0.000
361.652; 3112.825;  258.825;    0.000
361.706; 3133.825;  270.825;    0.000
361.760; 3074.825;  294.825;    0.000
361.813; 3178.825;  244.825;    0.000
361.867; 3110.825;  294.825;    0.000
361.921; 3065.825;  285.825;    0.000
361.974; 3065.825;  269.825;    0.000
362.028; 3110.825;  275.825;    0.000
362.082; 3118.825;  270.825;    0.000
362.135; 3092.825;  259.825;    0.000
362.189; 3063.825;  302.825;    0.000
362.242; 3091.825;  296.825;    0.000
362.296; 3076.825;  285.825;    0.000
362.350; 3096.825;  303.825;    0.000
362.403; 3109.825;  271.825;    0.000
362.457; 3034.825;  285.825;    0.000
362.510; 3050.825;  288.825;    0.000
362.564; 3065.825;  268.825;    0.000
362.617; 3065.825;  285.825;    0.000
362.671; 3125.825;  277.825;    0.000
362.724; 3060.825;  242.825;    0.000
362.778; 3110.825;  274.825;    0.000
362.831; 3123.825;  280.825;    0.000
362.885; 3099.825;  284.825;    0.000
362.938; 3021.825;  276.825;    0.000
362.992;  367.825;  289.825;    0.000
363.045;  262.825;  247.825;    0.000
363.099;  274.825;  260.825;    0.000
363.152;  262.825;  258.825;    0.000
363.205;  257.825;  286.825;    0.000
363.259;  234.825;  236.825;    0.000
363.312;  308.825;  297.825;    0.000
363.366;  276.825;  266.825;    0.000
363.419;  256.825;  309.825;    0.000
363.472;  277.825;  293.825;    0.000
363.526;  330.825;  270.825;    0.000
363.579;  271.825;  276.825;    0.000
363.632;  271.825;  279.825;    0.000
363.686;  259.825;  292.825;    0.000
363.739;  273.825;  248.825;    0.000
363.792;  282.825;  287.825;    0.000

