
Integration time [ms]:   1.000
Averaging Nr. [scans]: 1
Smoothing Nr. [pixels]: 0
Data measured with spectrometer [name]: NIR
Wave   ;Sample   ;Dark     ;Reference
[nm]   ;[counts] ;[counts] ;[counts] 

691.496;  -82.025;  163.125;    0.000
691.696;  -56.025;  208.125;    0.000
691.896; -105.025;  111.125;    0.000
692.096;  -62.025;  178.125;    0.000
692.296; -122.025;   93.125;    0.000
692.496;  -78.025;  161.125;    0.000
692.695;  -97.025;  135.125;    0.000
692.895;  -39.025;  179.125;    0.000
693.095; -136.025;  158.125;    0.000
693.295;  -78.025;  168.125;    0.000
693.495;  -64.025;  170.125;    0.000
693.695;  -99.025;  155.125;    0.000
693.894;  -92.025;  151.125;    0.000
694.094;  -61.025;  164.125;    0.000
694.294; -106.025;  129.125;    0.000
694.494;  148.975;  170.125;    0.000
694.693; 2463.975;  137.125;    0.000
694.893; 2726.975;  163.125;    0.000
695.093; 2702.975;  121.125;    0.000
695.293; 2901.975;  144.125;    0.000
695.492; 2789.975;   88.125;    0.000
695.692; 2712.975;  148.125;    0.000
695.891; 2718.975;  125.125;    0.000
696.091; 2750.975;  184.125;    0.000
696.291; 2783.975;  153.125;    0.000
696.490; 2893.975;  131.125;    0.000
696.690; 2851.975;  123.125;    0.000
696.889; 2902.975;  180.125;    0.000
697.089; 2934.975;  147.125;    0.000
697.288; 2860.975;  164.125;    0.000
697.488; 2907.975;  133.125;    0.000
697.687; 2886.975;  153.125;    0.000
697.887; 2910.975;  119.125;    0.000
698.086; 2822.975;  143.125;    0.000
698.286; 2887.975;  125.125;    0.000
698.485; 2836.975;  120.125;    0.000
698.684; 2936.975;  116.125;    0.000
698.884; 2890.975;  131.125;    0.000
699.083; 2892.975;  115.125;    0.000
699.282; 2910.975;  144.125;    0.000
699.482; 2963.975;  109.125;    0.000
699.681; 2887.975;  115.125;    0.000
699.880; 3002.975;  125.125;    0.000
700.080; 3055.975;  139.125;    0.000
700.279; 2862.975;  111.125;    0.000
700.478; 3018.975;  146.125;    0.000
700.677; 2886.975;  131.125;    0.000
700.877; 2902.975;  156.125;    0.000
701.076; 2912.975;  153.125;    0.000
701.275; 3012.975;  123.125;    0.000
701.474; 2926.975;  150.125;    0.000
701.673; 2954.975;   97.125;    0.000
701.872; 2936.975;  139.125;    0.000
702.071; 2969.975;  108.125;    0.000
702.271; 2991.975;  125.125;    0.000
702.470; 3040.975;  108.125;    0.000
702.669; 2952.975;  102.125;    0.000
702.868; 3019.975;  153.125;    0.000
703.067; 3175.975;  145.125;    0.000
703.266; 3008.975;   96.125;    0.000
703.465; 2961.975;  165.125;    0.000
703.664; 3015.975;  106.125;    0.000
703.863; 3060.975;  144.125;    0.000
704.062; 3018.975;   86.125;    0.000
704.260; 3045.975;   99.125;    0.000
704.459; 3061.975;  112.125;    0.000
704.658; 2996.975;  106.125;    0.000
704.857; 3061.975;  129.125;    0.000
705.056; 2992.975;   98.125;    0.000
705.255; 3061.975;   97.125;    0.000
705.454; 3023.975;  101.125;    0.000
705.652; 3019.975;  142.125;    0.000
705.851; 3057.975;  100.125;    0.000
706.050; 3095.975;  162.125;    0.000
706.249; 3053.975;  146.125;    0.000
706.447; 3066.975;  120.125;    0.000
706.646; 3040.975;  114.125;    0.000
706.845; 3121.975;  117.125;    0.000
707.043; 3124.975;  136.125;    0.000
707.242; 3121.975;   90.125;    0.000
707.441; 3126.975;  131.125;    0.000
707.639; 3033.975;  120.125;    0.000
707.838; 3207.975;  122.125;    0.000
708.037; 3153.975;  109.125;    0.000
708.235; 3201.975;  122.125;    0.000
708.434; 3066.975;  109.125;    0.000
708.632; 3115.975;   47.125;    0.000
708.831; 3152.975;  122.125;    0.000
709.029; 3075.975;  130.125;    0.000
709.228; 3109.975;  112.125;    0.000
709.426; 3216.975;  128.125;    0.000
709.625; 3224.975;  129.125;    0.000
709.823; 3131.975;  130.125;    0.000
710.022; 3142.975;   90.125;    0.000
710.220; 3209.975;  131.125;    0.000
710.418; 3217.975;  133.125;    0.000
710.617; 3155.975;   82.125;    0.000
710.815; 3194.975;   90.125;    0.000
711.013; 3170.975;   86.125;    0.000
711.212; 3125.975;  117.125;    0.000
711.410; 3295.975;  106.125;    0.000
711.608; 3268.975;  138.125;    0.000
711.807; 3266.975;  116.125;    0.000
712.005; 3272.975;   82.125;    0.000
712.203; 3243.975;   90.125;    0.000
712.401; 3234.975;  124.125;    0.000
712.599; 3237.975;   64.125;    0.000
712.798; 3252.975;  113.125;    0.000
712.996; 3303.975;  100.125;    0.000
713.194; 3360.975;  130.125;    0.000
713.392; 3244.975;   89.125;    0.000
713.590; 3339.975;  105.125;    0.000
713.788; 3377.975;  100.125;    0.000
713.986; 3414.975;  117.125;    0.000
714.184; 3423.975;   72.125;    0.000
714.382; 3555.975;   88.125;    0.000
714.580; 3548.975;   88.125;    0.000
714.778; 3339.975;  129.125;    0.000
714.976; 3488.975;   90.125;    0.000
715.174; 3502.975;  119.125;    0.000
715.372; 3670.975;  117.125;    0.000
715.570; 3871.975;  101.125;    0.000
715.768; 3792.975;  122.125;    0.000
715.966; 3955.975;  114.125;    0.000
716.164; 3970.975;  135.125;    0.000
716.362; 3918.975;  126.125;    0.000
716.560; 3922.975;  126.125;    0.000
716.758; 3777.975;   98.125;    0.000
716.955; 3732.975;   76.125;    0.000
717.153; 3710.975;   45.125;    0.000
717.351; 3708.975;  106.125;    0.000
717.549; 3656.975;  108.125;    0.000
717.746; 3689.975;   66.125;    0.000
717.944; 3613.975;  127.125;    0.000
718.142; 3564.975;  148.125;    0.000
718.340; 3659.975;   94.125;    0.000
718.537; 3753.975;  107.125;    0.000
718.735; 3727.975;  130.125;    0.000
718.933; 3675.975;  111.125;    0.000
719.130; 3629.975;  107.125;    0.000
719.328; 3706.975;  128.125;    0.000
719.525; 3647.975;  141.125;    0.000
719.723; 3576.975;  122.125;    0.000
719.920; 3610.975;   85.125;    0.000
720.118; 3647.975;  115.125;    0.000
720.316; 3620.975;  153.125;    0.000
720.513; 3688.975;  120.125;    0.000
720.711; 3675.975;  134.125;    0.000
720.908; 3712.975;  126.125;    0.000
721.105; 3658.975;  119.125;    0.000
721.303; 3623.975;  112.125;    0.000
721.500; 3613.975;  125.125;    0.000
721.698; 3660.975;   94.125;    0.000
721.895; 3633.975;  118.125;    0.000
722.092; 3618.975;   77.125;    0.000
722.290; 3756.975;  135.125;    0.000
722.487; 3613.975;  154.125;    0.000
722.684; 3595.975;  122.125;    0.000
722.882; 3633.975;   90.125;    0.000
723.079; 3714.975;  132.125;    0.000
723.276; 3549.975;   95.125;    0.000
723.473; 3589.975;  106.125;    0.000
723.671; 3636.975;   80.125;    0.000
723.868; 3745.975;  112.125;    0.000
724.065; 3708.975;  107.125;    0.000
724.262; 3661.975;  119.125;    0.000
724.459; 3573.975;   80.125;    0.000
724.656; 3701.975;  109.125;    0.000
724.854; 3707.975;  107.125;    0.000
725.051; 3685.975;  103.125;    0.000
725.248; 3681.975;  101.125;    0.000
725.445; 3739.975;   93.125;    0.000
725.642; 3653.975;   92.125;    0.000
725.839; 3684.975;  157.125;    0.000
726.036; 3731.975;   71.125;    0.000
726.233; 3627.975;   80.125;    0.000
726.430; 3782.975;  146.125;    0.000
726.627; 3853.975;  103.125;    0.000
726.824; 3629.975;   46.125;    0.000
727.021; 3792.975;  149.125;    0.000
727.218; 3756.975;   87.125;    0.000
727.414; 3778.975;  112.125;    0.000
727.611; 3795.975;  111.125;    0.000
727.808; 3765.975;  122.125;    0.000
728.005; 3815.975;   58.125;    0.000
728.202; 3777.975;  129.125;    0.000
728.399; 3812.975;  111.125;    0.000
728.595; 3788.975;   93.125;    0.000
728.792; 3721.975;   78.125;    0.000
728.989; 3836.975;  104.125;    0.000
729.186; 3835.975;  110.125;    0.000
729.382; 3809.975;   93.125;    0.000
729.579; 3853.975;  102.125;    0.000
729.776; 3737.975;  112.125;    0.000
729.972; 3865.975;  101.125;    0.000
730.169; 3940.975;  150.125;    0.000
730.366; 3881.975;   92.125;    0.000
730.562; 3919.975;   74.125;    0.000
730.759; 3895.975;   97.125;    0.000
730.955; 3927.975;   86.125;    0.000
731.152; 3819.975;   88.125;    0.000
731.348; 3855.975;  117.125;    0.000
731.545; 3876.975;   62.125;    0.000
731.741; 3930.975;   84.125;    0.000
731.938; 3938.975;  108.125;    0.000
732.134; 3844.975;  115.125;    0.000
732.331; 3788.975;   88.125;    0.000
732.527; 3839.975;   96.125;    0.000
732.724; 3964.975;  103.125;    0.000
732.920; 3850.975;   93.125;    0.000
733.116; 3957.975;  109.125;    0.000
733.313; 3881.975;   77.125;    0.000
733.509; 3818.975;   81.125;    0.000
733.705; 3881.975;  141.125;    0.000
733.902; 3888.975;   88.125;    0.000
734.098; 3847.975;   56.125;    0.000
734.294; 3801.975;  122.125;    0.000
734.490; 3868.975;  102.125;    0.000
734.687; 3965.975;   70.125;    0.000
734.883; 3923.975;   73.125;    0.000
735.079; 3910.975;   65.125;    0.000
735.275; 3875.975;  112.125;    0.000
735.471; 3949.975;  124.125;    0.000
735.667; 3977.975;   94.125;    0.000
735.863; 3826.975;  106.125;    0.000
736.060; 3932.975;  106.125;    0.000
736.256; 3960.975;   95.125;    0.000
736.452; 3957.975;  103.125;    0.000
736.648; 4027.975;  106.125;    0.000
736.844; 4004.975;   98.125;    0.000
737.040; 4041.975;  118.125;    0.000
737.236; 4043.975;   95.125;    0.000
737.432; 4059.975;   59.125;    0.000
737.628; 4032.975;  120.125;    0.000
737.824; 4089.975;   78.125;    0.000
738.019; 4061.975;   98.125;    0.000
738.215; 4128.975;  127.125;    0.000
738.411; 4020.975;  111.125;    0.000
738.607; 3989.975;   69.125;    0.000
738.803; 4061.975;   40.125;    0.000
738.999; 4171.975;  128.125;    0.000
739.195; 4083.975;   81.125;    0.000
739.390; 4239.975;   97.125;    0.000
739.586; 4203.975;  100.125;    0.000
739.782; 4219.975;  135.125;    0.000
739.978; 4046.975;  121.125;    0.000
740.173; 4232.975;   92.125;    0.000
740.369; 4252.975;   92.125;    0.000
740.565; 4104.975;  119.125;    0.000
740.760; 4262.975;  139.125;    0.000
740.956; 4198.975;  134.125;    0.000
741.152; 4285.975;  107.125;    0.000
741.347; 4241.975;   63.125;    0.000
741.543; 4277.975;   99.125;    0.000
741.738; 4442.975;  119.125;    0.000
741.934; 4516.975;  156.125;    0.000
742.129; 4751.975;   87.125;    0.000
742.325; 5159.975;  143.125;    0.000
742.520; 5521.975;  109.125;    0.000
742.716; 5320.975;  135.125;    0.000
742.911; 5173.975;   77.125;    0.000
743.107; 5068.975;  117.125;    0.000
743.302; 4950.975;   93.125;    0.000
743.498; 4923.975;  118.125;    0.000
743.693; 5147.975;   95.125;    0.000
743.888; 5241.975;  122.125;    0.000
744.084; 5825.975;  104.125;    0.000
744.279; 6832.975;   94.125;    0.000
744.474; 7030.975;  138.125;    0.000
744.670; 6578.975;  113.125;    0.000
744.865; 5875.975;  116.125;    0.000
745.060; 5803.975;   89.125;    0.000
745.255; 5511.975;  144.125;    0.000
745.451; 5452.975;   98.125;    0.000
745.646; 5402.975;  110.125;    0.000
745.841; 5302.975;   87.125;    0.000
746.036; 5330.975;   98.125;    0.000
746.231; 5416.975;  153.125;    0.000
746.426; 5767.975;   90.125;    0.000
746.622; 6512.975;  154.125;    0.000
746.817; 8000.975;  111.125;    0.000
747.012; 8890.975;  110.125;    0.000
747.207; 8067.975;   76.125;    0.000
747.402; 7292.975;   94.125;    0.000
747.597; 6823.975;   68.125;    0.000
747.792; 6667.975;  125.125;    0.000
747.987; 6378.975;   92.125;    0.000
748.182; 6166.975;  113.125;    0.000
748.377; 5879.975;   72.125;    0.000
748.572; 5846.975;  135.125;    0.000
748.767; 5526.975;   98.125;    0.000
748.961; 5482.975;  123.125;    0.000
749.156; 5326.975;   96.125;    0.000
749.351; 5336.975;  121.125;    0.000
749.546; 5160.975;   95.125;    0.000
749.741; 5146.975;  144.125;    0.000
749.936; 5204.975;  105.125;    0.000
750.130; 4972.975;  101.125;    0.000
750.325; 4955.975;  126.125;    0.000
750.520; 4867.975;  113.125;    0.000
750.715; 4916.975;  135.125;    0.000
750.909; 4731.975;  138.125;    0.000
751.104; 4885.975;   96.125;    0.000
751.299; 4748.975;  118.125;    0.000
751.493; 4810.975;  124.125;    0.000
751.688; 4829.975;  131.125;    0.000
751.882; 4696.975;   96.125;    0.000
752.077; 4749.975;  123.125;    0.000
752.272; 4583.975;  112.125;    0.000
752.466; 4736.975;  143.125;    0.000
752.661; 4689.975;  107.125;    0.000
752.855; 4533.975;   97.125;    0.000
753.050; 4557.975;  125.125;    0.000
753.244; 4520.975;  161.125;    0.000
753.439; 4557.975;  101.125;    0.000
753.633; 4531.975;  129.125;    0.000
753.828; 4503.975;  114.125;    0.000
754.022; 4549.975;  118.125;    0.000
754.216; 4493.975;  126.125;    0.000
754.411; 4445.975;  148.125;    0.000
754.605; 4524.975;  100.125;    0.000
754.799; 4666.975;  146.125;    0.000
754.994; 4565.975;  116.125;    0.000
755.188; 4401.975;  146.125;    0.000
755.382; 4475.975;  103.125;    0.000
755.576; 4345.975;  119.125;    0.000
755.771; 4428.975;  100.125;    0.000
755.965; 4449.975;  129.125;    0.000
756.159; 4437.975;  100.125;    0.000
756.353; 4418.975;  153.125;    0.000
756.547; 4403.975;  113.125;    0.000
756.742; 4393.975;  129.125;    0.000
756.936; 4389.975;   70.125;    0.000
757.130; 4431.975;   91.125;    0.000
757.324; 4468.975;   92.125;    0.000
757.518; 4432.975;  128.125;    0.000
757.712; 4505.975;  146.125;    0.000
757.906; 4259.975;  114.125;    0.000
758.100; 4410.975;  153.125;    0.000
758.294; 4513.975;  133.125;    0.000
758.488; 4459.975;  149.125;    0.000
758.682; 4531.975;  132.125;    0.000
758.876; 4468.975;  128.125;    0.000
759.070; 4426.975;  178.125;    0.000
759.264; 4421.975;   98.125;    0.000
759.458; 4424.975;  168.125;    0.000
759.651; 4408.975;  131.125;    0.000
759.845; 4309.975;  133.125;    0.000
760.039; 4460.975;  120.125;    0.000
760.233; 4431.975;  116.125;    0.000
760.427; 4429.975;  121.125;    0.000
760.620; 4427.975;  163.125;    0.000
760.814; 4447.975;  106.125;    0.000
761.008; 4429.975;  119.125;    0.000
761.202; 4326.975;  121.125;    0.000
761.395; 4365.975;  136.125;    0.000
761.589; 4412.975;  111.125;    0.000
761.783; 4536.975;  116.125;    0.000
761.976; 4375.975;  139.125;    0.000
762.170; 4486.975;  140.125;    0.000
762.363; 4499.975;  115.125;    0.000
762.557; 4445.975;  129.125;    0.000
762.750; 4429.975;   85.125;    0.000
762.944; 4380.975;  107.125;    0.000
763.138; 4480.975;   99.125;    0.000
763.331; 4444.975;   97.125;    0.000
763.524; 4459.975;  100.125;    0.000
763.718; 4613.975;  130.125;    0.000
763.911; 4539.975;  127.125;    0.000
764.105; 4489.975;   69.125;    0.000
764.298; 4497.975;   94.125;    0.000
764.492; 4562.975;  129.125;    0.000
764.685; 4429.975;  114.125;    0.000
764.878; 4646.975;  145.125;    0.000
765.072; 4477.975;  124.125;    0.000
765.265; 4541.975;  124.125;    0.000
765.458; 4672.975;  108.125;    0.000
765.651; 4815.975;  132.125;    0.000
765.845; 4836.975;  106.125;    0.000
766.038; 5247.975;  155.125;    0.000
766.231; 6823.975;  153.125;    0.000
766.424;11267.975;  165.125;    0.000
766.617;11762.975;   85.125;    0.000
766.811; 6743.975;  140.125;    0.000
767.004; 5482.975;  151.125;    0.000
767.197; 5098.975;  178.125;    0.000
767.390; 4888.975;  112.125;    0.000
767.583; 4792.975;  134.125;    0.000
767.776; 4838.975;  101.125;    0.000
767.969; 4720.975;   99.125;    0.000
768.162; 4786.975;  152.125;    0.000
768.355; 4719.975;  115.125;    0.000
768.548; 4681.975;  154.125;    0.000
768.741; 4784.975;  124.125;    0.000
768.934; 4873.975;  129.125;    0.000
769.127; 4954.975;  137.125;    0.000
769.320; 4946.975;  115.125;    0.000
769.513; 5325.975;  144.125;    0.000
769.706; 6939.975;  107.125;    0.000
769.898;10987.975;  134.125;    0.000
770.091; 8308.975;  128.125;    0.000
770.284; 5706.975;   97.125;    0.000
770.477; 5201.975;  135.125;    0.000
770.670; 5150.975;  137.125;    0.000
770.862; 5056.975;  112.125;    0.000
771.055; 5037.975;  127.125;    0.000
771.248; 4988.975;  116.125;    0.000
771.441; 5165.975;  101.125;    0.000
771.633; 5070.975;  130.125;    0.000
771.826; 4959.975;  147.125;    0.000
772.018; 5085.975;  117.125;    0.000
772.211; 5173.975;  141.125;    0.000
772.404; 5183.975;  104.125;    0.000
772.596; 5328.975;  128.125;    0.000
772.789; 5240.975;  131.125;    0.000
772.981; 5335.975;  134.125;    0.000
773.174; 5391.975;  108.125;    0.000
773.366; 5450.975;  153.125;    0.000
773.559; 5423.975;  137.125;    0.000
773.751; 5513.975;  119.125;    0.000
773.944; 5684.975;  148.125;    0.000
774.136; 5612.975;  155.125;    0.000
774.329; 5936.975;  126.125;    0.000
774.521; 6064.975;  116.125;    0.000
774.713; 6063.975;  119.125;    0.000
774.906; 6367.975;  179.125;    0.000
775.098; 6707.975;  127.125;    0.000
775.290; 6849.975;  146.125;    0.000
775.483; 7307.975;  123.125;    0.000
775.675; 7500.975;  119.125;    0.000
775.867; 8058.975;  119.125;    0.000
776.059; 8642.975;  137.125;    0.000
776.251; 9409.975;  154.125;    0.000
776.444;10454.975;  101.125;    0.000
776.636;12173.975;  153.125;    0.000
776.828;14972.975;  127.125;    0.000
777.020;20304.975;  140.125;    0.000
777.212;29345.975;  160.125;    0.000
777.404;32454.975;  170.125;    0.000
777.596;30823.975;  136.125;    0.000
777.788;23405.975;  137.125;    0.000
777.980;18155.975;  129.125;    0.000
778.172;15123.975;  139.125;    0.000
778.364;12970.975;  124.125;    0.000
778.556;11760.975;  163.125;    0.000
778.748;10533.975;  142.125;    0.000
778.940; 9574.975;  178.125;    0.000
779.132; 8934.975;  159.125;    0.000
779.324; 8374.975;  109.125;    0.000
779.516; 7811.975;  143.125;    0.000
779.708; 7381.975;  158.125;    0.000
779.900; 7166.975;  142.125;    0.000
780.091; 6894.975;  131.125;    0.000
780.283; 6528.975;  176.125;    0.000
780.475; 6324.975;  151.125;    0.000
780.667; 6353.975;  120.125;    0.000
780.859; 6042.975;  134.125;    0.000
781.050; 5800.975;  183.125;    0.000
781.242; 5751.975;   95.125;    0.000
781.434; 5621.975;  127.125;    0.000
781.625; 5587.975;  163.125;    0.000
781.817; 5454.975;  170.125;    0.000
782.008; 5345.975;  123.125;    0.000
782.200; 5324.975;  141.125;    0.000
782.392; 5269.975;  149.125;    0.000
782.583; 5166.975;  155.125;    0.000
782.775; 5198.975;  140.125;    0.000
782.966; 5011.975;  167.125;    0.000
783.158; 4953.975;  164.125;    0.000
783.349; 5035.975;  174.125;    0.000
783.541; 4986.975;  141.125;    0.000
783.732; 4980.975;  115.125;    0.000
783.924; 5006.975;  135.125;    0.000
784.115; 4897.975;  157.125;    0.000
784.306; 4776.975;  102.125;    0.000
784.498; 4684.975;  124.125;    0.000
784.689; 4815.975;  171.125;    0.000
784.880; 4706.975;  165.125;    0.000
785.072; 4751.975;  152.125;    0.000
785.263; 4637.975;  146.125;    0.000
785.454; 4559.975;  145.125;    0.000
785.645; 4670.975;  127.125;    0.000
785.837; 4550.975;  138.125;    0.000
786.028; 4592.975;  151.125;    0.000
786.219; 4569.975;  142.125;    0.000
786.410; 4558.975;  140.125;    0.000
786.601; 4510.975;  137.125;    0.000
786.792; 4486.975;  158.125;    0.000
786.984; 4571.975;  139.125;    0.000
787.175; 4647.975;  140.125;    0.000
787.366; 4510.975;  145.125;    0.000
787.557; 4600.975;  156.125;    0.000
787.748; 4568.975;  148.125;    0.000
787.939; 4520.975;  157.125;    0.000
788.130; 4596.975;  179.125;    0.000
788.321; 4678.975;  142.125;    0.000
788.512; 4757.975;  167.125;    0.000
788.703; 4603.975;  145.125;    0.000
788.894; 4731.975;  132.125;    0.000
789.084; 4707.975;  113.125;    0.000
789.275; 4818.975;  134.125;    0.000
789.466; 4743.975;  151.125;    0.000
789.657; 4640.975;  138.125;    0.000
789.848; 4808.975;  145.125;    0.000
790.039; 4838.975;  130.125;    0.000
790.229; 4818.975;  140.125;    0.000
790.420; 4738.975;  135.125;    0.000
790.611; 4705.975;  156.125;    0.000
790.801; 4763.975;   64.125;    0.000
790.992; 4826.975;  150.125;    0.000
791.183; 4744.975;  177.125;    0.000
791.373; 4672.975;   91.125;    0.000
791.564; 4757.975;   85.125;    0.000
791.755; 4678.975;  125.125;    0.000
791.945; 4710.975;   94.125;    0.000
792.136; 4663.975;   98.125;    0.000
792.326; 4597.975;  105.125;    0.000
792.517; 4731.975;  136.125;    0.000
792.707; 4800.975;  140.125;    0.000
792.898; 4662.975;  164.125;    0.000
793.088; 4692.975;  116.125;    0.000
793.279; 4795.975;  112.125;    0.000
793.469; 4844.975;  105.125;    0.000
793.660; 4893.975;  161.125;    0.000
793.850; 5022.975;  133.125;    0.000
794.040; 5027.975;  121.125;    0.000
794.231; 5236.975;  115.125;    0.000
794.421; 5647.975;  152.125;    0.000
794.611; 6151.975;  132.125;    0.000
794.802; 6958.975;  144.125;    0.000
794.992; 7284.975;  142.125;    0.000
795.182; 7293.975;  179.125;    0.000
795.372; 6992.975;  167.125;    0.000
795.563; 6414.975;  149.125;    0.000
795.753; 5998.975;  117.125;    0.000
795.943; 5743.975;  146.125;    0.000
796.133; 5411.975;  119.125;    0.000
796.323; 5199.975;  141.125;    0.000
796.513; 5026.975;  134.125;    0.000
796.703; 5092.975;  116.125;    0.000
796.893; 4854.975;  120.125;    0.000
797.083; 4822.975;  131.125;    0.000
797.273; 4750.975;  118.125;    0.000
797.463; 4650.975;  130.125;    0.000
797.653; 4643.975;   87.125;    0.000
797.843; 4472.975;  123.125;    0.000
798.033; 4460.975;  115.125;    0.000
798.223; 4510.975;  142.125;    0.000
798.413; 4420.975;  148.125;    0.000
798.603; 4304.975;  147.125;    0.000
798.793; 4349.975;  107.125;    0.000
798.983; 4251.975;  121.125;    0.000
799.172; 4050.975;  120.125;    0.000
799.362; 4155.975;  145.125;    0.000
799.552; 4131.975;  101.125;    0.000
799.742; 4099.975;  149.125;    0.000
799.932; 4018.975;  104.125;    0.000
800.121; 4130.975;  175.125;    0.000
800.311; 4072.975;  132.125;    0.000
800.501; 3960.975;  118.125;    0.000
800.690; 4024.975;  162.125;    0.000
800.880; 3918.975;  141.125;    0.000
801.070; 4004.975;  151.125;    0.000
801.259; 4013.975;  167.125;    0.000
801.449; 3923.975;  108.125;    0.000
801.638; 4029.975;  176.125;    0.000
801.828; 3952.975;  118.125;    0.000
802.017; 3887.975;  179.125;    0.000
802.207; 3935.975;  127.125;    0.000
802.396; 3924.975;  167.125;    0.000
802.586; 3833.975;  129.125;    0.000
802.775; 3925.975;  142.125;    0.000
802.965; 3766.975;  147.125;    0.000
803.154; 3862.975;  179.125;    0.000
803.343; 3767.975;  117.125;    0.000
803.533; 3839.975;  120.125;    0.000
803.722; 3757.975;  122.125;    0.000
803.911; 3860.975;  155.125;    0.000
804.101; 3792.975;  147.125;    0.000
804.290; 3812.975;  160.125;    0.000
804.479; 3718.975;  139.125;    0.000
804.668; 3867.975;  180.125;    0.000
804.857; 3755.975;  131.125;    0.000
805.047; 3707.975;  119.125;    0.000
805.236; 3729.975;  139.125;    0.000
805.425; 3784.975;  163.125;    0.000
805.614; 3644.975;  103.125;    0.000
805.803; 3676.975;  133.125;    0.000
805.992; 3712.975;  147.125;    0.000
806.181; 3689.975;  109.125;    0.000
806.370; 3591.975;  133.125;    0.000
806.559; 3637.975;  119.125;    0.000
806.748; 3703.975;  144.125;    0.000
806.937; 3727.975;  147.125;    0.000
807.126; 3663.975;  134.125;    0.000
807.315; 3642.975;  132.125;    0.000
807.504; 3687.975;  141.125;    0.000
807.693; 3776.975;  145.125;    0.000
807.882; 3662.975;   91.125;    0.000
808.071; 3746.975;  116.125;    0.000
808.260; 3670.975;  105.125;    0.000
808.448; 3740.975;  184.125;    0.000
808.637; 3739.975;  146.125;    0.000
808.826; 3634.975;  153.125;    0.000
809.015; 3750.975;  113.125;    0.000
809.203; 3752.975;  166.125;    0.000
809.392; 3735.975;  117.125;    0.000
809.581; 3654.975;  186.125;    0.000
809.770; 3678.975;  122.125;    0.000
809.958; 3728.975;  140.125;    0.000
810.147; 3661.975;  130.125;    0.000
810.335; 3744.975;  112.125;    0.000
810.524; 3774.975;  106.125;    0.000
810.713; 3656.975;  154.125;    0.000
810.901; 3871.975;  131.125;    0.000
811.090; 3793.975;  164.125;    0.000
811.278; 3823.975;  159.125;    0.000
811.467; 3976.975;  194.125;    0.000
811.655; 3937.975;  164.125;    0.000
811.844; 3862.975;  149.125;    0.000
812.032; 3865.975;  169.125;    0.000
812.220; 3916.975;  163.125;    0.000
812.409; 3931.975;  134.125;    0.000
812.597; 3835.975;  165.125;    0.000
812.785; 3896.975;  180.125;    0.000
812.974; 3953.975;  166.125;    0.000
813.162; 4079.975;  171.125;    0.000
813.350; 3950.975;  142.125;    0.000
813.539; 3944.975;  126.125;    0.000
813.727; 4037.975;  153.125;    0.000
813.915; 3939.975;  138.125;    0.000
814.103; 4098.975;  191.125;    0.000
814.291; 3994.975;  142.125;    0.000
814.479; 4003.975;  156.125;    0.000
814.668; 4027.975;  152.125;    0.000
814.856; 4188.975;  150.125;    0.000
815.044; 4174.975;  165.125;    0.000
815.232; 4262.975;  172.125;    0.000
815.420; 4314.975;  147.125;    0.000
815.608; 4314.975;  143.125;    0.000
815.796; 4357.975;  126.125;    0.000
815.984; 4376.975;  152.125;    0.000
816.172; 4512.975;  129.125;    0.000
816.360; 4572.975;  177.125;    0.000
816.548; 4560.975;  141.125;    0.000
816.736; 4871.975;  142.125;    0.000
816.924; 4941.975;  161.125;    0.000
817.111; 5079.975;  138.125;    0.000
817.299; 5449.975;  112.125;    0.000
817.487; 5751.975;  180.125;    0.000
817.675; 6100.975;  138.125;    0.000
817.863; 6867.975;  172.125;    0.000
818.050; 8668.975;  142.125;    0.000
818.238;14335.975;  151.125;    0.000
818.426;19866.975;  129.125;    0.000
818.613;14825.975;  124.125;    0.000
818.801;12828.975;  209.125;    0.000
818.989;12459.975;  178.125;    0.000
819.176;12868.975;  155.125;    0.000
819.364;17696.975;  174.125;    0.000
819.552;24599.975;  131.125;    0.000
819.739;17861.975;  184.125;    0.000
819.927;13626.975;  132.125;    0.000
820.114;11851.975;  173.125;    0.000
820.302;10463.975;  140.125;    0.000
820.489; 9776.975;  133.125;    0.000
820.677; 9345.975;  167.125;    0.000
820.864; 8866.975;  161.125;    0.000
821.052; 9240.975;  134.125;    0.000
821.239; 9422.975;  149.125;    0.000
821.426; 9991.975;  160.125;    0.000
821.614;11735.975;  143.125;    0.000
821.801;12342.975;  118.125;    0.000
821.988;11143.975;  154.125;    0.000
822.176;10746.975;  112.125;    0.000
822.363;11002.975;  131.125;    0.000
822.550;10196.975;  131.125;    0.000
822.737; 9148.975;  104.125;    0.000
822.924; 8458.975;  160.125;    0.000
823.112; 8212.975;  161.125;    0.000
823.299; 7772.975;  169.125;    0.000
823.486; 7497.975;  129.125;    0.000
823.673; 6957.975;  135.125;    0.000
823.860; 6856.975;  169.125;    0.000
824.047; 7015.975;  124.125;    0.000
824.234; 7453.975;  160.125;    0.000
824.421; 7591.975;  114.125;    0.000
824.608; 6903.975;  191.125;    0.000
824.795; 6315.975;  160.125;    0.000
824.982; 5908.975;  139.125;    0.000
825.169; 5605.975;  121.125;    0.000
825.356; 5282.975;  148.125;    0.000
825.543; 5156.975;  167.125;    0.000
825.730; 5030.975;  103.125;    0.000
825.917; 4797.975;  113.125;    0.000
826.104; 4785.975;  188.125;    0.000
826.290; 4732.975;  193.125;    0.000
826.477; 4573.975;  175.125;    0.000
826.664; 4502.975;  151.125;    0.000
826.851; 4271.975;  122.125;    0.000
827.038; 4209.975;  121.125;    0.000
827.224; 4093.975;  124.125;    0.000
827.411; 4053.975;  155.125;    0.000
827.598; 3898.975;  127.125;    0.000
827.784; 4004.975;  140.125;    0.000
827.971; 3937.975;  114.125;    0.000
828.157; 3879.975;  135.125;    0.000
828.344; 3801.975;  173.125;    0.000
828.531; 3774.975;  113.125;    0.000
828.717; 3741.975;  137.125;    0.000
828.904; 3699.975;  158.125;    0.000
829.090; 3622.975;  199.125;    0.000
829.277; 3619.975;  156.125;    0.000
829.463; 3564.975;  154.125;    0.000
829.650; 3569.975;  174.125;    0.000
829.836; 3522.975;  136.125;    0.000
830.022; 3514.975;  143.125;    0.000
830.209; 3492.975;  157.125;    0.000
830.395; 3419.975;  156.125;    0.000
830.581; 3397.975;  148.125;    0.000
830.768; 3342.975;  169.125;    0.000
830.954; 3394.975;  169.125;    0.000
831.140; 3357.975;  124.125;    0.000
831.327; 3330.975;  157.125;    0.000
831.513; 3359.975;  163.125;    0.000
831.699; 3306.975;  176.125;    0.000
831.885; 3224.975;  154.125;    0.000
832.071; 3213.975;  159.125;    0.000
832.257; 3096.975;  142.125;    0.000
832.444; 3136.975;  159.125;    0.000
832.630; 3142.975;  129.125;    0.000
832.816; 3191.975;  132.125;    0.000
833.002; 3139.975;  125.125;    0.000
833.188; 3169.975;  144.125;    0.000
833.374; 3083.975;  131.125;    0.000
833.560; 3102.975;  154.125;    0.000
833.746; 2998.975;  171.125;    0.000
833.932; 2968.975;  162.125;    0.000
834.118; 2967.975;  131.125;    0.000
834.303; 3064.975;  113.125;    0.000
834.489; 3000.975;  170.125;    0.000
834.675; 3062.975;  177.125;    0.000
834.861; 2895.975;  154.125;    0.000
835.047; 3024.975;  171.125;    0.000
835.233; 2921.975;   98.125;    0.000
835.418; 3089.975;  138.125;    0.000
835.604; 2900.975;  140.125;    0.000
835.790; 2886.975;  130.125;    0.000
835.976; 2971.975;  129.125;    0.000
836.161; 2939.975;  142.125;    0.000
836.347; 2875.975;  128.125;    0.000
836.533; 2901.975;  143.125;    0.000
836.718; 3018.975;  164.125;    0.000
836.904; 2894.975;  172.125;    0.000
837.089; 2910.975;  152.125;    0.000
837.275; 2958.975;  143.125;    0.000
837.460; 2877.975;  125.125;    0.000
837.646; 2764.975;  137.125;    0.000
837.831; 2954.975;  153.125;    0.000
838.017; 2902.975;  171.125;    0.000
838.202; 2908.975;  111.125;    0.000
838.388; 2939.975;  140.125;    0.000
838.573; 2893.975;  158.125;    0.000
838.759; 2940.975;  188.125;    0.000
838.944; 2950.975;  125.125;    0.000
839.129; 2909.975;  123.125;    0.000
839.315; 2902.975;  181.125;    0.000
839.500; 2867.975;  150.125;    0.000
839.685; 2849.975;  109.125;    0.000
839.870; 2990.975;  202.125;    0.000
840.056; 3011.975;  101.125;    0.000
840.241; 2886.975;  184.125;    0.000
840.426; 2900.975;  192.125;    0.000
840.611; 2999.975;  180.125;    0.000
840.796; 3020.975;  156.125;    0.000
840.981; 3060.975;  142.125;    0.000
841.166; 3006.975;  161.125;    0.000
841.352; 3029.975;  185.125;    0.000
841.537; 2986.975;  139.125;    0.000
841.722; 3115.975;  143.125;    0.000
841.907; 3121.975;  140.125;    0.000
842.092; 3118.975;  176.125;    0.000
842.277; 3125.975;  136.125;    0.000
842.461; 3308.975;  155.125;    0.000
842.646; 3210.975;  163.125;    0.000
842.831; 3365.975;  153.125;    0.000
843.016; 3464.975;  187.125;    0.000
843.201; 3445.975;  179.125;    0.000
843.386; 3639.975;  167.125;    0.000
843.571; 3760.975;  129.125;    0.000
843.755; 3929.975;  136.125;    0.000
843.940; 4265.975;  121.125;    0.000
844.125; 4665.975;  157.125;    0.000
844.310; 5490.975;  175.125;    0.000
844.494; 6823.975;  164.125;    0.000
844.679; 9265.975;  167.125;    0.000
844.864; 9027.975;  166.125;    0.000
845.048; 7569.975;  132.125;    0.000
845.233; 6604.975;  175.125;    0.000
845.418; 5748.975;  159.125;    0.000
845.602; 5179.975;  147.125;    0.000
845.787; 4716.975;  132.125;    0.000
845.971; 4529.975;  187.125;    0.000
846.156; 4117.975;  141.125;    0.000
846.340; 3991.975;  153.125;    0.000
846.525; 3764.975;  157.125;    0.000
846.709; 3749.975;  117.125;    0.000
846.893; 3561.975;  147.125;    0.000
847.078; 3417.975;  170.125;    0.000
847.262; 3358.975;  150.125;    0.000
847.447; 3191.975;  132.125;    0.000
847.631; 3177.975;  144.125;    0.000
847.815; 3049.975;  157.125;    0.000
848.000; 3063.975;  164.125;    0.000
848.184; 3116.975;  174.125;    0.000
848.368; 2914.975;  149.125;    0.000
848.552; 2835.975;  143.125;    0.000
848.736; 2977.975;  132.125;    0.000
848.921; 2840.975;  147.125;    0.000
849.105; 2811.975;  150.125;    0.000
849.289; 2772.975;  146.125;    0.000
849.473; 2746.975;  167.125;    0.000
849.657; 2695.975;  149.125;    0.000
849.841; 2749.975;  181.125;    0.000
850.025; 2720.975;  154.125;    0.000
850.209; 2735.975;  152.125;    0.000
850.393; 2606.975;  139.125;    0.000
850.577; 2700.975;  128.125;    0.000
850.761; 2669.975;  194.125;    0.000
850.945; 2603.975;  152.125;    0.000
851.129; 2632.975;  157.125;    0.000
851.313; 2610.975;  181.125;    0.000
851.497; 2587.975;  145.125;    0.000
851.680; 2617.975;  168.125;    0.000
851.864; 2594.975;  185.125;    0.000
852.048; 2645.975;  170.125;    0.000
852.232; 2612.975;  192.125;    0.000
852.416; 2686.975;  182.125;    0.000
852.599; 2609.975;  169.125;    0.000
852.783; 2568.975;  168.125;    0.000
852.967; 2643.975;  184.125;    0.000
853.150; 2609.975;  163.125;    0.000
853.334; 2576.975;  164.125;    0.000
853.518; 2611.975;  190.125;    0.000
853.701; 2545.975;  137.125;    0.000
853.885; 2508.975;  177.125;    0.000
854.068; 2563.975;  163.125;    0.000
854.252; 2477.975;  139.125;    0.000
854.435; 2658.975;  152.125;    0.000
854.619; 2477.975;  148.125;    0.000
854.802; 2503.975;  168.125;    0.000
854.986; 2544.975;  157.125;    0.000
855.169; 2541.975;  147.125;    0.000
855.353; 2614.975;  173.125;    0.000
855.536; 2537.975;  127.125;    0.000
855.719; 2652.975;  191.125;    0.000
855.903; 2557.975;  186.125;    0.000
856.086; 2587.975;  145.125;    0.000
856.269; 2588.975;  130.125;    0.000
856.452; 2641.975;  153.125;    0.000
856.636; 2689.975;  129.125;    0.000
856.819; 2817.975;  134.125;    0.000
857.002; 2956.975;  152.125;    0.000
857.185; 2749.975;  140.125;    0.000
857.368; 2685.975;  170.125;    0.000
857.552; 2733.975;  132.125;    0.000
857.735; 2781.975;  160.125;    0.000
857.918; 2673.975;  139.125;    0.000
858.101; 2669.975;  159.125;    0.000
858.284; 2613.975;  136.125;    0.000
858.467; 2683.975;  147.125;    0.000
858.650; 2771.975;  153.125;    0.000
858.833; 2767.975;  113.125;    0.000
859.016; 2827.975;  167.125;    0.000
859.199; 2901.975;  141.125;    0.000
859.382; 3096.975;  155.125;    0.000
859.564; 3348.975;  136.125;    0.000
859.747; 3244.975;  142.125;    0.000
859.930; 3118.975;  141.125;    0.000
860.113; 3111.975;  156.125;    0.000
860.296; 3053.975;  167.125;    0.000
860.478; 3017.975;  121.125;    0.000
860.661; 2971.975;  230.125;    0.000
860.844; 2972.975;  186.125;    0.000
861.027; 2976.975;  155.125;    0.000
861.209; 2889.975;  151.125;    0.000
861.392; 2909.975;  162.125;    0.000
861.575; 2952.975;  150.125;    0.000
861.757; 2853.975;  162.125;    0.000
861.940; 2921.975;  207.125;    0.000
862.122; 3033.975;  113.125;    0.000
862.305; 3109.975;  114.125;    0.000
862.487; 3115.975;  162.125;    0.000
862.670; 3339.975;  148.125;    0.000
862.852; 3783.975;  131.125;    0.000
863.035; 4393.975;  174.125;    0.000
863.217; 4315.975;  170.125;    0.000
863.400; 4054.975;  148.125;    0.000
863.582; 3822.975;  129.125;    0.000
863.764; 3692.975;  181.125;    0.000
863.947; 3615.975;  152.125;    0.000
864.129; 3542.975;  178.125;    0.000
864.311; 3452.975;  139.125;    0.000
864.493; 3282.975;  166.125;    0.000
864.676; 3385.975;  148.125;    0.000
864.858; 3312.975;  123.125;    0.000
865.040; 3344.975;  180.125;    0.000
865.222; 3275.975;  131.125;    0.000
865.404; 3328.975;  146.125;    0.000
865.587; 3497.975;  175.125;    0.000
865.769; 3609.975;  183.125;    0.000
865.951; 3669.975;  171.125;    0.000
866.133; 3648.975;  165.125;    0.000
866.315; 3561.975;  138.125;    0.000
866.497; 3579.975;  139.125;    0.000
866.679; 3743.975;  167.125;    0.000
866.861; 3823.975;  151.125;    0.000
867.043; 3955.975;  190.125;    0.000
867.225; 4229.975;  140.125;    0.000
867.407; 4468.975;  125.125;    0.000
867.589; 5014.975;  141.125;    0.000
867.770; 5930.975;  149.125;    0.000
867.952; 7892.975;  138.125;    0.000
868.134; 9997.975;  153.125;    0.000
868.316;10005.975;  148.125;    0.000
868.498; 9680.975;  180.125;    0.000
868.679; 8566.975;  152.125;    0.000
868.861; 7313.975;  174.125;    0.000
869.043; 6327.975;  152.125;    0.000
869.224; 5683.975;  177.125;    0.000
869.406; 5057.975;  171.125;    0.000
869.588; 4868.975;  177.125;    0.000
869.769; 4699.975;  174.125;    0.000
869.951; 4544.975;  167.125;    0.000
870.132; 4632.975;  144.125;    0.000
870.314; 4881.975;  143.125;    0.000
870.495; 5103.975;  162.125;    0.000
870.677; 4714.975;  136.125;    0.000
870.858; 4459.975;  155.125;    0.000
871.040; 4697.975;  179.125;    0.000
871.221; 5195.975;  177.125;    0.000
871.403; 4866.975;  180.125;    0.000
871.584; 4616.975;  157.125;    0.000
871.765; 4898.975;  183.125;    0.000
871.947; 5097.975;  169.125;    0.000
872.128; 4526.975;  162.125;    0.000
872.309; 4038.975;  159.125;    0.000
872.491; 3741.975;  148.125;    0.000
872.672; 3674.975;  163.125;    0.000
872.853; 3553.975;  152.125;    0.000
873.034; 3422.975;  166.125;    0.000
873.215; 3336.975;  155.125;    0.000
873.396; 3137.975;  147.125;    0.000
873.578; 2978.975;  147.125;    0.000
873.759; 2873.975;  153.125;    0.000
873.940; 2948.975;  194.125;    0.000
874.121; 2773.975;  179.125;    0.000
874.302; 2859.975;  155.125;    0.000
874.483; 2766.975;  131.125;    0.000
874.664; 2819.975;  106.125;    0.000
874.845; 2727.975;  122.125;    0.000
875.026; 2647.975;  127.125;    0.000
875.207; 2588.975;  151.125;    0.000
875.388; 2640.975;  149.125;    0.000
875.568; 2520.975;  164.125;    0.000
875.749; 2532.975;  176.125;    0.000
875.930; 2578.975;  207.125;    0.000
876.111; 2579.975;  177.125;    0.000
876.292; 2521.975;  178.125;    0.000
876.472; 2481.975;  163.125;    0.000
876.653; 2425.975;  159.125;    0.000
876.834; 2522.975;  177.125;    0.000
877.015; 2446.975;  212.125;    0.000
877.195; 2447.975;  166.125;    0.000
877.376; 2433.975;  157.125;    0.000
877.556; 2345.975;  175.125;    0.000
877.737; 2332.975;  220.125;    0.000
877.918; 2368.975;  163.125;    0.000
878.098; 2274.975;  166.125;    0.000
878.279; 2335.975;  136.125;    0.000
878.459; 2367.975;  167.125;    0.000
878.640; 2355.975;  167.125;    0.000
878.820; 2265.975;  155.125;    0.000
879.000; 2308.975;  158.125;    0.000
879.181; 2194.975;  155.125;    0.000
879.361; 2298.975;  181.125;    0.000
879.542; 2314.975;  181.125;    0.000
879.722; 2269.975;  117.125;    0.000
879.902; 2295.975;  180.125;    0.000
880.083; 2302.975;  139.125;    0.000
880.263; 2376.975;  168.125;    0.000
880.443; 2458.975;  206.125;    0.000
880.623; 2919.975;  132.125;    0.000
880.803; 3430.975;  149.125;    0.000
880.984; 2838.975;  189.125;    0.000
881.164; 2583.975;  171.125;    0.000
881.344; 2458.975;  150.125;    0.000
881.524; 2414.975;  185.125;    0.000
881.704; 2502.975;  152.125;    0.000
881.884; 2592.975;  188.125;    0.000
882.064; 2526.975;  155.125;    0.000
882.244; 2654.975;  182.125;    0.000
882.424; 2498.975;  154.125;    0.000
882.604; 2460.975;  175.125;    0.000
882.784; 2479.975;  137.125;    0.000
882.964; 2338.975;  135.125;    0.000
883.144; 2292.975;  142.125;    0.000
883.324; 2282.975;  192.125;    0.000
883.504; 2307.975;  193.125;    0.000
883.683; 2206.975;  208.125;    0.000
883.863; 2224.975;  127.125;    0.000
884.043; 2217.975;  140.125;    0.000
884.223; 2208.975;  167.125;    0.000
884.402; 2156.975;  156.125;    0.000
884.582; 2132.975;  185.125;    0.000
884.762; 2183.975;  187.125;    0.000
884.941; 2209.975;  201.125;    0.000
885.121; 2189.975;  157.125;    0.000
885.301; 2145.975;  173.125;    0.000
885.480; 2081.975;  158.125;    0.000
885.660; 2124.975;  153.125;    0.000
885.839; 2191.975;  144.125;    0.000
886.019; 2177.975;  184.125;    0.000
886.198; 2105.975;  132.125;    0.000
886.378; 2055.975;  124.125;    0.000
886.557; 2039.975;  146.125;    0.000
886.737; 2080.975;  157.125;    0.000
886.916; 2089.975;  203.125;    0.000
887.095; 2013.975;  151.125;    0.000
887.275; 1976.975;  143.125;    0.000
887.454; 2092.975;  140.125;    0.000
887.633; 2083.975;  196.125;    0.000
887.813; 2055.975;  161.125;    0.000
887.992; 2079.975;  183.125;    0.000
888.171; 1983.975;  153.125;    0.000
888.350; 2085.975;  185.125;    0.000
888.530; 2020.975;  163.125;    0.000
888.709; 1986.975;  174.125;    0.000
888.888; 2012.975;  179.125;    0.000
889.067; 2116.975;  178.125;    0.000
889.246; 2095.975;  184.125;    0.000
889.425; 2005.975;  169.125;    0.000
889.604; 2068.975;  210.125;    0.000
889.783; 2103.975;  183.125;    0.000
889.962; 1969.975;  116.125;    0.000
890.141; 2080.975;  179.125;    0.000
890.320; 2001.975;  182.125;    0.000
890.499; 2035.975;  188.125;    0.000
890.678; 1976.975;  167.125;    0.000
890.857; 2047.975;  141.125;    0.000
891.036; 1951.975;  179.125;    0.000
891.214; 2009.975;  156.125;    0.000
891.393; 2108.975;  209.125;    0.000
891.572; 2063.975;  181.125;    0.000
891.751; 2058.975;  172.125;    0.000
891.930; 1982.975;  169.125;    0.000
892.108; 2061.975;  131.125;    0.000
892.287; 2023.975;  162.125;    0.000
892.466; 2006.975;  178.125;    0.000
892.644; 2124.975;  161.125;    0.000
892.823; 2044.975;  180.125;    0.000
893.001; 1993.975;  179.125;    0.000
893.180; 1984.975;  152.125;    0.000
893.359; 2024.975;  184.125;    0.000
893.537; 1953.975;  178.125;    0.000
893.716; 1941.975;  169.125;    0.000
893.894; 1989.975;  159.125;    0.000
894.073; 1977.975;  179.125;    0.000
894.251; 2035.975;  167.125;    0.000
894.429; 2047.975;  142.125;    0.000
894.608; 1925.975;  166.125;    0.000
894.786; 1971.975;  153.125;    0.000
894.964; 1997.975;  181.125;    0.000
895.143; 1912.975;  161.125;    0.000
895.321; 2022.975;  198.125;    0.000
895.499; 2009.975;  184.125;    0.000
895.677; 2014.975;  178.125;    0.000
895.856; 1991.975;  226.125;    0.000
896.034; 1999.975;  180.125;    0.000
896.212; 2072.975;  200.125;    0.000
896.390; 2017.975;  161.125;    0.000
896.568; 2012.975;  204.125;    0.000
896.746; 2022.975;  136.125;    0.000
896.924; 2034.975;  171.125;    0.000
897.102; 2121.975;  203.125;    0.000
897.280; 1985.975;  142.125;    0.000
897.458; 2021.975;  159.125;    0.000
897.636; 2032.975;  163.125;    0.000
897.814; 2060.975;  137.125;    0.000
897.992; 2053.975;  199.125;    0.000
898.170; 2059.975;  176.125;    0.000
898.348; 2059.975;  195.125;    0.000
898.526; 2009.975;  199.125;    0.000
898.704; 2109.975;  260.125;    0.000
898.882; 2015.975;  185.125;    0.000
899.059; 1984.975;  169.125;    0.000
899.237; 2068.975;  197.125;    0.000
899.415; 2085.975;  207.125;    0.000
899.593; 2091.975;  169.125;    0.000
899.770; 2108.975;  182.125;    0.000
899.948; 2175.975;  198.125;    0.000
900.125; 2139.975;  200.125;    0.000
900.303; 2059.975;  165.125;    0.000
900.481; 2114.975;  182.125;    0.000
900.658; 2231.975;  206.125;    0.000
900.836; 2114.975;  188.125;    0.000
901.013; 2112.975;  169.125;    0.000
901.191; 2098.975;  172.125;    0.000
901.368; 2154.975;  170.125;    0.000
901.546; 2260.975;  234.125;    0.000
901.723; 2140.975;  173.125;    0.000
901.901; 2301.975;  190.125;    0.000
902.078; 2246.975;  145.125;    0.000
902.255; 2274.975;  204.125;    0.000
902.433; 2317.975;  198.125;    0.000
902.610; 2331.975;  190.125;    0.000
902.787; 2305.975;  204.125;    0.000
902.964; 2420.975;  208.125;    0.000
903.142; 2420.975;  187.125;    0.000
903.319; 2431.975;  216.125;    0.000
903.496; 2458.975;  186.125;    0.000
903.673; 2469.975;  201.125;    0.000
903.850; 2523.975;  195.125;    0.000
904.027; 2665.975;  211.125;    0.000
904.204; 2662.975;  197.125;    0.000
904.381; 2812.975;  198.125;    0.000
904.558; 3145.975;  188.125;    0.000
904.735; 3416.975;  207.125;    0.000
904.912; 3499.975;  217.125;    0.000
905.089; 3264.975;  188.125;    0.000
905.266; 3265.975;  160.125;    0.000
905.443; 3085.975;  221.125;    0.000
905.620; 2903.975;  163.125;    0.000
905.797; 2862.975;  186.125;    0.000
905.974; 2771.975;  205.125;    0.000
906.151; 2803.975;  159.125;    0.000
906.327; 2801.975;  206.125;    0.000
906.504; 2648.975;  201.125;    0.000
906.681; 2586.975;  202.125;    0.000
906.858; 2672.975;  188.125;    0.000
907.034; 2542.975;  207.125;    0.000
907.211; 2547.975;  182.125;    0.000
907.388; 2503.975;  184.125;    0.000
907.564; 2436.975;  148.125;    0.000
907.741; 2313.975;  181.125;    0.000
907.917; 2406.975;  191.125;    0.000
908.094; 2338.975;  210.125;    0.000
908.271; 2282.975;  171.125;    0.000
908.447; 2349.975;  241.125;    0.000
908.623; 2307.975;  188.125;    0.000
908.800; 2298.975;  205.125;    0.000
908.976; 2300.975;  210.125;    0.000
909.153; 2288.975;  193.125;    0.000
909.329; 2243.975;  206.125;    0.000
909.505; 2206.975;  181.125;    0.000
909.682; 2194.975;  192.125;    0.000
909.858; 2203.975;  134.125;    0.000
910.034; 2165.975;  214.125;    0.000
910.211; 2178.975;  182.125;    0.000
910.387; 2194.975;  194.125;    0.000
910.563; 2120.975;  199.125;    0.000
910.739; 2172.975;  188.125;    0.000
910.915; 2127.975;  192.125;    0.000
911.091; 2168.975;  198.125;    0.000
911.268; 2178.975;  178.125;    0.000
911.444; 2151.975;  201.125;    0.000
911.620; 2131.975;  181.125;    0.000
911.796; 2192.975;  185.125;    0.000
911.972; 2203.975;  176.125;    0.000
912.148; 2102.975;  196.125;    0.000
912.324; 2226.975;  192.125;    0.000
912.500; 2188.975;  204.125;    0.000
912.676; 2097.975;  164.125;    0.000
912.851; 2148.975;  193.125;    0.000
913.027; 2086.975;  175.125;    0.000
913.203; 2096.975;  193.125;    0.000
913.379; 2143.975;  213.125;    0.000
913.555; 2103.975;  211.125;    0.000
913.730; 2157.975;  194.125;    0.000
913.906; 2142.975;  153.125;    0.000
914.082; 2141.975;  212.125;    0.000
914.258; 2136.975;  194.125;    0.000
914.433; 2036.975;  191.125;    0.000
914.609; 2003.975;  208.125;    0.000
914.784; 2132.975;  176.125;    0.000
914.960; 2189.975;  227.125;    0.000
915.136; 2123.975;  152.125;    0.000
915.311; 2157.975;  171.125;    0.000
915.487; 2154.975;  173.125;    0.000
915.662; 2203.975;  189.125;    0.000
915.838; 2185.975;  179.125;    0.000
916.013; 2124.975;  191.125;    0.000
916.189; 2103.975;  207.125;    0.000
916.364; 2230.975;  194.125;    0.000
916.539; 2158.975;  174.125;    0.000
916.715; 2167.975;  207.125;    0.000
916.890; 2127.975;  193.125;    0.000
917.065; 2140.975;  199.125;    0.000
917.240; 2130.975;  214.125;    0.000
917.416; 2156.975;  194.125;    0.000
917.591; 2216.975;  213.125;    0.000
917.766; 2188.975;  194.125;    0.000
917.941; 2143.975;  201.125;    0.000
918.116; 2216.975;  198.125;    0.000
918.292; 2123.975;  176.125;    0.000
918.467; 2255.975;  190.125;    0.000
918.642; 2117.975;  200.125;    0.000
918.817; 2204.975;  186.125;    0.000
918.992; 2189.975;  174.125;    0.000
919.167; 2248.975;  197.125;    0.000
919.342; 2350.975;  188.125;    0.000
919.517; 2261.975;  179.125;    0.000
919.692; 2229.975;  182.125;    0.000
919.867; 2247.975;  216.125;    0.000
920.041; 2265.975;  208.125;    0.000
920.216; 2330.975;  223.125;    0.000
920.391; 2367.975;  203.125;    0.000
920.566; 2357.975;  202.125;    0.000
920.741; 2384.975;  197.125;    0.000
920.915; 2499.975;  223.125;    0.000
921.090; 2604.975;  183.125;    0.000
921.265; 3002.975;  169.125;    0.000
921.439; 3137.975;  212.125;    0.000
921.614; 2935.975;  190.125;    0.000
921.789; 2806.975;  177.125;    0.000
921.963; 2737.975;  233.125;    0.000
922.138; 2666.975;  156.125;    0.000
922.312; 2685.975;  193.125;    0.000
922.487; 2580.975;  208.125;    0.000
922.661; 2702.975;  212.125;    0.000
922.836; 2859.975;  210.125;    0.000
923.010; 2840.975;  183.125;    0.000
923.185; 2707.975;  228.125;    0.000
923.359; 2745.975;  227.125;    0.000
923.534; 2676.975;  189.125;    0.000
923.708; 2776.975;  210.125;    0.000
923.882; 2797.975;  217.125;    0.000
924.057; 2726.975;  195.125;    0.000
924.231; 2593.975;  201.125;    0.000
924.405; 2701.975;  188.125;    0.000
924.579; 2663.975;  188.125;    0.000
924.753; 2637.975;  174.125;    0.000
924.928; 2436.975;  179.125;    0.000
925.102; 2563.975;  186.125;    0.000
925.276; 2555.975;  201.125;    0.000
925.450; 2578.975;  211.125;    0.000
925.624; 2597.975;  238.125;    0.000
925.798; 2649.975;  191.125;    0.000
925.972; 2708.975;  192.125;    0.000
926.146; 2762.975;  198.125;    0.000
926.320; 2908.975;  151.125;    0.000
926.494; 3189.975;  202.125;    0.000
926.668; 3195.975;  197.125;    0.000
926.842; 3361.975;  177.125;    0.000
927.016; 3380.975;  202.125;    0.000
927.190; 3303.975;  207.125;    0.000
927.363; 3221.975;  180.125;    0.000
927.537; 3102.975;  212.125;    0.000
927.711; 3041.975;  148.125;    0.000
927.885; 2967.975;  196.125;    0.000
928.058; 2948.975;  173.125;    0.000
928.232; 3041.975;  219.125;    0.000
928.406; 2884.975;  141.125;    0.000
928.579; 2797.975;  157.125;    0.000
928.753; 2828.975;  205.125;    0.000
928.927; 2797.975;  196.125;    0.000
929.100; 2743.975;  237.125;    0.000
929.274; 2643.975;  166.125;    0.000
929.447; 2635.975;  150.125;    0.000
929.621; 2579.975;  188.125;    0.000
929.794; 2723.975;  169.125;    0.000
929.968; 2586.975;  194.125;    0.000
930.141; 2568.975;  226.125;    0.000
930.315; 2472.975;  196.125;    0.000
930.488; 2436.975;  233.125;    0.000
930.661; 2520.975;  188.125;    0.000
930.835; 2444.975;  170.125;    0.000
931.008; 2409.975;  176.125;    0.000
931.181; 2425.975;  175.125;    0.000
931.354; 2415.975;  212.125;    0.000
931.528; 2391.975;  177.125;    0.000
931.701; 2371.975;  218.125;    0.000
931.874; 2339.975;  175.125;    0.000
932.047; 2301.975;  157.125;    0.000
932.220; 2330.975;  187.125;    0.000
932.393; 2332.975;  166.125;    0.000
932.566; 2264.975;  168.125;    0.000
932.739; 2224.975;  203.125;    0.000
932.912; 2323.975;  202.125;    0.000
933.085; 2198.975;  209.125;    0.000
933.258; 2231.975;  196.125;    0.000
933.431; 2113.975;  207.125;    0.000
933.604; 2273.975;  201.125;    0.000
933.777; 2256.975;  202.125;    0.000
933.950; 2186.975;  184.125;    0.000
934.123; 2214.975;  167.125;    0.000
934.296; 2171.975;  209.125;    0.000
934.468; 2145.975;  216.125;    0.000
934.641; 2045.975;  156.125;    0.000
934.814; 2128.975;  215.125;    0.000
934.987; 2188.975;  201.125;    0.000
935.159; 2182.975;  176.125;    0.000
935.332; 2131.975;  203.125;    0.000
935.505; 2239.975;  163.125;    0.000
935.677; 2065.975;  169.125;    0.000
935.850; 2139.975;  178.125;    0.000
936.022; 2148.975;  187.125;    0.000
936.195; 2138.975;  207.125;    0.000
936.367; 2084.975;  191.125;    0.000
936.540; 2179.975;  214.125;    0.000
936.712; 2194.975;  202.125;    0.000
936.885; 2187.975;  195.125;    0.000
937.057; 2178.975;  173.125;    0.000
937.229; 2243.975;  179.125;    0.000
937.402; 2182.975;  174.125;    0.000
937.574; 2294.975;  140.125;    0.000
937.746; 2258.975;  153.125;    0.000
937.919; 2302.975;  196.125;    0.000
938.091; 2414.975;  173.125;    0.000
938.263; 2482.975;  206.125;    0.000
938.435; 2654.975;  213.125;    0.000
938.608; 2942.975;  204.125;    0.000
938.780; 3372.975;  199.125;    0.000
938.952; 3418.975;  190.125;    0.000
939.124; 3478.975;  182.125;    0.000
939.296; 3750.975;  188.125;    0.000
939.468; 3910.975;  119.125;    0.000
939.640; 3573.975;  171.125;    0.000
939.812; 3342.975;  222.125;    0.000
939.984; 3046.975;  172.125;    0.000
940.156; 2874.975;  171.125;    0.000
940.328; 2806.975;  215.125;    0.000
940.500; 2673.975;  179.125;    0.000
940.672; 2650.975;  178.125;    0.000
940.843; 2436.975;  193.125;    0.000
941.015; 2552.975;  207.125;    0.000
941.187; 2460.975;  179.125;    0.000
941.359; 2385.975;  191.125;    0.000
941.531; 2504.975;  160.125;    0.000
941.702; 2397.975;  208.125;    0.000
941.874; 2389.975;  143.125;    0.000
942.046; 2369.975;  189.125;    0.000
942.217; 2229.975;  167.125;    0.000
942.389; 2269.975;  199.125;    0.000
942.560; 2251.975;  179.125;    0.000
942.732; 2193.975;  209.125;    0.000
942.904; 2173.975;  180.125;    0.000
943.075; 2119.975;  197.125;    0.000
943.247; 2137.975;  207.125;    0.000
943.418; 2118.975;  183.125;    0.000
943.589; 2153.975;  176.125;    0.000
943.761; 2073.975;  165.125;    0.000
943.932; 2130.975;  170.125;    0.000
944.104; 2097.975;  147.125;    0.000
944.275; 2078.975;  149.125;    0.000
944.446; 2013.975;  191.125;    0.000
944.617; 2027.975;  128.125;    0.000
944.789; 2072.975;  166.125;    0.000
944.960; 2091.975;  195.125;    0.000
945.131; 1968.975;  164.125;    0.000
945.302; 2129.975;  229.125;    0.000
945.473; 1968.975;  153.125;    0.000
945.645; 2077.975;  166.125;    0.000
945.816; 2104.975;  187.125;    0.000
945.987; 2081.975;  193.125;    0.000
946.158; 2129.975;  166.125;    0.000
946.329; 2151.975;  196.125;    0.000
946.500; 2061.975;  152.125;    0.000
946.671; 2005.975;  161.125;    0.000
946.842; 1993.975;  176.125;    0.000
947.013; 2033.975;  188.125;    0.000
947.183; 1994.975;  213.125;    0.000
947.354; 1971.975;  163.125;    0.000
947.525; 1989.975;  204.125;    0.000
947.696; 1897.975;  159.125;    0.000
947.867; 1985.975;  197.125;    0.000
948.037; 1974.975;  174.125;    0.000
948.208; 2070.975;  163.125;    0.000
948.379; 1963.975;  189.125;    0.000
948.550; 1975.975;  173.125;    0.000
948.720; 1939.975;  186.125;    0.000
948.891; 1930.975;  166.125;    0.000
949.061; 1988.975;  197.125;    0.000
949.232; 1926.975;  168.125;    0.000
949.403; 1908.975;  188.125;    0.000
949.573; 1904.975;  164.125;    0.000
949.744; 2008.975;  194.125;    0.000
949.914; 1937.975;  154.125;    0.000
950.085; 1938.975;  197.125;    0.000
950.255; 1829.975;  187.125;    0.000
950.425; 1857.975;  193.125;    0.000
950.596; 1875.975;  182.125;    0.000
950.766; 1873.975;  202.125;    0.000
950.936; 1950.975;  230.125;    0.000
951.107; 1871.975;  133.125;    0.000
951.277; 1945.975;  234.125;    0.000
951.447; 1866.975;  200.125;    0.000
951.617; 1923.975;  212.125;    0.000
951.788; 1810.975;  176.125;    0.000
951.958; 1874.975;  218.125;    0.000
952.128; 1827.975;  198.125;    0.000
952.298; 1900.975;  185.125;    0.000
952.468; 1896.975;  231.125;    0.000
952.638; 1840.975;  213.125;    0.000
952.808; 1858.975;  218.125;    0.000
952.978; 1784.975;  252.125;    0.000
953.148; 1851.975;  200.125;    0.000
953.318; 1909.975;  243.125;    0.000
953.488; 1899.975;  140.125;    0.000
953.658; 1872.975;  208.125;    0.000
953.828; 1791.975;  179.125;    0.000
953.998; 1848.975;  211.125;    0.000
954.167; 1861.975;  197.125;    0.000
954.337; 1852.975;  217.125;    0.000
954.507; 1901.975;  219.125;    0.000
954.677; 1886.975;  201.125;    0.000
954.846; 1861.975;  241.125;    0.000
955.016; 1781.975;  222.125;    0.000
955.186; 1837.975;  200.125;    0.000
955.355; 1825.975;  247.125;    0.000
955.525; 1774.975;  212.125;    0.000
955.695; 1757.975;  200.125;    0.000
955.864; 1777.975;  196.125;    0.000
956.034; 1823.975;  195.125;    0.000
956.203; 1823.975;  243.125;    0.000
956.373; 1758.975;  197.125;    0.000
956.542; 1847.975;  237.125;    0.000
956.711; 1865.975;  249.125;    0.000
956.881; 1838.975;  235.125;    0.000
957.050; 1818.975;  259.125;    0.000
957.220; 1786.975;  234.125;    0.000
957.389; 1750.975;  250.125;    0.000
957.558; 1699.975;  214.125;    0.000
957.727; 1834.975;  225.125;    0.000
957.897; 1760.975;  211.125;    0.000
958.066; 1798.975;  200.125;    0.000
958.235; 1812.975;  202.125;    0.000
958.404; 1826.975;  242.125;    0.000
958.573; 1792.975;  222.125;    0.000
958.743; 1733.975;  191.125;    0.000
958.912; 1766.975;  183.125;    0.000
959.081; 1745.975;  212.125;    0.000
959.250; 1638.975;  192.125;    0.000
959.419; 1761.975;  238.125;    0.000
959.588; 1725.975;  205.125;    0.000
959.757; 1728.975;  213.125;    0.000
959.926; 1735.975;  217.125;    0.000
960.094; 1722.975;  215.125;    0.000
960.263; 1821.975;  220.125;    0.000
960.432; 1703.975;  164.125;    0.000
960.601; 1717.975;  228.125;    0.000
960.770; 1664.975;  176.125;    0.000
960.939; 1690.975;  201.125;    0.000
961.107; 1649.975;  183.125;    0.000
961.276; 1656.975;  199.125;    0.000
961.445; 1741.975;  205.125;    0.000
961.613; 1671.975;  183.125;    0.000
961.782; 1652.975;  216.125;    0.000
961.951; 1723.975;  169.125;    0.000
962.119; 1655.975;  211.125;    0.000
962.288; 1683.975;  204.125;    0.000
962.456; 1672.975;  187.125;    0.000
962.625; 1737.975;  223.125;    0.000
962.793; 1680.975;  200.125;    0.000
962.962; 1710.975;  185.125;    0.000
963.130; 1698.975;  195.125;    0.000
963.298; 1661.975;  187.125;    0.000
963.467; 1723.975;  247.125;    0.000
963.635; 1703.975;  165.125;    0.000
963.803; 1614.975;  192.125;    0.000
963.972; 1712.975;  191.125;    0.000
964.140; 1737.975;  163.125;    0.000
964.308; 1690.975;  161.125;    0.000
964.477; 1716.975;  182.125;    0.000
964.645; 1724.975;  195.125;    0.000
964.813; 1705.975;  165.125;    0.000
964.981; 1749.975;  193.125;    0.000
965.149; 1662.975;  174.125;    0.000
965.317; 1687.975;  194.125;    0.000
965.485; 1701.975;  209.125;    0.000
965.653; 1703.975;  210.125;    0.000
965.821; 1709.975;  194.125;    0.000
965.989; 1666.975;  182.125;    0.000
966.157; 1626.975;  180.125;    0.000
966.325; 1795.975;  198.125;    0.000
966.493; 1626.975;  182.125;    0.000
966.661; 1707.975;  200.125;    0.000
966.829; 1658.975;  190.125;    0.000
966.996; 1768.975;  221.125;    0.000
967.164; 1728.975;  176.125;    0.000
967.332; 1632.975;  228.125;    0.000
967.500; 1710.975;  177.125;    0.000
967.667; 1750.975;  202.125;    0.000
967.835; 1751.975;  220.125;    0.000
968.003; 1761.975;  183.125;    0.000
968.170; 1709.975;  163.125;    0.000
968.338; 1692.975;  162.125;    0.000
968.505; 1714.975;  198.125;    0.000
968.673; 1720.975;  213.125;    0.000
968.841; 1683.975;  131.125;    0.000
969.008; 1715.975;  225.125;    0.000
969.175; 1701.975;  202.125;    0.000
969.343; 1696.975;  222.125;    0.000
969.510; 1671.975;  230.125;    0.000
969.678; 1790.975;  161.125;    0.000
969.845; 1736.975;  208.125;    0.000
970.012; 1687.975;  186.125;    0.000
970.180; 1689.975;  226.125;    0.000
970.347; 1760.975;  222.125;    0.000
970.514; 1728.975;  206.125;    0.000
970.681; 1735.975;  173.125;    0.000
970.849; 1698.975;  190.125;    0.000
971.016; 1715.975;  220.125;    0.000
971.183; 1767.975;  202.125;    0.000
971.350; 1767.975;  196.125;    0.000
971.517; 1738.975;  218.125;    0.000
971.684; 1750.975;  228.125;    0.000
971.851; 1738.975;  235.125;    0.000
972.018; 1774.975;  200.125;    0.000
972.185; 1714.975;  183.125;    0.000
972.352; 1732.975;  216.125;    0.000
972.519; 1742.975;  227.125;    0.000
972.686; 1708.975;  209.125;    0.000
972.853; 1692.975;  157.125;    0.000
973.020; 1774.975;  179.125;    0.000
973.186; 1661.975;  173.125;    0.000
973.353; 1702.975;  189.125;    0.000
973.520; 1749.975;  228.125;    0.000
973.687; 1757.975;  190.125;    0.000
973.853; 1746.975;  197.125;    0.000
974.020; 1761.975;  208.125;    0.000
974.187; 1718.975;  158.125;    0.000
974.353; 1731.975;  201.125;    0.000
974.520; 1763.975;  158.125;    0.000
974.687; 1766.975;  192.125;    0.000
974.853; 1661.975;  177.125;    0.000
975.020; 1684.975;  212.125;    0.000
975.186; 1664.975;  200.125;    0.000
975.353; 1708.975;  208.125;    0.000
975.519; 1668.975;  169.125;    0.000
975.685; 1673.975;  176.125;    0.000
975.852; 1637.975;  201.125;    0.000
976.018; 1743.975;  209.125;    0.000
976.184; 1661.975;  197.125;    0.000
976.351; 1675.975;  196.125;    0.000
976.517; 1649.975;  243.125;    0.000
976.683; 1705.975;  210.125;    0.000
976.849; 1720.975;  226.125;    0.000
977.016; 1691.975;  218.125;    0.000
977.182; 1658.975;  213.125;    0.000
977.348; 1685.975;  205.125;    0.000
977.514; 1609.975;  210.125;    0.000
977.680; 1689.975;  226.125;    0.000
977.846; 1594.975;  206.125;    0.000
978.012; 1596.975;  222.125;    0.000
978.178; 1659.975;  216.125;    0.000
978.344; 1673.975;  172.125;    0.000
978.510; 1603.975;  210.125;    0.000
978.676; 1618.975;  184.125;    0.000
978.842; 1587.975;  190.125;    0.000
979.008; 1624.975;  203.125;    0.000
979.174; 1709.975;  211.125;    0.000
979.340; 1672.975;  190.125;    0.000
979.505; 1728.975;  235.125;    0.000
979.671; 1626.975;  182.125;    0.000
979.837; 1673.975;  235.125;    0.000
980.003; 1659.975;  183.125;    0.000
980.168; 1675.975;  220.125;    0.000
980.334; 1633.975;  161.125;    0.000
980.499; 1702.975;  212.125;    0.000
980.665; 1667.975;  219.125;    0.000
980.831; 1662.975;  201.125;    0.000
980.996; 1692.975;  189.125;    0.000
981.162; 1707.975;  222.125;    0.000
981.327; 1582.975;  173.125;    0.000
981.493; 1706.975;  197.125;    0.000
981.658; 1712.975;  178.125;    0.000
981.823; 1695.975;  196.125;    0.000
981.989; 1686.975;  248.125;    0.000
982.154; 1658.975;  222.125;    0.000
982.319; 1752.975;  226.125;    0.000
982.485; 1679.975;  188.125;    0.000
982.650; 1742.975;  203.125;    0.000
982.815; 1726.975;  237.125;    0.000
982.980; 1698.975;  210.125;    0.000
983.146; 1705.975;  202.125;    0.000
983.311; 1646.975;  195.125;    0.000
983.476; 1672.975;  207.125;    0.000
983.641; 1642.975;  198.125;    0.000
983.806; 1656.975;  136.125;    0.000
983.971; 1673.975;  248.125;    0.000
984.136; 1628.975;  213.125;    0.000
984.301; 1677.975;  181.125;    0.000
984.466; 1698.975;  210.125;    0.000
984.631; 1683.975;  219.125;    0.000
984.796; 1653.975;  207.125;    0.000
984.961; 1673.975;  214.125;    0.000
985.126; 1695.975;  218.125;    0.000
985.291; 1650.975;  214.125;    0.000
985.455; 1660.975;  187.125;    0.000
985.620; 1685.975;  191.125;    0.000
985.785; 1615.975;  190.125;    0.000
985.950; 1566.975;  184.125;    0.000
986.114; 1688.975;  242.125;    0.000
986.279; 1685.975;  251.125;    0.000
986.444; 1659.975;  177.125;    0.000
986.608; 1724.975;  216.125;    0.000
986.773; 1654.975;  211.125;    0.000
986.937; 1685.975;  244.125;    0.000
987.102; 1691.975;  187.125;    0.000
987.266; 1674.975;  178.125;    0.000
987.431; 1719.975;  205.125;    0.000
987.595; 1660.975;  221.125;    0.000
987.760; 1703.975;  205.125;    0.000
987.924; 1668.975;  195.125;    0.000
988.088; 1718.975;  184.125;    0.000
988.253; 1714.975;  188.125;    0.000
988.417; 1645.975;  196.125;    0.000
988.581; 1670.975;  218.125;    0.000
988.746; 1617.975;  203.125;    0.000
988.910; 1694.975;  195.125;    0.000
989.074; 1712.975;  187.125;    0.000
989.238; 1675.975;  243.125;    0.000
989.402; 1660.975;  242.125;    0.000
989.566; 1707.975;  205.125;    0.000
989.731; 1656.975;  195.125;    0.000
989.895; 1727.975;  211.125;    0.000
990.059; 1668.975;  175.125;    0.000
990.223; 1637.975;  176.125;    0.000
990.387; 1674.975;  234.125;    0.000
990.551; 1655.975;  231.125;    0.000
990.714; 1698.975;  209.125;    0.000
990.878; 1721.975;  187.125;    0.000
991.042; 1643.975;  183.125;    0.000
991.206; 1686.975;  216.125;    0.000
991.370; 1684.975;  257.125;    0.000
991.534; 1698.975;  188.125;    0.000
991.697; 1699.975;  203.125;    0.000
991.861; 1696.975;  219.125;    0.000
992.025; 1736.975;  221.125;    0.000
992.188; 1669.975;  188.125;    0.000
992.352; 1626.975;  205.125;    0.000
992.516; 1586.975;  189.125;    0.000
992.679; 1675.975;  207.125;    0.000
992.843; 1743.975;  210.125;    0.000
993.006; 1643.975;  191.125;    0.000
993.170; 1602.975;  228.125;    0.000
993.333; 1650.975;  142.125;    0.000
993.497; 1602.975;  175.125;    0.000
993.660; 1730.975;  220.125;    0.000
993.824; 1700.975;  193.125;    0.000
993.987; 1660.975;  219.125;    0.000
994.150; 1622.975;  166.125;    0.000
994.314; 1734.975;  207.125;    0.000
994.477; 1650.975;  227.125;    0.000
994.640; 1669.975;  210.125;    0.000
994.803; 1729.975;  219.125;    0.000
994.967; 1808.975;  192.125;    0.000
995.130; 1724.975;  197.125;    0.000
995.293; 1676.975;  189.125;    0.000
995.456; 1681.975;  180.125;    0.000
995.619; 1723.975;  239.125;    0.000
995.782; 1663.975;  209.125;    0.000
995.945; 1655.975;  216.125;    0.000
996.108; 1667.975;  198.125;    0.000
996.271; 1695.975;  205.125;    0.000
996.434; 1704.975;  205.125;    0.000
996.597; 1684.975;  208.125;    0.000
996.760; 1712.975;  205.125;    0.000
996.923; 1676.975;  174.125;    0.000
997.086; 1612.975;  198.125;    0.000
997.248; 1721.975;  214.125;    0.000
997.411; 1719.975;  237.125;    0.000
997.574; 1639.975;  182.125;    0.000
997.737; 1677.975;  188.125;    0.000
997.899; 1635.975;  216.125;    0.000
998.062; 1595.975;  210.125;    0.000
998.225; 1654.975;  202.125;    0.000
998.387; 1598.975;  202.125;    0.000
998.550; 1663.975;  193.125;    0.000
998.712; 1688.975;  225.125;    0.000
998.875; 1672.975;  228.125;    0.000
999.037; 1600.975;  186.125;    0.000
999.200; 1686.975;  212.125;    0.000
999.362; 1674.975;  234.125;    0.000
999.525; 1627.975;  170.125;    0.000
999.687; 1645.975;  191.125;    0.000
999.849; 1597.975;  218.125;    0.000
1000.012; 1678.975;  187.125;    0.000
1000.174; 1638.975;  216.125;    0.000
1000.336; 1638.975;  194.125;    0.000
1000.499; 1709.975;  209.125;    0.000
1000.661; 1661.975;  208.125;    0.000
1000.823; 1636.975;  197.125;    0.000
1000.985; 1666.975;  201.125;    0.000
1001.147; 1734.975;  234.125;    0.000
1001.309; 1757.975;  180.125;    0.000
1001.471; 1769.975;  223.125;    0.000
1001.633; 1757.975;  198.125;    0.000
1001.796; 1686.975;  200.125;    0.000
1001.958; 1696.975;  204.125;    0.000
1002.119; 1841.975;  193.125;    0.000
1002.281; 1911.975;  205.125;    0.000
1002.443; 2043.975;  236.125;    0.000
1002.605; 2054.975;  197.125;    0.000
1002.767; 2127.975;  223.125;    0.000
1002.929; 2203.975;  220.125;    0.000
1003.091; 2350.975;  214.125;    0.000
1003.252; 2394.975;  233.125;    0.000
1003.414; 2538.975;  230.125;    0.000
1003.576; 2600.975;  203.125;    0.000
1003.738; 2694.975;  201.125;    0.000
1003.899; 2942.975;  222.125;    0.000
1004.061; 3098.975;  208.125;    0.000
1004.222; 3162.975;  194.125;    0.000
1004.384; 3279.975;  205.125;    0.000
1004.546; 3366.975;  162.125;    0.000
1004.707; 3446.975;  232.125;    0.000
1004.869; 3492.975;  223.125;    0.000
1005.030; 3390.975;  204.125;    0.000
1005.191; 3362.975;  214.125;    0.000
1005.353; 3266.975;  226.125;    0.000
1005.514; 3076.975;  201.125;    0.000
1005.675; 2937.975;  205.125;    0.000
1005.837; 2860.975;  235.125;    0.000
1005.998; 2746.975;  210.125;    0.000
1006.159; 2726.975;  214.125;    0.000
1006.321; 2733.975;  236.125;    0.000
1006.482; 2853.975;  214.125;    0.000
1006.643; 2925.975;  213.125;    0.000
1006.804; 3068.975;  204.125;    0.000
1006.965; 3184.975;  212.125;    0.000
1007.126; 3235.975;  251.125;    0.000
1007.287; 3265.975;  238.125;    0.000
1007.448; 3249.975;  198.125;    0.000
1007.609; 3179.975;  241.125;    0.000
1007.770; 2965.975;  213.125;    0.000
1007.931; 3092.975;  225.125;    0.000
1008.092; 3101.975;  204.125;    0.000
1008.253; 3137.975;  220.125;    0.000
1008.414; 3190.975;  180.125;    0.000
1008.575; 3353.975;  224.125;    0.000
1008.736; 3373.975;  164.125;    0.000
1008.896; 3247.975;  247.125;    0.000
1009.057; 3223.975;  263.125;    0.000
1009.218; 3146.975;  233.125;    0.000
1009.379; 3103.975;  207.125;    0.000
1009.539; 3255.975;  221.125;    0.000
1009.700; 3334.975;  209.125;    0.000
1009.860; 3324.975;  217.125;    0.000
1010.021; 3314.975;  182.125;    0.000
1010.182; 3270.975;  233.125;    0.000
1010.342; 3228.975;  210.125;    0.000
1010.503; 3420.975;  232.125;    0.000
1010.663; 3559.975;  228.125;    0.000
1010.823; 3500.975;  212.125;    0.000
1010.984; 3500.975;  244.125;    0.000
1011.144; 3489.975;  200.125;    0.000
1011.305; 3609.975;  237.125;    0.000
1011.465; 3724.975;  225.125;    0.000
1011.625; 3787.975;  215.125;    0.000
1011.785; 3889.975;  235.125;    0.000
1011.946; 3851.975;  231.125;    0.000
1012.106; 3757.975;  206.125;    0.000
1012.266; 3813.975;  218.125;    0.000
1012.426; 3808.975;  249.125;    0.000
1012.586; 3787.975;  217.125;    0.000
1012.746; 3846.975;  231.125;    0.000
1012.906; 3665.975;  230.125;    0.000
1013.066; 3845.975;  260.125;    0.000
1013.226; 3793.975;  206.125;    0.000
1013.386; 3794.975;  220.125;    0.000
1013.546; 3876.975;  233.125;    0.000
1013.706; 3733.975;  194.125;    0.000
1013.866; 3797.975;  209.125;    0.000
1014.026; 3855.975;  204.125;    0.000
1014.186; 3708.975;  203.125;    0.000
1014.346; 3661.975;  244.125;    0.000
1014.505; 3861.975;  206.125;    0.000
1014.665; 4019.975;  210.125;    0.000
1014.825; 3828.975;  235.125;    0.000
1014.985; 3873.975;  227.125;    0.000
1015.144; 4159.975;  237.125;    0.000
1015.304; 4401.975;  196.125;    0.000
1015.464; 4278.975;  228.125;    0.000
1015.623; 4095.975;  235.125;    0.000
1015.783; 4585.975;  187.125;    0.000
1015.942; 5094.975;  184.125;    0.000
1016.102; 5047.975;  245.125;    0.000
1016.261; 4782.975;  203.125;    0.000
1016.420; 5288.975;  209.125;    0.000
1016.580; 5995.975;  235.125;    0.000
1016.739; 5626.975;  175.125;    0.000
1016.899; 5466.975;  220.125;    0.000
1017.058; 5764.975;  219.125;    0.000
1017.217; 6361.975;  238.125;    0.000
1017.376; 5790.975;  235.125;    0.000
1017.536; 5334.975;  195.125;    0.000
1017.695; 5348.975;  215.125;    0.000
1017.854; 5501.975;  231.125;    0.000
1018.013; 5311.975;  184.125;    0.000
1018.172; 5006.975;  179.125;    0.000
1018.331; 4964.975;  205.125;    0.000
1018.490; 5293.975;  203.125;    0.000
1018.649; 5665.975;  261.125;    0.000
1018.808; 6052.975;  253.125;    0.000
1018.967; 5806.975;  201.125;    0.000
1019.126; 5797.975;  216.125;    0.000
1019.285; 5845.975;  169.125;    0.000
1019.444; 6065.975;  226.125;    0.000
1019.603; 5777.975;  252.125;    0.000
1019.762; 5366.975;  206.125;    0.000
1019.921; 5515.975;  235.125;    0.000
1020.079; 5853.975;  192.125;    0.000
1020.238; 6253.975;  226.125;    0.000
1020.397; 6015.975;  231.125;    0.000
1020.555; 5530.975;  218.125;    0.000
1020.714; 5606.975;  235.125;    0.000
1020.873; 6305.975;  229.125;    0.000
1021.031; 6415.975;  234.125;    0.000
1021.190; 5920.975;  223.125;    0.000
1021.348; 5638.975;  186.125;    0.000
1021.507; 6312.975;  201.125;    0.000
1021.665; 6747.975;  222.125;    0.000
1021.824; 6580.975;  208.125;    0.000
1021.982; 5743.975;  209.125;    0.000
1022.141; 5762.975;  224.125;    0.000
1022.299; 6741.975;  214.125;    0.000
1022.457; 7222.975;  176.125;    0.000
1022.616; 6537.975;  211.125;    0.000
1022.774; 5808.975;  218.125;    0.000
1022.932; 5930.975;  205.125;    0.000
1023.090; 6785.975;  246.125;    0.000
1023.249; 7238.975;  249.125;    0.000
1023.407; 6651.975;  235.125;    0.000
1023.565; 5869.975;  202.125;    0.000
1023.723; 5998.975;  210.125;    0.000
1023.881; 7009.975;  206.125;    0.000
1024.039; 7250.975;  240.125;    0.000
1024.197; 6582.975;  275.125;    0.000
1024.355; 6079.975;  228.125;    0.000
1024.513; 6044.975;  234.125;    0.000
1024.671; 7199.975;  222.125;    0.000
1024.829; 7434.975;  241.125;    0.000
1024.987; 6870.975;  209.125;    0.000
1025.145; 6170.975;  227.125;    0.000
1025.302; 6279.975;  208.125;    0.000
1025.460; 6962.975;  210.125;    0.000
1025.618; 7288.975;  192.125;    0.000
1025.776; 7216.975;  220.125;    0.000
1025.933; 6388.975;  223.125;    0.000
1026.091; 6286.975;  189.125;    0.000
1026.249; 6892.975;  210.125;    0.000
1026.406; 7669.975;  231.125;    0.000
1026.564; 7549.975;  247.125;    0.000
1026.721; 7011.975;  213.125;    0.000
1026.879; 6552.975;  208.125;    0.000
1027.036; 7093.975;  222.125;    0.000
1027.194; 7661.975;  253.125;    0.000
1027.351; 7979.975;  239.125;    0.000
1027.509; 7458.975;  232.125;    0.000
1027.666; 6785.975;  251.125;    0.000
1027.823; 7179.975;  212.125;    0.000
1027.981; 7363.975;  260.125;    0.000
1028.138; 7736.975;  263.125;    0.000
1028.295; 7624.975;  251.125;    0.000
1028.452; 6943.975;  249.125;    0.000
1028.609; 6892.975;  259.125;    0.000
1028.767; 7376.975;  255.125;    0.000
1028.924; 7909.975;  201.125;    0.000
1029.081; 7723.975;  217.125;    0.000
1029.238; 7538.975;  230.125;    0.000
1029.395; 7211.975;  263.125;    0.000
1029.552; 7495.975;  207.125;    0.000
1029.709; 7969.975;  220.125;    0.000
1029.866; 7912.975;  214.125;    0.000
1030.023; 7914.975;  224.125;    0.000
1030.180; 7334.975;  209.125;    0.000
1030.337; 7548.975;  269.125;    0.000
1030.494; 7861.975;  207.125;    0.000
1030.650; 7955.975;  230.125;    0.000
1030.807; 8406.975;  217.125;    0.000
1030.964; 7734.975;  212.125;    0.000
1031.121; 7649.975;  220.125;    0.000
1031.277; 7309.975;  233.125;    0.000
1031.434; 7952.975;  266.125;    0.000
1031.591; 8268.975;  270.125;    0.000
1031.747; 8562.975;  229.125;    0.000
1031.904; 8393.975;  227.125;    0.000
1032.060; 7937.975;  210.125;    0.000
1032.217; 7961.975;  218.125;    0.000
1032.373; 8731.975;  190.125;    0.000
1032.530; 8934.975;  236.125;    0.000
1032.686; 9835.975;  199.125;    0.000
1032.843; 9671.975;  216.125;    0.000
1032.999; 9309.975;  204.125;    0.000
1033.155; 9530.975;  208.125;    0.000
1033.312; 9586.975;  231.125;    0.000
1033.468;10924.975;  213.125;    0.000
1033.624;11926.975;  235.125;    0.000
1033.780;12133.975;  233.125;    0.000
1033.937;12066.975;  201.125;    0.000
1034.093;11224.975;  233.125;    0.000
1034.249;11439.975;  214.125;    0.000
1034.405;11642.975;  245.125;    0.000
1034.561;12167.975;  228.125;    0.000
1034.717;12730.975;  234.125;    0.000
1034.873;12507.975;  248.125;    0.000
1035.029;12744.975;  220.125;    0.000
1035.185;11946.975;  294.125;    0.000
1035.341;11628.975;  231.125;    0.000
1035.497;12496.975;  254.125;    0.000
1035.653;13074.975;  225.125;    0.000
1035.809;13887.975;  243.125;    0.000
1035.964;15166.975;  216.125;    0.000
1036.120;14359.975;  199.125;    0.000
1036.276;14397.975;  220.125;    0.000
1036.432;14142.975;  210.125;    0.000
1036.587;13480.975;  225.125;    0.000
1036.743;14248.975;  245.125;    0.000
1036.899;15496.975;  219.125;    0.000
1037.054;15093.975;  157.125;    0.000
1037.210;16754.975;  208.125;    0.000
1037.365;16491.975;  230.125;    0.000
1037.521;15531.975;  236.125;    0.000
1037.676;15495.975;  193.125;    0.000
1037.832;14837.975;  246.125;    0.000
1037.987;15006.975;  231.125;    0.000
1038.143;15588.975;  234.125;    0.000
1038.298;17456.975;  219.125;    0.000
1038.453;17094.975;  230.125;    0.000
1038.609;18509.975;  254.125;    0.000
1038.764;19646.975;  249.125;    0.000
1038.919;17181.975;  224.125;    0.000
1039.074;17469.975;  209.125;    0.000
1039.229;16914.975;  214.125;    0.000
1039.385;15971.975;  268.125;    0.000
1039.540;16796.975;  268.125;    0.000
1039.695;18299.975;  229.125;    0.000
1039.850;20001.975;  252.125;    0.000
1040.005;21322.975;  248.125;    0.000
1040.160;22188.975;  215.125;    0.000
1040.315;22127.975;  239.125;    0.000
1040.470;20256.975;  210.125;    0.000
1040.625;19451.975;  239.125;    0.000
1040.780;19494.975;  251.125;    0.000
1040.935;18099.975;  247.125;    0.000
1041.089;19372.975;  215.125;    0.000
1041.244;22755.975;  210.125;    0.000
1041.399;23240.975;  237.125;    0.000
1041.554;25434.975;  253.125;    0.000
1041.708;27364.975;  227.125;    0.000
1041.863;26321.975;  219.125;    0.000
1042.018;24396.975;  246.125;    0.000
1042.172;24959.975;  236.125;    0.000
1042.327;24078.975;  272.125;    0.000
1042.481;24293.975;  197.125;    0.000
1042.636;23733.975;  213.125;    0.000
1042.791;24067.975;  250.125;    0.000
1042.945;28464.975;  267.125;    0.000
1043.099;31620.975;  257.125;    0.000
1043.254;30679.975;  206.125;    0.000
1043.408;32383.975;  266.125;    0.000
1043.563;34582.977;  232.125;    0.000
1043.717;32439.975;  241.125;    0.000
1043.871;30551.975;  248.125;    0.000
1044.025;30566.975;  234.125;    0.000
1044.180;29544.975;  222.125;    0.000
1044.334;28610.975;  235.125;    0.000
1044.488;29518.975;  270.125;    0.000
1044.642;33076.977;  215.125;    0.000
1044.796;35090.977;  212.125;    0.000
1044.950;40203.977;  228.125;    0.000
1045.104;41750.977;  223.125;    0.000
1045.258;43044.977;  236.125;    0.000
1045.412;43807.977;  225.125;    0.000
1045.566;40662.977;  245.125;    0.000
1045.720;38222.977;  201.125;    0.000
1045.874;36000.977;  229.125;    0.000
1046.028;34175.977;  243.125;    0.000
1046.182;33772.977;  212.125;    0.000
1046.336;35388.977;  256.125;    0.000
1046.489;37760.977;  234.125;    0.000
1046.643;38037.977;  246.125;    0.000
1046.797;42458.977;  219.125;    0.000
1046.951;43351.977;  231.125;    0.000
1047.104;43869.977;  285.125;    0.000
1047.258;45137.977;  256.125;    0.000
1047.411;47425.977;  232.125;    0.000
1047.565;48126.977;  269.125;    0.000
1047.719;44536.977;  213.125;    0.000
1047.872;42577.977;  210.125;    0.000
1048.026;40481.977;  251.125;    0.000
1048.179;40533.977;  213.125;    0.000
1048.332;40960.977;  212.125;    0.000
1048.486;38895.977;  218.125;    0.000
1048.639;40923.977;  218.125;    0.000
1048.792;42457.977;  247.125;    0.000
1048.946;47829.977;  208.125;    0.000
1049.099;51695.977;  247.125;    0.000
1049.252;52326.977;  274.125;    0.000
1049.406;48500.977;  232.125;    0.000
1049.559;50707.977;  251.125;    0.000
1049.712;54377.977;  243.125;    0.000
1049.865;58498.977;  219.125;    0.000
1050.018;57824.977;  216.125;    0.000
1050.171;51555.977;  237.125;    0.000
1050.324;48726.977;  291.125;    0.000
1050.477;51257.977;  241.125;    0.000
1050.630;53750.977;  245.125;    0.000
1050.783;54271.977;  213.125;    0.000
1050.936;51842.977;  246.125;    0.000
1051.089;50824.977;  255.125;    0.000
1051.242;54137.977;  228.125;    0.000
1051.394;59266.977;  276.125;    0.000
1051.547;61224.977;  246.125;    0.000
1051.700;56848.977;  252.125;    0.000
1051.853;55091.977;  267.125;    0.000
1052.005;58335.977;  261.125;    0.000
1052.158;64672.977;  313.125;    0.000
1052.311;65081.977;  264.125;    0.000
1052.463;65081.977;  271.125;    0.000
1052.616;63038.977;  291.125;    0.000
1052.768;56640.977;  298.125;    0.000
1052.921;55149.977;  262.125;    0.000
1053.073;58514.977;  307.125;    0.000
1053.226;64267.977;  301.125;    0.000
1053.378;65081.977;  309.125;    0.000
1053.531;65081.977;  280.125;    0.000
1053.683;65081.977;  258.125;    0.000
1053.835;65081.977;  267.125;    0.000
1053.988;50804.977;  294.125;    0.000
1054.140; 9216.975;  292.125;    0.000
1054.292; 2146.975;  249.125;    0.000
1054.444; 1631.975;  288.125;    0.000
1054.596; 1483.975;  275.125;    0.000
1054.749; 1377.975;  284.125;    0.000
1054.901; 1261.975;  291.125;    0.000
1055.053; 1132.975;  274.125;    0.000
1055.205; 1168.975;  313.125;    0.000
1055.357; 1034.975;  309.125;    0.000
1055.509; 1013.975;  283.125;    0.000
1055.661; 1013.975;  341.125;    0.000
1055.813;  935.975;  288.125;    0.000
1055.965;  911.975;  300.125;    0.000
1056.116;  898.975;  296.125;    0.000
1056.268;  905.975;  319.125;    0.000
1056.420;  897.975;  298.125;    0.000

