
Integration time [ms]:   1.000
Averaging Nr. [scans]: 1
Smoothing Nr. [pixels]: 0
Data measured with spectrometer [name]: NIR
Wave   ;Sample   ;Dark     ;Reference
[nm]   ;[counts] ;[counts] ;[counts] 

691.496;  -20.300;  163.125;    0.000
691.696;   16.700;  208.125;    0.000
691.896;  -33.300;  111.125;    0.000
692.096;  -20.300;  178.125;    0.000
692.296;  -50.300;   93.125;    0.000
692.496;   28.700;  161.125;    0.000
692.695;  -71.300;  135.125;    0.000
692.895;  -34.300;  179.125;    0.000
693.095;  -53.300;  158.125;    0.000
693.295;    5.700;  168.125;    0.000
693.495;  -15.300;  170.125;    0.000
693.695;  -39.300;  155.125;    0.000
693.894;  -24.300;  151.125;    0.000
694.094;    3.700;  164.125;    0.000
694.294;  -16.300;  129.125;    0.000
694.494;  276.700;  170.125;    0.000
694.693; 2760.700;  137.125;    0.000
694.893; 3098.700;  163.125;    0.000
695.093; 3228.700;  121.125;    0.000
695.293; 3178.700;  144.125;    0.000
695.492; 3076.700;   88.125;    0.000
695.692; 3234.700;  148.125;    0.000
695.891; 3159.700;  125.125;    0.000
696.091; 3170.700;  184.125;    0.000
696.291; 3207.700;  153.125;    0.000
696.490; 3132.700;  131.125;    0.000
696.690; 3177.700;  123.125;    0.000
696.889; 3398.700;  180.125;    0.000
697.089; 3207.700;  147.125;    0.000
697.288; 3320.700;  164.125;    0.000
697.488; 3186.700;  133.125;    0.000
697.687; 3249.700;  153.125;    0.000
697.887; 3189.700;  119.125;    0.000
698.086; 3226.700;  143.125;    0.000
698.286; 3298.700;  125.125;    0.000
698.485; 3379.700;  120.125;    0.000
698.684; 3227.700;  116.125;    0.000
698.884; 3155.700;  131.125;    0.000
699.083; 3303.700;  115.125;    0.000
699.282; 3173.700;  144.125;    0.000
699.482; 3312.700;  109.125;    0.000
699.681; 3274.700;  115.125;    0.000
699.880; 3354.700;  125.125;    0.000
700.080; 3382.700;  139.125;    0.000
700.279; 3201.700;  111.125;    0.000
700.478; 3362.700;  146.125;    0.000
700.677; 3309.700;  131.125;    0.000
700.877; 3375.700;  156.125;    0.000
701.076; 3415.700;  153.125;    0.000
701.275; 3337.700;  123.125;    0.000
701.474; 3279.700;  150.125;    0.000
701.673; 3261.700;   97.125;    0.000
701.872; 3388.700;  139.125;    0.000
702.071; 3374.700;  108.125;    0.000
702.271; 3317.700;  125.125;    0.000
702.470; 3372.700;  108.125;    0.000
702.669; 3275.700;  102.125;    0.000
702.868; 3398.700;  153.125;    0.000
703.067; 3521.700;  145.125;    0.000
703.266; 3449.700;   96.125;    0.000
703.465; 3448.700;  165.125;    0.000
703.664; 3346.700;  106.125;    0.000
703.863; 3475.700;  144.125;    0.000
704.062; 3377.700;   86.125;    0.000
704.260; 3303.700;   99.125;    0.000
704.459; 3494.700;  112.125;    0.000
704.658; 3467.700;  106.125;    0.000
704.857; 3508.700;  129.125;    0.000
705.056; 3355.700;   98.125;    0.000
705.255; 3466.700;   97.125;    0.000
705.454; 3425.700;  101.125;    0.000
705.652; 3560.700;  142.125;    0.000
705.851; 3220.700;  100.125;    0.000
706.050; 3478.700;  162.125;    0.000
706.249; 3369.700;  146.125;    0.000
706.447; 3453.700;  120.125;    0.000
706.646; 3460.700;  114.125;    0.000
706.845; 3496.700;  117.125;    0.000
707.043; 3481.700;  136.125;    0.000
707.242; 3483.700;   90.125;    0.000
707.441; 3509.700;  131.125;    0.000
707.639; 3450.700;  120.125;    0.000
707.838; 3530.700;  122.125;    0.000
708.037; 3483.700;  109.125;    0.000
708.235; 3482.700;  122.125;    0.000
708.434; 3609.700;  109.125;    0.000
708.632; 3437.700;   47.125;    0.000
708.831; 3581.700;  122.125;    0.000
709.029; 3578.700;  130.125;    0.000
709.228; 3599.700;  112.125;    0.000
709.426; 3573.700;  128.125;    0.000
709.625; 3473.700;  129.125;    0.000
709.823; 3525.700;  130.125;    0.000
710.022; 3663.700;   90.125;    0.000
710.220; 3586.700;  131.125;    0.000
710.418; 3623.700;  133.125;    0.000
710.617; 3621.700;   82.125;    0.000
710.815; 3609.700;   90.125;    0.000
711.013; 3602.700;   86.125;    0.000
711.212; 3545.700;  117.125;    0.000
711.410; 3688.700;  106.125;    0.000
711.608; 3619.700;  138.125;    0.000
711.807; 3689.700;  116.125;    0.000
712.005; 3623.700;   82.125;    0.000
712.203; 3685.700;   90.125;    0.000
712.401; 3722.700;  124.125;    0.000
712.599; 3736.700;   64.125;    0.000
712.798; 3723.700;  113.125;    0.000
712.996; 3742.700;  100.125;    0.000
713.194; 3679.700;  130.125;    0.000
713.392; 3619.700;   89.125;    0.000
713.590; 3750.700;  105.125;    0.000
713.788; 3820.700;  100.125;    0.000
713.986; 3831.700;  117.125;    0.000
714.184; 3906.700;   72.125;    0.000
714.382; 3834.700;   88.125;    0.000
714.580; 3819.700;   88.125;    0.000
714.778; 3894.700;  129.125;    0.000
714.976; 3942.700;   90.125;    0.000
715.174; 3983.700;  119.125;    0.000
715.372; 4105.700;  117.125;    0.000
715.570; 4284.700;  101.125;    0.000
715.768; 4353.700;  122.125;    0.000
715.966; 4397.700;  114.125;    0.000
716.164; 4364.700;  135.125;    0.000
716.362; 4375.700;  126.125;    0.000
716.560; 4350.700;  126.125;    0.000
716.758; 4303.700;   98.125;    0.000
716.955; 4127.700;   76.125;    0.000
717.153; 4070.700;   45.125;    0.000
717.351; 4320.700;  106.125;    0.000
717.549; 4195.700;  108.125;    0.000
717.746; 4148.700;   66.125;    0.000
717.944; 4192.700;  127.125;    0.000
718.142; 4063.700;  148.125;    0.000
718.340; 4004.700;   94.125;    0.000
718.537; 4124.700;  107.125;    0.000
718.735; 4130.700;  130.125;    0.000
718.933; 4016.700;  111.125;    0.000
719.130; 4040.700;  107.125;    0.000
719.328; 4064.700;  128.125;    0.000
719.525; 4064.700;  141.125;    0.000
719.723; 4151.700;  122.125;    0.000
719.920; 4074.700;   85.125;    0.000
720.118; 4058.700;  115.125;    0.000
720.316; 4096.700;  153.125;    0.000
720.513; 4080.700;  120.125;    0.000
720.711; 4170.700;  134.125;    0.000
720.908; 4015.700;  126.125;    0.000
721.105; 4035.700;  119.125;    0.000
721.303; 4004.700;  112.125;    0.000
721.500; 4080.700;  125.125;    0.000
721.698; 4043.700;   94.125;    0.000
721.895; 4208.700;  118.125;    0.000
722.092; 4106.700;   77.125;    0.000
722.290; 4116.700;  135.125;    0.000
722.487; 4112.700;  154.125;    0.000
722.684; 4060.700;  122.125;    0.000
722.882; 4124.700;   90.125;    0.000
723.079; 4085.700;  132.125;    0.000
723.276; 4072.700;   95.125;    0.000
723.473; 3972.700;  106.125;    0.000
723.671; 4070.700;   80.125;    0.000
723.868; 4136.700;  112.125;    0.000
724.065; 4071.700;  107.125;    0.000
724.262; 4054.700;  119.125;    0.000
724.459; 4050.700;   80.125;    0.000
724.656; 4191.700;  109.125;    0.000
724.854; 4198.700;  107.125;    0.000
725.051; 4116.700;  103.125;    0.000
725.248; 4187.700;  101.125;    0.000
725.445; 4083.700;   93.125;    0.000
725.642; 4094.700;   92.125;    0.000
725.839; 4175.700;  157.125;    0.000
726.036; 4172.700;   71.125;    0.000
726.233; 4228.700;   80.125;    0.000
726.430; 4114.700;  146.125;    0.000
726.627; 4143.700;  103.125;    0.000
726.824; 4132.700;   46.125;    0.000
727.021; 4162.700;  149.125;    0.000
727.218; 4212.700;   87.125;    0.000
727.414; 4249.700;  112.125;    0.000
727.611; 4196.700;  111.125;    0.000
727.808; 4236.700;  122.125;    0.000
728.005; 4239.700;   58.125;    0.000
728.202; 4240.700;  129.125;    0.000
728.399; 4383.700;  111.125;    0.000
728.595; 4172.700;   93.125;    0.000
728.792; 4138.700;   78.125;    0.000
728.989; 4256.700;  104.125;    0.000
729.186; 4260.700;  110.125;    0.000
729.382; 4214.700;   93.125;    0.000
729.579; 4276.700;  102.125;    0.000
729.776; 4217.700;  112.125;    0.000
729.972; 4314.700;  101.125;    0.000
730.169; 4280.700;  150.125;    0.000
730.366; 4235.700;   92.125;    0.000
730.562; 4342.700;   74.125;    0.000
730.759; 4237.700;   97.125;    0.000
730.955; 4263.700;   86.125;    0.000
731.152; 4248.700;   88.125;    0.000
731.348; 4384.700;  117.125;    0.000
731.545; 4291.700;   62.125;    0.000
731.741; 4321.700;   84.125;    0.000
731.938; 4346.700;  108.125;    0.000
732.134; 4336.700;  115.125;    0.000
732.331; 4306.700;   88.125;    0.000
732.527; 4232.700;   96.125;    0.000
732.724; 4371.700;  103.125;    0.000
732.920; 4255.700;   93.125;    0.000
733.116; 4330.700;  109.125;    0.000
733.313; 4227.700;   77.125;    0.000
733.509; 4368.700;   81.125;    0.000
733.705; 4412.700;  141.125;    0.000
733.902; 4320.700;   88.125;    0.000
734.098; 4349.700;   56.125;    0.000
734.294; 4376.700;  122.125;    0.000
734.490; 4448.700;  102.125;    0.000
734.687; 4338.700;   70.125;    0.000
734.883; 4344.700;   73.125;    0.000
735.079; 4433.700;   65.125;    0.000
735.275; 4376.700;  112.125;    0.000
735.471; 4346.700;  124.125;    0.000
735.667; 4477.700;   94.125;    0.000
735.863; 4492.700;  106.125;    0.000
736.060; 4489.700;  106.125;    0.000
736.256; 4426.700;   95.125;    0.000
736.452; 4363.700;  103.125;    0.000
736.648; 4391.700;  106.125;    0.000
736.844; 4386.700;   98.125;    0.000
737.040; 4431.700;  118.125;    0.000
737.236; 4461.700;   95.125;    0.000
737.432; 4506.700;   59.125;    0.000
737.628; 4404.700;  120.125;    0.000
737.824; 4515.700;   78.125;    0.000
738.019; 4566.700;   98.125;    0.000
738.215; 4495.700;  127.125;    0.000
738.411; 4561.700;  111.125;    0.000
738.607; 4500.700;   69.125;    0.000
738.803; 4516.700;   40.125;    0.000
738.999; 4631.700;  128.125;    0.000
739.195; 4584.700;   81.125;    0.000
739.390; 4753.700;   97.125;    0.000
739.586; 4662.700;  100.125;    0.000
739.782; 4634.700;  135.125;    0.000
739.978; 4744.700;  121.125;    0.000
740.173; 4776.700;   92.125;    0.000
740.369; 4695.700;   92.125;    0.000
740.565; 4731.700;  119.125;    0.000
740.760; 4795.700;  139.125;    0.000
740.956; 4802.700;  134.125;    0.000
741.152; 4752.700;  107.125;    0.000
741.347; 4776.700;   63.125;    0.000
741.543; 4870.700;   99.125;    0.000
741.738; 4988.700;  119.125;    0.000
741.934; 5015.700;  156.125;    0.000
742.129; 5326.700;   87.125;    0.000
742.325; 5932.700;  143.125;    0.000
742.520; 6251.700;  109.125;    0.000
742.716; 5926.700;  135.125;    0.000
742.911; 5910.700;   77.125;    0.000
743.107; 5791.700;  117.125;    0.000
743.302; 5650.700;   93.125;    0.000
743.498; 5728.700;  118.125;    0.000
743.693; 5693.700;   95.125;    0.000
743.888; 5977.700;  122.125;    0.000
744.084; 6630.700;  104.125;    0.000
744.279; 7917.700;   94.125;    0.000
744.474; 7890.700;  138.125;    0.000
744.670; 7413.700;  113.125;    0.000
744.865; 6835.700;  116.125;    0.000
745.060; 6591.700;   89.125;    0.000
745.255; 6629.700;  144.125;    0.000
745.451; 6435.700;   98.125;    0.000
745.646; 6323.700;  110.125;    0.000
745.841; 6148.700;   87.125;    0.000
746.036; 6204.700;   98.125;    0.000
746.231; 6267.700;  153.125;    0.000
746.426; 6672.700;   90.125;    0.000
746.622; 7284.700;  154.125;    0.000
746.817; 9120.700;  111.125;    0.000
747.012; 9972.700;  110.125;    0.000
747.207; 9322.700;   76.125;    0.000
747.402; 8468.700;   94.125;    0.000
747.597; 8104.700;   68.125;    0.000
747.792; 7654.700;  125.125;    0.000
747.987; 7370.700;   92.125;    0.000
748.182; 7143.700;  113.125;    0.000
748.377; 6898.700;   72.125;    0.000
748.572; 6572.700;  135.125;    0.000
748.767; 6407.700;   98.125;    0.000
748.961; 6239.700;  123.125;    0.000
749.156; 6046.700;   96.125;    0.000
749.351; 5905.700;  121.125;    0.000
749.546; 5816.700;   95.125;    0.000
749.741; 5712.700;  144.125;    0.000
749.936; 5748.700;  105.125;    0.000
750.130; 5601.700;  101.125;    0.000
750.325; 5639.700;  126.125;    0.000
750.520; 5480.700;  113.125;    0.000
750.715; 5472.700;  135.125;    0.000
750.909; 5408.700;  138.125;    0.000
751.104; 5423.700;   96.125;    0.000
751.299; 5324.700;  118.125;    0.000
751.493; 5302.700;  124.125;    0.000
751.688; 5288.700;  131.125;    0.000
751.882; 5164.700;   96.125;    0.000
752.077; 5224.700;  123.125;    0.000
752.272; 5210.700;  112.125;    0.000
752.466; 5179.700;  143.125;    0.000
752.661; 5096.700;  107.125;    0.000
752.855; 4990.700;   97.125;    0.000
753.050; 5080.700;  125.125;    0.000
753.244; 4993.700;  161.125;    0.000
753.439; 5018.700;  101.125;    0.000
753.633; 4966.700;  129.125;    0.000
753.828; 4987.700;  114.125;    0.000
754.022; 5082.700;  118.125;    0.000
754.216; 5053.700;  126.125;    0.000
754.411; 4965.700;  148.125;    0.000
754.605; 4871.700;  100.125;    0.000
754.799; 4940.700;  146.125;    0.000
754.994; 4941.700;  116.125;    0.000
755.188; 5075.700;  146.125;    0.000
755.382; 5063.700;  103.125;    0.000
755.576; 4984.700;  119.125;    0.000
755.771; 4894.700;  100.125;    0.000
755.965; 4911.700;  129.125;    0.000
756.159; 4848.700;  100.125;    0.000
756.353; 4906.700;  153.125;    0.000
756.547; 4906.700;  113.125;    0.000
756.742; 4799.700;  129.125;    0.000
756.936; 4808.700;   70.125;    0.000
757.130; 5032.700;   91.125;    0.000
757.324; 4791.700;   92.125;    0.000
757.518; 4801.700;  128.125;    0.000
757.712; 4820.700;  146.125;    0.000
757.906; 4854.700;  114.125;    0.000
758.100; 4874.700;  153.125;    0.000
758.294; 4892.700;  133.125;    0.000
758.488; 4939.700;  149.125;    0.000
758.682; 4814.700;  132.125;    0.000
758.876; 4849.700;  128.125;    0.000
759.070; 4781.700;  178.125;    0.000
759.264; 4764.700;   98.125;    0.000
759.458; 4780.700;  168.125;    0.000
759.651; 4887.700;  131.125;    0.000
759.845; 4853.700;  133.125;    0.000
760.039; 4869.700;  120.125;    0.000
760.233; 4824.700;  116.125;    0.000
760.427; 4820.700;  121.125;    0.000
760.620; 4912.700;  163.125;    0.000
760.814; 4893.700;  106.125;    0.000
761.008; 4879.700;  119.125;    0.000
761.202; 4810.700;  121.125;    0.000
761.395; 4862.700;  136.125;    0.000
761.589; 4736.700;  111.125;    0.000
761.783; 4869.700;  116.125;    0.000
761.976; 4908.700;  139.125;    0.000
762.170; 4937.700;  140.125;    0.000
762.363; 4871.700;  115.125;    0.000
762.557; 4852.700;  129.125;    0.000
762.750; 4805.700;   85.125;    0.000
762.944; 4972.700;  107.125;    0.000
763.138; 4889.700;   99.125;    0.000
763.331; 4878.700;   97.125;    0.000
763.524; 4982.700;  100.125;    0.000
763.718; 4945.700;  130.125;    0.000
763.911; 4950.700;  127.125;    0.000
764.105; 4837.700;   69.125;    0.000
764.298; 4905.700;   94.125;    0.000
764.492; 4963.700;  129.125;    0.000
764.685; 4945.700;  114.125;    0.000
764.878; 4813.700;  145.125;    0.000
765.072; 4865.700;  124.125;    0.000
765.265; 5063.700;  124.125;    0.000
765.458; 4910.700;  108.125;    0.000
765.651; 5139.700;  132.125;    0.000
765.845; 5115.700;  106.125;    0.000
766.038; 5171.700;  155.125;    0.000
766.231; 5818.700;  153.125;    0.000
766.424; 8677.700;  165.125;    0.000
766.617; 8918.700;   85.125;    0.000
766.811; 5692.700;  140.125;    0.000
767.004; 5136.700;  151.125;    0.000
767.197; 5195.700;  178.125;    0.000
767.390; 5073.700;  112.125;    0.000
767.583; 5023.700;  134.125;    0.000
767.776; 5058.700;  101.125;    0.000
767.969; 5068.700;   99.125;    0.000
768.162; 5140.700;  152.125;    0.000
768.355; 5047.700;  115.125;    0.000
768.548; 5108.700;  154.125;    0.000
768.741; 5129.700;  124.125;    0.000
768.934; 5196.700;  129.125;    0.000
769.127; 5224.700;  137.125;    0.000
769.320; 5246.700;  115.125;    0.000
769.513; 5470.700;  144.125;    0.000
769.706; 6191.700;  107.125;    0.000
769.898; 8706.700;  134.125;    0.000
770.091; 6888.700;  128.125;    0.000
770.284; 5569.700;   97.125;    0.000
770.477; 5401.700;  135.125;    0.000
770.670; 5494.700;  137.125;    0.000
770.862; 5389.700;  112.125;    0.000
771.055; 5406.700;  127.125;    0.000
771.248; 5405.700;  116.125;    0.000
771.441; 5433.700;  101.125;    0.000
771.633; 5457.700;  130.125;    0.000
771.826; 5571.700;  147.125;    0.000
772.018; 5537.700;  117.125;    0.000
772.211; 5657.700;  141.125;    0.000
772.404; 5755.700;  104.125;    0.000
772.596; 5797.700;  128.125;    0.000
772.789; 5880.700;  131.125;    0.000
772.981; 5869.700;  134.125;    0.000
773.174; 5991.700;  108.125;    0.000
773.366; 5944.700;  153.125;    0.000
773.559; 6059.700;  137.125;    0.000
773.751; 6218.700;  119.125;    0.000
773.944; 6283.700;  148.125;    0.000
774.136; 6456.700;  155.125;    0.000
774.329; 6650.700;  126.125;    0.000
774.521; 6546.700;  116.125;    0.000
774.713; 6707.700;  119.125;    0.000
774.906; 7226.700;  179.125;    0.000
775.098; 7332.700;  127.125;    0.000
775.290; 7547.700;  146.125;    0.000
775.483; 7899.700;  123.125;    0.000
775.675; 8544.700;  119.125;    0.000
775.867; 8995.700;  119.125;    0.000
776.059; 9654.700;  137.125;    0.000
776.251;10512.700;  154.125;    0.000
776.444;11888.700;  101.125;    0.000
776.636;13652.700;  153.125;    0.000
776.828;16972.699;  127.125;    0.000
777.020;22869.699;  140.125;    0.000
777.212;32862.699;  160.125;    0.000
777.404;36618.699;  170.125;    0.000
777.596;34340.699;  136.125;    0.000
777.788;26202.699;  137.125;    0.000
777.980;20841.699;  129.125;    0.000
778.172;17175.699;  139.125;    0.000
778.364;14667.700;  124.125;    0.000
778.556;13092.700;  163.125;    0.000
778.748;11805.700;  142.125;    0.000
778.940;10883.700;  178.125;    0.000
779.132;10092.700;  159.125;    0.000
779.324; 9218.700;  109.125;    0.000
779.516; 9008.700;  143.125;    0.000
779.708; 8437.700;  158.125;    0.000
779.900; 7936.700;  142.125;    0.000
780.091; 7688.700;  131.125;    0.000
780.283; 7221.700;  176.125;    0.000
780.475; 7164.700;  151.125;    0.000
780.667; 6799.700;  120.125;    0.000
780.859; 6726.700;  134.125;    0.000
781.050; 6484.700;  183.125;    0.000
781.242; 6513.700;   95.125;    0.000
781.434; 6234.700;  127.125;    0.000
781.625; 6330.700;  163.125;    0.000
781.817; 5949.700;  170.125;    0.000
782.008; 6028.700;  123.125;    0.000
782.200; 5935.700;  141.125;    0.000
782.392; 5875.700;  149.125;    0.000
782.583; 5693.700;  155.125;    0.000
782.775; 5749.700;  140.125;    0.000
782.966; 5626.700;  167.125;    0.000
783.158; 5528.700;  164.125;    0.000
783.349; 5492.700;  174.125;    0.000
783.541; 5319.700;  141.125;    0.000
783.732; 5371.700;  115.125;    0.000
783.924; 5401.700;  135.125;    0.000
784.115; 5226.700;  157.125;    0.000
784.306; 5176.700;  102.125;    0.000
784.498; 5264.700;  124.125;    0.000
784.689; 5208.700;  171.125;    0.000
784.880; 5151.700;  165.125;    0.000
785.072; 5083.700;  152.125;    0.000
785.263; 5168.700;  146.125;    0.000
785.454; 5146.700;  145.125;    0.000
785.645; 5168.700;  127.125;    0.000
785.837; 5110.700;  138.125;    0.000
786.028; 5036.700;  151.125;    0.000
786.219; 5054.700;  142.125;    0.000
786.410; 5037.700;  140.125;    0.000
786.601; 4890.700;  137.125;    0.000
786.792; 5045.700;  158.125;    0.000
786.984; 4982.700;  139.125;    0.000
787.175; 4857.700;  140.125;    0.000
787.366; 4921.700;  145.125;    0.000
787.557; 4985.700;  156.125;    0.000
787.748; 4853.700;  148.125;    0.000
787.939; 4971.700;  157.125;    0.000
788.130; 5021.700;  179.125;    0.000
788.321; 4961.700;  142.125;    0.000
788.512; 5127.700;  167.125;    0.000
788.703; 5145.700;  145.125;    0.000
788.894; 4890.700;  132.125;    0.000
789.084; 5015.700;  113.125;    0.000
789.275; 5071.700;  134.125;    0.000
789.466; 5092.700;  151.125;    0.000
789.657; 5089.700;  138.125;    0.000
789.848; 5167.700;  145.125;    0.000
790.039; 5006.700;  130.125;    0.000
790.229; 5202.700;  140.125;    0.000
790.420; 4978.700;  135.125;    0.000
790.611; 4847.700;  156.125;    0.000
790.801; 5086.700;   64.125;    0.000
790.992; 5107.700;  150.125;    0.000
791.183; 5131.700;  177.125;    0.000
791.373; 4951.700;   91.125;    0.000
791.564; 5020.700;   85.125;    0.000
791.755; 5047.700;  125.125;    0.000
791.945; 5132.700;   94.125;    0.000
792.136; 4942.700;   98.125;    0.000
792.326; 5100.700;  105.125;    0.000
792.517; 5044.700;  136.125;    0.000
792.707; 5148.700;  140.125;    0.000
792.898; 5100.700;  164.125;    0.000
793.088; 5115.700;  116.125;    0.000
793.279; 5212.700;  112.125;    0.000
793.469; 5150.700;  105.125;    0.000
793.660; 5302.700;  161.125;    0.000
793.850; 5314.700;  133.125;    0.000
794.040; 5476.700;  121.125;    0.000
794.231; 5842.700;  115.125;    0.000
794.421; 6151.700;  152.125;    0.000
794.611; 6649.700;  132.125;    0.000
794.802; 7657.700;  144.125;    0.000
794.992; 8012.700;  142.125;    0.000
795.182; 8097.700;  179.125;    0.000
795.372; 7828.700;  167.125;    0.000
795.563; 7113.700;  149.125;    0.000
795.753; 6683.700;  117.125;    0.000
795.943; 6252.700;  146.125;    0.000
796.133; 5995.700;  119.125;    0.000
796.323; 5746.700;  141.125;    0.000
796.513; 5627.700;  134.125;    0.000
796.703; 5408.700;  116.125;    0.000
796.893; 5334.700;  120.125;    0.000
797.083; 5248.700;  131.125;    0.000
797.273; 5219.700;  118.125;    0.000
797.463; 5088.700;  130.125;    0.000
797.653; 4954.700;   87.125;    0.000
797.843; 4917.700;  123.125;    0.000
798.033; 4922.700;  115.125;    0.000
798.223; 4734.700;  142.125;    0.000
798.413; 4692.700;  148.125;    0.000
798.603; 4605.700;  147.125;    0.000
798.793; 4589.700;  107.125;    0.000
798.983; 4551.700;  121.125;    0.000
799.172; 4607.700;  120.125;    0.000
799.362; 4460.700;  145.125;    0.000
799.552; 4509.700;  101.125;    0.000
799.742; 4517.700;  149.125;    0.000
799.932; 4390.700;  104.125;    0.000
800.121; 4412.700;  175.125;    0.000
800.311; 4302.700;  132.125;    0.000
800.501; 4237.700;  118.125;    0.000
800.690; 4347.700;  162.125;    0.000
800.880; 4227.700;  141.125;    0.000
801.070; 4288.700;  151.125;    0.000
801.259; 4331.700;  167.125;    0.000
801.449; 4379.700;  108.125;    0.000
801.638; 4266.700;  176.125;    0.000
801.828; 4326.700;  118.125;    0.000
802.017; 4142.700;  179.125;    0.000
802.207; 4214.700;  127.125;    0.000
802.396; 4236.700;  167.125;    0.000
802.586; 4125.700;  129.125;    0.000
802.775; 4135.700;  142.125;    0.000
802.965; 4079.700;  147.125;    0.000
803.154; 4123.700;  179.125;    0.000
803.343; 4238.700;  117.125;    0.000
803.533; 4073.700;  120.125;    0.000
803.722; 4006.700;  122.125;    0.000
803.911; 4074.700;  155.125;    0.000
804.101; 4002.700;  147.125;    0.000
804.290; 3997.700;  160.125;    0.000
804.479; 4051.700;  139.125;    0.000
804.668; 3967.700;  180.125;    0.000
804.857; 3943.700;  131.125;    0.000
805.047; 4033.700;  119.125;    0.000
805.236; 3957.700;  139.125;    0.000
805.425; 4052.700;  163.125;    0.000
805.614; 3964.700;  103.125;    0.000
805.803; 4098.700;  133.125;    0.000
805.992; 3989.700;  147.125;    0.000
806.181; 3989.700;  109.125;    0.000
806.370; 3996.700;  133.125;    0.000
806.559; 3986.700;  119.125;    0.000
806.748; 4043.700;  144.125;    0.000
806.937; 3965.700;  147.125;    0.000
807.126; 3959.700;  134.125;    0.000
807.315; 3878.700;  132.125;    0.000
807.504; 3897.700;  141.125;    0.000
807.693; 3850.700;  145.125;    0.000
807.882; 3833.700;   91.125;    0.000
808.071; 3944.700;  116.125;    0.000
808.260; 3899.700;  105.125;    0.000
808.448; 3999.700;  184.125;    0.000
808.637; 3909.700;  146.125;    0.000
808.826; 3857.700;  153.125;    0.000
809.015; 3890.700;  113.125;    0.000
809.203; 4010.700;  166.125;    0.000
809.392; 3914.700;  117.125;    0.000
809.581; 3983.700;  186.125;    0.000
809.770; 3849.700;  122.125;    0.000
809.958; 3891.700;  140.125;    0.000
810.147; 3933.700;  130.125;    0.000
810.335; 4045.700;  112.125;    0.000
810.524; 3958.700;  106.125;    0.000
810.713; 3967.700;  154.125;    0.000
810.901; 4086.700;  131.125;    0.000
811.090; 4013.700;  164.125;    0.000
811.278; 3949.700;  159.125;    0.000
811.467; 4085.700;  194.125;    0.000
811.655; 4148.700;  164.125;    0.000
811.844; 4149.700;  149.125;    0.000
812.032; 4027.700;  169.125;    0.000
812.220; 4129.700;  163.125;    0.000
812.409; 4009.700;  134.125;    0.000
812.597; 4138.700;  165.125;    0.000
812.785; 4013.700;  180.125;    0.000
812.974; 4030.700;  166.125;    0.000
813.162; 4105.700;  171.125;    0.000
813.350; 4119.700;  142.125;    0.000
813.539; 4075.700;  126.125;    0.000
813.727; 4121.700;  153.125;    0.000
813.915; 4063.700;  138.125;    0.000
814.103; 4141.700;  191.125;    0.000
814.291; 4002.700;  142.125;    0.000
814.479; 4088.700;  156.125;    0.000
814.668; 4149.700;  152.125;    0.000
814.856; 4210.700;  150.125;    0.000
815.044; 4139.700;  165.125;    0.000
815.232; 4191.700;  172.125;    0.000
815.420; 4238.700;  147.125;    0.000
815.608; 4263.700;  143.125;    0.000
815.796; 4281.700;  126.125;    0.000
815.984; 4372.700;  152.125;    0.000
816.172; 4390.700;  129.125;    0.000
816.360; 4529.700;  177.125;    0.000
816.548; 4508.700;  141.125;    0.000
816.736; 4529.700;  142.125;    0.000
816.924; 4836.700;  161.125;    0.000
817.111; 4879.700;  138.125;    0.000
817.299; 4955.700;  112.125;    0.000
817.487; 5182.700;  180.125;    0.000
817.675; 5517.700;  138.125;    0.000
817.863; 6128.700;  172.125;    0.000
818.050; 7368.700;  142.125;    0.000
818.238;11142.700;  151.125;    0.000
818.426;15571.700;  129.125;    0.000
818.613;12267.700;  124.125;    0.000
818.801;11264.700;  209.125;    0.000
818.989;10912.700;  178.125;    0.000
819.176;10823.700;  155.125;    0.000
819.364;13898.700;  174.125;    0.000
819.552;19756.699;  131.125;    0.000
819.739;13976.700;  184.125;    0.000
819.927;10594.700;  132.125;    0.000
820.114; 9518.700;  173.125;    0.000
820.302; 8737.700;  140.125;    0.000
820.489; 8224.700;  133.125;    0.000
820.677; 7908.700;  167.125;    0.000
820.864; 7967.700;  161.125;    0.000
821.052; 8429.700;  134.125;    0.000
821.239; 9035.700;  149.125;    0.000
821.426; 9702.700;  160.125;    0.000
821.614;11990.700;  143.125;    0.000
821.801;13278.700;  118.125;    0.000
821.988;11643.700;  154.125;    0.000
822.176;11362.700;  112.125;    0.000
822.363;11539.700;  131.125;    0.000
822.550;10591.700;  131.125;    0.000
822.737; 9663.700;  104.125;    0.000
822.924; 8910.700;  160.125;    0.000
823.112; 8611.700;  161.125;    0.000
823.299; 8036.700;  169.125;    0.000
823.486; 7582.700;  129.125;    0.000
823.673; 7184.700;  135.125;    0.000
823.860; 7239.700;  169.125;    0.000
824.047; 7268.700;  124.125;    0.000
824.234; 7730.700;  160.125;    0.000
824.421; 7961.700;  114.125;    0.000
824.608; 7342.700;  191.125;    0.000
824.795; 6662.700;  160.125;    0.000
824.982; 6322.700;  139.125;    0.000
825.169; 5917.700;  121.125;    0.000
825.356; 5639.700;  148.125;    0.000
825.543; 5381.700;  167.125;    0.000
825.730; 5267.700;  103.125;    0.000
825.917; 4985.700;  113.125;    0.000
826.104; 4941.700;  188.125;    0.000
826.290; 4692.700;  193.125;    0.000
826.477; 4681.700;  175.125;    0.000
826.664; 4464.700;  151.125;    0.000
826.851; 4441.700;  122.125;    0.000
827.038; 4437.700;  121.125;    0.000
827.224; 4256.700;  124.125;    0.000
827.411; 4247.700;  155.125;    0.000
827.598; 4168.700;  127.125;    0.000
827.784; 4011.700;  140.125;    0.000
827.971; 4039.700;  114.125;    0.000
828.157; 3910.700;  135.125;    0.000
828.344; 3806.700;  173.125;    0.000
828.531; 3858.700;  113.125;    0.000
828.717; 3774.700;  137.125;    0.000
828.904; 3872.700;  158.125;    0.000
829.090; 3863.700;  199.125;    0.000
829.277; 3687.700;  156.125;    0.000
829.463; 3609.700;  154.125;    0.000
829.650; 3691.700;  174.125;    0.000
829.836; 3554.700;  136.125;    0.000
830.022; 3670.700;  143.125;    0.000
830.209; 3600.700;  157.125;    0.000
830.395; 3551.700;  156.125;    0.000
830.581; 3492.700;  148.125;    0.000
830.768; 3429.700;  169.125;    0.000
830.954; 3377.700;  169.125;    0.000
831.140; 3452.700;  124.125;    0.000
831.327; 3396.700;  157.125;    0.000
831.513; 3394.700;  163.125;    0.000
831.699; 3429.700;  176.125;    0.000
831.885; 3415.700;  154.125;    0.000
832.071; 3440.700;  159.125;    0.000
832.257; 3382.700;  142.125;    0.000
832.444; 3361.700;  159.125;    0.000
832.630; 3305.700;  129.125;    0.000
832.816; 3308.700;  132.125;    0.000
833.002; 3218.700;  125.125;    0.000
833.188; 3249.700;  144.125;    0.000
833.374; 3269.700;  131.125;    0.000
833.560; 3253.700;  154.125;    0.000
833.746; 3272.700;  171.125;    0.000
833.932; 3121.700;  162.125;    0.000
834.118; 3163.700;  131.125;    0.000
834.303; 3187.700;  113.125;    0.000
834.489; 3185.700;  170.125;    0.000
834.675; 3170.700;  177.125;    0.000
834.861; 3213.700;  154.125;    0.000
835.047; 3134.700;  171.125;    0.000
835.233; 3116.700;   98.125;    0.000
835.418; 3225.700;  138.125;    0.000
835.604; 3147.700;  140.125;    0.000
835.790; 3089.700;  130.125;    0.000
835.976; 3075.700;  129.125;    0.000
836.161; 3114.700;  142.125;    0.000
836.347; 3027.700;  128.125;    0.000
836.533; 3166.700;  143.125;    0.000
836.718; 3189.700;  164.125;    0.000
836.904; 3126.700;  172.125;    0.000
837.089; 3131.700;  152.125;    0.000
837.275; 3040.700;  143.125;    0.000
837.460; 3069.700;  125.125;    0.000
837.646; 3055.700;  137.125;    0.000
837.831; 3121.700;  153.125;    0.000
838.017; 3160.700;  171.125;    0.000
838.202; 3126.700;  111.125;    0.000
838.388; 3123.700;  140.125;    0.000
838.573; 3084.700;  158.125;    0.000
838.759; 3125.700;  188.125;    0.000
838.944; 3106.700;  125.125;    0.000
839.129; 3083.700;  123.125;    0.000
839.315; 3046.700;  181.125;    0.000
839.500; 3192.700;  150.125;    0.000
839.685; 3049.700;  109.125;    0.000
839.870; 3101.700;  202.125;    0.000
840.056; 3070.700;  101.125;    0.000
840.241; 3093.700;  184.125;    0.000
840.426; 3122.700;  192.125;    0.000
840.611; 3165.700;  180.125;    0.000
840.796; 3215.700;  156.125;    0.000
840.981; 3221.700;  142.125;    0.000
841.166; 3301.700;  161.125;    0.000
841.352; 3249.700;  185.125;    0.000
841.537; 3323.700;  139.125;    0.000
841.722; 3352.700;  143.125;    0.000
841.907; 3389.700;  140.125;    0.000
842.092; 3429.700;  176.125;    0.000
842.277; 3445.700;  136.125;    0.000
842.461; 3514.700;  155.125;    0.000
842.646; 3636.700;  163.125;    0.000
842.831; 3707.700;  153.125;    0.000
843.016; 3673.700;  187.125;    0.000
843.201; 3871.700;  179.125;    0.000
843.386; 3923.700;  167.125;    0.000
843.571; 4190.700;  129.125;    0.000
843.755; 4422.700;  136.125;    0.000
843.940; 4687.700;  121.125;    0.000
844.125; 5186.700;  157.125;    0.000
844.310; 5996.700;  175.125;    0.000
844.494; 7787.700;  164.125;    0.000
844.679;10011.700;  167.125;    0.000
844.864;10150.700;  166.125;    0.000
845.048; 8411.700;  132.125;    0.000
845.233; 7308.700;  175.125;    0.000
845.418; 6318.700;  159.125;    0.000
845.602; 5818.700;  147.125;    0.000
845.787; 5197.700;  132.125;    0.000
845.971; 4956.700;  187.125;    0.000
846.156; 4558.700;  141.125;    0.000
846.340; 4437.700;  153.125;    0.000
846.525; 4239.700;  157.125;    0.000
846.709; 4145.700;  117.125;    0.000
846.893; 3918.700;  147.125;    0.000
847.078; 3851.700;  170.125;    0.000
847.262; 3691.700;  150.125;    0.000
847.447; 3516.700;  132.125;    0.000
847.631; 3459.700;  144.125;    0.000
847.815; 3373.700;  157.125;    0.000
848.000; 3360.700;  164.125;    0.000
848.184; 3360.700;  174.125;    0.000
848.368; 3302.700;  149.125;    0.000
848.552; 3240.700;  143.125;    0.000
848.736; 3185.700;  132.125;    0.000
848.921; 3146.700;  147.125;    0.000
849.105; 3040.700;  150.125;    0.000
849.289; 3011.700;  146.125;    0.000
849.473; 3020.700;  167.125;    0.000
849.657; 3017.700;  149.125;    0.000
849.841; 2989.700;  181.125;    0.000
850.025; 2934.700;  154.125;    0.000
850.209; 2928.700;  152.125;    0.000
850.393; 2976.700;  139.125;    0.000
850.577; 2907.700;  128.125;    0.000
850.761; 2843.700;  194.125;    0.000
850.945; 2739.700;  152.125;    0.000
851.129; 2832.700;  157.125;    0.000
851.313; 2826.700;  181.125;    0.000
851.497; 2870.700;  145.125;    0.000
851.680; 2880.700;  168.125;    0.000
851.864; 2854.700;  185.125;    0.000
852.048; 2828.700;  170.125;    0.000
852.232; 2899.700;  192.125;    0.000
852.416; 2939.700;  182.125;    0.000
852.599; 2828.700;  169.125;    0.000
852.783; 2809.700;  168.125;    0.000
852.967; 2900.700;  184.125;    0.000
853.150; 2812.700;  163.125;    0.000
853.334; 2854.700;  164.125;    0.000
853.518; 2862.700;  190.125;    0.000
853.701; 2777.700;  137.125;    0.000
853.885; 2838.700;  177.125;    0.000
854.068; 2738.700;  163.125;    0.000
854.252; 2721.700;  139.125;    0.000
854.435; 2749.700;  152.125;    0.000
854.619; 2761.700;  148.125;    0.000
854.802; 2743.700;  168.125;    0.000
854.986; 2723.700;  157.125;    0.000
855.169; 2807.700;  147.125;    0.000
855.353; 2765.700;  173.125;    0.000
855.536; 2785.700;  127.125;    0.000
855.719; 2772.700;  191.125;    0.000
855.903; 2760.700;  186.125;    0.000
856.086; 2738.700;  145.125;    0.000
856.269; 2847.700;  130.125;    0.000
856.452; 2857.700;  153.125;    0.000
856.636; 2892.700;  129.125;    0.000
856.819; 3014.700;  134.125;    0.000
857.002; 3199.700;  152.125;    0.000
857.185; 3024.700;  140.125;    0.000
857.368; 2995.700;  170.125;    0.000
857.552; 3030.700;  132.125;    0.000
857.735; 2981.700;  160.125;    0.000
857.918; 2952.700;  139.125;    0.000
858.101; 2948.700;  159.125;    0.000
858.284; 2924.700;  136.125;    0.000
858.467; 3027.700;  147.125;    0.000
858.650; 3079.700;  153.125;    0.000
858.833; 3002.700;  113.125;    0.000
859.016; 3126.700;  167.125;    0.000
859.199; 3250.700;  141.125;    0.000
859.382; 3366.700;  155.125;    0.000
859.564; 3678.700;  136.125;    0.000
859.747; 3543.700;  142.125;    0.000
859.930; 3405.700;  141.125;    0.000
860.113; 3383.700;  156.125;    0.000
860.296; 3443.700;  167.125;    0.000
860.478; 3237.700;  121.125;    0.000
860.661; 3274.700;  230.125;    0.000
860.844; 3289.700;  186.125;    0.000
861.027; 3306.700;  155.125;    0.000
861.209; 3320.700;  151.125;    0.000
861.392; 3177.700;  162.125;    0.000
861.575; 3241.700;  150.125;    0.000
861.757; 3281.700;  162.125;    0.000
861.940; 3383.700;  207.125;    0.000
862.122; 3398.700;  113.125;    0.000
862.305; 3381.700;  114.125;    0.000
862.487; 3511.700;  162.125;    0.000
862.670; 3719.700;  148.125;    0.000
862.852; 4194.700;  131.125;    0.000
863.035; 5017.700;  174.125;    0.000
863.217; 4877.700;  170.125;    0.000
863.400; 4584.700;  148.125;    0.000
863.582; 4276.700;  129.125;    0.000
863.764; 4133.700;  181.125;    0.000
863.947; 4039.700;  152.125;    0.000
864.129; 3861.700;  178.125;    0.000
864.311; 3876.700;  139.125;    0.000
864.493; 3840.700;  166.125;    0.000
864.676; 3745.700;  148.125;    0.000
864.858; 3670.700;  123.125;    0.000
865.040; 3699.700;  180.125;    0.000
865.222; 3742.700;  131.125;    0.000
865.404; 3788.700;  146.125;    0.000
865.587; 3935.700;  175.125;    0.000
865.769; 4037.700;  183.125;    0.000
865.951; 4038.700;  171.125;    0.000
866.133; 4087.700;  165.125;    0.000
866.315; 3980.700;  138.125;    0.000
866.497; 4096.700;  139.125;    0.000
866.679; 4241.700;  167.125;    0.000
866.861; 4315.700;  151.125;    0.000
867.043; 4550.700;  190.125;    0.000
867.225; 4802.700;  140.125;    0.000
867.407; 5090.700;  125.125;    0.000
867.589; 5677.700;  141.125;    0.000
867.770; 6840.700;  149.125;    0.000
867.952; 9027.700;  138.125;    0.000
868.134;11389.700;  153.125;    0.000
868.316;11625.700;  148.125;    0.000
868.498;11059.700;  180.125;    0.000
868.679; 9952.700;  152.125;    0.000
868.861; 8610.700;  174.125;    0.000
869.043; 7403.700;  152.125;    0.000
869.224; 6555.700;  177.125;    0.000
869.406; 6030.700;  171.125;    0.000
869.588; 5728.700;  177.125;    0.000
869.769; 5467.700;  174.125;    0.000
869.951; 5346.700;  167.125;    0.000
870.132; 5288.700;  144.125;    0.000
870.314; 5617.700;  143.125;    0.000
870.495; 5710.700;  162.125;    0.000
870.677; 5322.700;  136.125;    0.000
870.858; 5223.700;  155.125;    0.000
871.040; 5458.700;  179.125;    0.000
871.221; 5735.700;  177.125;    0.000
871.403; 5701.700;  180.125;    0.000
871.584; 5375.700;  157.125;    0.000
871.765; 5490.700;  183.125;    0.000
871.947; 5809.700;  169.125;    0.000
872.128; 5184.700;  162.125;    0.000
872.309; 4645.700;  159.125;    0.000
872.491; 4284.700;  148.125;    0.000
872.672; 4185.700;  163.125;    0.000
872.853; 3951.700;  152.125;    0.000
873.034; 3872.700;  166.125;    0.000
873.215; 3635.700;  155.125;    0.000
873.396; 3568.700;  147.125;    0.000
873.578; 3479.700;  147.125;    0.000
873.759; 3384.700;  153.125;    0.000
873.940; 3284.700;  194.125;    0.000
874.121; 3076.700;  179.125;    0.000
874.302; 3062.700;  155.125;    0.000
874.483; 3124.700;  131.125;    0.000
874.664; 3002.700;  106.125;    0.000
874.845; 3034.700;  122.125;    0.000
875.026; 2984.700;  127.125;    0.000
875.207; 2901.700;  151.125;    0.000
875.388; 2930.700;  149.125;    0.000
875.568; 2885.700;  164.125;    0.000
875.749; 2717.700;  176.125;    0.000
875.930; 2696.700;  207.125;    0.000
876.111; 2711.700;  177.125;    0.000
876.292; 2751.700;  178.125;    0.000
876.472; 2717.700;  163.125;    0.000
876.653; 2633.700;  159.125;    0.000
876.834; 2510.700;  177.125;    0.000
877.015; 2648.700;  212.125;    0.000
877.195; 2542.700;  166.125;    0.000
877.376; 2467.700;  157.125;    0.000
877.556; 2535.700;  175.125;    0.000
877.737; 2563.700;  220.125;    0.000
877.918; 2536.700;  163.125;    0.000
878.098; 2459.700;  166.125;    0.000
878.279; 2518.700;  136.125;    0.000
878.459; 2488.700;  167.125;    0.000
878.640; 2518.700;  167.125;    0.000
878.820; 2408.700;  155.125;    0.000
879.000; 2496.700;  158.125;    0.000
879.181; 2411.700;  155.125;    0.000
879.361; 2440.700;  181.125;    0.000
879.542; 2417.700;  181.125;    0.000
879.722; 2480.700;  117.125;    0.000
879.902; 2338.700;  180.125;    0.000
880.083; 2414.700;  139.125;    0.000
880.263; 2498.700;  168.125;    0.000
880.443; 2705.700;  206.125;    0.000
880.623; 3090.700;  132.125;    0.000
880.803; 3369.700;  149.125;    0.000
880.984; 2805.700;  189.125;    0.000
881.164; 2727.700;  171.125;    0.000
881.344; 2633.700;  150.125;    0.000
881.524; 2639.700;  185.125;    0.000
881.704; 2545.700;  152.125;    0.000
881.884; 2703.700;  188.125;    0.000
882.064; 2720.700;  155.125;    0.000
882.244; 2809.700;  182.125;    0.000
882.424; 2676.700;  154.125;    0.000
882.604; 2597.700;  175.125;    0.000
882.784; 2546.700;  137.125;    0.000
882.964; 2488.700;  135.125;    0.000
883.144; 2405.700;  142.125;    0.000
883.324; 2440.700;  192.125;    0.000
883.504; 2369.700;  193.125;    0.000
883.683; 2375.700;  208.125;    0.000
883.863; 2310.700;  127.125;    0.000
884.043; 2259.700;  140.125;    0.000
884.223; 2326.700;  167.125;    0.000
884.402; 2267.700;  156.125;    0.000
884.582; 2388.700;  185.125;    0.000
884.762; 2335.700;  187.125;    0.000
884.941; 2408.700;  201.125;    0.000
885.121; 2213.700;  157.125;    0.000
885.301; 2272.700;  173.125;    0.000
885.480; 2198.700;  158.125;    0.000
885.660; 2302.700;  153.125;    0.000
885.839; 2218.700;  144.125;    0.000
886.019; 2247.700;  184.125;    0.000
886.198; 2220.700;  132.125;    0.000
886.378; 2207.700;  124.125;    0.000
886.557; 2093.700;  146.125;    0.000
886.737; 2143.700;  157.125;    0.000
886.916; 2188.700;  203.125;    0.000
887.095; 2108.700;  151.125;    0.000
887.275; 2234.700;  143.125;    0.000
887.454; 2145.700;  140.125;    0.000
887.633; 2182.700;  196.125;    0.000
887.813; 2214.700;  161.125;    0.000
887.992; 2222.700;  183.125;    0.000
888.171; 2137.700;  153.125;    0.000
888.350; 2101.700;  185.125;    0.000
888.530; 2183.700;  163.125;    0.000
888.709; 2061.700;  174.125;    0.000
888.888; 2239.700;  179.125;    0.000
889.067; 2193.700;  178.125;    0.000
889.246; 2207.700;  184.125;    0.000
889.425; 2166.700;  169.125;    0.000
889.604; 2119.700;  210.125;    0.000
889.783; 2142.700;  183.125;    0.000
889.962; 2057.700;  116.125;    0.000
890.141; 2098.700;  179.125;    0.000
890.320; 2085.700;  182.125;    0.000
890.499; 2066.700;  188.125;    0.000
890.678; 2091.700;  167.125;    0.000
890.857; 2075.700;  141.125;    0.000
891.036; 2133.700;  179.125;    0.000
891.214; 2081.700;  156.125;    0.000
891.393; 2165.700;  209.125;    0.000
891.572; 2078.700;  181.125;    0.000
891.751; 2108.700;  172.125;    0.000
891.930; 2159.700;  169.125;    0.000
892.108; 2131.700;  131.125;    0.000
892.287; 2183.700;  162.125;    0.000
892.466; 2113.700;  178.125;    0.000
892.644; 2160.700;  161.125;    0.000
892.823; 1990.700;  180.125;    0.000
893.001; 2094.700;  179.125;    0.000
893.180; 2126.700;  152.125;    0.000
893.359; 2069.700;  184.125;    0.000
893.537; 2098.700;  178.125;    0.000
893.716; 2129.700;  169.125;    0.000
893.894; 2127.700;  159.125;    0.000
894.073; 2057.700;  179.125;    0.000
894.251; 2063.700;  167.125;    0.000
894.429; 2039.700;  142.125;    0.000
894.608; 2145.700;  166.125;    0.000
894.786; 2170.700;  153.125;    0.000
894.964; 2071.700;  181.125;    0.000
895.143; 2118.700;  161.125;    0.000
895.321; 2118.700;  198.125;    0.000
895.499; 2123.700;  184.125;    0.000
895.677; 2121.700;  178.125;    0.000
895.856; 2094.700;  226.125;    0.000
896.034; 2101.700;  180.125;    0.000
896.212; 2135.700;  200.125;    0.000
896.390; 2114.700;  161.125;    0.000
896.568; 2123.700;  204.125;    0.000
896.746; 2105.700;  136.125;    0.000
896.924; 2163.700;  171.125;    0.000
897.102; 2094.700;  203.125;    0.000
897.280; 2067.700;  142.125;    0.000
897.458; 2120.700;  159.125;    0.000
897.636; 2171.700;  163.125;    0.000
897.814; 2082.700;  137.125;    0.000
897.992; 2195.700;  199.125;    0.000
898.170; 2210.700;  176.125;    0.000
898.348; 2168.700;  195.125;    0.000
898.526; 2124.700;  199.125;    0.000
898.704; 2081.700;  260.125;    0.000
898.882; 2200.700;  185.125;    0.000
899.059; 2195.700;  169.125;    0.000
899.237; 2228.700;  197.125;    0.000
899.415; 2156.700;  207.125;    0.000
899.593; 2191.700;  169.125;    0.000
899.770; 2100.700;  182.125;    0.000
899.948; 2158.700;  198.125;    0.000
900.125; 2226.700;  200.125;    0.000
900.303; 2276.700;  165.125;    0.000
900.481; 2202.700;  182.125;    0.000
900.658; 2230.700;  206.125;    0.000
900.836; 2281.700;  188.125;    0.000
901.013; 2365.700;  169.125;    0.000
901.191; 2306.700;  172.125;    0.000
901.368; 2287.700;  170.125;    0.000
901.546; 2437.700;  234.125;    0.000
901.723; 2405.700;  173.125;    0.000
901.901; 2395.700;  190.125;    0.000
902.078; 2533.700;  145.125;    0.000
902.255; 2478.700;  204.125;    0.000
902.433; 2515.700;  198.125;    0.000
902.610; 2467.700;  190.125;    0.000
902.787; 2484.700;  204.125;    0.000
902.964; 2547.700;  208.125;    0.000
903.142; 2645.700;  187.125;    0.000
903.319; 2604.700;  216.125;    0.000
903.496; 2592.700;  186.125;    0.000
903.673; 2676.700;  201.125;    0.000
903.850; 2678.700;  195.125;    0.000
904.027; 2873.700;  211.125;    0.000
904.204; 2840.700;  197.125;    0.000
904.381; 3080.700;  198.125;    0.000
904.558; 3432.700;  188.125;    0.000
904.735; 3841.700;  207.125;    0.000
904.912; 3803.700;  217.125;    0.000
905.089; 3776.700;  188.125;    0.000
905.266; 3638.700;  160.125;    0.000
905.443; 3448.700;  221.125;    0.000
905.620; 3211.700;  163.125;    0.000
905.797; 3160.700;  186.125;    0.000
905.974; 3044.700;  205.125;    0.000
906.151; 2987.700;  159.125;    0.000
906.327; 3020.700;  206.125;    0.000
906.504; 3014.700;  201.125;    0.000
906.681; 2806.700;  202.125;    0.000
906.858; 2724.700;  188.125;    0.000
907.034; 2798.700;  207.125;    0.000
907.211; 2628.700;  182.125;    0.000
907.388; 2667.700;  184.125;    0.000
907.564; 2633.700;  148.125;    0.000
907.741; 2586.700;  181.125;    0.000
907.917; 2517.700;  191.125;    0.000
908.094; 2584.700;  210.125;    0.000
908.271; 2534.700;  171.125;    0.000
908.447; 2461.700;  241.125;    0.000
908.623; 2509.700;  188.125;    0.000
908.800; 2471.700;  205.125;    0.000
908.976; 2476.700;  210.125;    0.000
909.153; 2439.700;  193.125;    0.000
909.329; 2491.700;  206.125;    0.000
909.505; 2403.700;  181.125;    0.000
909.682; 2406.700;  192.125;    0.000
909.858; 2300.700;  134.125;    0.000
910.034; 2308.700;  214.125;    0.000
910.211; 2360.700;  182.125;    0.000
910.387; 2338.700;  194.125;    0.000
910.563; 2273.700;  199.125;    0.000
910.739; 2292.700;  188.125;    0.000
910.915; 2324.700;  192.125;    0.000
911.091; 2282.700;  198.125;    0.000
911.268; 2251.700;  178.125;    0.000
911.444; 2179.700;  201.125;    0.000
911.620; 2242.700;  181.125;    0.000
911.796; 2194.700;  185.125;    0.000
911.972; 2189.700;  176.125;    0.000
912.148; 2244.700;  196.125;    0.000
912.324; 2316.700;  192.125;    0.000
912.500; 2217.700;  204.125;    0.000
912.676; 2209.700;  164.125;    0.000
912.851; 2201.700;  193.125;    0.000
913.027; 2250.700;  175.125;    0.000
913.203; 2188.700;  193.125;    0.000
913.379; 2191.700;  213.125;    0.000
913.555; 2157.700;  211.125;    0.000
913.730; 2143.700;  194.125;    0.000
913.906; 2255.700;  153.125;    0.000
914.082; 2282.700;  212.125;    0.000
914.258; 2210.700;  194.125;    0.000
914.433; 2193.700;  191.125;    0.000
914.609; 2176.700;  208.125;    0.000
914.784; 2162.700;  176.125;    0.000
914.960; 2231.700;  227.125;    0.000
915.136; 2195.700;  152.125;    0.000
915.311; 2171.700;  171.125;    0.000
915.487; 2116.700;  173.125;    0.000
915.662; 2213.700;  189.125;    0.000
915.838; 2206.700;  179.125;    0.000
916.013; 2286.700;  191.125;    0.000
916.189; 2274.700;  207.125;    0.000
916.364; 2252.700;  194.125;    0.000
916.539; 2249.700;  174.125;    0.000
916.715; 2245.700;  207.125;    0.000
916.890; 2195.700;  193.125;    0.000
917.065; 2157.700;  199.125;    0.000
917.240; 2150.700;  214.125;    0.000
917.416; 2235.700;  194.125;    0.000
917.591; 2203.700;  213.125;    0.000
917.766; 2240.700;  194.125;    0.000
917.941; 2187.700;  201.125;    0.000
918.116; 2185.700;  198.125;    0.000
918.292; 2214.700;  176.125;    0.000
918.467; 2318.700;  190.125;    0.000
918.642; 2212.700;  200.125;    0.000
918.817; 2226.700;  186.125;    0.000
918.992; 2251.700;  174.125;    0.000
919.167; 2281.700;  197.125;    0.000
919.342; 2167.700;  188.125;    0.000
919.517; 2274.700;  179.125;    0.000
919.692; 2277.700;  182.125;    0.000
919.867; 2390.700;  216.125;    0.000
920.041; 2303.700;  208.125;    0.000
920.216; 2374.700;  223.125;    0.000
920.391; 2355.700;  203.125;    0.000
920.566; 2375.700;  202.125;    0.000
920.741; 2415.700;  197.125;    0.000
920.915; 2436.700;  223.125;    0.000
921.090; 2523.700;  183.125;    0.000
921.265; 2860.700;  169.125;    0.000
921.439; 2978.700;  212.125;    0.000
921.614; 2826.700;  190.125;    0.000
921.789; 2732.700;  177.125;    0.000
921.963; 2686.700;  233.125;    0.000
922.138; 2530.700;  156.125;    0.000
922.312; 2581.700;  193.125;    0.000
922.487; 2601.700;  208.125;    0.000
922.661; 2584.700;  212.125;    0.000
922.836; 2741.700;  210.125;    0.000
923.010; 2741.700;  183.125;    0.000
923.185; 2573.700;  228.125;    0.000
923.359; 2529.700;  227.125;    0.000
923.534; 2544.700;  189.125;    0.000
923.708; 2761.700;  210.125;    0.000
923.882; 2657.700;  217.125;    0.000
924.057; 2679.700;  195.125;    0.000
924.231; 2617.700;  201.125;    0.000
924.405; 2548.700;  188.125;    0.000
924.579; 2581.700;  188.125;    0.000
924.753; 2599.700;  174.125;    0.000
924.928; 2552.700;  179.125;    0.000
925.102; 2535.700;  186.125;    0.000
925.276; 2626.700;  201.125;    0.000
925.450; 2613.700;  211.125;    0.000
925.624; 2736.700;  238.125;    0.000
925.798; 2688.700;  191.125;    0.000
925.972; 2788.700;  192.125;    0.000
926.146; 2893.700;  198.125;    0.000
926.320; 3095.700;  151.125;    0.000
926.494; 3270.700;  202.125;    0.000
926.668; 3368.700;  197.125;    0.000
926.842; 3468.700;  177.125;    0.000
927.016; 3413.700;  202.125;    0.000
927.190; 3472.700;  207.125;    0.000
927.363; 3317.700;  180.125;    0.000
927.537; 3428.700;  212.125;    0.000
927.711; 3180.700;  148.125;    0.000
927.885; 3147.700;  196.125;    0.000
928.058; 3072.700;  173.125;    0.000
928.232; 3097.700;  219.125;    0.000
928.406; 3022.700;  141.125;    0.000
928.579; 2962.700;  157.125;    0.000
928.753; 2948.700;  205.125;    0.000
928.927; 2966.700;  196.125;    0.000
929.100; 2841.700;  237.125;    0.000
929.274; 2769.700;  166.125;    0.000
929.447; 2639.700;  150.125;    0.000
929.621; 2818.700;  188.125;    0.000
929.794; 2705.700;  169.125;    0.000
929.968; 2577.700;  194.125;    0.000
930.141; 2691.700;  226.125;    0.000
930.315; 2586.700;  196.125;    0.000
930.488; 2593.700;  233.125;    0.000
930.661; 2543.700;  188.125;    0.000
930.835; 2575.700;  170.125;    0.000
931.008; 2508.700;  176.125;    0.000
931.181; 2469.700;  175.125;    0.000
931.354; 2449.700;  212.125;    0.000
931.528; 2552.700;  177.125;    0.000
931.701; 2350.700;  218.125;    0.000
931.874; 2368.700;  175.125;    0.000
932.047; 2289.700;  157.125;    0.000
932.220; 2413.700;  187.125;    0.000
932.393; 2334.700;  166.125;    0.000
932.566; 2293.700;  168.125;    0.000
932.739; 2388.700;  203.125;    0.000
932.912; 2279.700;  202.125;    0.000
933.085; 2301.700;  209.125;    0.000
933.258; 2285.700;  196.125;    0.000
933.431; 2195.700;  207.125;    0.000
933.604; 2236.700;  201.125;    0.000
933.777; 2346.700;  202.125;    0.000
933.950; 2301.700;  184.125;    0.000
934.123; 2183.700;  167.125;    0.000
934.296; 2204.700;  209.125;    0.000
934.468; 2264.700;  216.125;    0.000
934.641; 2197.700;  156.125;    0.000
934.814; 2225.700;  215.125;    0.000
934.987; 2198.700;  201.125;    0.000
935.159; 2222.700;  176.125;    0.000
935.332; 2264.700;  203.125;    0.000
935.505; 2235.700;  163.125;    0.000
935.677; 2137.700;  169.125;    0.000
935.850; 2173.700;  178.125;    0.000
936.022; 2167.700;  187.125;    0.000
936.195; 2114.700;  207.125;    0.000
936.367; 2268.700;  191.125;    0.000
936.540; 2213.700;  214.125;    0.000
936.712; 2229.700;  202.125;    0.000
936.885; 2280.700;  195.125;    0.000
937.057; 2253.700;  173.125;    0.000
937.229; 2244.700;  179.125;    0.000
937.402; 2369.700;  174.125;    0.000
937.574; 2339.700;  140.125;    0.000
937.746; 2422.700;  153.125;    0.000
937.919; 2467.700;  196.125;    0.000
938.091; 2514.700;  173.125;    0.000
938.263; 2633.700;  206.125;    0.000
938.435; 2814.700;  213.125;    0.000
938.608; 3213.700;  204.125;    0.000
938.780; 3502.700;  199.125;    0.000
938.952; 3659.700;  190.125;    0.000
939.124; 3573.700;  182.125;    0.000
939.296; 4205.700;  188.125;    0.000
939.468; 4167.700;  119.125;    0.000
939.640; 3937.700;  171.125;    0.000
939.812; 3604.700;  222.125;    0.000
939.984; 3299.700;  172.125;    0.000
940.156; 3193.700;  171.125;    0.000
940.328; 2886.700;  215.125;    0.000
940.500; 2727.700;  179.125;    0.000
940.672; 2720.700;  178.125;    0.000
940.843; 2660.700;  193.125;    0.000
941.015; 2605.700;  207.125;    0.000
941.187; 2457.700;  179.125;    0.000
941.359; 2458.700;  191.125;    0.000
941.531; 2438.700;  160.125;    0.000
941.702; 2550.700;  208.125;    0.000
941.874; 2393.700;  143.125;    0.000
942.046; 2307.700;  189.125;    0.000
942.217; 2301.700;  167.125;    0.000
942.389; 2379.700;  199.125;    0.000
942.560; 2231.700;  179.125;    0.000
942.732; 2209.700;  209.125;    0.000
942.904; 2128.700;  180.125;    0.000
943.075; 2159.700;  197.125;    0.000
943.247; 2084.700;  207.125;    0.000
943.418; 2208.700;  183.125;    0.000
943.589; 2109.700;  176.125;    0.000
943.761; 2108.700;  165.125;    0.000
943.932; 2112.700;  170.125;    0.000
944.104; 2098.700;  147.125;    0.000
944.275; 2060.700;  149.125;    0.000
944.446; 2041.700;  191.125;    0.000
944.617; 2002.700;  128.125;    0.000
944.789; 2038.700;  166.125;    0.000
944.960; 1985.700;  195.125;    0.000
945.131; 2022.700;  164.125;    0.000
945.302; 2003.700;  229.125;    0.000
945.473; 1987.700;  153.125;    0.000
945.645; 2027.700;  166.125;    0.000
945.816; 2033.700;  187.125;    0.000
945.987; 2027.700;  193.125;    0.000
946.158; 2134.700;  166.125;    0.000
946.329; 2088.700;  196.125;    0.000
946.500; 2044.700;  152.125;    0.000
946.671; 2047.700;  161.125;    0.000
946.842; 2016.700;  176.125;    0.000
947.013; 1965.700;  188.125;    0.000
947.183; 1944.700;  213.125;    0.000
947.354; 1906.700;  163.125;    0.000
947.525; 1912.700;  204.125;    0.000
947.696; 1892.700;  159.125;    0.000
947.867; 1975.700;  197.125;    0.000
948.037; 1940.700;  174.125;    0.000
948.208; 1937.700;  163.125;    0.000
948.379; 1988.700;  189.125;    0.000
948.550; 1942.700;  173.125;    0.000
948.720; 1912.700;  186.125;    0.000
948.891; 1884.700;  166.125;    0.000
949.061; 1885.700;  197.125;    0.000
949.232; 1826.700;  168.125;    0.000
949.403; 1817.700;  188.125;    0.000
949.573; 1878.700;  164.125;    0.000
949.744; 1856.700;  194.125;    0.000
949.914; 1953.700;  154.125;    0.000
950.085; 1849.700;  197.125;    0.000
950.255; 1855.700;  187.125;    0.000
950.425; 1905.700;  193.125;    0.000
950.596; 1864.700;  182.125;    0.000
950.766; 1945.700;  202.125;    0.000
950.936; 1975.700;  230.125;    0.000
951.107; 1782.700;  133.125;    0.000
951.277; 1885.700;  234.125;    0.000
951.447; 1896.700;  200.125;    0.000
951.617; 1989.700;  212.125;    0.000
951.788; 1836.700;  176.125;    0.000
951.958; 1845.700;  218.125;    0.000
952.128; 1859.700;  198.125;    0.000
952.298; 1878.700;  185.125;    0.000
952.468; 1857.700;  231.125;    0.000
952.638; 1852.700;  213.125;    0.000
952.808; 1779.700;  218.125;    0.000
952.978; 1846.700;  252.125;    0.000
953.148; 1829.700;  200.125;    0.000
953.318; 1899.700;  243.125;    0.000
953.488; 1826.700;  140.125;    0.000
953.658; 1840.700;  208.125;    0.000
953.828; 1783.700;  179.125;    0.000
953.998; 1827.700;  211.125;    0.000
954.167; 1772.700;  197.125;    0.000
954.337; 1777.700;  217.125;    0.000
954.507; 1730.700;  219.125;    0.000
954.677; 1810.700;  201.125;    0.000
954.846; 1762.700;  241.125;    0.000
955.016; 1752.700;  222.125;    0.000
955.186; 1759.700;  200.125;    0.000
955.355; 1739.700;  247.125;    0.000
955.525; 1709.700;  212.125;    0.000
955.695; 1749.700;  200.125;    0.000
955.864; 1674.700;  196.125;    0.000
956.034; 1714.700;  195.125;    0.000
956.203; 1788.700;  243.125;    0.000
956.373; 1739.700;  197.125;    0.000
956.542; 1769.700;  237.125;    0.000
956.711; 1683.700;  249.125;    0.000
956.881; 1765.700;  235.125;    0.000
957.050; 1776.700;  259.125;    0.000
957.220; 1792.700;  234.125;    0.000
957.389; 1681.700;  250.125;    0.000
957.558; 1712.700;  214.125;    0.000
957.727; 1725.700;  225.125;    0.000
957.897; 1764.700;  211.125;    0.000
958.066; 1710.700;  200.125;    0.000
958.235; 1665.700;  202.125;    0.000
958.404; 1718.700;  242.125;    0.000
958.573; 1687.700;  222.125;    0.000
958.743; 1622.700;  191.125;    0.000
958.912; 1749.700;  183.125;    0.000
959.081; 1697.700;  212.125;    0.000
959.250; 1629.700;  192.125;    0.000
959.419; 1678.700;  238.125;    0.000
959.588; 1681.700;  205.125;    0.000
959.757; 1679.700;  213.125;    0.000
959.926; 1589.700;  217.125;    0.000
960.094; 1661.700;  215.125;    0.000
960.263; 1691.700;  220.125;    0.000
960.432; 1603.700;  164.125;    0.000
960.601; 1698.700;  228.125;    0.000
960.770; 1609.700;  176.125;    0.000
960.939; 1635.700;  201.125;    0.000
961.107; 1640.700;  183.125;    0.000
961.276; 1636.700;  199.125;    0.000
961.445; 1597.700;  205.125;    0.000
961.613; 1557.700;  183.125;    0.000
961.782; 1574.700;  216.125;    0.000
961.951; 1636.700;  169.125;    0.000
962.119; 1570.700;  211.125;    0.000
962.288; 1597.700;  204.125;    0.000
962.456; 1603.700;  187.125;    0.000
962.625; 1603.700;  223.125;    0.000
962.793; 1654.700;  200.125;    0.000
962.962; 1623.700;  185.125;    0.000
963.130; 1627.700;  195.125;    0.000
963.298; 1584.700;  187.125;    0.000
963.467; 1626.700;  247.125;    0.000
963.635; 1567.700;  165.125;    0.000
963.803; 1648.700;  192.125;    0.000
963.972; 1640.700;  191.125;    0.000
964.140; 1602.700;  163.125;    0.000
964.308; 1619.700;  161.125;    0.000
964.477; 1610.700;  182.125;    0.000
964.645; 1620.700;  195.125;    0.000
964.813; 1666.700;  165.125;    0.000
964.981; 1613.700;  193.125;    0.000
965.149; 1646.700;  174.125;    0.000
965.317; 1661.700;  194.125;    0.000
965.485; 1590.700;  209.125;    0.000
965.653; 1533.700;  210.125;    0.000
965.821; 1575.700;  194.125;    0.000
965.989; 1579.700;  182.125;    0.000
966.157; 1603.700;  180.125;    0.000
966.325; 1561.700;  198.125;    0.000
966.493; 1619.700;  182.125;    0.000
966.661; 1500.700;  200.125;    0.000
966.829; 1548.700;  190.125;    0.000
966.996; 1602.700;  221.125;    0.000
967.164; 1605.700;  176.125;    0.000
967.332; 1584.700;  228.125;    0.000
967.500; 1548.700;  177.125;    0.000
967.667; 1602.700;  202.125;    0.000
967.835; 1593.700;  220.125;    0.000
968.003; 1707.700;  183.125;    0.000
968.170; 1658.700;  163.125;    0.000
968.338; 1598.700;  162.125;    0.000
968.505; 1629.700;  198.125;    0.000
968.673; 1667.700;  213.125;    0.000
968.841; 1578.700;  131.125;    0.000
969.008; 1615.700;  225.125;    0.000
969.175; 1571.700;  202.125;    0.000
969.343; 1543.700;  222.125;    0.000
969.510; 1690.700;  230.125;    0.000
969.678; 1441.700;  161.125;    0.000
969.845; 1614.700;  208.125;    0.000
970.012; 1574.700;  186.125;    0.000
970.180; 1664.700;  226.125;    0.000
970.347; 1559.700;  222.125;    0.000
970.514; 1629.700;  206.125;    0.000
970.681; 1505.700;  173.125;    0.000
970.849; 1597.700;  190.125;    0.000
971.016; 1556.700;  220.125;    0.000
971.183; 1574.700;  202.125;    0.000
971.350; 1623.700;  196.125;    0.000
971.517; 1585.700;  218.125;    0.000
971.684; 1555.700;  228.125;    0.000
971.851; 1576.700;  235.125;    0.000
972.018; 1655.700;  200.125;    0.000
972.185; 1658.700;  183.125;    0.000
972.352; 1545.700;  216.125;    0.000
972.519; 1624.700;  227.125;    0.000
972.686; 1598.700;  209.125;    0.000
972.853; 1588.700;  157.125;    0.000
973.020; 1585.700;  179.125;    0.000
973.186; 1569.700;  173.125;    0.000
973.353; 1542.700;  189.125;    0.000
973.520; 1645.700;  228.125;    0.000
973.687; 1588.700;  190.125;    0.000
973.853; 1549.700;  197.125;    0.000
974.020; 1601.700;  208.125;    0.000
974.187; 1563.700;  158.125;    0.000
974.353; 1593.700;  201.125;    0.000
974.520; 1598.700;  158.125;    0.000
974.687; 1605.700;  192.125;    0.000
974.853; 1643.700;  177.125;    0.000
975.020; 1550.700;  212.125;    0.000
975.186; 1609.700;  200.125;    0.000
975.353; 1565.700;  208.125;    0.000
975.519; 1479.700;  169.125;    0.000
975.685; 1546.700;  176.125;    0.000
975.852; 1537.700;  201.125;    0.000
976.018; 1581.700;  209.125;    0.000
976.184; 1551.700;  197.125;    0.000
976.351; 1584.700;  196.125;    0.000
976.517; 1553.700;  243.125;    0.000
976.683; 1573.700;  210.125;    0.000
976.849; 1555.700;  226.125;    0.000
977.016; 1550.700;  218.125;    0.000
977.182; 1484.700;  213.125;    0.000
977.348; 1549.700;  205.125;    0.000
977.514; 1499.700;  210.125;    0.000
977.680; 1520.700;  226.125;    0.000
977.846; 1523.700;  206.125;    0.000
978.012; 1456.700;  222.125;    0.000
978.178; 1515.700;  216.125;    0.000
978.344; 1530.700;  172.125;    0.000
978.510; 1534.700;  210.125;    0.000
978.676; 1512.700;  184.125;    0.000
978.842; 1504.700;  190.125;    0.000
979.008; 1554.700;  203.125;    0.000
979.174; 1553.700;  211.125;    0.000
979.340; 1575.700;  190.125;    0.000
979.505; 1540.700;  235.125;    0.000
979.671; 1514.700;  182.125;    0.000
979.837; 1529.700;  235.125;    0.000
980.003; 1509.700;  183.125;    0.000
980.168; 1500.700;  220.125;    0.000
980.334; 1590.700;  161.125;    0.000
980.499; 1587.700;  212.125;    0.000
980.665; 1543.700;  219.125;    0.000
980.831; 1561.700;  201.125;    0.000
980.996; 1550.700;  189.125;    0.000
981.162; 1585.700;  222.125;    0.000
981.327; 1572.700;  173.125;    0.000
981.493; 1510.700;  197.125;    0.000
981.658; 1479.700;  178.125;    0.000
981.823; 1467.700;  196.125;    0.000
981.989; 1493.700;  248.125;    0.000
982.154; 1566.700;  222.125;    0.000
982.319; 1535.700;  226.125;    0.000
982.485; 1562.700;  188.125;    0.000
982.650; 1556.700;  203.125;    0.000
982.815; 1589.700;  237.125;    0.000
982.980; 1543.700;  210.125;    0.000
983.146; 1542.700;  202.125;    0.000
983.311; 1563.700;  195.125;    0.000
983.476; 1522.700;  207.125;    0.000
983.641; 1505.700;  198.125;    0.000
983.806; 1626.700;  136.125;    0.000
983.971; 1579.700;  248.125;    0.000
984.136; 1594.700;  213.125;    0.000
984.301; 1531.700;  181.125;    0.000
984.466; 1515.700;  210.125;    0.000
984.631; 1609.700;  219.125;    0.000
984.796; 1546.700;  207.125;    0.000
984.961; 1557.700;  214.125;    0.000
985.126; 1576.700;  218.125;    0.000
985.291; 1534.700;  214.125;    0.000
985.455; 1559.700;  187.125;    0.000
985.620; 1515.700;  191.125;    0.000
985.785; 1509.700;  190.125;    0.000
985.950; 1508.700;  184.125;    0.000
986.114; 1631.700;  242.125;    0.000
986.279; 1498.700;  251.125;    0.000
986.444; 1598.700;  177.125;    0.000
986.608; 1601.700;  216.125;    0.000
986.773; 1650.700;  211.125;    0.000
986.937; 1554.700;  244.125;    0.000
987.102; 1605.700;  187.125;    0.000
987.266; 1567.700;  178.125;    0.000
987.431; 1629.700;  205.125;    0.000
987.595; 1609.700;  221.125;    0.000
987.760; 1599.700;  205.125;    0.000
987.924; 1597.700;  195.125;    0.000
988.088; 1564.700;  184.125;    0.000
988.253; 1579.700;  188.125;    0.000
988.417; 1597.700;  196.125;    0.000
988.581; 1570.700;  218.125;    0.000
988.746; 1565.700;  203.125;    0.000
988.910; 1540.700;  195.125;    0.000
989.074; 1518.700;  187.125;    0.000
989.238; 1571.700;  243.125;    0.000
989.402; 1539.700;  242.125;    0.000
989.566; 1531.700;  205.125;    0.000
989.731; 1532.700;  195.125;    0.000
989.895; 1631.700;  211.125;    0.000
990.059; 1566.700;  175.125;    0.000
990.223; 1522.700;  176.125;    0.000
990.387; 1588.700;  234.125;    0.000
990.551; 1564.700;  231.125;    0.000
990.714; 1596.700;  209.125;    0.000
990.878; 1493.700;  187.125;    0.000
991.042; 1563.700;  183.125;    0.000
991.206; 1496.700;  216.125;    0.000
991.370; 1596.700;  257.125;    0.000
991.534; 1500.700;  188.125;    0.000
991.697; 1561.700;  203.125;    0.000
991.861; 1488.700;  219.125;    0.000
992.025; 1536.700;  221.125;    0.000
992.188; 1582.700;  188.125;    0.000
992.352; 1538.700;  205.125;    0.000
992.516; 1561.700;  189.125;    0.000
992.679; 1548.700;  207.125;    0.000
992.843; 1562.700;  210.125;    0.000
993.006; 1443.700;  191.125;    0.000
993.170; 1525.700;  228.125;    0.000
993.333; 1487.700;  142.125;    0.000
993.497; 1548.700;  175.125;    0.000
993.660; 1585.700;  220.125;    0.000
993.824; 1522.700;  193.125;    0.000
993.987; 1591.700;  219.125;    0.000
994.150; 1466.700;  166.125;    0.000
994.314; 1550.700;  207.125;    0.000
994.477; 1509.700;  227.125;    0.000
994.640; 1495.700;  210.125;    0.000
994.803; 1548.700;  219.125;    0.000
994.967; 1557.700;  192.125;    0.000
995.130; 1503.700;  197.125;    0.000
995.293; 1429.700;  189.125;    0.000
995.456; 1556.700;  180.125;    0.000
995.619; 1520.700;  239.125;    0.000
995.782; 1547.700;  209.125;    0.000
995.945; 1590.700;  216.125;    0.000
996.108; 1521.700;  198.125;    0.000
996.271; 1566.700;  205.125;    0.000
996.434; 1488.700;  205.125;    0.000
996.597; 1446.700;  208.125;    0.000
996.760; 1441.700;  205.125;    0.000
996.923; 1453.700;  174.125;    0.000
997.086; 1515.700;  198.125;    0.000
997.248; 1524.700;  214.125;    0.000
997.411; 1457.700;  237.125;    0.000
997.574; 1467.700;  182.125;    0.000
997.737; 1547.700;  188.125;    0.000
997.899; 1540.700;  216.125;    0.000
998.062; 1506.700;  210.125;    0.000
998.225; 1445.700;  202.125;    0.000
998.387; 1466.700;  202.125;    0.000
998.550; 1492.700;  193.125;    0.000
998.712; 1472.700;  225.125;    0.000
998.875; 1549.700;  228.125;    0.000
999.037; 1493.700;  186.125;    0.000
999.200; 1459.700;  212.125;    0.000
999.362; 1534.700;  234.125;    0.000
999.525; 1562.700;  170.125;    0.000
999.687; 1501.700;  191.125;    0.000
999.849; 1493.700;  218.125;    0.000
1000.012; 1498.700;  187.125;    0.000
1000.174; 1515.700;  216.125;    0.000
1000.336; 1551.700;  194.125;    0.000
1000.499; 1529.700;  209.125;    0.000
1000.661; 1501.700;  208.125;    0.000
1000.823; 1421.700;  197.125;    0.000
1000.985; 1496.700;  201.125;    0.000
1001.147; 1572.700;  234.125;    0.000
1001.309; 1495.700;  180.125;    0.000
1001.471; 1605.700;  223.125;    0.000
1001.633; 1593.700;  198.125;    0.000
1001.796; 1586.700;  200.125;    0.000
1001.958; 1610.700;  204.125;    0.000
1002.119; 1614.700;  193.125;    0.000
1002.281; 1689.700;  205.125;    0.000
1002.443; 1763.700;  236.125;    0.000
1002.605; 1801.700;  197.125;    0.000
1002.767; 1911.700;  223.125;    0.000
1002.929; 1879.700;  220.125;    0.000
1003.091; 2035.700;  214.125;    0.000
1003.252; 2150.700;  233.125;    0.000
1003.414; 2167.700;  230.125;    0.000
1003.576; 2248.700;  203.125;    0.000
1003.738; 2338.700;  201.125;    0.000
1003.899; 2510.700;  222.125;    0.000
1004.061; 2563.700;  208.125;    0.000
1004.222; 2634.700;  194.125;    0.000
1004.384; 2794.700;  205.125;    0.000
1004.546; 2765.700;  162.125;    0.000
1004.707; 2917.700;  232.125;    0.000
1004.869; 2914.700;  223.125;    0.000
1005.030; 2745.700;  204.125;    0.000
1005.191; 2789.700;  214.125;    0.000
1005.353; 2617.700;  226.125;    0.000
1005.514; 2643.700;  201.125;    0.000
1005.675; 2471.700;  205.125;    0.000
1005.837; 2415.700;  235.125;    0.000
1005.998; 2373.700;  210.125;    0.000
1006.159; 2335.700;  214.125;    0.000
1006.321; 2350.700;  236.125;    0.000
1006.482; 2472.700;  214.125;    0.000
1006.643; 2618.700;  213.125;    0.000
1006.804; 2685.700;  204.125;    0.000
1006.965; 2792.700;  212.125;    0.000
1007.126; 2699.700;  251.125;    0.000
1007.287; 2776.700;  238.125;    0.000
1007.448; 2729.700;  198.125;    0.000
1007.609; 2695.700;  241.125;    0.000
1007.770; 2600.700;  213.125;    0.000
1007.931; 2556.700;  225.125;    0.000
1008.092; 2590.700;  204.125;    0.000
1008.253; 2667.700;  220.125;    0.000
1008.414; 2692.700;  180.125;    0.000
1008.575; 2820.700;  224.125;    0.000
1008.736; 2840.700;  164.125;    0.000
1008.896; 2695.700;  247.125;    0.000
1009.057; 2818.700;  263.125;    0.000
1009.218; 2718.700;  233.125;    0.000
1009.379; 2798.700;  207.125;    0.000
1009.539; 2818.700;  221.125;    0.000
1009.700; 2828.700;  209.125;    0.000
1009.860; 2801.700;  217.125;    0.000
1010.021; 2821.700;  182.125;    0.000
1010.182; 2749.700;  233.125;    0.000
1010.342; 2803.700;  210.125;    0.000
1010.503; 2776.700;  232.125;    0.000
1010.663; 3013.700;  228.125;    0.000
1010.823; 3021.700;  212.125;    0.000
1010.984; 3077.700;  244.125;    0.000
1011.144; 3060.700;  200.125;    0.000
1011.305; 3068.700;  237.125;    0.000
1011.465; 3273.700;  225.125;    0.000
1011.625; 3273.700;  215.125;    0.000
1011.785; 3339.700;  235.125;    0.000
1011.946; 3320.700;  231.125;    0.000
1012.106; 3234.700;  206.125;    0.000
1012.266; 3203.700;  218.125;    0.000
1012.426; 3275.700;  249.125;    0.000
1012.586; 3298.700;  217.125;    0.000
1012.746; 3222.700;  231.125;    0.000
1012.906; 3373.700;  230.125;    0.000
1013.066; 3192.700;  260.125;    0.000
1013.226; 3322.700;  206.125;    0.000
1013.386; 3215.700;  220.125;    0.000
1013.546; 3159.700;  233.125;    0.000
1013.706; 3081.700;  194.125;    0.000
1013.866; 3222.700;  209.125;    0.000
1014.026; 3273.700;  204.125;    0.000
1014.186; 3116.700;  203.125;    0.000
1014.346; 3226.700;  244.125;    0.000
1014.505; 3297.700;  206.125;    0.000
1014.665; 3353.700;  210.125;    0.000
1014.825; 3345.700;  235.125;    0.000
1014.985; 3316.700;  227.125;    0.000
1015.144; 3385.700;  237.125;    0.000
1015.304; 3639.700;  196.125;    0.000
1015.464; 3549.700;  228.125;    0.000
1015.623; 3559.700;  235.125;    0.000
1015.783; 3848.700;  187.125;    0.000
1015.942; 4071.700;  184.125;    0.000
1016.102; 3984.700;  245.125;    0.000
1016.261; 3909.700;  203.125;    0.000
1016.420; 4294.700;  209.125;    0.000
1016.580; 4706.700;  235.125;    0.000
1016.739; 4584.700;  175.125;    0.000
1016.899; 4490.700;  220.125;    0.000
1017.058; 4671.700;  219.125;    0.000
1017.217; 4887.700;  238.125;    0.000
1017.376; 4657.700;  235.125;    0.000
1017.536; 4250.700;  195.125;    0.000
1017.695; 4185.700;  215.125;    0.000
1017.854; 4244.700;  231.125;    0.000
1018.013; 4288.700;  184.125;    0.000
1018.172; 4105.700;  179.125;    0.000
1018.331; 4039.700;  205.125;    0.000
1018.490; 4373.700;  203.125;    0.000
1018.649; 4408.700;  261.125;    0.000
1018.808; 4646.700;  253.125;    0.000
1018.967; 4701.700;  201.125;    0.000
1019.126; 4654.700;  216.125;    0.000
1019.285; 4839.700;  169.125;    0.000
1019.444; 4742.700;  226.125;    0.000
1019.603; 4563.700;  252.125;    0.000
1019.762; 4357.700;  206.125;    0.000
1019.921; 4381.700;  235.125;    0.000
1020.079; 4634.700;  192.125;    0.000
1020.238; 4981.700;  226.125;    0.000
1020.397; 4916.700;  231.125;    0.000
1020.555; 4373.700;  218.125;    0.000
1020.714; 4591.700;  235.125;    0.000
1020.873; 4967.700;  229.125;    0.000
1021.031; 5101.700;  234.125;    0.000
1021.190; 4758.700;  223.125;    0.000
1021.348; 4525.700;  186.125;    0.000
1021.507; 4990.700;  201.125;    0.000
1021.665; 5360.700;  222.125;    0.000
1021.824; 5079.700;  208.125;    0.000
1021.982; 4629.700;  209.125;    0.000
1022.141; 4657.700;  224.125;    0.000
1022.299; 5385.700;  214.125;    0.000
1022.457; 5492.700;  176.125;    0.000
1022.616; 5034.700;  211.125;    0.000
1022.774; 4597.700;  218.125;    0.000
1022.932; 4767.700;  205.125;    0.000
1023.090; 5497.700;  246.125;    0.000
1023.249; 5678.700;  249.125;    0.000
1023.407; 5063.700;  235.125;    0.000
1023.565; 4621.700;  202.125;    0.000
1023.723; 4944.700;  210.125;    0.000
1023.881; 5553.700;  206.125;    0.000
1024.039; 5539.700;  240.125;    0.000
1024.197; 5106.700;  275.125;    0.000
1024.355; 4943.700;  228.125;    0.000
1024.513; 5092.700;  234.125;    0.000
1024.671; 5893.700;  222.125;    0.000
1024.829; 5950.700;  241.125;    0.000
1024.987; 5323.700;  209.125;    0.000
1025.145; 4878.700;  227.125;    0.000
1025.302; 5038.700;  208.125;    0.000
1025.460; 5587.700;  210.125;    0.000
1025.618; 5981.700;  192.125;    0.000
1025.776; 5558.700;  220.125;    0.000
1025.933; 5025.700;  223.125;    0.000
1026.091; 5103.700;  189.125;    0.000
1026.249; 5760.700;  210.125;    0.000
1026.406; 6215.700;  231.125;    0.000
1026.564; 5935.700;  247.125;    0.000
1026.721; 5307.700;  213.125;    0.000
1026.879; 4936.700;  208.125;    0.000
1027.036; 5740.700;  222.125;    0.000
1027.194; 6090.700;  253.125;    0.000
1027.351; 6190.700;  239.125;    0.000
1027.509; 5502.700;  232.125;    0.000
1027.666; 5254.700;  251.125;    0.000
1027.823; 5630.700;  212.125;    0.000
1027.981; 6111.700;  260.125;    0.000
1028.138; 6339.700;  263.125;    0.000
1028.295; 5821.700;  251.125;    0.000
1028.452; 5519.700;  249.125;    0.000
1028.609; 5451.700;  259.125;    0.000
1028.767; 5976.700;  255.125;    0.000
1028.924; 6188.700;  201.125;    0.000
1029.081; 6051.700;  217.125;    0.000
1029.238; 5968.700;  230.125;    0.000
1029.395; 5446.700;  263.125;    0.000
1029.552; 5902.700;  207.125;    0.000
1029.709; 6326.700;  220.125;    0.000
1029.866; 6582.700;  214.125;    0.000
1030.023; 6264.700;  224.125;    0.000
1030.180; 5663.700;  209.125;    0.000
1030.337; 5671.700;  269.125;    0.000
1030.494; 5867.700;  207.125;    0.000
1030.650; 6205.700;  230.125;    0.000
1030.807; 6746.700;  217.125;    0.000
1030.964; 6046.700;  212.125;    0.000
1031.121; 5908.700;  220.125;    0.000
1031.277; 5848.700;  233.125;    0.000
1031.434; 6081.700;  266.125;    0.000
1031.591; 6601.700;  270.125;    0.000
1031.747; 6887.700;  229.125;    0.000
1031.904; 6516.700;  227.125;    0.000
1032.060; 6192.700;  210.125;    0.000
1032.217; 5893.700;  218.125;    0.000
1032.373; 6675.700;  190.125;    0.000
1032.530; 7028.700;  236.125;    0.000
1032.686; 7516.700;  199.125;    0.000
1032.843; 7486.700;  216.125;    0.000
1032.999; 7069.700;  204.125;    0.000
1033.155; 7254.700;  208.125;    0.000
1033.312; 7052.700;  231.125;    0.000
1033.468; 8386.700;  213.125;    0.000
1033.624; 9065.700;  235.125;    0.000
1033.780; 9561.700;  233.125;    0.000
1033.937; 9147.700;  201.125;    0.000
1034.093; 8738.700;  233.125;    0.000
1034.249; 8489.700;  214.125;    0.000
1034.405; 8825.700;  245.125;    0.000
1034.561; 9277.700;  228.125;    0.000
1034.717; 9962.700;  234.125;    0.000
1034.873; 9663.700;  248.125;    0.000
1035.029; 9977.700;  220.125;    0.000
1035.185; 9291.700;  294.125;    0.000
1035.341; 8805.700;  231.125;    0.000
1035.497; 9801.700;  254.125;    0.000
1035.653; 9930.700;  225.125;    0.000
1035.809;10931.700;  243.125;    0.000
1035.964;11792.700;  216.125;    0.000
1036.120;11069.700;  199.125;    0.000
1036.276;11013.700;  220.125;    0.000
1036.432;10813.700;  210.125;    0.000
1036.587; 9918.700;  225.125;    0.000
1036.743;11110.700;  245.125;    0.000
1036.899;11847.700;  219.125;    0.000
1037.054;11839.700;  157.125;    0.000
1037.210;13361.700;  208.125;    0.000
1037.365;13461.700;  230.125;    0.000
1037.521;12575.700;  236.125;    0.000
1037.676;12256.700;  193.125;    0.000
1037.832;11126.700;  246.125;    0.000
1037.987;10859.700;  231.125;    0.000
1038.143;11627.700;  234.125;    0.000
1038.298;13086.700;  219.125;    0.000
1038.453;13036.700;  230.125;    0.000
1038.609;14069.700;  254.125;    0.000
1038.764;14710.700;  249.125;    0.000
1038.919;13160.700;  224.125;    0.000
1039.074;13349.700;  209.125;    0.000
1039.229;12282.700;  214.125;    0.000
1039.385;12073.700;  268.125;    0.000
1039.540;12743.700;  268.125;    0.000
1039.695;13766.700;  229.125;    0.000
1039.850;14765.700;  252.125;    0.000
1040.005;16047.700;  248.125;    0.000
1040.160;16691.699;  215.125;    0.000
1040.315;16558.699;  239.125;    0.000
1040.470;15257.700;  210.125;    0.000
1040.625;14759.700;  239.125;    0.000
1040.780;14586.700;  251.125;    0.000
1040.935;14376.700;  247.125;    0.000
1041.089;14813.700;  215.125;    0.000
1041.244;17387.699;  210.125;    0.000
1041.399;18664.699;  237.125;    0.000
1041.554;19819.699;  253.125;    0.000
1041.708;20996.699;  227.125;    0.000
1041.863;20331.699;  219.125;    0.000
1042.018;18786.699;  246.125;    0.000
1042.172;19504.699;  236.125;    0.000
1042.327;18284.699;  272.125;    0.000
1042.481;18616.699;  197.125;    0.000
1042.636;18992.699;  213.125;    0.000
1042.791;19017.699;  250.125;    0.000
1042.945;21962.699;  267.125;    0.000
1043.099;23916.699;  257.125;    0.000
1043.254;23624.699;  206.125;    0.000
1043.408;24864.699;  266.125;    0.000
1043.563;25509.699;  232.125;    0.000
1043.717;24175.699;  241.125;    0.000
1043.871;23322.699;  248.125;    0.000
1044.025;22428.699;  234.125;    0.000
1044.180;21960.699;  222.125;    0.000
1044.334;21441.699;  235.125;    0.000
1044.488;22478.699;  270.125;    0.000
1044.642;23813.699;  215.125;    0.000
1044.796;26800.699;  212.125;    0.000
1044.950;30142.699;  228.125;    0.000
1045.104;32131.699;  223.125;    0.000
1045.258;31483.699;  236.125;    0.000
1045.412;31541.699;  225.125;    0.000
1045.566;30216.699;  245.125;    0.000
1045.720;29695.699;  201.125;    0.000
1045.874;27486.699;  229.125;    0.000
1046.028;24944.699;  243.125;    0.000
1046.182;25305.699;  212.125;    0.000
1046.336;26266.699;  256.125;    0.000
1046.489;28340.699;  234.125;    0.000
1046.643;28633.699;  246.125;    0.000
1046.797;31930.699;  219.125;    0.000
1046.951;31529.699;  231.125;    0.000
1047.104;33795.699;  285.125;    0.000
1047.258;35694.699;  256.125;    0.000
1047.411;36897.699;  232.125;    0.000
1047.565;36159.699;  269.125;    0.000
1047.719;34743.699;  213.125;    0.000
1047.872;33682.699;  210.125;    0.000
1048.026;32661.699;  251.125;    0.000
1048.179;31793.699;  213.125;    0.000
1048.332;31984.699;  212.125;    0.000
1048.486;31522.699;  218.125;    0.000
1048.639;32831.699;  218.125;    0.000
1048.792;32511.699;  247.125;    0.000
1048.946;35083.699;  208.125;    0.000
1049.099;39952.699;  247.125;    0.000
1049.252;39943.699;  274.125;    0.000
1049.406;37068.699;  232.125;    0.000
1049.559;38598.699;  251.125;    0.000
1049.712;42604.699;  243.125;    0.000
1049.865;47088.699;  219.125;    0.000
1050.018;45056.699;  216.125;    0.000
1050.171;38996.699;  237.125;    0.000
1050.324;38989.699;  291.125;    0.000
1050.477;39914.699;  241.125;    0.000
1050.630;43032.699;  245.125;    0.000
1050.783;43176.699;  213.125;    0.000
1050.936;40492.699;  246.125;    0.000
1051.089;39077.699;  255.125;    0.000
1051.242;40895.699;  228.125;    0.000
1051.394;47110.699;  276.125;    0.000
1051.547;48486.699;  246.125;    0.000
1051.700;45362.699;  252.125;    0.000
1051.853;42751.699;  267.125;    0.000
1052.005;46994.699;  261.125;    0.000
1052.158;53151.699;  313.125;    0.000
1052.311;57405.699;  264.125;    0.000
1052.463;55575.699;  271.125;    0.000
1052.616;48104.699;  291.125;    0.000
1052.768;43051.699;  298.125;    0.000
1052.921;41502.699;  262.125;    0.000
1053.073;44619.699;  307.125;    0.000
1053.226;51044.699;  301.125;    0.000
1053.378;57754.699;  309.125;    0.000
1053.531;60808.699;  280.125;    0.000
1053.683;55785.699;  258.125;    0.000
1053.835;47766.699;  267.125;    0.000
1053.988;36844.699;  294.125;    0.000
1054.140; 6617.700;  292.125;    0.000
1054.292; 1666.700;  249.125;    0.000
1054.444; 1281.700;  288.125;    0.000
1054.596; 1111.700;  275.125;    0.000
1054.749; 1098.700;  284.125;    0.000
1054.901; 1011.700;  291.125;    0.000
1055.053;  949.700;  274.125;    0.000
1055.205;  909.700;  313.125;    0.000
1055.357;  876.700;  309.125;    0.000
1055.509;  853.700;  283.125;    0.000
1055.661;  854.700;  341.125;    0.000
1055.813;  801.700;  288.125;    0.000
1055.965;  799.700;  300.125;    0.000
1056.116;  718.700;  296.125;    0.000
1056.268;  793.700;  319.125;    0.000
1056.420;  719.700;  298.125;    0.000

