
Integration time [ms]:   1.000
Averaging Nr. [scans]: 1
Smoothing Nr. [pixels]: 0
Data measured with spectrometer [name]: VIS
Wave   ;Sample   ;Dark     ;Reference
[nm]   ;[counts] ;[counts] ;[counts] 

450.961;  194.425;  200.375;    0.000
451.100;  246.425;  241.375;    0.000
451.239;  214.425;  201.375;    0.000
451.377;  213.425;  262.375;    0.000
451.516;  203.425;  229.375;    0.000
451.655;  240.425;  211.375;    0.000
451.794;  212.425;  225.375;    0.000
451.932;  200.425;  247.375;    0.000
452.071;  259.425;  260.375;    0.000
452.210;  216.425;  235.375;    0.000
452.348;  215.425;  276.375;    0.000
452.487;  217.425;  259.375;    0.000
452.626;  203.425;  254.375;    0.000
452.764;  236.425;  233.375;    0.000
452.903;  185.425;  202.375;    0.000
453.042;  300.425;  211.375;    0.000
453.180; 2651.425;  240.375;    0.000
453.319; 2734.425;  238.375;    0.000
453.458; 2725.425;  215.375;    0.000
453.596; 2793.425;  252.375;    0.000
453.735; 2727.425;  240.375;    0.000
453.873; 2750.425;  257.375;    0.000
454.012; 2816.425;  228.375;    0.000
454.150; 2899.425;  270.375;    0.000
454.289; 2891.425;  233.375;    0.000
454.427; 2974.425;  243.375;    0.000
454.566; 3000.425;  257.375;    0.000
454.704; 2931.425;  243.375;    0.000
454.843; 3000.425;  190.375;    0.000
454.981; 2994.425;  271.375;    0.000
455.120; 3070.425;  210.375;    0.000
455.258; 3117.425;  235.375;    0.000
455.397; 2994.425;  214.375;    0.000
455.535; 3103.425;  214.375;    0.000
455.674; 3050.425;  184.375;    0.000
455.812; 3142.425;  228.375;    0.000
455.951; 3249.425;  204.375;    0.000
456.089; 3246.425;  220.375;    0.000
456.227; 3270.425;  196.375;    0.000
456.366; 3286.425;  261.375;    0.000
456.504; 3308.425;  249.375;    0.000
456.642; 3355.425;  245.375;    0.000
456.781; 3352.425;  183.375;    0.000
456.919; 3450.425;  203.375;    0.000
457.057; 3412.425;  177.375;    0.000
457.196; 3477.425;  191.375;    0.000
457.334; 3564.425;  233.375;    0.000
457.472; 3591.425;  214.375;    0.000
457.610; 3614.425;  230.375;    0.000
457.749; 3609.425;  247.375;    0.000
457.887; 3711.425;  220.375;    0.000
458.025; 3707.425;  195.375;    0.000
458.163; 3784.425;  224.375;    0.000
458.301; 3804.425;  228.375;    0.000
458.440; 3909.425;  200.375;    0.000
458.578; 3904.425;  233.375;    0.000
458.716; 3938.425;  182.375;    0.000
458.854; 4085.425;  251.375;    0.000
458.992; 4071.425;  187.375;    0.000
459.130; 4225.425;  229.375;    0.000
459.269; 4177.425;  237.375;    0.000
459.407; 4166.425;  228.375;    0.000
459.545; 4203.425;  216.375;    0.000
459.683; 4316.425;  204.375;    0.000
459.821; 4287.425;  191.375;    0.000
459.959; 4415.425;  227.375;    0.000
460.097; 4386.425;  221.375;    0.000
460.235; 4372.425;  241.375;    0.000
460.373; 4439.425;  231.375;    0.000
460.511; 4510.425;  214.375;    0.000
460.649; 4394.425;  172.375;    0.000
460.787; 4536.425;  275.375;    0.000
460.925; 4365.425;  175.375;    0.000
461.063; 4604.425;  252.375;    0.000
461.201; 4584.425;  210.375;    0.000
461.339; 4582.425;  237.375;    0.000
461.477; 4615.425;  210.375;    0.000
461.615; 4637.425;  236.375;    0.000
461.753; 4747.425;  215.375;    0.000
461.891; 4761.425;  222.375;    0.000
462.029; 4862.425;  227.375;    0.000
462.166; 4910.425;  202.375;    0.000
462.304; 4949.425;  191.375;    0.000
462.442; 5028.425;  210.375;    0.000
462.580; 5015.425;  184.375;    0.000
462.718; 4980.425;  220.375;    0.000
462.856; 4936.425;  226.375;    0.000
462.993; 5061.425;  254.375;    0.000
463.131; 5059.425;  200.375;    0.000
463.269; 4986.425;  215.375;    0.000
463.407; 4909.425;  213.375;    0.000
463.545; 4853.425;  242.375;    0.000
463.682; 4871.425;  212.375;    0.000
463.820; 5102.425;  185.375;    0.000
463.958; 5266.425;  212.375;    0.000
464.095; 5331.425;  181.375;    0.000
464.233; 5429.425;  192.375;    0.000
464.371; 5370.425;  247.375;    0.000
464.509; 5262.425;  151.375;    0.000
464.646; 5308.425;  207.375;    0.000
464.784; 5288.425;  199.375;    0.000
464.921; 5247.425;  253.375;    0.000
465.059; 5218.425;  214.375;    0.000
465.197; 5204.425;  200.375;    0.000
465.334; 5009.425;  180.375;    0.000
465.472; 4975.425;  204.375;    0.000
465.609; 4956.425;  203.375;    0.000
465.747; 4924.425;  214.375;    0.000
465.885; 4861.425;  233.375;    0.000
466.022; 4791.425;  215.375;    0.000
466.160; 4890.425;  201.375;    0.000
466.297; 4831.425;  196.375;    0.000
466.435; 4841.425;  230.375;    0.000
466.572; 4831.425;  227.375;    0.000
466.710; 4816.425;  218.375;    0.000
466.847; 4766.425;  245.375;    0.000
466.985; 4734.425;  223.375;    0.000
467.122; 4709.425;  168.375;    0.000
467.260; 4818.425;  196.375;    0.000
467.397; 4729.425;  198.375;    0.000
467.534; 4824.425;  219.375;    0.000
467.672; 4648.425;  214.375;    0.000
467.809; 4767.425;  185.375;    0.000
467.947; 4684.425;  247.375;    0.000
468.084; 4795.425;  196.375;    0.000
468.221; 4809.425;  238.375;    0.000
468.359; 4827.425;  236.375;    0.000
468.496; 4796.425;  235.375;    0.000
468.633; 4769.425;  218.375;    0.000
468.771; 4724.425;  223.375;    0.000
468.908; 4859.425;  208.375;    0.000
469.045; 4926.425;  249.375;    0.000
469.183; 4883.425;  222.375;    0.000
469.320; 4923.425;  216.375;    0.000
469.457; 4895.425;  224.375;    0.000
469.594; 5000.425;  259.375;    0.000
469.732; 4926.425;  223.375;    0.000
469.869; 5130.425;  234.375;    0.000
470.006; 5052.425;  225.375;    0.000
470.143; 5148.425;  243.375;    0.000
470.280; 5149.425;  208.375;    0.000
470.417; 5270.425;  232.375;    0.000
470.555; 5116.425;  218.375;    0.000
470.692; 5135.425;  223.375;    0.000
470.829; 5075.425;  238.375;    0.000
470.966; 5129.425;  205.375;    0.000
471.103; 5018.425;  259.375;    0.000
471.240; 5055.425;  214.375;    0.000
471.377; 5098.425;  226.375;    0.000
471.514; 5090.425;  250.375;    0.000
471.651; 5105.425;  221.375;    0.000
471.789; 4970.425;  242.375;    0.000
471.926; 5082.425;  190.375;    0.000
472.063; 4906.425;  234.375;    0.000
472.200; 5170.425;  252.375;    0.000
472.337; 4921.425;  241.375;    0.000
472.474; 4996.425;  244.375;    0.000
472.611; 5006.425;  268.375;    0.000
472.748; 4992.425;  222.375;    0.000
472.884; 4924.425;  271.375;    0.000
473.021; 4885.425;  195.375;    0.000
473.158; 4859.425;  205.375;    0.000
473.295; 4906.425;  223.375;    0.000
473.432; 4979.425;  216.375;    0.000
473.569; 4897.425;  196.375;    0.000
473.706; 4883.425;  190.375;    0.000
473.843; 5056.425;  211.375;    0.000
473.980; 5016.425;  254.375;    0.000
474.117; 4960.425;  185.375;    0.000
474.253; 5113.425;  229.375;    0.000
474.390; 4834.425;  238.375;    0.000
474.527; 4901.425;  220.375;    0.000
474.664; 5011.425;  242.375;    0.000
474.801; 5025.425;  229.375;    0.000
474.937; 5073.425;  229.375;    0.000
475.074; 4938.425;  210.375;    0.000
475.211; 5093.425;  219.375;    0.000
475.348; 5082.425;  226.375;    0.000
475.484; 5083.425;  207.375;    0.000
475.621; 5041.425;  233.375;    0.000
475.758; 5052.425;  230.375;    0.000
475.894; 5093.425;  234.375;    0.000
476.031; 5010.425;  202.375;    0.000
476.168; 5102.425;  222.375;    0.000
476.304; 5103.425;  237.375;    0.000
476.441; 5219.425;  238.375;    0.000
476.578; 5151.425;  216.375;    0.000
476.714; 5112.425;  212.375;    0.000
476.851; 5198.425;  210.375;    0.000
476.987; 5280.425;  239.375;    0.000
477.124; 5110.425;  250.375;    0.000
477.261; 5208.425;  227.375;    0.000
477.397; 5327.425;  189.375;    0.000
477.534; 5348.425;  204.375;    0.000
477.670; 5211.425;  190.375;    0.000
477.807; 5318.425;  198.375;    0.000
477.943; 5309.425;  216.375;    0.000
478.080; 5428.425;  213.375;    0.000
478.216; 5385.425;  239.375;    0.000
478.353; 5366.425;  218.375;    0.000
478.489; 5368.425;  184.375;    0.000
478.626; 5437.425;  223.375;    0.000
478.762; 5395.425;  213.375;    0.000
478.898; 5519.425;  216.375;    0.000
479.035; 5498.425;  250.375;    0.000
479.171; 5503.425;  201.375;    0.000
479.308; 5543.425;  242.375;    0.000
479.444; 5540.425;  205.375;    0.000
479.580; 5516.425;  203.375;    0.000
479.717; 5674.425;  260.375;    0.000
479.853; 5540.425;  225.375;    0.000
479.989; 5794.425;  226.375;    0.000
480.126; 5507.425;  211.375;    0.000
480.262; 5735.425;  220.375;    0.000
480.398; 5806.425;  207.375;    0.000
480.535; 5651.425;  179.375;    0.000
480.671; 5678.425;  200.375;    0.000
480.807; 5608.425;  190.375;    0.000
480.943; 5576.425;  165.375;    0.000
481.080; 5598.425;  210.375;    0.000
481.216; 5638.425;  232.375;    0.000
481.352; 5546.425;  235.375;    0.000
481.488; 5673.425;  208.375;    0.000
481.624; 5649.425;  245.375;    0.000
481.760; 5520.425;  210.375;    0.000
481.897; 5398.425;  189.375;    0.000
482.033; 5474.425;  256.375;    0.000
482.169; 5549.425;  257.375;    0.000
482.305; 5641.425;  199.375;    0.000
482.441; 5471.425;  182.375;    0.000
482.577; 5506.425;  223.375;    0.000
482.713; 5564.425;  243.375;    0.000
482.849; 5589.425;  197.375;    0.000
482.985; 5539.425;  240.375;    0.000
483.121; 5584.425;  210.375;    0.000
483.258; 5562.425;  248.375;    0.000
483.394; 5609.425;  224.375;    0.000
483.530; 5661.425;  209.375;    0.000
483.665; 5496.425;  225.375;    0.000
483.801; 5659.425;  216.375;    0.000
483.937; 5534.425;  211.375;    0.000
484.073; 5641.425;  259.375;    0.000
484.209; 5655.425;  191.375;    0.000
484.345; 5583.425;  239.375;    0.000
484.481; 5630.425;  231.375;    0.000
484.617; 5642.425;  216.375;    0.000
484.753; 5663.425;  180.375;    0.000
484.889; 5706.425;  252.375;    0.000
485.025; 5590.425;  244.375;    0.000
485.161; 5644.425;  242.375;    0.000
485.296; 5666.425;  235.375;    0.000
485.432; 5696.425;  247.375;    0.000
485.568; 5622.425;  203.375;    0.000
485.704; 5744.425;  229.375;    0.000
485.840; 5663.425;  230.375;    0.000
485.975; 5668.425;  266.375;    0.000
486.111; 5737.425;  220.375;    0.000
486.247; 5706.425;  264.375;    0.000
486.383; 5667.425;  213.375;    0.000
486.518; 5616.425;  222.375;    0.000
486.654; 5647.425;  244.375;    0.000
486.790; 5671.425;  273.375;    0.000
486.926; 5602.425;  203.375;    0.000
487.061; 5676.425;  227.375;    0.000
487.197; 5769.425;  210.375;    0.000
487.333; 5784.425;  209.375;    0.000
487.468; 5510.425;  197.375;    0.000
487.604; 5708.425;  230.375;    0.000
487.740; 5689.425;  254.375;    0.000
487.875; 5725.425;  286.375;    0.000
488.011; 5665.425;  225.375;    0.000
488.146; 5718.425;  251.375;    0.000
488.282; 5749.425;  242.375;    0.000
488.417; 5755.425;  230.375;    0.000
488.553; 5655.425;  260.375;    0.000
488.688; 5783.425;  207.375;    0.000
488.824; 5694.425;  204.375;    0.000
488.960; 5743.425;  248.375;    0.000
489.095; 5752.425;  204.375;    0.000
489.230; 5780.425;  227.375;    0.000
489.366; 5774.425;  226.375;    0.000
489.501; 5768.425;  199.375;    0.000
489.637; 5828.425;  233.375;    0.000
489.772; 5809.425;  249.375;    0.000
489.908; 5635.425;  200.375;    0.000
490.043; 5838.425;  246.375;    0.000
490.178; 5763.425;  222.375;    0.000
490.314; 5783.425;  219.375;    0.000
490.449; 5703.425;  227.375;    0.000
490.585; 5676.425;  209.375;    0.000
490.720; 5696.425;  238.375;    0.000
490.855; 5774.425;  222.375;    0.000
490.991; 5832.425;  202.375;    0.000
491.126; 5902.425;  272.375;    0.000
491.261; 5713.425;  261.375;    0.000
491.396; 5791.425;  190.375;    0.000
491.532; 5844.425;  202.375;    0.000
491.667; 5831.425;  208.375;    0.000
491.802; 5844.425;  203.375;    0.000
491.937; 5765.425;  253.375;    0.000
492.073; 5910.425;  242.375;    0.000
492.208; 5811.425;  230.375;    0.000
492.343; 5844.425;  183.375;    0.000
492.478; 5997.425;  246.375;    0.000
492.613; 5965.425;  223.375;    0.000
492.749; 5890.425;  230.375;    0.000
492.884; 5926.425;  190.375;    0.000
493.019; 5903.425;  234.375;    0.000
493.154; 5931.425;  218.375;    0.000
493.289; 5781.425;  222.375;    0.000
493.424; 5752.425;  196.375;    0.000
493.559; 5874.425;  202.375;    0.000
493.694; 5778.425;  180.375;    0.000
493.829; 5812.425;  224.375;    0.000
493.964; 5841.425;  218.375;    0.000
494.099; 5835.425;  275.375;    0.000
494.234; 5882.425;  226.375;    0.000
494.369; 5910.425;  225.375;    0.000
494.504; 5871.425;  219.375;    0.000
494.639; 5831.425;  296.375;    0.000
494.774; 5782.425;  228.375;    0.000
494.909; 5784.425;  222.375;    0.000
495.044; 5952.425;  215.375;    0.000
495.179; 5982.425;  200.375;    0.000
495.314; 5904.425;  235.375;    0.000
495.449; 5822.425;  249.375;    0.000
495.584; 5887.425;  228.375;    0.000
495.719; 5875.425;  212.375;    0.000
495.854; 5874.425;  201.375;    0.000
495.988; 5887.425;  248.375;    0.000
496.123; 5884.425;  209.375;    0.000
496.258; 5926.425;  249.375;    0.000
496.393; 5918.425;  223.375;    0.000
496.528; 5848.425;  209.375;    0.000
496.663; 6066.425;  207.375;    0.000
496.797; 5949.425;  229.375;    0.000
496.932; 6094.425;  225.375;    0.000
497.067; 6156.425;  218.375;    0.000
497.202; 6299.425;  163.375;    0.000
497.336; 6370.425;  246.375;    0.000
497.471; 6333.425;  229.375;    0.000
497.606; 6360.425;  251.375;    0.000
497.740; 6293.425;  220.375;    0.000
497.875; 6642.425;  216.375;    0.000
498.010; 6502.425;  226.375;    0.000
498.144; 6649.425;  237.375;    0.000
498.279; 6721.425;  196.375;    0.000
498.414; 6863.425;  219.375;    0.000
498.548; 6876.425;  205.375;    0.000
498.683; 7002.425;  206.375;    0.000
498.817; 7073.425;  225.375;    0.000
498.952; 7269.425;  221.375;    0.000
499.087; 7414.425;  220.375;    0.000
499.221; 7721.425;  233.375;    0.000
499.356; 7788.425;  230.375;    0.000
499.490; 7865.425;  229.375;    0.000
499.625; 8017.425;  231.375;    0.000
499.759; 8398.425;  243.375;    0.000
499.894; 8471.425;  241.375;    0.000
500.028; 8855.425;  264.375;    0.000
500.162; 8843.425;  287.375;    0.000
500.297; 8889.425;  234.375;    0.000
500.431; 9012.425;  230.375;    0.000
500.566; 9046.425;  213.375;    0.000
500.700; 8934.425;  243.375;    0.000
500.835; 8858.425;  272.375;    0.000
500.969; 8619.425;  188.375;    0.000
501.103; 8389.425;  200.375;    0.000
501.238; 8226.425;  257.375;    0.000
501.372; 8048.425;  224.375;    0.000
501.506; 7660.425;  225.375;    0.000
501.641; 7570.425;  271.375;    0.000
501.775; 7435.425;  199.375;    0.000
501.909; 7212.425;  249.375;    0.000
502.043; 7117.425;  211.375;    0.000
502.178; 6965.425;  269.375;    0.000
502.312; 6816.425;  198.375;    0.000
502.446; 6706.425;  256.375;    0.000
502.580; 6557.425;  195.375;    0.000
502.715; 6507.425;  224.375;    0.000
502.849; 6311.425;  245.375;    0.000
502.983; 6375.425;  250.375;    0.000
503.117; 6340.425;  193.375;    0.000
503.251; 6259.425;  242.375;    0.000
503.385; 6066.425;  227.375;    0.000
503.520; 6168.425;  235.375;    0.000
503.654; 6018.425;  220.375;    0.000
503.788; 5943.425;  267.375;    0.000
503.922; 5840.425;  220.375;    0.000
504.056; 5822.425;  238.375;    0.000
504.190; 5785.425;  212.375;    0.000
504.324; 5798.425;  265.375;    0.000
504.458; 5636.425;  228.375;    0.000
504.592; 5725.425;  231.375;    0.000
504.726; 5626.425;  218.375;    0.000
504.860; 5577.425;  253.375;    0.000
504.994; 5502.425;  217.375;    0.000
505.128; 5495.425;  243.375;    0.000
505.262; 5425.425;  194.375;    0.000
505.396; 5294.425;  210.375;    0.000
505.530; 5289.425;  211.375;    0.000
505.664; 5198.425;  219.375;    0.000
505.798; 5036.425;  240.375;    0.000
505.932; 5003.425;  240.375;    0.000
506.066; 5090.425;  252.375;    0.000
506.199; 5013.425;  242.375;    0.000
506.333; 4968.425;  244.375;    0.000
506.467; 4953.425;  223.375;    0.000
506.601; 4956.425;  183.375;    0.000
506.735; 4924.425;  249.375;    0.000
506.869; 4797.425;  270.375;    0.000
507.002; 4837.425;  207.375;    0.000
507.136; 4795.425;  242.375;    0.000
507.270; 4727.425;  232.375;    0.000
507.404; 4791.425;  195.375;    0.000
507.537; 4673.425;  218.375;    0.000
507.671; 4693.425;  246.375;    0.000
507.805; 4688.425;  244.375;    0.000
507.939; 4586.425;  251.375;    0.000
508.072; 4716.425;  212.375;    0.000
508.206; 4685.425;  198.375;    0.000
508.340; 4609.425;  234.375;    0.000
508.473; 4679.425;  217.375;    0.000
508.607; 4698.425;  224.375;    0.000
508.740; 4579.425;  207.375;    0.000
508.874; 4647.425;  230.375;    0.000
509.008; 4633.425;  246.375;    0.000
509.141; 4424.425;  239.375;    0.000
509.275; 4530.425;  229.375;    0.000
509.408; 4514.425;  234.375;    0.000
509.542; 4500.425;  212.375;    0.000
509.675; 4481.425;  256.375;    0.000
509.809; 4549.425;  232.375;    0.000
509.942; 4396.425;  237.375;    0.000
510.076; 4498.425;  226.375;    0.000
510.209; 4379.425;  251.375;    0.000
510.343; 4475.425;  229.375;    0.000
510.476; 4531.425;  285.375;    0.000
510.610; 4395.425;  211.375;    0.000
510.743; 4398.425;  258.375;    0.000
510.877; 4306.425;  244.375;    0.000
511.010; 4292.425;  235.375;    0.000
511.143; 4316.425;  251.375;    0.000
511.277; 4350.425;  228.375;    0.000
511.410; 4358.425;  216.375;    0.000
511.543; 4438.425;  231.375;    0.000
511.677; 4363.425;  244.375;    0.000
511.810; 4369.425;  186.375;    0.000
511.943; 4398.425;  211.375;    0.000
512.077; 4310.425;  201.375;    0.000
512.210; 4304.425;  194.375;    0.000
512.343; 4238.425;  233.375;    0.000
512.476; 4305.425;  234.375;    0.000
512.610; 4318.425;  224.375;    0.000
512.743; 4346.425;  255.375;    0.000
512.876; 4373.425;  264.375;    0.000
513.009; 4414.425;  283.375;    0.000
513.142; 4347.425;  246.375;    0.000
513.276; 4290.425;  217.375;    0.000
513.409; 4284.425;  222.375;    0.000
513.542; 4265.425;  237.375;    0.000
513.675; 4260.425;  238.375;    0.000
513.808; 4228.425;  220.375;    0.000
513.941; 4294.425;  233.375;    0.000
514.074; 4279.425;  248.375;    0.000
514.207; 4241.425;  233.375;    0.000
514.340; 4323.425;  190.375;    0.000
514.474; 4283.425;  221.375;    0.000
514.607; 4280.425;  213.375;    0.000
514.740; 4346.425;  251.375;    0.000
514.873; 4389.425;  257.375;    0.000
515.006; 4468.425;  268.375;    0.000
515.139; 4444.425;  257.375;    0.000
515.272; 4397.425;  227.375;    0.000
515.404; 4422.425;  238.375;    0.000
515.537; 4539.425;  275.375;    0.000
515.670; 4525.425;  239.375;    0.000
515.803; 4513.425;  223.375;    0.000
515.936; 4605.425;  202.375;    0.000
516.069; 4572.425;  188.375;    0.000
516.202; 4606.425;  240.375;    0.000
516.335; 4651.425;  252.375;    0.000
516.468; 4947.425;  254.375;    0.000
516.600; 5983.425;  254.375;    0.000
516.733; 7365.425;  255.375;    0.000
516.866; 7538.425;  265.375;    0.000
516.999; 6710.425;  251.375;    0.000
517.132; 8236.425;  256.375;    0.000
517.264;11576.425;  202.375;    0.000
517.397;11217.425;  248.375;    0.000
517.530; 8552.425;  221.375;    0.000
517.663; 7168.425;  244.375;    0.000
517.795; 6731.425;  245.375;    0.000
517.928; 6397.425;  236.375;    0.000
518.061; 6459.425;  219.375;    0.000
518.193; 8401.425;  251.375;    0.000
518.326;12903.425;  271.375;    0.000
518.459;14070.425;  207.375;    0.000
518.591;10897.425;  217.375;    0.000
518.724; 8034.425;  200.375;    0.000
518.857; 7115.425;  204.375;    0.000
518.989; 6428.425;  242.375;    0.000
519.122; 5966.425;  254.375;    0.000
519.254; 5635.425;  239.375;    0.000
519.387; 5382.425;  235.375;    0.000
519.519; 5244.425;  227.375;    0.000
519.652; 5019.425;  178.375;    0.000
519.784; 4920.425;  226.375;    0.000
519.917; 4768.425;  256.375;    0.000
520.049; 4672.425;  234.375;    0.000
520.182; 4559.425;  258.375;    0.000
520.314; 4614.425;  298.375;    0.000
520.447; 4445.425;  204.375;    0.000
520.579; 4537.425;  235.375;    0.000
520.712; 4323.425;  208.375;    0.000
520.844; 4356.425;  272.375;    0.000
520.976; 4290.425;  234.375;    0.000
521.109; 4255.425;  235.375;    0.000
521.241; 4227.425;  250.375;    0.000
521.373; 4228.425;  233.375;    0.000
521.506; 4161.425;  231.375;    0.000
521.638; 4112.425;  258.375;    0.000
521.770; 4108.425;  226.375;    0.000
521.903; 4148.425;  258.375;    0.000
522.035; 3957.425;  263.375;    0.000
522.167; 3985.425;  214.375;    0.000
522.300; 3959.425;  212.375;    0.000
522.432; 3915.425;  220.375;    0.000
522.564; 3949.425;  228.375;    0.000
522.696; 3947.425;  272.375;    0.000
522.828; 3945.425;  222.375;    0.000
522.961; 3818.425;  205.375;    0.000
523.093; 3882.425;  253.375;    0.000
523.225; 3875.425;  239.375;    0.000
523.357; 3848.425;  263.375;    0.000
523.489; 3815.425;  264.375;    0.000
523.621; 3868.425;  259.375;    0.000
523.753; 3840.425;  233.375;    0.000
523.885; 3830.425;  232.375;    0.000
524.018; 3697.425;  214.375;    0.000
524.150; 3762.425;  235.375;    0.000
524.282; 3775.425;  242.375;    0.000
524.414; 3747.425;  261.375;    0.000
524.546; 3706.425;  233.375;    0.000
524.678; 3737.425;  242.375;    0.000
524.810; 3692.425;  216.375;    0.000
524.942; 3668.425;  220.375;    0.000
525.074; 3684.425;  249.375;    0.000
525.206; 3574.425;  227.375;    0.000
525.338; 3571.425;  250.375;    0.000
525.469; 3653.425;  231.375;    0.000
525.601; 3525.425;  245.375;    0.000
525.733; 3627.425;  187.375;    0.000
525.865; 3694.425;  280.375;    0.000
525.997; 3608.425;  216.375;    0.000
526.129; 3619.425;  228.375;    0.000
526.261; 3599.425;  187.375;    0.000
526.393; 3540.425;  228.375;    0.000
526.524; 3494.425;  201.375;    0.000
526.656; 3453.425;  199.375;    0.000
526.788; 3520.425;  233.375;    0.000
526.920; 3532.425;  256.375;    0.000
527.052; 3423.425;  219.375;    0.000
527.183; 3556.425;  227.375;    0.000
527.315; 3515.425;  266.375;    0.000
527.447; 3457.425;  239.375;    0.000
527.578; 3483.425;  213.375;    0.000
527.710; 3498.425;  216.375;    0.000
527.842; 3459.425;  240.375;    0.000
527.973; 3540.425;  286.375;    0.000
528.105; 3519.425;  222.375;    0.000
528.237; 3562.425;  223.375;    0.000
528.368; 3508.425;  211.375;    0.000
528.500; 3442.425;  215.375;    0.000
528.632; 3509.425;  216.375;    0.000
528.763; 3418.425;  234.375;    0.000
528.895; 3404.425;  196.375;    0.000
529.026; 3441.425;  202.375;    0.000
529.158; 3444.425;  226.375;    0.000
529.289; 3473.425;  229.375;    0.000
529.421; 3476.425;  264.375;    0.000
529.552; 3407.425;  265.375;    0.000
529.684; 3509.425;  260.375;    0.000
529.815; 3399.425;  284.375;    0.000
529.947; 3383.425;  237.375;    0.000
530.078; 3385.425;  223.375;    0.000
530.210; 3450.425;  223.375;    0.000
530.341; 3419.425;  209.375;    0.000
530.472; 3366.425;  203.375;    0.000
530.604; 3488.425;  223.375;    0.000
530.735; 3427.425;  218.375;    0.000
530.867; 3466.425;  222.375;    0.000
530.998; 3508.425;  239.375;    0.000
531.129; 3460.425;  250.375;    0.000
531.260; 3369.425;  224.375;    0.000
531.392; 3560.425;  216.375;    0.000
531.523; 3462.425;  234.375;    0.000
531.654; 3511.425;  256.375;    0.000
531.786; 3519.425;  226.375;    0.000
531.917; 3521.425;  239.375;    0.000
532.048; 3467.425;  205.375;    0.000
532.179; 3516.425;  244.375;    0.000
532.311; 3428.425;  235.375;    0.000
532.442; 3490.425;  258.375;    0.000
532.573; 3469.425;  220.375;    0.000
532.704; 3362.425;  213.375;    0.000
532.835; 3381.425;  249.375;    0.000
532.966; 3353.425;  226.375;    0.000
533.097; 3348.425;  246.375;    0.000
533.229; 3405.425;  237.375;    0.000
533.360; 3414.425;  225.375;    0.000
533.491; 3431.425;  241.375;    0.000
533.622; 3353.425;  242.375;    0.000
533.753; 3465.425;  264.375;    0.000
533.884; 3461.425;  245.375;    0.000
534.015; 3482.425;  269.375;    0.000
534.146; 3470.425;  267.375;    0.000
534.277; 3465.425;  282.375;    0.000
534.408; 3399.425;  229.375;    0.000
534.539; 3539.425;  269.375;    0.000
534.670; 3434.425;  231.375;    0.000
534.801; 3346.425;  260.375;    0.000
534.932; 3385.425;  232.375;    0.000
535.063; 3370.425;  227.375;    0.000
535.194; 3440.425;  281.375;    0.000
535.324; 3348.425;  206.375;    0.000
535.455; 3372.425;  257.375;    0.000
535.586; 3415.425;  275.375;    0.000
535.717; 3314.425;  206.375;    0.000
535.848; 3437.425;  271.375;    0.000
535.979; 3331.425;  250.375;    0.000
536.109; 3337.425;  253.375;    0.000
536.240; 3318.425;  234.375;    0.000
536.371; 3358.425;  230.375;    0.000
536.502; 3433.425;  270.375;    0.000
536.632; 3278.425;  228.375;    0.000
536.763; 3351.425;  249.375;    0.000
536.894; 3314.425;  262.375;    0.000
537.025; 3270.425;  258.375;    0.000
537.155; 3397.425;  278.375;    0.000
537.286; 3384.425;  209.375;    0.000
537.417; 3240.425;  255.375;    0.000
537.547; 3206.425;  208.375;    0.000
537.678; 3260.425;  224.375;    0.000
537.808; 3187.425;  224.375;    0.000
537.939; 3321.425;  257.375;    0.000
538.070; 3283.425;  240.375;    0.000
538.200; 3288.425;  259.375;    0.000
538.331; 3299.425;  235.375;    0.000
538.461; 3322.425;  251.375;    0.000
538.592; 3283.425;  245.375;    0.000
538.722; 3392.425;  239.375;    0.000
538.853; 3289.425;  216.375;    0.000
538.983; 3318.425;  226.375;    0.000
539.114; 3258.425;  240.375;    0.000
539.244; 3296.425;  237.375;    0.000
539.375; 3285.425;  198.375;    0.000
539.505; 3341.425;  263.375;    0.000
539.636; 3280.425;  226.375;    0.000
539.766; 3290.425;  229.375;    0.000
539.896; 3237.425;  219.375;    0.000
540.027; 3347.425;  246.375;    0.000
540.157; 3223.425;  218.375;    0.000
540.287; 3159.425;  216.375;    0.000
540.418; 3222.425;  267.375;    0.000
540.548; 3261.425;  260.375;    0.000
540.678; 3218.425;  242.375;    0.000
540.809; 3334.425;  260.375;    0.000
540.939; 3298.425;  257.375;    0.000
541.069; 3262.425;  226.375;    0.000
541.200; 3223.425;  227.375;    0.000
541.330; 3184.425;  218.375;    0.000
541.460; 3394.425;  223.375;    0.000
541.590; 3290.425;  237.375;    0.000
541.720; 3206.425;  222.375;    0.000
541.851; 3288.425;  250.375;    0.000
541.981; 3351.425;  222.375;    0.000
542.111; 3304.425;  212.375;    0.000
542.241; 3294.425;  205.375;    0.000
542.371; 3366.425;  202.375;    0.000
542.501; 3385.425;  218.375;    0.000
542.631; 3398.425;  222.375;    0.000
542.761; 3389.425;  249.375;    0.000
542.891; 3426.425;  173.375;    0.000
543.021; 3468.425;  218.375;    0.000
543.151; 3431.425;  222.375;    0.000
543.281; 3364.425;  188.375;    0.000
543.411; 3411.425;  239.375;    0.000
543.542; 3384.425;  215.375;    0.000
543.671; 3473.425;  250.375;    0.000
543.801; 3366.425;  212.375;    0.000
543.931; 3445.425;  233.375;    0.000
544.061; 3456.425;  194.375;    0.000
544.191; 3299.425;  218.375;    0.000
544.321; 3413.425;  220.375;    0.000
544.451; 3356.425;  183.375;    0.000
544.581; 3379.425;  221.375;    0.000
544.711; 3435.425;  224.375;    0.000
544.841; 3388.425;  214.375;    0.000
544.970; 3511.425;  227.375;    0.000
545.100; 3447.425;  186.375;    0.000
545.230; 3528.425;  205.375;    0.000
545.360; 3460.425;  211.375;    0.000
545.490; 3445.425;  202.375;    0.000
545.619; 3446.425;  182.375;    0.000
545.749; 3306.425;  174.375;    0.000
545.879; 3383.425;  169.375;    0.000
546.009; 3471.425;  182.375;    0.000
546.138; 3399.425;  200.375;    0.000
546.268; 3354.425;  204.375;    0.000
546.398; 3330.425;  200.375;    0.000
546.527; 3400.425;  179.375;    0.000
546.657; 3336.425;  162.375;    0.000
546.786; 3292.425;  179.375;    0.000
546.916; 3364.425;  221.375;    0.000
547.046; 3276.425;  179.375;    0.000
547.175; 3297.425;  168.375;    0.000
547.305; 3345.425;  200.375;    0.000
547.434; 3329.425;  166.375;    0.000
547.564; 3283.425;  177.375;    0.000
547.693; 3293.425;  152.375;    0.000
547.823; 3265.425;  171.375;    0.000
547.953; 3401.425;  195.375;    0.000
548.082; 3405.425;  214.375;    0.000
548.211; 3342.425;  177.375;    0.000
548.341; 3379.425;  189.375;    0.000
548.470; 3391.425;  194.375;    0.000
548.600; 3303.425;  172.375;    0.000
548.729; 3355.425;  158.375;    0.000
548.859; 3268.425;  193.375;    0.000
548.988; 3352.425;  131.375;    0.000
549.117; 3288.425;  204.375;    0.000
549.247; 3312.425;  191.375;    0.000
549.376; 3322.425;  202.375;    0.000
549.505; 3367.425;  187.375;    0.000
549.635; 3491.425;  198.375;    0.000
549.764; 3329.425;  155.375;    0.000
549.893; 3385.425;  176.375;    0.000
550.023; 3352.425;  202.375;    0.000
550.152; 3352.425;  168.375;    0.000
550.281; 3420.425;  180.375;    0.000
550.410; 3459.425;  180.375;    0.000
550.539; 3417.425;  181.375;    0.000
550.669; 3525.425;  168.375;    0.000
550.798; 3459.425;  223.375;    0.000
550.927; 3517.425;  179.375;    0.000
551.056; 3366.425;  159.375;    0.000
551.185; 3391.425;  199.375;    0.000
551.314; 3475.425;  185.375;    0.000
551.443; 3412.425;  172.375;    0.000
551.573; 3465.425;  158.375;    0.000
551.702; 3554.425;  210.375;    0.000
551.831; 3466.425;  238.375;    0.000
551.960; 3526.425;  191.375;    0.000
552.089; 3549.425;  195.375;    0.000
552.218; 3451.425;  196.375;    0.000
552.347; 3466.425;  194.375;    0.000
552.476; 3542.425;  192.375;    0.000
552.605; 3506.425;  172.375;    0.000
552.734; 3651.425;  214.375;    0.000
552.863; 3722.425;  177.375;    0.000
552.992; 3808.425;  190.375;    0.000
553.121; 3724.425;  185.375;    0.000
553.249; 3666.425;  175.375;    0.000
553.378; 3740.425;  192.375;    0.000
553.507; 3624.425;  193.375;    0.000
553.636; 3637.425;  182.375;    0.000
553.765; 3597.425;  187.375;    0.000
553.894; 3586.425;  214.375;    0.000
554.023; 3605.425;  217.375;    0.000
554.151; 3519.425;  223.375;    0.000
554.280; 3491.425;  170.375;    0.000
554.409; 3551.425;  172.375;    0.000
554.538; 3524.425;  182.375;    0.000
554.666; 3559.425;  195.375;    0.000
554.795; 3494.425;  176.375;    0.000
554.924; 3458.425;  164.375;    0.000
555.052; 3492.425;  171.375;    0.000
555.181; 3477.425;  208.375;    0.000
555.310; 3390.425;  214.375;    0.000
555.439; 3448.425;  193.375;    0.000
555.567; 3404.425;  189.375;    0.000
555.696; 3401.425;  196.375;    0.000
555.824; 3419.425;  183.375;    0.000
555.953; 3398.425;  234.375;    0.000
556.082; 3401.425;  183.375;    0.000
556.210; 3341.425;  199.375;    0.000
556.339; 3381.425;  201.375;    0.000
556.467; 3370.425;  208.375;    0.000
556.596; 3316.425;  194.375;    0.000
556.724; 3411.425;  170.375;    0.000
556.853; 3329.425;  166.375;    0.000
556.981; 3311.425;  185.375;    0.000
557.110; 3304.425;  213.375;    0.000
557.238; 3331.425;  188.375;    0.000
557.367; 3278.425;  176.375;    0.000
557.495; 3281.425;  180.375;    0.000
557.623; 3304.425;  193.375;    0.000
557.752; 3439.425;  207.375;    0.000
557.880; 3266.425;  189.375;    0.000
558.008; 3318.425;  169.375;    0.000
558.137; 3377.425;  203.375;    0.000
558.265; 3353.425;  167.375;    0.000
558.393; 3348.425;  204.375;    0.000
558.522; 3378.425;  203.375;    0.000
558.650; 3382.425;  215.375;    0.000
558.778; 3407.425;  190.375;    0.000
558.906; 3361.425;  186.375;    0.000
559.035; 3343.425;  193.375;    0.000
559.163; 3450.425;  198.375;    0.000
559.291; 3334.425;  222.375;    0.000
559.419; 3392.425;  192.375;    0.000
559.548; 3291.425;  186.375;    0.000
559.676; 3406.425;  199.375;    0.000
559.804; 3302.425;  186.375;    0.000
559.932; 3382.425;  202.375;    0.000
560.060; 3355.425;  183.375;    0.000
560.188; 3432.425;  212.375;    0.000
560.316; 3428.425;  192.375;    0.000
560.444; 3394.425;  180.375;    0.000
560.572; 3336.425;  206.375;    0.000
560.700; 3498.425;  184.375;    0.000
560.828; 3407.425;  177.375;    0.000
560.956; 3423.425;  221.375;    0.000
561.085; 3538.425;  227.375;    0.000
561.212; 3467.425;  208.375;    0.000
561.340; 3526.425;  189.375;    0.000
561.468; 3550.425;  189.375;    0.000
561.596; 3474.425;  183.375;    0.000
561.724; 3518.425;  188.375;    0.000
561.852; 3444.425;  183.375;    0.000
561.980; 3532.425;  209.375;    0.000
562.108; 3562.425;  165.375;    0.000
562.236; 3482.425;  188.375;    0.000
562.364; 3500.425;  177.375;    0.000
562.492; 3517.425;  192.375;    0.000
562.619; 3507.425;  187.375;    0.000
562.747; 3532.425;  217.375;    0.000
562.875; 3544.425;  221.375;    0.000
563.003; 3587.425;  199.375;    0.000
563.130; 3595.425;  191.375;    0.000
563.258; 3692.425;  186.375;    0.000
563.386; 3709.425;  191.375;    0.000
563.514; 3671.425;  217.375;    0.000
563.641; 3688.425;  220.375;    0.000
563.769; 3758.425;  186.375;    0.000
563.897; 3785.425;  158.375;    0.000
564.024; 3821.425;  192.375;    0.000
564.152; 3760.425;  217.375;    0.000
564.280; 3853.425;  203.375;    0.000
564.407; 3832.425;  190.375;    0.000
564.535; 3821.425;  188.375;    0.000
564.662; 3787.425;  199.375;    0.000
564.790; 3903.425;  227.375;    0.000
564.917; 3917.425;  160.375;    0.000
565.045; 4115.425;  222.375;    0.000
565.173; 3881.425;  169.375;    0.000
565.300; 4022.425;  208.375;    0.000
565.428; 4072.425;  174.375;    0.000
565.555; 4033.425;  201.375;    0.000
565.682; 4148.425;  180.375;    0.000
565.810; 4197.425;  165.375;    0.000
565.937; 4230.425;  167.375;    0.000
566.065; 4321.425;  190.375;    0.000
566.192; 4339.425;  169.375;    0.000
566.320; 4437.425;  167.375;    0.000
566.447; 4513.425;  151.375;    0.000
566.574; 4482.425;  176.375;    0.000
566.702; 4535.425;  198.375;    0.000
566.829; 4668.425;  209.375;    0.000
566.956; 4663.425;  186.375;    0.000
567.083; 4665.425;  188.375;    0.000
567.211; 4624.425;  159.375;    0.000
567.338; 4760.425;  204.375;    0.000
567.465; 4743.425;  141.375;    0.000
567.593; 4802.425;  168.375;    0.000
567.720; 4921.425;  177.375;    0.000
567.847; 4917.425;  160.375;    0.000
567.974; 4807.425;  139.375;    0.000
568.101; 4878.425;  153.375;    0.000
568.228; 5086.425;  173.375;    0.000
568.356; 5277.425;  149.375;    0.000
568.483; 4995.425;  185.375;    0.000
568.610; 4896.425;  170.375;    0.000
568.737; 5418.425;  223.375;    0.000
568.864; 5744.425;  167.375;    0.000
568.991; 5495.425;  177.375;    0.000
569.118; 4942.425;  169.375;    0.000
569.245; 4649.425;  128.375;    0.000
569.372; 4496.425;  160.375;    0.000
569.499; 4427.425;  156.375;    0.000
569.626; 4372.425;  191.375;    0.000
569.753; 4260.425;  163.375;    0.000
569.880; 4139.425;  167.375;    0.000
570.007; 4109.425;  143.375;    0.000
570.134; 4042.425;  191.375;    0.000
570.261; 4003.425;  164.375;    0.000
570.388; 4007.425;  162.375;    0.000
570.515; 3976.425;  220.375;    0.000
570.642; 3935.425;  184.375;    0.000
570.768; 3904.425;  174.375;    0.000
570.895; 3826.425;  177.375;    0.000
571.022; 3890.425;  152.375;    0.000
571.149; 3947.425;  183.375;    0.000
571.276; 3780.425;  153.375;    0.000
571.402; 3759.425;  190.375;    0.000
571.529; 3786.425;  187.375;    0.000
571.656; 3782.425;  167.375;    0.000
571.783; 3638.425;  186.375;    0.000
571.909; 3709.425;  183.375;    0.000
572.036; 3684.425;  162.375;    0.000
572.163; 3554.425;  196.375;    0.000
572.289; 3644.425;  180.375;    0.000
572.416; 3652.425;  190.375;    0.000
572.543; 3553.425;  174.375;    0.000
572.669; 3545.425;  186.375;    0.000
572.796; 3612.425;  205.375;    0.000
572.922; 3547.425;  185.375;    0.000
573.049; 3549.425;  178.375;    0.000
573.176; 3547.425;  196.375;    0.000
573.302; 3483.425;  202.375;    0.000
573.429; 3489.425;  189.375;    0.000
573.555; 3510.425;  145.375;    0.000
573.682; 3495.425;  228.375;    0.000
573.808; 3376.425;  197.375;    0.000
573.935; 3470.425;  216.375;    0.000
574.061; 3439.425;  173.375;    0.000
574.188; 3532.425;  151.375;    0.000
574.314; 3488.425;  181.375;    0.000
574.440; 3507.425;  167.375;    0.000
574.567; 3464.425;  185.375;    0.000
574.693; 3338.425;  173.375;    0.000
574.820; 3467.425;  164.375;    0.000
574.946; 3369.425;  199.375;    0.000
575.072; 3464.425;  162.375;    0.000
575.198; 3489.425;  225.375;    0.000
575.325; 3458.425;  171.375;    0.000
575.451; 3444.425;  183.375;    0.000
575.577; 3417.425;  190.375;    0.000
575.704; 3495.425;  210.375;    0.000
575.830; 3389.425;  185.375;    0.000
575.956; 3374.425;  168.375;    0.000
576.082; 3341.425;  158.375;    0.000
576.208; 3389.425;  158.375;    0.000
576.335; 3372.425;  196.375;    0.000
576.461; 3485.425;  187.375;    0.000
576.587; 3408.425;  157.375;    0.000
576.713; 3409.425;  156.375;    0.000
576.839; 3405.425;  196.375;    0.000
576.965; 3373.425;  187.375;    0.000
577.091; 3407.425;  204.375;    0.000
577.217; 3389.425;  207.375;    0.000
577.343; 3397.425;  175.375;    0.000
577.469; 3255.425;  197.375;    0.000
577.596; 3349.425;  182.375;    0.000
577.722; 3348.425;  159.375;    0.000
577.848; 3343.425;  162.375;    0.000
577.974; 3291.425;  180.375;    0.000
578.099; 3322.425;  161.375;    0.000
578.225; 3425.425;  180.375;    0.000
578.351; 3365.425;  190.375;    0.000
578.477; 3440.425;  212.375;    0.000
578.603; 3380.425;  179.375;    0.000
578.729; 3386.425;  195.375;    0.000
578.855; 3283.425;  153.375;    0.000
578.981; 3437.425;  162.375;    0.000
579.107; 3387.425;  149.375;    0.000
579.232; 3341.425;  164.375;    0.000
579.358; 3476.425;  162.375;    0.000
579.484; 3328.425;  181.375;    0.000
579.610; 3421.425;  190.375;    0.000
579.735; 3396.425;  191.375;    0.000
579.861; 3371.425;  189.375;    0.000
579.987; 3373.425;  202.375;    0.000
580.113; 3337.425;  197.375;    0.000
580.238; 3357.425;  228.375;    0.000
580.364; 3437.425;  212.375;    0.000
580.490; 3400.425;  225.375;    0.000
580.615; 3437.425;  218.375;    0.000
580.741; 3383.425;  167.375;    0.000
580.867; 3407.425;  215.375;    0.000
580.992; 3375.425;  191.375;    0.000
581.118; 3355.425;  171.375;    0.000
581.243; 3447.425;  204.375;    0.000
581.369; 3412.425;  186.375;    0.000
581.494; 3410.425;  184.375;    0.000
581.620; 3422.425;  212.375;    0.000
581.745; 3508.425;  192.375;    0.000
581.871; 3456.425;  195.375;    0.000
581.996; 3407.425;  160.375;    0.000
582.122; 3580.425;  217.375;    0.000
582.247; 3430.425;  213.375;    0.000
582.373; 3529.425;  187.375;    0.000
582.498; 3593.425;  208.375;    0.000
582.624; 3462.425;  189.375;    0.000
582.749; 3593.425;  185.375;    0.000
582.874; 3548.425;  195.375;    0.000
583.000; 3707.425;  208.375;    0.000
583.125; 3569.425;  147.375;    0.000
583.250; 3624.425;  201.375;    0.000
583.376; 3569.425;  191.375;    0.000
583.501; 3551.425;  206.375;    0.000
583.626; 3582.425;  167.375;    0.000
583.751; 3751.425;  180.375;    0.000
583.877; 3713.425;  185.375;    0.000
584.002; 3817.425;  186.375;    0.000
584.127; 3602.425;  176.375;    0.000
584.252; 3736.425;  214.375;    0.000
584.377; 3820.425;  225.375;    0.000
584.503; 3757.425;  195.375;    0.000
584.628; 3803.425;  206.375;    0.000
584.753; 3856.425;  181.375;    0.000
584.878; 3981.425;  136.375;    0.000
585.003; 3987.425;  215.375;    0.000
585.128; 3947.425;  206.375;    0.000
585.253; 4124.425;  200.375;    0.000
585.378; 4121.425;  169.375;    0.000
585.503; 4073.425;  191.375;    0.000
585.628; 4120.425;  182.375;    0.000
585.753; 4108.425;  164.375;    0.000
585.878; 4277.425;  123.375;    0.000
586.003; 4317.425;  187.375;    0.000
586.128; 4419.425;  198.375;    0.000
586.253; 4423.425;  172.375;    0.000
586.378; 4575.425;  191.375;    0.000
586.503; 4691.425;  190.375;    0.000
586.628; 4663.425;  178.375;    0.000
586.753; 4894.425;  184.375;    0.000
586.878; 5064.425;  169.375;    0.000
587.003; 5216.425;  186.375;    0.000
587.127; 5328.425;  170.375;    0.000
587.252; 5594.425;  170.375;    0.000
587.377; 5882.425;  181.375;    0.000
587.502; 6153.425;  209.375;    0.000
587.627; 6293.425;  210.375;    0.000
587.751; 6869.425;  212.375;    0.000
587.876; 7130.425;  198.375;    0.000
588.001; 7596.425;  161.375;    0.000
588.125; 8335.425;  191.375;    0.000
588.250; 9263.425;  132.375;    0.000
588.375;10581.425;  183.375;    0.000
588.499;12104.425;  176.375;    0.000
588.624;14177.425;  173.375;    0.000
588.749;17756.426;  204.375;    0.000
588.873;21974.426;  179.375;    0.000
588.998;25855.426;  182.375;    0.000
589.122;27151.426;  165.375;    0.000
589.247;24565.426;  185.375;    0.000
589.372;22381.426;  199.375;    0.000
589.496;22984.426;  182.375;    0.000
589.621;24778.426;  158.375;    0.000
589.745;23490.426;  213.375;    0.000
589.870;19591.426;  175.375;    0.000
589.994;15655.425;  194.375;    0.000
590.118;13343.425;  218.375;    0.000
590.243;11628.425;  170.375;    0.000
590.367;10262.425;  189.375;    0.000
590.492; 9334.425;  196.375;    0.000
590.616; 8526.425;  182.375;    0.000
590.740; 7836.425;  210.375;    0.000
590.865; 7419.425;  242.375;    0.000
590.989; 7112.425;  191.375;    0.000
591.114; 6628.425;  167.375;    0.000
591.238; 6342.425;  194.375;    0.000
591.362; 6143.425;  236.375;    0.000
591.486; 5944.425;  194.375;    0.000
591.611; 5711.425;  154.375;    0.000
591.735; 5607.425;  186.375;    0.000
591.859; 5534.425;  148.375;    0.000
591.983; 5406.425;  211.375;    0.000
592.107; 5195.425;  204.375;    0.000
592.232; 5026.425;  194.375;    0.000
592.356; 5066.425;  238.375;    0.000
592.480; 5014.425;  179.375;    0.000
592.604; 4914.425;  192.375;    0.000
592.728; 4824.425;  201.375;    0.000
592.852; 4616.425;  158.375;    0.000
592.976; 4586.425;  152.375;    0.000
593.100; 4728.425;  194.375;    0.000
593.224; 4652.425;  235.375;    0.000
593.349; 4579.425;  233.375;    0.000
593.473; 4479.425;  194.375;    0.000
593.597; 4448.425;  215.375;    0.000
593.721; 4383.425;  212.375;    0.000
593.844; 4417.425;  220.375;    0.000
593.968; 4332.425;  221.375;    0.000
594.092; 4338.425;  150.375;    0.000
594.216; 4333.425;  212.375;    0.000
594.340; 4312.425;  209.375;    0.000
594.464; 4229.425;  207.375;    0.000
594.588; 4187.425;  195.375;    0.000
594.712; 4100.425;  176.375;    0.000
594.836; 3937.425;  219.375;    0.000
594.959; 4017.425;  215.375;    0.000
595.083; 3877.425;  200.375;    0.000
595.207; 4040.425;  206.375;    0.000
595.331; 3893.425;  207.375;    0.000
595.455; 3887.425;  206.375;    0.000
595.578; 3687.425;  204.375;    0.000
595.702; 3809.425;  225.375;    0.000
595.826; 3725.425;  186.375;    0.000
595.949; 3697.425;  196.375;    0.000
596.073; 3572.425;  188.375;    0.000
596.197; 3694.425;  217.375;    0.000
596.320; 3773.425;  225.375;    0.000
596.444; 3581.425;  220.375;    0.000
596.568; 3583.425;  155.375;    0.000
596.691; 3569.425;  195.375;    0.000
596.815; 3504.425;  163.375;    0.000
596.938; 3513.425;  181.375;    0.000
597.062; 3533.425;  201.375;    0.000
597.186; 3586.425;  200.375;    0.000
597.309; 3487.425;  214.375;    0.000
597.433; 3417.425;  176.375;    0.000
597.556; 3357.425;  193.375;    0.000
597.680; 3455.425;  241.375;    0.000
597.803; 3428.425;  185.375;    0.000
597.926; 3312.425;  200.375;    0.000
598.050; 3393.425;  193.375;    0.000
598.173; 3323.425;  219.375;    0.000
598.297; 3466.425;  223.375;    0.000
598.420; 3345.425;  187.375;    0.000
598.543; 3255.425;  205.375;    0.000
598.667; 3311.425;  177.375;    0.000
598.790; 3368.425;  208.375;    0.000
598.913; 3346.425;  170.375;    0.000
599.037; 3221.425;  212.375;    0.000
599.160; 3280.425;  165.375;    0.000
599.283; 3280.425;  211.375;    0.000
599.406; 3237.425;  207.375;    0.000
599.530; 3340.425;  182.375;    0.000
599.653; 3223.425;  215.375;    0.000
599.776; 3233.425;  167.375;    0.000
599.899; 3295.425;  190.375;    0.000
600.022; 3231.425;  182.375;    0.000
600.145; 3181.425;  180.375;    0.000
600.269; 3238.425;  208.375;    0.000
600.392; 3205.425;  214.375;    0.000
600.515; 3252.425;  196.375;    0.000
600.638; 3172.425;  204.375;    0.000
600.761; 3231.425;  209.375;    0.000
600.884; 3138.425;  207.375;    0.000
601.007; 3135.425;  234.375;    0.000
601.130; 3177.425;  183.375;    0.000
601.253; 3185.425;  211.375;    0.000
601.376; 3156.425;  199.375;    0.000
601.499; 3128.425;  190.375;    0.000
601.622; 3092.425;  210.375;    0.000
601.745; 3087.425;  180.375;    0.000
601.868; 3133.425;  204.375;    0.000
601.991; 3091.425;  188.375;    0.000
602.113; 3145.425;  210.375;    0.000
602.236; 3073.425;  194.375;    0.000
602.359; 3102.425;  213.375;    0.000
602.482; 3085.425;  169.375;    0.000
602.605; 3102.425;  189.375;    0.000
602.728; 3065.425;  236.375;    0.000
602.850; 3121.425;  230.375;    0.000
602.973; 3088.425;  187.375;    0.000
603.096; 3047.425;  201.375;    0.000
603.219; 3080.425;  209.375;    0.000
603.341; 3003.425;  209.375;    0.000
603.464; 3091.425;  194.375;    0.000
603.587; 3087.425;  166.375;    0.000
603.709; 3094.425;  175.375;    0.000
603.832; 3031.425;  239.375;    0.000
603.955; 3114.425;  205.375;    0.000
604.077; 3050.425;  196.375;    0.000
604.200; 2996.425;  188.375;    0.000
604.323; 3048.425;  224.375;    0.000
604.445; 3002.425;  182.375;    0.000
604.568; 3020.425;  199.375;    0.000
604.690; 2934.425;  175.375;    0.000
604.813; 2999.425;  211.375;    0.000
604.935; 3033.425;  171.375;    0.000
605.058; 3004.425;  196.375;    0.000
605.180; 3009.425;  194.375;    0.000
605.303; 3010.425;  198.375;    0.000
605.425; 3006.425;  212.375;    0.000
605.547; 3061.425;  238.375;    0.000
605.670; 2967.425;  207.375;    0.000
605.792; 2923.425;  204.375;    0.000
605.915; 2956.425;  198.375;    0.000
606.037; 2906.425;  215.375;    0.000
606.159; 2953.425;  170.375;    0.000
606.282; 3002.425;  194.375;    0.000
606.404; 2888.425;  207.375;    0.000
606.526; 2993.425;  208.375;    0.000
606.648; 2852.425;  174.375;    0.000
606.771; 2909.425;  170.375;    0.000
606.893; 3010.425;  182.375;    0.000
607.015; 2895.425;  180.375;    0.000
607.137; 2873.425;  187.375;    0.000
607.260; 2901.425;  202.375;    0.000
607.382; 2919.425;  226.375;    0.000
607.504; 2960.425;  208.375;    0.000
607.626; 2968.425;  229.375;    0.000
607.748; 2971.425;  170.375;    0.000
607.870; 3007.425;  208.375;    0.000
607.992; 2870.425;  184.375;    0.000
608.114; 2867.425;  213.375;    0.000
608.237; 2949.425;  237.375;    0.000
608.359; 2860.425;  176.375;    0.000
608.481; 2984.425;  173.375;    0.000
608.603; 2940.425;  189.375;    0.000
608.725; 2936.425;  185.375;    0.000
608.847; 2931.425;  239.375;    0.000
608.969; 3003.425;  237.375;    0.000
609.090; 2959.425;  189.375;    0.000
609.212; 2861.425;  147.375;    0.000
609.334; 2907.425;  177.375;    0.000
609.456; 2900.425;  196.375;    0.000
609.578; 2978.425;  199.375;    0.000
609.700; 2890.425;  167.375;    0.000
609.822; 2857.425;  140.375;    0.000
609.944; 2966.425;  225.375;    0.000
610.065; 2973.425;  183.375;    0.000
610.187; 2856.425;  170.375;    0.000
610.309; 2932.425;  210.375;    0.000
610.431; 2849.425;  185.375;    0.000
610.552; 2818.425;  197.375;    0.000
610.674; 2875.425;  188.375;    0.000
610.796; 2825.425;  162.375;    0.000
610.918; 2943.425;  200.375;    0.000
611.039; 2903.425;  209.375;    0.000
611.161; 2898.425;  201.375;    0.000
611.282; 2880.425;  197.375;    0.000
611.404; 2869.425;  220.375;    0.000
611.526; 2830.425;  159.375;    0.000
611.647; 2858.425;  205.375;    0.000
611.769; 2854.425;  161.375;    0.000
611.890; 2911.425;  173.375;    0.000
612.012; 2877.425;  225.375;    0.000
612.133; 2902.425;  188.375;    0.000
612.255; 2950.425;  217.375;    0.000
612.377; 2872.425;  219.375;    0.000
612.498; 2800.425;  177.375;    0.000
612.619; 2845.425;  211.375;    0.000
612.741; 2870.425;  185.375;    0.000
612.862; 2916.425;  191.375;    0.000
612.984; 2827.425;  190.375;    0.000
613.105; 2901.425;  211.375;    0.000
613.226; 2847.425;  174.375;    0.000
613.348; 2922.425;  235.375;    0.000
613.469; 2853.425;  230.375;    0.000
613.590; 2824.425;  208.375;    0.000
613.712; 2873.425;  244.375;    0.000
613.833; 2882.425;  202.375;    0.000
613.954; 2818.425;  228.375;    0.000
614.076; 2875.425;  220.375;    0.000
614.197; 2825.425;  191.375;    0.000
614.318; 2819.425;  201.375;    0.000
614.439; 2830.425;  212.375;    0.000
614.560; 2868.425;  219.375;    0.000
614.682; 2962.425;  189.375;    0.000
614.803; 2849.425;  188.375;    0.000
614.924; 2924.425;  225.375;    0.000
615.045; 2820.425;  227.375;    0.000
615.166; 2895.425;  200.375;    0.000
615.287; 2834.425;  195.375;    0.000
615.408; 3047.425;  199.375;    0.000
615.529; 3049.425;  227.375;    0.000
615.650; 3007.425;  176.375;    0.000
615.771; 2886.425;  211.375;    0.000
615.892; 2942.425;  212.375;    0.000
616.013; 3188.425;  172.375;    0.000
616.134; 3325.425;  220.375;    0.000
616.255; 3230.425;  251.375;    0.000
616.376; 3066.425;  186.375;    0.000
616.497; 2942.425;  201.375;    0.000
616.618; 2939.425;  149.375;    0.000
616.739; 2931.425;  213.375;    0.000
616.860; 2894.425;  224.375;    0.000
616.981; 2896.425;  224.375;    0.000
617.102; 2904.425;  217.375;    0.000
617.222; 2856.425;  237.375;    0.000
617.343; 2872.425;  205.375;    0.000
617.464; 2838.425;  229.375;    0.000
617.585; 2681.425;  227.375;    0.000
617.705; 2943.425;  191.375;    0.000
617.826; 2779.425;  237.375;    0.000
617.947; 2827.425;  223.375;    0.000
618.068; 2826.425;  189.375;    0.000
618.188; 2807.425;  194.375;    0.000
618.309; 2872.425;  206.375;    0.000
618.430; 2876.425;  229.375;    0.000
618.550; 2842.425;  250.375;    0.000
618.671; 2810.425;  201.375;    0.000
618.791; 2794.425;  226.375;    0.000
618.912; 2709.425;  246.375;    0.000
619.033; 2891.425;  243.375;    0.000
619.153; 2810.425;  208.375;    0.000
619.274; 2804.425;  223.375;    0.000
619.394; 2868.425;  226.375;    0.000
619.515; 2737.425;  188.375;    0.000
619.635; 2738.425;  216.375;    0.000
619.756; 2810.425;  229.375;    0.000
619.876; 2783.425;  216.375;    0.000
619.996; 2817.425;  244.375;    0.000
620.117; 2827.425;  225.375;    0.000
620.237; 2820.425;  207.375;    0.000
620.358; 2822.425;  239.375;    0.000
620.478; 2748.425;  237.375;    0.000
620.598; 2735.425;  237.375;    0.000
620.719; 2732.425;  223.375;    0.000
620.839; 2761.425;  254.375;    0.000
620.959; 2710.425;  244.375;    0.000
621.079; 2759.425;  193.375;    0.000
621.200; 2736.425;  233.375;    0.000
621.320; 2747.425;  270.375;    0.000
621.440; 2723.425;  206.375;    0.000
621.560; 2678.425;  241.375;    0.000
621.681; 2712.425;  231.375;    0.000
621.801; 2745.425;  235.375;    0.000
621.921; 2728.425;  240.375;    0.000
622.041; 2774.425;  244.375;    0.000
622.161; 2670.425;  225.375;    0.000
622.281; 2683.425;  222.375;    0.000
622.401; 2735.425;  238.375;    0.000
622.521; 2719.425;  233.375;    0.000
622.641; 2642.425;  241.375;    0.000
622.761; 2728.425;  233.375;    0.000
622.882; 2658.425;  230.375;    0.000
623.002; 2714.425;  206.375;    0.000
623.121; 2758.425;  217.375;    0.000
623.241; 2670.425;  263.375;    0.000
623.361; 2675.425;  245.375;    0.000
623.481; 2652.425;  194.375;    0.000
623.601; 2752.425;  228.375;    0.000
623.721; 2822.425;  219.375;    0.000
623.841; 2724.425;  234.375;    0.000
623.961; 2692.425;  235.375;    0.000
624.081; 2673.425;  166.375;    0.000
624.201; 2679.425;  229.375;    0.000
624.320; 2702.425;  224.375;    0.000
624.440; 2731.425;  200.375;    0.000
624.560; 2707.425;  220.375;    0.000
624.680; 2679.425;  214.375;    0.000
624.799; 2622.425;  179.375;    0.000
624.919; 2630.425;  199.375;    0.000
625.039; 2584.425;  211.375;    0.000
625.159; 2660.425;  213.375;    0.000
625.278; 2628.425;  178.375;    0.000
625.398; 2666.425;  206.375;    0.000
625.518; 2648.425;  182.375;    0.000
625.637; 2701.425;  206.375;    0.000
625.757; 2595.425;  197.375;    0.000
625.876; 2617.425;  204.375;    0.000
625.996; 2680.425;  222.375;    0.000
626.115; 2623.425;  222.375;    0.000
626.235; 2535.425;  222.375;    0.000
626.354; 2656.425;  211.375;    0.000
626.474; 2673.425;  217.375;    0.000
626.594; 2641.425;  190.375;    0.000
626.713; 2586.425;  200.375;    0.000
626.832; 2634.425;  234.375;    0.000
626.952; 2535.425;  214.375;    0.000
627.071; 2595.425;  243.375;    0.000
627.191; 2557.425;  192.375;    0.000
627.310; 2612.425;  211.375;    0.000
627.429; 2676.425;  218.375;    0.000
627.549; 2564.425;  214.375;    0.000
627.668; 2766.425;  208.375;    0.000
627.787; 2651.425;  199.375;    0.000
627.907; 2679.425;  208.375;    0.000
628.026; 2679.425;  216.375;    0.000
628.145; 2593.425;  170.375;    0.000
628.264; 2692.425;  217.375;    0.000
628.384; 2540.425;  190.375;    0.000
628.503; 2608.425;  203.375;    0.000
628.622; 2644.425;  197.375;    0.000
628.741; 2589.425;  186.375;    0.000
628.860; 2595.425;  191.375;    0.000
628.980; 2593.425;  196.375;    0.000
629.099; 2567.425;  190.375;    0.000
629.218; 2507.425;  165.375;    0.000
629.337; 2587.425;  190.375;    0.000
629.456; 2574.425;  222.375;    0.000
629.575; 2611.425;  197.375;    0.000
629.694; 2656.425;  210.375;    0.000
629.813; 2634.425;  187.375;    0.000
629.932; 2558.425;  224.375;    0.000
630.051; 2578.425;  216.375;    0.000
630.170; 2644.425;  203.375;    0.000
630.289; 2603.425;  178.375;    0.000
630.408; 2506.425;  192.375;    0.000
630.527; 2622.425;  223.375;    0.000
630.646; 2568.425;  177.375;    0.000
630.764; 2547.425;  224.375;    0.000
630.883; 2530.425;  220.375;    0.000
631.002; 2538.425;  187.375;    0.000
631.121; 2552.425;  208.375;    0.000
631.240; 2605.425;  217.375;    0.000
631.359; 2608.425;  241.375;    0.000
631.477; 2574.425;  189.375;    0.000
631.596; 2512.425;  244.375;    0.000
631.715; 2543.425;  241.375;    0.000
631.834; 2625.425;  219.375;    0.000
631.952; 2587.425;  231.375;    0.000
632.071; 2620.425;  197.375;    0.000
632.190; 2501.425;  193.375;    0.000
632.308; 2638.425;  185.375;    0.000
632.427; 2585.425;  188.375;    0.000
632.546; 2520.425;  208.375;    0.000
632.664; 2559.425;  191.375;    0.000
632.783; 2563.425;  201.375;    0.000
632.901; 2560.425;  239.375;    0.000
633.020; 2449.425;  197.375;    0.000
633.138; 2587.425;  189.375;    0.000
633.257; 2526.425;  210.375;    0.000
633.375; 2596.425;  213.375;    0.000
633.494; 2397.425;  206.375;    0.000
633.612; 2483.425;  231.375;    0.000
633.731; 2578.425;  213.375;    0.000
633.849; 2534.425;  244.375;    0.000
633.968; 2535.425;  251.375;    0.000
634.086; 2531.425;  224.375;    0.000
634.204; 2520.425;  212.375;    0.000
634.323; 2546.425;  213.375;    0.000
634.441; 2526.425;  219.375;    0.000
634.559; 2582.425;  198.375;    0.000
634.678; 2506.425;  201.375;    0.000
634.796; 2513.425;  179.375;    0.000
634.914; 2488.425;  255.375;    0.000
635.032; 2512.425;  264.375;    0.000
635.151; 2456.425;  228.375;    0.000
635.269; 2584.425;  223.375;    0.000
635.387; 2543.425;  228.375;    0.000
635.505; 2477.425;  214.375;    0.000
635.623; 2527.425;  279.375;    0.000
635.742; 2509.425;  237.375;    0.000
635.860; 2467.425;  244.375;    0.000
635.978; 2592.425;  213.375;    0.000
636.096; 2547.425;  230.375;    0.000
636.214; 2500.425;  252.375;    0.000
636.332; 2459.425;  221.375;    0.000
636.450; 2522.425;  227.375;    0.000
636.568; 2477.425;  193.375;    0.000
636.686; 2484.425;  208.375;    0.000
636.804; 2511.425;  213.375;    0.000
636.922; 2520.425;  199.375;    0.000
637.040; 2528.425;  202.375;    0.000
637.158; 2435.425;  239.375;    0.000
637.276; 2469.425;  225.375;    0.000
637.394; 2514.425;  217.375;    0.000
637.512; 2451.425;  192.375;    0.000
637.629; 2511.425;  216.375;    0.000
637.747; 2380.425;  198.375;    0.000
637.865; 2513.425;  265.375;    0.000
637.983; 2494.425;  245.375;    0.000
638.101; 2480.425;  199.375;    0.000
638.218; 2466.425;  197.375;    0.000
638.336; 2507.425;  212.375;    0.000
638.454; 2499.425;  227.375;    0.000
638.572; 2570.425;  215.375;    0.000
638.689; 2475.425;  214.375;    0.000
638.807; 2490.425;  233.375;    0.000
638.925; 2458.425;  217.375;    0.000
639.042; 2504.425;  180.375;    0.000
639.160; 2536.425;  220.375;    0.000
639.278; 2442.425;  180.375;    0.000
639.395; 2484.425;  243.375;    0.000
639.513; 2508.425;  207.375;    0.000
639.630; 2457.425;  183.375;    0.000
639.748; 2497.425;  231.375;    0.000
639.865; 2568.425;  215.375;    0.000
639.983; 2443.425;  182.375;    0.000
640.100; 2457.425;  190.375;    0.000
640.218; 2423.425;  224.375;    0.000
640.335; 2515.425;  214.375;    0.000
640.453; 2395.425;  212.375;    0.000
640.570; 2524.425;  224.375;    0.000
640.688; 2401.425;  220.375;    0.000
640.805; 2442.425;  189.375;    0.000
640.922; 2552.425;  256.375;    0.000
641.040; 2410.425;  209.375;    0.000
641.157; 2509.425;  195.375;    0.000
641.274; 2389.425;  195.375;    0.000
641.391; 2548.425;  231.375;    0.000
641.509; 2537.425;  207.375;    0.000
641.626; 2446.425;  227.375;    0.000
641.743; 2555.425;  188.375;    0.000
641.860; 2433.425;  208.375;    0.000
641.978; 2509.425;  222.375;    0.000
642.095; 2509.425;  194.375;    0.000
642.212; 2410.425;  202.375;    0.000
642.329; 2536.425;  241.375;    0.000
642.446; 2513.425;  261.375;    0.000
642.563; 2519.425;  236.375;    0.000
642.681; 2517.425;  228.375;    0.000
642.798; 2402.425;  242.375;    0.000
642.915; 2481.425;  197.375;    0.000
643.032; 2463.425;  239.375;    0.000
643.149; 2490.425;  241.375;    0.000
643.266; 2435.425;  199.375;    0.000
643.383; 2532.425;  200.375;    0.000
643.500; 2497.425;  221.375;    0.000
643.617; 2482.425;  196.375;    0.000
643.734; 2474.425;  207.375;    0.000
643.850; 2576.425;  222.375;    0.000
643.967; 2459.425;  235.375;    0.000
644.084; 2517.425;  233.375;    0.000
644.201; 2482.425;  229.375;    0.000
644.318; 2486.425;  210.375;    0.000
644.435; 2537.425;  234.375;    0.000
644.552; 2486.425;  220.375;    0.000
644.668; 2491.425;  231.375;    0.000
644.785; 2522.425;  231.375;    0.000
644.902; 2548.425;  238.375;    0.000
645.019; 2473.425;  226.375;    0.000
645.135; 2500.425;  179.375;    0.000
645.252; 2556.425;  224.375;    0.000
645.369; 2506.425;  206.375;    0.000
645.485; 2635.425;  200.375;    0.000
645.602; 2559.425;  210.375;    0.000
645.719; 2557.425;  206.375;    0.000
645.835; 2599.425;  247.375;    0.000
645.952; 2602.425;  222.375;    0.000
646.068; 2638.425;  205.375;    0.000
646.185; 2592.425;  230.375;    0.000
646.302; 2623.425;  254.375;    0.000
646.418; 2728.425;  230.375;    0.000
646.535; 2584.425;  214.375;    0.000
646.651; 2614.425;  179.375;    0.000
646.768; 2563.425;  190.375;    0.000
646.884; 2648.425;  208.375;    0.000
647.000; 2657.425;  262.375;    0.000
647.117; 2641.425;  212.375;    0.000
647.233; 2760.425;  228.375;    0.000
647.350; 2674.425;  208.375;    0.000
647.466; 2711.425;  211.375;    0.000
647.582; 2695.425;  196.375;    0.000
647.699; 2707.425;  217.375;    0.000
647.815; 2745.425;  203.375;    0.000
647.931; 2706.425;  201.375;    0.000
648.047; 2710.425;  182.375;    0.000
648.164; 2690.425;  219.375;    0.000
648.280; 2754.425;  213.375;    0.000
648.396; 2689.425;  202.375;    0.000
648.512; 2788.425;  233.375;    0.000
648.629; 2690.425;  206.375;    0.000
648.745; 2754.425;  188.375;    0.000
648.861; 2728.425;  209.375;    0.000
648.977; 2695.425;  218.375;    0.000
649.093; 2689.425;  225.375;    0.000
649.209; 2812.425;  240.375;    0.000
649.325; 2766.425;  253.375;    0.000
649.441; 2853.425;  263.375;    0.000
649.557; 2818.425;  256.375;    0.000
649.673; 2835.425;  211.375;    0.000
649.789; 2753.425;  237.375;    0.000
649.905; 2734.425;  183.375;    0.000
650.021; 2859.425;  238.375;    0.000
650.137; 2822.425;  241.375;    0.000
650.253; 2828.425;  228.375;    0.000
650.369; 2767.425;  221.375;    0.000
650.485; 2828.425;  240.375;    0.000
650.601; 2856.425;  254.375;    0.000
650.717; 2802.425;  201.375;    0.000
650.833; 2909.425;  257.375;    0.000
650.948; 2894.425;  213.375;    0.000
651.064; 2843.425;  223.375;    0.000
651.180; 2897.425;  230.375;    0.000
651.296; 2934.425;  235.375;    0.000
651.411; 2933.425;  221.375;    0.000
651.527; 2984.425;  233.375;    0.000
651.643; 2958.425;  236.375;    0.000
651.759; 3109.425;  268.375;    0.000
651.874; 3020.425;  214.375;    0.000
651.990; 3129.425;  251.375;    0.000
652.105; 3079.425;  217.375;    0.000
652.221; 3076.425;  243.375;    0.000
652.337; 3093.425;  231.375;    0.000
652.452; 3225.425;  238.375;    0.000
652.568; 3081.425;  188.375;    0.000
652.683; 3150.425;  197.375;    0.000
652.799; 3239.425;  194.375;    0.000
652.914; 3161.425;  222.375;    0.000
653.030; 3151.425;  200.375;    0.000
653.145; 3313.425;  235.375;    0.000
653.261; 3440.425;  261.375;    0.000
653.376; 3292.425;  228.375;    0.000
653.492; 3311.425;  222.375;    0.000
653.607; 3440.425;  227.375;    0.000
653.722; 3413.425;  250.375;    0.000
653.838; 3581.425;  255.375;    0.000
653.953; 3471.425;  235.375;    0.000
654.068; 3632.425;  266.375;    0.000
654.184; 3665.425;  210.375;    0.000
654.299; 3701.425;  240.375;    0.000
654.414; 3701.425;  222.375;    0.000
654.530; 3802.425;  222.375;    0.000
654.645; 3891.425;  256.375;    0.000
654.760; 3973.425;  244.375;    0.000
654.875; 4093.425;  229.375;    0.000
654.990; 4215.425;  226.375;    0.000
655.106; 4204.425;  254.375;    0.000
655.221; 4270.425;  251.375;    0.000
655.336; 4347.425;  245.375;    0.000
655.451; 4509.425;  199.375;    0.000
655.566; 4692.425;  228.375;    0.000
655.681; 4755.425;  208.375;    0.000
655.796; 4920.425;  218.375;    0.000
655.911; 5102.425;  233.375;    0.000
656.026; 5219.425;  232.375;    0.000
656.141; 5477.425;  223.375;    0.000
656.256; 5632.425;  247.375;    0.000
656.371; 5611.425;  220.375;    0.000
656.486; 5726.425;  225.375;    0.000
656.601; 5580.425;  257.375;    0.000
656.716; 5549.425;  248.375;    0.000
656.831; 5291.425;  262.375;    0.000
656.946; 5340.425;  249.375;    0.000
657.060; 5146.425;  245.375;    0.000
657.175; 5047.425;  245.375;    0.000
657.290; 4949.425;  219.375;    0.000
657.405; 4926.425;  286.375;    0.000
657.520; 4681.425;  259.375;    0.000
657.634; 4660.425;  239.375;    0.000
657.749; 4534.425;  227.375;    0.000
657.864; 4525.425;  210.375;    0.000
657.979; 4456.425;  236.375;    0.000
658.093; 4359.425;  210.375;    0.000
658.208; 4257.425;  248.375;    0.000
658.323; 4136.425;  216.375;    0.000
658.437; 4111.425;  248.375;    0.000
658.552; 4033.425;  249.375;    0.000
658.666; 4040.425;  256.375;    0.000
658.781; 3919.425;  247.375;    0.000
658.895; 3909.425;  209.375;    0.000
659.010; 3850.425;  219.375;    0.000
659.125; 3669.425;  215.375;    0.000
659.239; 3711.425;  205.375;    0.000
659.353; 3644.425;  246.375;    0.000
659.468; 3625.425;  245.375;    0.000
659.582; 3578.425;  244.375;    0.000
659.697; 3533.425;  242.375;    0.000
659.811; 3564.425;  239.375;    0.000
659.926; 3385.425;  226.375;    0.000
660.040; 3427.425;  255.375;    0.000
660.154; 3448.425;  225.375;    0.000
660.269; 3365.425;  200.375;    0.000
660.383; 3281.425;  192.375;    0.000
660.497; 3349.425;  218.375;    0.000
660.612; 3376.425;  236.375;    0.000
660.726; 3233.425;  263.375;    0.000
660.840; 3165.425;  205.375;    0.000
660.954; 3269.425;  219.375;    0.000
661.068; 3237.425;  240.375;    0.000
661.183; 3109.425;  221.375;    0.000
661.297; 3101.425;  194.375;    0.000
661.411; 2981.425;  253.375;    0.000
661.525; 3003.425;  246.375;    0.000
661.639; 2975.425;  217.375;    0.000
661.753; 3019.425;  241.375;    0.000
661.867; 2967.425;  276.375;    0.000
661.981; 2977.425;  203.375;    0.000
662.095; 2868.425;  224.375;    0.000
662.209; 2936.425;  217.375;    0.000
662.323; 2852.425;  251.375;    0.000
662.437; 2834.425;  243.375;    0.000
662.551; 2823.425;  244.375;    0.000
662.665; 2733.425;  247.375;    0.000
662.779; 2833.425;  251.375;    0.000
662.893; 2719.425;  254.375;    0.000
663.007; 2732.425;  222.375;    0.000
663.121; 2760.425;  253.375;    0.000
663.235; 2693.425;  270.375;    0.000
663.349; 2721.425;  242.375;    0.000
663.462; 2728.425;  230.375;    0.000
663.576; 2561.425;  230.375;    0.000
663.690; 2597.425;  249.375;    0.000
663.804; 2553.425;  200.375;    0.000
663.917; 2505.425;  204.375;    0.000
664.031; 2587.425;  206.375;    0.000
664.145; 2555.425;  202.375;    0.000
664.258; 2543.425;  221.375;    0.000
664.372; 2553.425;  215.375;    0.000
664.486; 2519.425;  179.375;    0.000
664.599; 2566.425;  208.375;    0.000
664.713; 2562.425;  268.375;    0.000
664.827; 2384.425;  225.375;    0.000
664.940; 2483.425;  222.375;    0.000
665.054; 2446.425;  208.375;    0.000
665.167; 2500.425;  253.375;    0.000
665.281; 2438.425;  237.375;    0.000
665.394; 2437.425;  227.375;    0.000
665.508; 2432.425;  192.375;    0.000
665.621; 2328.425;  175.375;    0.000
665.735; 2427.425;  249.375;    0.000
665.848; 2444.425;  197.375;    0.000
665.961; 2385.425;  206.375;    0.000
666.075; 2425.425;  245.375;    0.000
666.188; 2485.425;  230.375;    0.000
666.301; 2344.425;  219.375;    0.000
666.415; 2381.425;  231.375;    0.000
666.528; 2427.425;  258.375;    0.000
666.641; 2399.425;  243.375;    0.000
666.755; 2295.425;  208.375;    0.000
666.868; 2267.425;  228.375;    0.000
666.981; 2369.425;  244.375;    0.000
667.094; 2156.425;  244.375;    0.000
667.207; 2290.425;  226.375;    0.000
667.321; 2194.425;  175.375;    0.000
667.434; 2264.425;  211.375;    0.000
667.547; 2237.425;  249.375;    0.000
667.660; 2329.425;  225.375;    0.000
667.773; 2216.425;  242.375;    0.000
667.886; 2194.425;  246.375;    0.000
667.999; 2233.425;  244.375;    0.000
668.112; 2247.425;  227.375;    0.000
668.225; 2299.425;  231.375;    0.000
668.338; 2221.425;  256.375;    0.000
668.451; 2252.425;  216.375;    0.000
668.564; 2199.425;  261.375;    0.000
668.677; 2164.425;  230.375;    0.000
668.790; 2136.425;  192.375;    0.000
668.903; 2193.425;  243.375;    0.000
669.016; 2083.425;  201.375;    0.000
669.129; 2106.425;  249.375;    0.000
669.242; 2023.425;  190.375;    0.000
669.354; 2149.425;  219.375;    0.000
669.467; 2191.425;  242.375;    0.000
669.580; 2146.425;  237.375;    0.000
669.693; 2084.425;  243.375;    0.000
669.806; 2062.425;  234.375;    0.000
669.918; 2073.425;  206.375;    0.000
670.031; 2130.425;  258.375;    0.000
670.144; 2086.425;  231.375;    0.000
670.256; 2105.425;  244.375;    0.000
670.369; 2110.425;  262.375;    0.000
670.482; 2065.425;  264.375;    0.000
670.594; 2054.425;  256.375;    0.000
670.707; 2052.425;  224.375;    0.000
670.820; 2025.425;  261.375;    0.000
670.932; 2154.425;  226.375;    0.000
671.045; 2113.425;  243.375;    0.000
671.157; 2020.425;  235.375;    0.000
671.270; 2061.425;  217.375;    0.000
671.382; 2075.425;  267.375;    0.000
671.495; 2062.425;  258.375;    0.000
671.607; 2055.425;  236.375;    0.000
671.720; 1979.425;  200.375;    0.000
671.832; 1931.425;  219.375;    0.000
671.944; 2072.425;  234.375;    0.000
672.057; 2036.425;  226.375;    0.000
672.169; 2056.425;  225.375;    0.000
672.281; 2040.425;  253.375;    0.000
672.394; 2002.425;  238.375;    0.000
672.506; 1999.425;  244.375;    0.000
672.618; 1969.425;  272.375;    0.000
672.731; 1993.425;  247.375;    0.000
672.843; 2077.425;  261.375;    0.000
672.955; 2086.425;  262.375;    0.000
673.067; 2030.425;  253.375;    0.000
673.180; 2023.425;  239.375;    0.000
673.292; 2073.425;  240.375;    0.000
673.404; 1997.425;  243.375;    0.000
673.516; 2008.425;  258.375;    0.000
673.628; 1996.425;  263.375;    0.000
673.740; 1962.425;  250.375;    0.000
673.852; 2055.425;  285.375;    0.000
673.964; 2003.425;  264.375;    0.000
674.076; 1991.425;  260.375;    0.000
674.188; 1889.425;  226.375;    0.000
674.300; 1960.425;  272.375;    0.000
674.412; 1902.425;  259.375;    0.000
674.524; 2026.425;  283.375;    0.000
674.636; 1930.425;  259.375;    0.000
674.748; 1949.425;  238.375;    0.000
674.860; 1927.425;  277.375;    0.000
674.972; 1958.425;  272.375;    0.000
675.084; 1932.425;  244.375;    0.000
675.196; 1822.425;  272.375;    0.000
675.307; 1935.425;  244.375;    0.000
675.419; 1958.425;  219.375;    0.000
675.531; 1990.425;  275.375;    0.000
675.643; 1951.425;  215.375;    0.000
675.755; 1946.425;  243.375;    0.000
675.866; 1906.425;  223.375;    0.000
675.978; 1854.425;  216.375;    0.000
676.090; 1876.425;  242.375;    0.000
676.201; 1886.425;  276.375;    0.000
676.313; 1878.425;  226.375;    0.000
676.425; 1882.425;  234.375;    0.000
676.536; 1860.425;  231.375;    0.000
676.648; 1883.425;  254.375;    0.000
676.759; 1814.425;  273.375;    0.000
676.871; 1808.425;  250.375;    0.000
676.983; 1866.425;  256.375;    0.000
677.094; 1843.425;  210.375;    0.000
677.206; 1934.425;  248.375;    0.000
677.317; 1860.425;  263.375;    0.000
677.429; 1845.425;  238.375;    0.000
677.540; 1804.425;  247.375;    0.000
677.651; 1828.425;  224.375;    0.000
677.763; 1784.425;  217.375;    0.000
677.874; 1843.425;  234.375;    0.000
677.986; 1849.425;  238.375;    0.000
678.097; 1773.425;  226.375;    0.000
678.208; 1825.425;  253.375;    0.000
678.320; 1849.425;  217.375;    0.000
678.431; 1788.425;  238.375;    0.000
678.542; 1863.425;  236.375;    0.000
678.653; 1805.425;  218.375;    0.000
678.765; 1817.425;  275.375;    0.000
678.876; 1755.425;  213.375;    0.000
678.987; 1787.425;  182.375;    0.000
679.098; 1820.425;  221.375;    0.000
679.209; 1757.425;  238.375;    0.000
679.320; 1801.425;  212.375;    0.000
679.432; 1792.425;  231.375;    0.000
679.543; 1716.425;  198.375;    0.000
679.654; 1791.425;  191.375;    0.000
679.765; 1771.425;  214.375;    0.000
679.876; 1783.425;  221.375;    0.000
679.987; 1703.425;  162.375;    0.000
680.098; 1789.425;  230.375;    0.000
680.209; 1744.425;  206.375;    0.000
680.320; 1806.425;  196.375;    0.000
680.431; 1744.425;  191.375;    0.000
680.542; 1796.425;  214.375;    0.000
680.653; 1803.425;  238.375;    0.000
680.763; 1745.425;  182.375;    0.000
680.874; 1744.425;  213.375;    0.000
680.985; 1755.425;  224.375;    0.000
681.096; 1729.425;  222.375;    0.000
681.207; 1732.425;  220.375;    0.000
681.318; 1693.425;  216.375;    0.000
681.428; 1715.425;  229.375;    0.000
681.539; 1680.425;  183.375;    0.000
681.650; 1791.425;  202.375;    0.000
681.760; 1715.425;  223.375;    0.000
681.871; 1713.425;  211.375;    0.000
681.982; 1740.425;  189.375;    0.000
682.093; 1703.425;  222.375;    0.000
682.203; 1730.425;  220.375;    0.000
682.314; 1750.425;  214.375;    0.000
682.424; 1689.425;  208.375;    0.000
682.535; 1703.425;  213.375;    0.000
682.646; 1762.425;  302.375;    0.000
682.756; 1764.425;  255.375;    0.000
682.867; 1704.425;  244.375;    0.000
682.977; 1769.425;  221.375;    0.000
683.088; 1704.425;  259.375;    0.000
683.198; 1680.425;  212.375;    0.000
683.308; 1705.425;  202.375;    0.000
683.419; 1733.425;  255.375;    0.000
683.529; 1709.425;  217.375;    0.000
683.640; 1793.425;  240.375;    0.000
683.750; 1711.425;  181.375;    0.000
683.860; 1723.425;  246.375;    0.000
683.971; 1713.425;  254.375;    0.000
684.081; 1747.425;  235.375;    0.000
684.191; 1749.425;  251.375;    0.000
684.301; 1684.425;  233.375;    0.000
684.412; 1798.425;  202.375;    0.000
684.522; 1709.425;  232.375;    0.000
684.632; 1742.425;  202.375;    0.000
684.742; 1707.425;  254.375;    0.000
684.852; 1711.425;  219.375;    0.000
684.963; 1756.425;  256.375;    0.000
685.073; 1685.425;  253.375;    0.000
685.183; 1716.425;  254.375;    0.000
685.293; 1698.425;  232.375;    0.000
685.403; 1694.425;  242.375;    0.000
685.513; 1737.425;  261.375;    0.000
685.623; 1701.425;  245.375;    0.000
685.733; 1709.425;  254.375;    0.000
685.843; 1760.425;  249.375;    0.000
685.953; 1688.425;  252.375;    0.000
686.063; 1729.425;  227.375;    0.000
686.173; 1659.425;  223.375;    0.000
686.283; 1703.425;  234.375;    0.000
686.393; 1673.425;  239.375;    0.000
686.503; 1761.425;  231.375;    0.000
686.612; 1679.425;  232.375;    0.000
686.722; 1764.425;  258.375;    0.000
686.832; 1700.425;  256.375;    0.000
686.942; 1717.425;  230.375;    0.000
687.052; 1675.425;  274.375;    0.000
687.161; 1704.425;  269.375;    0.000
687.271; 1719.425;  218.375;    0.000
687.381; 1699.425;  235.375;    0.000
687.491; 1711.425;  262.375;    0.000
687.600; 1694.425;  256.375;    0.000
687.710; 1711.425;  225.375;    0.000
687.820; 1718.425;  230.375;    0.000
687.929; 1648.425;  226.375;    0.000
688.039; 1682.425;  228.375;    0.000
688.148; 1746.425;  249.375;    0.000
688.258; 1680.425;  237.375;    0.000
688.367; 1612.425;  260.375;    0.000
688.477; 1701.425;  200.375;    0.000
688.586; 1650.425;  223.375;    0.000
688.696; 1654.425;  223.375;    0.000
688.805; 1685.425;  257.375;    0.000
688.915; 1743.425;  185.375;    0.000
689.024; 1625.425;  227.375;    0.000
689.134; 1684.425;  224.375;    0.000
689.243; 1632.425;  206.375;    0.000
689.352; 1683.425;  275.375;    0.000
689.462; 1666.425;  233.375;    0.000
689.571; 1601.425;  244.375;    0.000
689.680; 1675.425;  261.375;    0.000
689.790; 1657.425;  192.375;    0.000
689.899; 1654.425;  214.375;    0.000
690.008; 1636.425;  255.375;    0.000
690.117; 1669.425;  219.375;    0.000
690.227; 1660.425;  241.375;    0.000
690.336; 1611.425;  231.375;    0.000
690.445; 1596.425;  212.375;    0.000
690.554; 1633.425;  234.375;    0.000
690.663; 1545.425;  210.375;    0.000
690.772; 1643.425;  221.375;    0.000
690.881; 1638.425;  244.375;    0.000
690.990; 1607.425;  247.375;    0.000
691.099; 1595.425;  222.375;    0.000
691.209; 1633.425;  240.375;    0.000
691.318; 1660.425;  223.375;    0.000
691.427; 1634.425;  217.375;    0.000
691.536; 1632.425;  216.375;    0.000
691.644; 1650.425;  194.375;    0.000
691.753; 1663.425;  221.375;    0.000
691.862; 1647.425;  224.375;    0.000
691.971; 1624.425;  191.375;    0.000
692.080; 1645.425;  247.375;    0.000
692.189; 1602.425;  208.375;    0.000
692.298; 1606.425;  203.375;    0.000
692.406; 1710.425;  239.375;    0.000
692.515; 1629.425;  250.375;    0.000
692.624; 1563.425;  226.375;    0.000
692.733; 1562.425;  229.375;    0.000
692.842; 1596.425;  254.375;    0.000
692.950; 1636.425;  242.375;    0.000
693.059; 1603.425;  204.375;    0.000
693.168; 1582.425;  252.375;    0.000
693.276; 1606.425;  195.375;    0.000
693.385; 1619.425;  228.375;    0.000
693.494; 1653.425;  282.375;    0.000
693.602; 1630.425;  221.375;    0.000
693.711; 1606.425;  225.375;    0.000
693.819; 1664.425;  234.375;    0.000
693.928; 1684.425;  229.375;    0.000
694.036; 1635.425;  192.375;    0.000
694.145; 1600.425;  233.375;    0.000
694.253; 1662.425;  277.375;    0.000
694.362; 1599.425;  188.375;    0.000
694.470; 1671.425;  263.375;    0.000
694.579; 1592.425;  253.375;    0.000
694.687; 1631.425;  281.375;    0.000
694.795; 1630.425;  233.375;    0.000
694.904; 1650.425;  223.375;    0.000
695.012; 1640.425;  296.375;    0.000
695.120; 1653.425;  227.375;    0.000
695.229; 1636.425;  269.375;    0.000
695.337; 1666.425;  229.375;    0.000
695.445; 1644.425;  244.375;    0.000
695.553; 1667.425;  259.375;    0.000
695.662; 1607.425;  208.375;    0.000
695.770; 1593.425;  241.375;    0.000
695.878; 1626.425;  239.375;    0.000
695.986; 1565.425;  247.375;    0.000
696.094; 1624.425;  224.375;    0.000
696.202; 1628.425;  205.375;    0.000
696.310; 1615.425;  217.375;    0.000
696.419; 1592.425;  228.375;    0.000
696.527; 1649.425;  246.375;    0.000
696.635; 1571.425;  245.375;    0.000
696.743; 1577.425;  233.375;    0.000
696.851; 1622.425;  251.375;    0.000
696.959; 1607.425;  257.375;    0.000
697.067; 1613.425;  260.375;    0.000
697.174; 1572.425;  223.375;    0.000
697.282; 1551.425;  239.375;    0.000
697.390; 1578.425;  264.375;    0.000
697.498; 1566.425;  227.375;    0.000
697.606; 1543.425;  243.375;    0.000
697.714; 1687.425;  256.375;    0.000
697.822; 1628.425;  278.375;    0.000
697.929; 1550.425;  227.375;    0.000
698.037; 1592.425;  232.375;    0.000
698.145; 1584.425;  256.375;    0.000
698.253; 1600.425;  245.375;    0.000
698.360; 1591.425;  282.375;    0.000
698.468; 1588.425;  244.375;    0.000
698.576; 1583.425;  279.375;    0.000
698.683; 1607.425;  259.375;    0.000
698.791; 1601.425;  265.375;    0.000
698.899; 1708.425;  250.375;    0.000
699.006; 1585.425;  245.375;    0.000
699.114; 1596.425;  280.375;    0.000
699.221; 1642.425;  240.375;    0.000
699.329; 1605.425;  293.375;    0.000
699.436; 1613.425;  216.375;    0.000
699.544; 1627.425;  269.375;    0.000
699.651; 1541.425;  219.375;    0.000
699.759; 1630.425;  245.375;    0.000
699.866; 1619.425;  261.375;    0.000
699.974; 1625.425;  245.375;    0.000
700.081; 1636.425;  257.375;    0.000
700.188; 1619.425;  268.375;    0.000
700.296; 1528.425;  225.375;    0.000
700.403; 1590.425;  257.375;    0.000
700.510; 1605.425;  267.375;    0.000
700.618; 1595.425;  299.375;    0.000
700.725; 1630.425;  223.375;    0.000
700.832; 1597.425;  233.375;    0.000
700.940; 1550.425;  255.375;    0.000
701.047; 1669.425;  244.375;    0.000
701.154; 1508.425;  248.375;    0.000
701.261; 1570.425;  264.375;    0.000
701.368; 1599.425;  299.375;    0.000
701.475; 1560.425;  264.375;    0.000
701.582; 1583.425;  275.375;    0.000
701.690; 1609.425;  261.375;    0.000
701.797; 1592.425;  273.375;    0.000
701.904; 1600.425;  320.375;    0.000
702.011; 1657.425;  299.375;    0.000
702.118; 1646.425;  292.375;    0.000
702.225; 1633.425;  317.375;    0.000
702.332; 1581.425;  307.375;    0.000
702.439; 1651.425;  313.375;    0.000
702.546; 1689.425;  312.375;    0.000
702.652; 1672.425;  297.375;    0.000
702.759; 1667.425;  345.375;    0.000
702.866; 1619.425;  330.375;    0.000
702.973; 1634.425;  303.375;    0.000
703.080; 1649.425;  303.375;    0.000
703.187; 1629.425;  327.375;    0.000
703.294; 1604.425;  325.375;    0.000
703.400; 1506.425;  302.375;    0.000
703.507;  496.425;  344.375;    0.000
703.614;  305.425;  294.375;    0.000
703.720;  323.425;  322.375;    0.000
703.827;  325.425;  329.375;    0.000
703.934;  324.425;  318.375;    0.000
704.040;  307.425;  299.375;    0.000
704.147;  333.425;  352.375;    0.000
704.254;  342.425;  350.375;    0.000
704.360;  321.425;  347.375;    0.000
704.467;  319.425;  336.375;    0.000
704.573;  340.425;  344.375;    0.000
704.680;  333.425;  365.375;    0.000
704.786;  352.425;  332.375;    0.000
704.893;  305.425;  304.375;    0.000
704.999;  288.425;  299.375;    0.000
705.106;  333.425;  365.375;    0.000

