
Integration time [ms]:   1.000
Averaging Nr. [scans]: 1
Smoothing Nr. [pixels]: 0
Data measured with spectrometer [name]: UV2
Wave   ;Sample   ;Dark     ;Reference
[nm]   ;[counts] ;[counts] ;[counts] 

353.533;  233.900;  216.475;    0.000
353.597;  196.900;  244.475;    0.000
353.660;  210.900;  181.475;    0.000
353.723;  190.900;  203.475;    0.000
353.786;  196.900;  180.475;    0.000
353.850;  219.900;  213.475;    0.000
353.913;  195.900;  191.475;    0.000
353.976;  204.900;  195.475;    0.000
354.039;  196.900;  158.475;    0.000
354.102;  223.900;  199.475;    0.000
354.166;  230.900;  185.475;    0.000
354.229;  212.900;  188.475;    0.000
354.292;  181.900;  188.475;    0.000
354.355;  175.900;  226.475;    0.000
354.418;  188.900;  158.475;    0.000
354.481;  218.900;  185.475;    0.000
354.545;  661.900;  191.475;    0.000
354.608;  699.900;  247.475;    0.000
354.671;  690.900;  176.475;    0.000
354.734;  697.900;  198.475;    0.000
354.797;  650.900;  195.475;    0.000
354.860;  693.900;  212.475;    0.000
354.923;  686.900;  184.475;    0.000
354.986;  730.900;  169.475;    0.000
355.050;  749.900;  206.475;    0.000
355.113;  758.900;  210.475;    0.000
355.176;  749.900;  217.475;    0.000
355.239;  808.900;  201.475;    0.000
355.302;  732.900;  193.475;    0.000
355.365;  865.900;  234.475;    0.000
355.428;  814.900;  182.475;    0.000
355.491;  833.900;  233.475;    0.000
355.554;  815.900;  167.475;    0.000
355.617;  757.900;  195.475;    0.000
355.680;  751.900;  198.475;    0.000
355.743;  792.900;  186.475;    0.000
355.806;  793.900;  171.475;    0.000
355.869;  842.900;  244.475;    0.000
355.932;  827.900;  164.475;    0.000
355.995;  898.900;  220.475;    0.000
356.058;  853.900;  172.475;    0.000
356.121;  885.900;  228.475;    0.000
356.184;  892.900;  225.475;    0.000
356.247;  890.900;  161.475;    0.000
356.310;  854.900;  195.475;    0.000
356.373;  905.900;  191.475;    0.000
356.436;  865.900;  147.475;    0.000
356.498;  881.900;  183.475;    0.000
356.561;  834.900;  137.475;    0.000
356.624;  952.900;  186.475;    0.000
356.687;  923.900;  158.475;    0.000
356.750;  937.900;  194.475;    0.000
356.813;  915.900;  186.475;    0.000
356.876;  900.900;  161.475;    0.000
356.939;  843.900;  188.475;    0.000
357.001;  918.900;  200.475;    0.000
357.064;  919.900;  182.475;    0.000
357.127;  918.900;  168.475;    0.000
357.190;  901.900;  157.475;    0.000
357.253;  912.900;  199.475;    0.000
357.316;  954.900;  187.475;    0.000
357.378;  890.900;  174.475;    0.000
357.441;  878.900;  165.475;    0.000
357.504;  923.900;  189.475;    0.000
357.567;  839.900;  116.475;    0.000
357.629;  894.900;  176.475;    0.000
357.692;  886.900;  134.475;    0.000
357.755;  940.900;  175.475;    0.000
357.818;  906.900;  159.475;    0.000
357.880;  938.900;  185.475;    0.000
357.943;  950.900;  159.475;    0.000
358.006;  964.900;  176.475;    0.000
358.069;  955.900;  156.475;    0.000
358.131;  950.900;  170.475;    0.000
358.194;  882.900;  125.475;    0.000
358.257;  918.900;  186.475;    0.000
358.319;  975.900;  139.475;    0.000
358.382;  996.900;  175.475;    0.000
358.445; 1002.900;  170.475;    0.000
358.507;  956.900;  129.475;    0.000
358.570;  982.900;  168.475;    0.000
358.633; 1026.900;  152.475;    0.000
358.695;  965.900;  194.475;    0.000
358.758;  938.900;  154.475;    0.000
358.821;  895.900;  147.475;    0.000
358.883;  968.900;  163.475;    0.000
358.946;  960.900;  155.475;    0.000
359.008; 1041.900;  208.475;    0.000
359.071;  968.900;  182.475;    0.000
359.134;  970.900;  126.475;    0.000
359.196;  945.900;  142.475;    0.000
359.259; 1009.900;  138.475;    0.000
359.321; 1035.900;  153.475;    0.000
359.384; 1003.900;  186.475;    0.000
359.446;  976.900;  152.475;    0.000
359.509;  957.900;  144.475;    0.000
359.571;  979.900;  164.475;    0.000
359.634;  964.900;  171.475;    0.000
359.696; 1040.900;  144.475;    0.000
359.759;  979.900;  171.475;    0.000
359.821;  993.900;  161.475;    0.000
359.884; 1050.900;  159.475;    0.000
359.946; 1103.900;  186.475;    0.000
360.009; 1021.900;  171.475;    0.000
360.071;  992.900;  166.475;    0.000
360.134; 1053.900;  215.475;    0.000
360.196; 1032.900;  138.475;    0.000
360.259; 1064.900;  196.475;    0.000
360.321; 1039.900;  148.475;    0.000
360.384;  983.900;  150.475;    0.000
360.446; 1045.900;  148.475;    0.000
360.508;  999.900;  172.475;    0.000
360.571; 1045.900;  155.475;    0.000
360.633; 1040.900;  153.475;    0.000
360.696;  964.900;  142.475;    0.000
360.758; 1023.900;  165.475;    0.000
360.820; 1060.900;  155.475;    0.000
360.883; 1011.900;  156.475;    0.000
360.945; 1049.900;  171.475;    0.000
361.007; 1089.900;  138.475;    0.000
361.070; 1092.900;  129.475;    0.000
361.132; 1129.900;  166.475;    0.000
361.194; 1056.900;  143.475;    0.000
361.257; 1039.900;  154.475;    0.000
361.319; 1105.900;  176.475;    0.000
361.381; 1081.900;  143.475;    0.000
361.443; 1059.900;  136.475;    0.000
361.506; 1107.900;  160.475;    0.000
361.568; 1004.900;  140.475;    0.000
361.630; 1053.900;  159.475;    0.000
361.693; 1135.900;  162.475;    0.000
361.755; 1106.900;  185.475;    0.000
361.817; 1136.900;  209.475;    0.000
361.879; 1101.900;  161.475;    0.000
361.941; 1107.900;  152.475;    0.000
362.004; 1044.900;  132.475;    0.000
362.066; 1102.900;  159.475;    0.000
362.128; 1127.900;  143.475;    0.000
362.190; 1105.900;  131.475;    0.000
362.252; 1098.900;  131.475;    0.000
362.315; 1103.900;  175.475;    0.000
362.377; 1056.900;  140.475;    0.000
362.439; 1090.900;  140.475;    0.000
362.501; 1125.900;  140.475;    0.000
362.563; 1140.900;  152.475;    0.000
362.625; 1122.900;  174.475;    0.000
362.688; 1057.900;  195.475;    0.000
362.750; 1176.900;  221.475;    0.000
362.812; 1121.900;  171.475;    0.000
362.874; 1079.900;  117.475;    0.000
362.936; 1144.900;  162.475;    0.000
362.998; 1103.900;  142.475;    0.000
363.060; 1153.900;  143.475;    0.000
363.122; 1107.900;  148.475;    0.000
363.184; 1168.900;  179.475;    0.000
363.246; 1147.900;  186.475;    0.000
363.308; 1164.900;  180.475;    0.000
363.370; 1173.900;  200.475;    0.000
363.432; 1126.900;  139.475;    0.000
363.494; 1117.900;  138.475;    0.000
363.556; 1160.900;  114.475;    0.000
363.618; 1125.900;  153.475;    0.000
363.680; 1117.900;  153.475;    0.000
363.742; 1192.900;  178.475;    0.000
363.804; 1161.900;  214.475;    0.000
363.866; 1179.900;  170.475;    0.000
363.928; 1149.900;  145.475;    0.000
363.990; 1165.900;  215.475;    0.000
364.052; 1181.900;  166.475;    0.000
364.114; 1113.900;  168.475;    0.000
364.176; 1222.900;  176.475;    0.000
364.238; 1163.900;  203.475;    0.000
364.300; 1213.900;  158.475;    0.000
364.362; 1187.900;  152.475;    0.000
364.424; 1107.900;  119.475;    0.000
364.486; 1170.900;  187.475;    0.000
364.548; 1190.900;  180.475;    0.000
364.609; 1179.900;  212.475;    0.000
364.671; 1146.900;  165.475;    0.000
364.733; 1152.900;  190.475;    0.000
364.795; 1176.900;  148.475;    0.000
364.857; 1200.900;  159.475;    0.000
364.919; 1144.900;  159.475;    0.000
364.981; 1222.900;  191.475;    0.000
365.042; 1177.900;  170.475;    0.000
365.104; 1177.900;  145.475;    0.000
365.166; 1145.900;  134.475;    0.000
365.228; 1195.900;  150.475;    0.000
365.290; 1160.900;  158.475;    0.000
365.351; 1241.900;  168.475;    0.000
365.413; 1215.900;  173.475;    0.000
365.475; 1209.900;  172.475;    0.000
365.537; 1194.900;  126.475;    0.000
365.598; 1199.900;  160.475;    0.000
365.660; 1185.900;  127.475;    0.000
365.722; 1252.900;  189.475;    0.000
365.784; 1141.900;  161.475;    0.000
365.845; 1146.900;  152.475;    0.000
365.907; 1204.900;  117.475;    0.000
365.969; 1225.900;  146.475;    0.000
366.030; 1197.900;  171.475;    0.000
366.092; 1179.900;  155.475;    0.000
366.154; 1214.900;  137.475;    0.000
366.215; 1235.900;  147.475;    0.000
366.277; 1193.900;  148.475;    0.000
366.339; 1199.900;  158.475;    0.000
366.400; 1196.900;  140.475;    0.000
366.462; 1204.900;  159.475;    0.000
366.524; 1250.900;  160.475;    0.000
366.585; 1207.900;  157.475;    0.000
366.647; 1224.900;  170.475;    0.000
366.708; 1141.900;  123.475;    0.000
366.770; 1205.900;  194.475;    0.000
366.832; 1224.900;  191.475;    0.000
366.893; 1162.900;  155.475;    0.000
366.955; 1185.900;  132.475;    0.000
367.016; 1233.900;  126.475;    0.000
367.078; 1207.900;  202.475;    0.000
367.139; 1267.900;  116.475;    0.000
367.201; 1202.900;  134.475;    0.000
367.262; 1257.900;  157.475;    0.000
367.324; 1217.900;  202.475;    0.000
367.385; 1182.900;  118.475;    0.000
367.447; 1290.900;  155.475;    0.000
367.508; 1182.900;  134.475;    0.000
367.570; 1251.900;  165.475;    0.000
367.631; 1211.900;  118.475;    0.000
367.693; 1204.900;  170.475;    0.000
367.754; 1250.900;  154.475;    0.000
367.816; 1172.900;  146.475;    0.000
367.877; 1272.900;  175.475;    0.000
367.939; 1226.900;  200.475;    0.000
368.000; 1237.900;  168.475;    0.000
368.062; 1222.900;  138.475;    0.000
368.123; 1271.900;  170.475;    0.000
368.184; 1233.900;  188.475;    0.000
368.246; 1290.900;  145.475;    0.000
368.307; 1281.900;  163.475;    0.000
368.369; 1220.900;  144.475;    0.000
368.430; 1272.900;  140.475;    0.000
368.491; 1263.900;  133.475;    0.000
368.553; 1286.900;  145.475;    0.000
368.614; 1231.900;  158.475;    0.000
368.675; 1215.900;  147.475;    0.000
368.737; 1337.900;  157.475;    0.000
368.798; 1270.900;  163.475;    0.000
368.859; 1238.900;  173.475;    0.000
368.921; 1260.900;  122.475;    0.000
368.982; 1324.900;  184.475;    0.000
369.043; 1327.900;  169.475;    0.000
369.104; 1268.900;  142.475;    0.000
369.166; 1254.900;  169.475;    0.000
369.227; 1317.900;  156.475;    0.000
369.288; 1301.900;  151.475;    0.000
369.349; 1236.900;  191.475;    0.000
369.411; 1287.900;  168.475;    0.000
369.472; 1280.900;  155.475;    0.000
369.533; 1289.900;  149.475;    0.000
369.594; 1249.900;  174.475;    0.000
369.656; 1247.900;  188.475;    0.000
369.717; 1204.900;  113.475;    0.000
369.778; 1303.900;  184.475;    0.000
369.839; 1291.900;  151.475;    0.000
369.900; 1251.900;  180.475;    0.000
369.961; 1222.900;  171.475;    0.000
370.023; 1301.900;  143.475;    0.000
370.084; 1282.900;  137.475;    0.000
370.145; 1324.900;  152.475;    0.000
370.206; 1276.900;  151.475;    0.000
370.267; 1256.900;  134.475;    0.000
370.328; 1327.900;  178.475;    0.000
370.389; 1344.900;  181.475;    0.000
370.451; 1297.900;  169.475;    0.000
370.512; 1255.900;  172.475;    0.000
370.573; 1355.900;  148.475;    0.000
370.634; 1292.900;  156.475;    0.000
370.695; 1315.900;  151.475;    0.000
370.756; 1303.900;  185.475;    0.000
370.817; 1376.900;  185.475;    0.000
370.878; 1372.900;  191.475;    0.000
370.939; 1335.900;  147.475;    0.000
371.000; 1286.900;  162.475;    0.000
371.061; 1364.900;  145.475;    0.000
371.122; 1335.900;  179.475;    0.000
371.183; 1301.900;  114.475;    0.000
371.244; 1318.900;  180.475;    0.000
371.305; 1372.900;  138.475;    0.000
371.366; 1335.900;  157.475;    0.000
371.427; 1328.900;  148.475;    0.000
371.488; 1319.900;  138.475;    0.000
371.549; 1336.900;  193.475;    0.000
371.610; 1335.900;  158.475;    0.000
371.671; 1338.900;  119.475;    0.000
371.732; 1353.900;  159.475;    0.000
371.793; 1384.900;  178.475;    0.000
371.853; 1293.900;  155.475;    0.000
371.914; 1342.900;  148.475;    0.000
371.975; 1332.900;  124.475;    0.000
372.036; 1357.900;  158.475;    0.000
372.097; 1301.900;  136.475;    0.000
372.158; 1365.900;  116.475;    0.000
372.219; 1314.900;  157.475;    0.000
372.280; 1393.900;  151.475;    0.000
372.340; 1375.900;  190.475;    0.000
372.401; 1361.900;  151.475;    0.000
372.462; 1309.900;  129.475;    0.000
372.523; 1394.900;  121.475;    0.000
372.584; 1419.900;  152.475;    0.000
372.645; 1374.900;  132.475;    0.000
372.705; 1387.900;  190.475;    0.000
372.766; 1375.900;  153.475;    0.000
372.827; 1334.900;  133.475;    0.000
372.888; 1438.900;  161.475;    0.000
372.948; 1386.900;  159.475;    0.000
373.009; 1380.900;  164.475;    0.000
373.070; 1348.900;  139.475;    0.000
373.131; 1358.900;  137.475;    0.000
373.191; 1446.900;  181.475;    0.000
373.252; 1334.900;  154.475;    0.000
373.313; 1385.900;  179.475;    0.000
373.373; 1337.900;  136.475;    0.000
373.434; 1366.900;  169.475;    0.000
373.495; 1332.900;   97.475;    0.000
373.555; 1354.900;  142.475;    0.000
373.616; 1321.900;  178.475;    0.000
373.677; 1351.900;  167.475;    0.000
373.737; 1370.900;  139.475;    0.000
373.798; 1325.900;  155.475;    0.000
373.859; 1364.900;  162.475;    0.000
373.919; 1435.900;  174.475;    0.000
373.980; 1386.900;  172.475;    0.000
374.041; 1372.900;  166.475;    0.000
374.101; 1381.900;  172.475;    0.000
374.162; 1361.900;  188.475;    0.000
374.222; 1432.900;  186.475;    0.000
374.283; 1472.900;  195.475;    0.000
374.343; 1443.900;  204.475;    0.000
374.404; 1407.900;  187.475;    0.000
374.465; 1449.900;  183.475;    0.000
374.525; 1379.900;  136.475;    0.000
374.586; 1483.900;  140.475;    0.000
374.646; 1510.900;  191.475;    0.000
374.707; 1514.900;  208.475;    0.000
374.767; 1401.900;  178.475;    0.000
374.828; 1460.900;  159.475;    0.000
374.888; 1354.900;  143.475;    0.000
374.949; 1466.900;  202.475;    0.000
375.009; 1450.900;  151.475;    0.000
375.070; 1425.900;  160.475;    0.000
375.130; 1477.900;  160.475;    0.000
375.190; 1402.900;  164.475;    0.000
375.251; 1476.900;  196.475;    0.000
375.311; 1426.900;  154.475;    0.000
375.372; 1429.900;  197.475;    0.000
375.432; 1459.900;  159.475;    0.000
375.493; 1502.900;  197.475;    0.000
375.553; 1417.900;  165.475;    0.000
375.613; 1508.900;  174.475;    0.000
375.674; 1475.900;  165.475;    0.000
375.734; 1462.900;  128.475;    0.000
375.794; 1424.900;  169.475;    0.000
375.855; 1489.900;  193.475;    0.000
375.915; 1433.900;  162.475;    0.000
375.975; 1410.900;  181.475;    0.000
376.036; 1480.900;  161.475;    0.000
376.096; 1443.900;  131.475;    0.000
376.156; 1447.900;  165.475;    0.000
376.217; 1425.900;  182.475;    0.000
376.277; 1526.900;  185.475;    0.000
376.337; 1447.900;  177.475;    0.000
376.398; 1446.900;  162.475;    0.000
376.458; 1538.900;  179.475;    0.000
376.518; 1477.900;  150.475;    0.000
376.578; 1496.900;  165.475;    0.000
376.639; 1454.900;  159.475;    0.000
376.699; 1518.900;  180.475;    0.000
376.759; 1458.900;  206.475;    0.000
376.819; 1437.900;  146.475;    0.000
376.880; 1481.900;  177.475;    0.000
376.940; 1462.900;  160.475;    0.000
377.000; 1484.900;  149.475;    0.000
377.060; 1526.900;  180.475;    0.000
377.120; 1545.900;  146.475;    0.000
377.180; 1575.900;  137.475;    0.000
377.241; 1506.900;  163.475;    0.000
377.301; 1599.900;  169.475;    0.000
377.361; 1544.900;  137.475;    0.000
377.421; 1615.900;  184.475;    0.000
377.481; 1484.900;  185.475;    0.000
377.541; 1520.900;  146.475;    0.000
377.601; 1560.900;  179.475;    0.000
377.661; 1601.900;  181.475;    0.000
377.722; 1546.900;  185.475;    0.000
377.782; 1521.900;  147.475;    0.000
377.842; 1667.900;  190.475;    0.000
377.902; 1615.900;  166.475;    0.000
377.962; 1573.900;  153.475;    0.000
378.022; 1534.900;  163.475;    0.000
378.082; 1567.900;  146.475;    0.000
378.142; 1582.900;  152.475;    0.000
378.202; 1602.900;  164.475;    0.000
378.262; 1633.900;  195.475;    0.000
378.322; 1620.900;  190.475;    0.000
378.382; 1598.900;  152.475;    0.000
378.442; 1586.900;  175.475;    0.000
378.502; 1578.900;  153.475;    0.000
378.562; 1641.900;  142.475;    0.000
378.622; 1655.900;  166.475;    0.000
378.682; 1622.900;  173.475;    0.000
378.742; 1696.900;  182.475;    0.000
378.802; 1702.900;  145.475;    0.000
378.862; 1681.900;  210.475;    0.000
378.921; 1638.900;  182.475;    0.000
378.981; 1656.900;  185.475;    0.000
379.041; 1659.900;  130.475;    0.000
379.101; 1728.900;  177.475;    0.000
379.161; 1659.900;  166.475;    0.000
379.221; 1748.900;  162.475;    0.000
379.281; 1697.900;  167.475;    0.000
379.341; 1740.900;  136.475;    0.000
379.401; 1725.900;  145.475;    0.000
379.460; 1738.900;  176.475;    0.000
379.520; 1741.900;  162.475;    0.000
379.580; 1691.900;  144.475;    0.000
379.640; 1695.900;  163.475;    0.000
379.700; 1757.900;  157.475;    0.000
379.759; 1794.900;  165.475;    0.000
379.819; 1727.900;  190.475;    0.000
379.879; 1722.900;  143.475;    0.000
379.939; 1764.900;  188.475;    0.000
379.999; 1777.900;  141.475;    0.000
380.058; 1904.900;  169.475;    0.000
380.118; 1808.900;  158.475;    0.000
380.178; 1822.900;  114.475;    0.000
380.237; 1867.900;  157.475;    0.000
380.297; 1899.900;  177.475;    0.000
380.357; 1871.900;  189.475;    0.000
380.417; 1931.900;  182.475;    0.000
380.476; 1766.900;  178.475;    0.000
380.536; 1882.900;  189.475;    0.000
380.596; 1868.900;  183.475;    0.000
380.655; 1978.900;  195.475;    0.000
380.715; 1908.900;  170.475;    0.000
380.775; 1890.900;  170.475;    0.000
380.834; 1904.900;  179.475;    0.000
380.894; 1915.900;  188.475;    0.000
380.954; 1856.900;  142.475;    0.000
381.013; 1985.900;  178.475;    0.000
381.073; 1868.900;  164.475;    0.000
381.132; 1969.900;  192.475;    0.000
381.192; 1930.900;  187.475;    0.000
381.252; 1987.900;  176.475;    0.000
381.311; 1995.900;  206.475;    0.000
381.371; 2091.900;  167.475;    0.000
381.430; 2025.900;  131.475;    0.000
381.490; 2062.900;  150.475;    0.000
381.549; 2022.900;  129.475;    0.000
381.609; 2050.900;  178.475;    0.000
381.668; 1964.900;  194.475;    0.000
381.728; 2093.900;  210.475;    0.000
381.787; 2116.900;  190.475;    0.000
381.847; 2164.900;  181.475;    0.000
381.906; 2118.900;  156.475;    0.000
381.966; 2145.900;  176.475;    0.000
382.025; 2155.900;  186.475;    0.000
382.085; 2195.900;  192.475;    0.000
382.144; 2263.900;  173.475;    0.000
382.204; 2282.900;  207.475;    0.000
382.263; 2359.900;  193.475;    0.000
382.323; 2328.900;  164.475;    0.000
382.382; 2358.900;  161.475;    0.000
382.441; 2496.900;  199.475;    0.000
382.501; 2462.900;  208.475;    0.000
382.560; 2558.900;  173.475;    0.000
382.619; 2623.900;  179.475;    0.000
382.679; 2808.900;  177.475;    0.000
382.738; 3011.900;  190.475;    0.000
382.798; 3104.900;  213.475;    0.000
382.857; 3468.900;  195.475;    0.000
382.916; 3798.900;  184.475;    0.000
382.976; 3979.900;  169.475;    0.000
383.035; 3734.900;  194.475;    0.000
383.094; 3923.900;  185.475;    0.000
383.154; 4273.900;  198.475;    0.000
383.213; 4894.900;  147.475;    0.000
383.272; 4820.900;  175.475;    0.000
383.331; 3994.900;  122.475;    0.000
383.391; 3592.900;  185.475;    0.000
383.450; 3487.900;  160.475;    0.000
383.509; 3472.900;  168.475;    0.000
383.568; 3625.900;  196.475;    0.000
383.628; 3806.900;  156.475;    0.000
383.687; 4153.900;  171.475;    0.000
383.746; 4782.900;  155.475;    0.000
383.805; 5583.900;  201.475;    0.000
383.864; 5521.900;  125.475;    0.000
383.924; 4318.900;  213.475;    0.000
383.983; 3467.900;  188.475;    0.000
384.042; 3216.900;  162.475;    0.000
384.101; 3010.900;  183.475;    0.000
384.160; 2757.900;  155.475;    0.000
384.219; 2700.900;  155.475;    0.000
384.279; 2614.900;  189.475;    0.000
384.338; 2503.900;  156.475;    0.000
384.397; 2436.900;  148.475;    0.000
384.456; 2351.900;  154.475;    0.000
384.515; 2413.900;  160.475;    0.000
384.574; 2346.900;  223.475;    0.000
384.633; 2282.900;  133.475;    0.000
384.692; 2287.900;  163.475;    0.000
384.751; 2230.900;  186.475;    0.000
384.810; 2283.900;  187.475;    0.000
384.869; 2204.900;  172.475;    0.000
384.929; 2208.900;  153.475;    0.000
384.988; 2172.900;  174.475;    0.000
385.047; 2146.900;  154.475;    0.000
385.106; 2244.900;  164.475;    0.000
385.165; 2189.900;  151.475;    0.000
385.224; 2165.900;  147.475;    0.000
385.283; 2153.900;  176.475;    0.000
385.342; 2100.900;  142.475;    0.000
385.401; 2157.900;  175.475;    0.000
385.459; 2187.900;  150.475;    0.000
385.518; 2149.900;  124.475;    0.000
385.577; 2149.900;  115.475;    0.000
385.636; 2207.900;  174.475;    0.000
385.695; 2225.900;  158.475;    0.000
385.754; 2132.900;  150.475;    0.000
385.813; 2139.900;  129.475;    0.000
385.872; 2115.900;  146.475;    0.000
385.931; 2136.900;  194.475;    0.000
385.990; 2227.900;  174.475;    0.000
386.049; 2129.900;  176.475;    0.000
386.107; 2168.900;  151.475;    0.000
386.166; 2010.900;  178.475;    0.000
386.225; 2171.900;  162.475;    0.000
386.284; 2114.900;  180.475;    0.000
386.343; 2183.900;  171.475;    0.000
386.402; 2137.900;  176.475;    0.000
386.460; 2068.900;  144.475;    0.000
386.519; 2130.900;  140.475;    0.000
386.578; 2156.900;  145.475;    0.000
386.637; 2088.900;  164.475;    0.000
386.696; 2033.900;  189.475;    0.000
386.754; 2131.900;  135.475;    0.000
386.813; 2092.900;  139.475;    0.000
386.872; 2069.900;  121.475;    0.000
386.931; 2081.900;  153.475;    0.000
386.989; 2221.900;  211.475;    0.000
387.048; 2020.900;  156.475;    0.000
387.107; 2173.900;  210.475;    0.000
387.165; 2079.900;  129.475;    0.000
387.224; 2033.900;  205.475;    0.000
387.283; 2117.900;  130.475;    0.000
387.342; 2147.900;  171.475;    0.000
387.400; 2009.900;  156.475;    0.000
387.459; 2040.900;  141.475;    0.000
387.517; 2063.900;  219.475;    0.000
387.576; 1995.900;  166.475;    0.000
387.635; 2012.900;  136.475;    0.000
387.693; 2039.900;  191.475;    0.000
387.752; 2063.900;  165.475;    0.000
387.811; 1968.900;  158.475;    0.000
387.869; 2108.900;  204.475;    0.000
387.928; 1929.900;  149.475;    0.000
387.986; 1982.900;  156.475;    0.000
388.045; 2002.900;  123.475;    0.000
388.103; 2125.900;  150.475;    0.000
388.162; 1953.900;  173.475;    0.000
388.221; 2039.900;  143.475;    0.000
388.279; 2004.900;  129.475;    0.000
388.338; 2048.900;  212.475;    0.000
388.396; 2001.900;  150.475;    0.000
388.455; 2023.900;  167.475;    0.000
388.513; 2032.900;  116.475;    0.000
388.572; 2093.900;  181.475;    0.000
388.630; 2017.900;  187.475;    0.000
388.689; 1933.900;  180.475;    0.000
388.747; 1996.900;  154.475;    0.000
388.806; 1965.900;  161.475;    0.000
388.864; 1967.900;  167.475;    0.000
388.922; 1981.900;  184.475;    0.000
388.981; 2033.900;  169.475;    0.000
389.039; 1925.900;  102.475;    0.000
389.098; 2037.900;  183.475;    0.000
389.156; 2006.900;  182.475;    0.000
389.214; 2039.900;  173.475;    0.000
389.273; 2079.900;  167.475;    0.000
389.331; 1939.900;  170.475;    0.000
389.390; 1933.900;  150.475;    0.000
389.448; 1962.900;  156.475;    0.000
389.506; 2000.900;  149.475;    0.000
389.565; 2076.900;  162.475;    0.000
389.623; 2076.900;  188.475;    0.000
389.681; 1991.900;  204.475;    0.000
389.740; 1970.900;  187.475;    0.000
389.798; 2033.900;  153.475;    0.000
389.856; 1973.900;  214.475;    0.000
389.914; 1931.900;  177.475;    0.000
389.973; 1996.900;  189.475;    0.000
390.031; 1968.900;  178.475;    0.000
390.089; 1973.900;  163.475;    0.000
390.147; 1967.900;  170.475;    0.000
390.206; 1932.900;  183.475;    0.000
390.264; 1941.900;  161.475;    0.000
390.322; 1883.900;  148.475;    0.000
390.380; 1925.900;  138.475;    0.000
390.439; 1974.900;  194.475;    0.000
390.497; 1915.900;  170.475;    0.000
390.555; 1903.900;  165.475;    0.000
390.613; 1916.900;  177.475;    0.000
390.671; 1955.900;  170.475;    0.000
390.729; 1996.900;  158.475;    0.000
390.788; 1970.900;  162.475;    0.000
390.846; 1904.900;  161.475;    0.000
390.904; 1959.900;  197.475;    0.000
390.962; 1918.900;  212.475;    0.000
391.020; 2011.900;  224.475;    0.000
391.078; 1972.900;  184.475;    0.000
391.136; 1991.900;  191.475;    0.000
391.194; 1968.900;  187.475;    0.000
391.253; 1992.900;  197.475;    0.000
391.311; 1868.900;  185.475;    0.000
391.369; 2023.900;  207.475;    0.000
391.427; 2022.900;  222.475;    0.000
391.485; 1969.900;  184.475;    0.000
391.543; 1993.900;  203.475;    0.000
391.601; 2073.900;  151.475;    0.000
391.659; 1972.900;  176.475;    0.000
391.717; 1982.900;  190.475;    0.000
391.775; 1901.900;  159.475;    0.000
391.833; 2035.900;  186.475;    0.000
391.891; 2075.900;  154.475;    0.000
391.949; 2025.900;  181.475;    0.000
392.007; 2074.900;  190.475;    0.000
392.065; 2079.900;  182.475;    0.000
392.123; 2014.900;  158.475;    0.000
392.180; 2050.900;  198.475;    0.000
392.238; 2025.900;  191.475;    0.000
392.296; 2006.900;  164.475;    0.000
392.354; 2014.900;  172.475;    0.000
392.412; 2008.900;  194.475;    0.000
392.470; 1974.900;  154.475;    0.000
392.528; 2013.900;  172.475;    0.000
392.586; 2042.900;  179.475;    0.000
392.644; 2062.900;  173.475;    0.000
392.701; 2031.900;  202.475;    0.000
392.759; 2016.900;  180.475;    0.000
392.817; 1979.900;  181.475;    0.000
392.875; 1966.900;  168.475;    0.000
392.933; 2000.900;  161.475;    0.000
392.991; 2034.900;  216.475;    0.000
393.048; 2049.900;  197.475;    0.000
393.106; 2046.900;  199.475;    0.000
393.164; 2008.900;  173.475;    0.000
393.222; 2109.900;  179.475;    0.000
393.279; 2144.900;  209.475;    0.000
393.337; 2289.900;  185.475;    0.000
393.395; 2390.900;  174.475;    0.000
393.453; 2189.900;  181.475;    0.000
393.510; 2091.900;  188.475;    0.000
393.568; 2033.900;  191.475;    0.000
393.626; 2077.900;  151.475;    0.000
393.684; 2044.900;  208.475;    0.000
393.741; 2065.900;  179.475;    0.000
393.799; 2094.900;  149.475;    0.000
393.857; 2063.900;  136.475;    0.000
393.914; 2041.900;  190.475;    0.000
393.972; 2075.900;  155.475;    0.000
394.030; 2127.900;  170.475;    0.000
394.087; 2080.900;  213.475;    0.000
394.145; 2048.900;  191.475;    0.000
394.202; 2057.900;  188.475;    0.000
394.260; 2052.900;  168.475;    0.000
394.318; 2094.900;  176.475;    0.000
394.375; 2031.900;  159.475;    0.000
394.433; 2075.900;  168.475;    0.000
394.490; 1989.900;  163.475;    0.000
394.548; 2083.900;  163.475;    0.000
394.605; 2136.900;  181.475;    0.000
394.663; 2078.900;  180.475;    0.000
394.720; 2104.900;  193.475;    0.000
394.778; 2123.900;  168.475;    0.000
394.836; 2074.900;  128.475;    0.000
394.893; 2073.900;  151.475;    0.000
394.951; 2098.900;  173.475;    0.000
395.008; 2093.900;  201.475;    0.000
395.065; 2158.900;  139.475;    0.000
395.123; 2102.900;  173.475;    0.000
395.180; 2129.900;  144.475;    0.000
395.238; 2128.900;  135.475;    0.000
395.295; 2089.900;  167.475;    0.000
395.353; 2120.900;  150.475;    0.000
395.410; 2074.900;  165.475;    0.000
395.468; 2223.900;  223.475;    0.000
395.525; 2145.900;  156.475;    0.000
395.582; 2159.900;  178.475;    0.000
395.640; 2131.900;  178.475;    0.000
395.697; 2110.900;  173.475;    0.000
395.754; 2170.900;  154.475;    0.000
395.812; 2145.900;  169.475;    0.000
395.869; 2298.900;  196.475;    0.000
395.927; 2230.900;  190.475;    0.000
395.984; 2214.900;  195.475;    0.000
396.041; 2162.900;  160.475;    0.000
396.098; 2105.900;  161.475;    0.000
396.156; 2144.900;  187.475;    0.000
396.213; 2268.900;  200.475;    0.000
396.270; 2194.900;  160.475;    0.000
396.328; 2118.900;  113.475;    0.000
396.385; 2169.900;  165.475;    0.000
396.442; 2145.900;  168.475;    0.000
396.499; 2179.900;  117.475;    0.000
396.557; 2146.900;  203.475;    0.000
396.614; 2184.900;  155.475;    0.000
396.671; 2255.900;  187.475;    0.000
396.728; 2295.900;  169.475;    0.000
396.785; 2232.900;  167.475;    0.000
396.843; 2408.900;  154.475;    0.000
396.900; 2381.900;  172.475;    0.000
396.957; 2246.900;  176.475;    0.000
397.014; 2244.900;  193.475;    0.000
397.071; 2275.900;  170.475;    0.000
397.128; 2221.900;  172.475;    0.000
397.186; 2213.900;  205.475;    0.000
397.243; 2350.900;  163.475;    0.000
397.300; 2277.900;  193.475;    0.000
397.357; 2222.900;  166.475;    0.000
397.414; 2191.900;  149.475;    0.000
397.471; 2207.900;  157.475;    0.000
397.528; 2250.900;  180.475;    0.000
397.585; 2239.900;  203.475;    0.000
397.642; 2236.900;  156.475;    0.000
397.699; 2286.900;  229.475;    0.000
397.756; 2292.900;  185.475;    0.000
397.814; 2286.900;  191.475;    0.000
397.871; 2248.900;  170.475;    0.000
397.928; 2197.900;  191.475;    0.000
397.985; 2212.900;  183.475;    0.000
398.042; 2253.900;  161.475;    0.000
398.099; 2258.900;  192.475;    0.000
398.156; 2291.900;  176.475;    0.000
398.212; 2339.900;  170.475;    0.000
398.269; 2337.900;  158.475;    0.000
398.326; 2331.900;  175.475;    0.000
398.383; 2294.900;  177.475;    0.000
398.440; 2316.900;  169.475;    0.000
398.497; 2340.900;  184.475;    0.000
398.554; 2381.900;  196.475;    0.000
398.611; 2306.900;  198.475;    0.000
398.668; 2256.900;  135.475;    0.000
398.725; 2355.900;  181.475;    0.000
398.782; 2421.900;  195.475;    0.000
398.839; 2465.900;  179.475;    0.000
398.895; 2334.900;  188.475;    0.000
398.952; 2413.900;  176.475;    0.000
399.009; 2394.900;  183.475;    0.000
399.066; 2447.900;  190.475;    0.000
399.123; 2439.900;  174.475;    0.000
399.180; 2468.900;  191.475;    0.000
399.236; 2523.900;  217.475;    0.000
399.293; 2452.900;  154.475;    0.000
399.350; 2566.900;  210.475;    0.000
399.407; 2574.900;  202.475;    0.000
399.463; 2551.900;  162.475;    0.000
399.520; 2594.900;  207.475;    0.000
399.577; 2589.900;  174.475;    0.000
399.634; 2656.900;  170.475;    0.000
399.690; 2528.900;  186.475;    0.000
399.747; 2722.900;  218.475;    0.000
399.804; 2622.900;  200.475;    0.000
399.861; 2611.900;  190.475;    0.000
399.917; 2661.900;  218.475;    0.000
399.974; 2651.900;  200.475;    0.000
400.031; 2710.900;  200.475;    0.000
400.087; 2580.900;  153.475;    0.000
400.144; 2616.900;  188.475;    0.000
400.201; 2553.900;  198.475;    0.000
400.257; 2538.900;  205.475;    0.000
400.314; 2556.900;  183.475;    0.000
400.370; 2611.900;  227.475;    0.000
400.427; 2615.900;  177.475;    0.000
400.484; 2517.900;  202.475;    0.000
400.540; 2526.900;  173.475;    0.000
400.597; 2575.900;  212.475;    0.000
400.653; 2504.900;  182.475;    0.000
400.710; 2530.900;  201.475;    0.000
400.766; 2533.900;  188.475;    0.000
400.823; 2526.900;  205.475;    0.000
400.879; 2566.900;  165.475;    0.000
400.936; 2479.900;  180.475;    0.000
400.993; 2562.900;  181.475;    0.000
401.049; 2459.900;  147.475;    0.000
401.105; 2502.900;  205.475;    0.000
401.162; 2574.900;  197.475;    0.000
401.218; 2544.900;  177.475;    0.000
401.275; 2508.900;  183.475;    0.000
401.331; 2452.900;  198.475;    0.000
401.388; 2486.900;  209.475;    0.000
401.444; 2490.900;  211.475;    0.000
401.501; 2455.900;  185.475;    0.000
401.557; 2521.900;  190.475;    0.000
401.614; 2491.900;  172.475;    0.000
401.670; 2432.900;  185.475;    0.000
401.726; 2480.900;  196.475;    0.000
401.783; 2436.900;  187.475;    0.000
401.839; 2489.900;  192.475;    0.000
401.895; 2528.900;  173.475;    0.000
401.952; 2393.900;  145.475;    0.000
402.008; 2411.900;  197.475;    0.000
402.064; 2479.900;  146.475;    0.000
402.121; 2465.900;  197.475;    0.000
402.177; 2507.900;  173.475;    0.000
402.233; 2501.900;  185.475;    0.000
402.290; 2420.900;  175.475;    0.000
402.346; 2516.900;  164.475;    0.000
402.402; 2521.900;  173.475;    0.000
402.458; 2470.900;  183.475;    0.000
402.515; 2543.900;  147.475;    0.000
402.571; 2603.900;  210.475;    0.000
402.627; 2571.900;  181.475;    0.000
402.683; 2551.900;  177.475;    0.000
402.740; 2494.900;  162.475;    0.000
402.796; 2550.900;  178.475;    0.000
402.852; 2592.900;  138.475;    0.000
402.908; 2574.900;  181.475;    0.000
402.964; 2600.900;  151.475;    0.000
403.021; 2554.900;  170.475;    0.000
403.077; 2588.900;  204.475;    0.000
403.133; 2617.900;  144.475;    0.000
403.189; 2544.900;  207.475;    0.000
403.245; 2515.900;  184.475;    0.000
403.301; 2570.900;  170.475;    0.000
403.357; 2585.900;  201.475;    0.000
403.414; 2629.900;  205.475;    0.000
403.470; 2583.900;  170.475;    0.000
403.526; 2520.900;  135.475;    0.000
403.582; 2614.900;  180.475;    0.000
403.638; 2605.900;  185.475;    0.000
403.694; 2555.900;  169.475;    0.000
403.750; 2602.900;  210.475;    0.000
403.806; 2583.900;  210.475;    0.000
403.862; 2648.900;  219.475;    0.000
403.918; 2633.900;  191.475;    0.000
403.974; 2588.900;  193.475;    0.000
404.030; 2528.900;  154.475;    0.000
404.086; 2650.900;  170.475;    0.000
404.142; 2621.900;  194.475;    0.000
404.198; 2623.900;  224.475;    0.000
404.254; 2619.900;  177.475;    0.000
404.310; 2655.900;  204.475;    0.000
404.366; 2688.900;  170.475;    0.000
404.422; 2607.900;  172.475;    0.000
404.478; 2594.900;  153.475;    0.000
404.534; 2618.900;  159.475;    0.000
404.590; 2732.900;  203.475;    0.000
404.646; 2643.900;  164.475;    0.000
404.701; 2620.900;  141.475;    0.000
404.757; 2664.900;  195.475;    0.000
404.813; 2642.900;  152.475;    0.000
404.869; 2659.900;  174.475;    0.000
404.925; 2602.900;  167.475;    0.000
404.981; 2625.900;  175.475;    0.000
405.037; 2699.900;  170.475;    0.000
405.092; 2622.900;  155.475;    0.000
405.148; 2710.900;  160.475;    0.000
405.204; 2662.900;  158.475;    0.000
405.260; 2705.900;  128.475;    0.000
405.316; 2710.900;  168.475;    0.000
405.371; 2692.900;  162.475;    0.000
405.427; 2630.900;  187.475;    0.000
405.483; 2620.900;  214.475;    0.000
405.539; 2699.900;  163.475;    0.000
405.594; 2686.900;  191.475;    0.000
405.650; 2669.900;  124.475;    0.000
405.706; 2728.900;  188.475;    0.000
405.761; 2671.900;  204.475;    0.000
405.817; 2678.900;  150.475;    0.000
405.873; 2764.900;  152.475;    0.000
405.928; 2703.900;  135.475;    0.000
405.984; 2777.900;  209.475;    0.000
406.040; 2708.900;  165.475;    0.000
406.095; 2746.900;  146.475;    0.000
406.151; 2739.900;  169.475;    0.000
406.207; 2666.900;  174.475;    0.000
406.262; 2753.900;  189.475;    0.000
406.318; 2801.900;  141.475;    0.000
406.374; 2718.900;  178.475;    0.000
406.429; 2728.900;  197.475;    0.000
406.485; 2886.900;  194.475;    0.000
406.540; 2869.900;  149.475;    0.000
406.596; 2735.900;  173.475;    0.000
406.651; 2738.900;  154.475;    0.000
406.707; 2811.900;  183.475;    0.000
406.763; 2894.900;  156.475;    0.000
406.818; 2789.900;  181.475;    0.000
406.874; 2808.900;  135.475;    0.000
406.929; 2874.900;  194.475;    0.000
406.985; 2940.900;  166.475;    0.000
407.040; 2818.900;  207.475;    0.000
407.095; 2905.900;  213.475;    0.000
407.151; 2941.900;  198.475;    0.000
407.206; 2962.900;  186.475;    0.000
407.262; 2949.900;  148.475;    0.000
407.317; 3084.900;  212.475;    0.000
407.373; 3103.900;  209.475;    0.000
407.428; 2979.900;  218.475;    0.000
407.484; 3082.900;  158.475;    0.000
407.539; 2955.900;  165.475;    0.000
407.594; 3005.900;  197.475;    0.000
407.650; 2956.900;  177.475;    0.000
407.705; 3038.900;  154.475;    0.000
407.760; 3070.900;  198.475;    0.000
407.816; 2990.900;  181.475;    0.000
407.871; 3025.900;  185.475;    0.000
407.926; 3007.900;  167.475;    0.000
407.982; 3044.900;  172.475;    0.000
408.037; 3066.900;  202.475;    0.000
408.092; 2958.900;  201.475;    0.000
408.148; 3081.900;  199.475;    0.000
408.203; 2976.900;  174.475;    0.000
408.258; 3011.900;  157.475;    0.000
408.314; 3106.900;  194.475;    0.000
408.369; 2988.900;  189.475;    0.000
408.424; 3037.900;  204.475;    0.000
408.479; 2913.900;  192.475;    0.000
408.534; 2984.900;  215.475;    0.000
408.590; 2960.900;  190.475;    0.000
408.645; 2847.900;  159.475;    0.000
408.700; 3019.900;  191.475;    0.000
408.755; 2945.900;  217.475;    0.000
408.810; 2915.900;  158.475;    0.000
408.866; 2951.900;  166.475;    0.000
408.921; 2948.900;  214.475;    0.000
408.976; 3034.900;  158.475;    0.000
409.031; 2971.900;  185.475;    0.000
409.086; 2922.900;  158.475;    0.000
409.141; 2908.900;  180.475;    0.000
409.196; 2963.900;  188.475;    0.000
409.252; 2938.900;  186.475;    0.000
409.307; 2932.900;  135.475;    0.000
409.362; 2988.900;  162.475;    0.000
409.417; 2831.900;  149.475;    0.000
409.472; 2964.900;  205.475;    0.000
409.527; 3018.900;  184.475;    0.000
409.582; 2933.900;  174.475;    0.000
409.637; 2963.900;  188.475;    0.000
409.692; 3062.900;  211.475;    0.000
409.747; 2905.900;  159.475;    0.000
409.802; 2912.900;  199.475;    0.000
409.857; 2911.900;  118.475;    0.000
409.912; 2926.900;  177.475;    0.000
409.967; 2884.900;  182.475;    0.000
410.022; 2961.900;  188.475;    0.000
410.077; 2901.900;  204.475;    0.000
410.132; 2964.900;  174.475;    0.000
410.187; 2892.900;  169.475;    0.000
410.242; 2977.900;  178.475;    0.000
410.297; 2895.900;  185.475;    0.000
410.351; 2935.900;  203.475;    0.000
410.406; 3005.900;  180.475;    0.000
410.461; 2865.900;  213.475;    0.000
410.516; 2937.900;  198.475;    0.000
410.571; 2938.900;  171.475;    0.000
410.626; 2984.900;  186.475;    0.000
410.681; 3009.900;  187.475;    0.000
410.736; 2987.900;  147.475;    0.000
410.790; 3011.900;  186.475;    0.000
410.845; 2930.900;  152.475;    0.000
410.900; 2985.900;  202.475;    0.000
410.955; 2897.900;  196.475;    0.000
411.010; 2934.900;  150.475;    0.000
411.064; 2988.900;  200.475;    0.000
411.119; 2910.900;  203.475;    0.000
411.174; 3053.900;  176.475;    0.000
411.229; 2883.900;  203.475;    0.000
411.283; 2922.900;  176.475;    0.000
411.338; 3021.900;  153.475;    0.000
411.393; 2936.900;  168.475;    0.000
411.447; 2949.900;  223.475;    0.000
411.502; 2950.900;  238.475;    0.000
411.557; 2998.900;  179.475;    0.000
411.612; 2933.900;  159.475;    0.000
411.666; 3027.900;  189.475;    0.000
411.721; 2979.900;  212.475;    0.000
411.776; 3034.900;  242.475;    0.000
411.830; 2880.900;  194.475;    0.000
411.885; 3021.900;  188.475;    0.000
411.939; 3012.900;  245.475;    0.000
411.994; 2974.900;  177.475;    0.000
412.049; 3050.900;  170.475;    0.000
412.103; 3055.900;  196.475;    0.000
412.158; 3055.900;  215.475;    0.000
412.212; 3045.900;  199.475;    0.000
412.267; 2968.900;  191.475;    0.000
412.322; 3046.900;  238.475;    0.000
412.376; 3030.900;  243.475;    0.000
412.431; 2950.900;  214.475;    0.000
412.485; 3001.900;  210.475;    0.000
412.540; 3033.900;  200.475;    0.000
412.594; 3046.900;  174.475;    0.000
412.649; 2942.900;  246.475;    0.000
412.703; 2974.900;  182.475;    0.000
412.758; 2923.900;  222.475;    0.000
412.812; 2873.900;  201.475;    0.000
412.866; 2900.900;  162.475;    0.000
412.921; 2924.900;  202.475;    0.000
412.975; 2978.900;  212.475;    0.000
413.030; 2922.900;  238.475;    0.000
413.084; 2891.900;  201.475;    0.000
413.139; 2959.900;  210.475;    0.000
413.193; 2843.900;  218.475;    0.000
413.247; 2962.900;  203.475;    0.000
413.302; 2998.900;  176.475;    0.000
413.356; 2972.900;  215.475;    0.000
413.410; 2890.900;  204.475;    0.000
413.465; 2898.900;  186.475;    0.000
413.519; 2936.900;  196.475;    0.000
413.573; 2978.900;  181.475;    0.000
413.628; 2871.900;  200.475;    0.000
413.682; 2918.900;  157.475;    0.000
413.736; 2938.900;  194.475;    0.000
413.791; 2829.900;  193.475;    0.000
413.845; 2818.900;  225.475;    0.000
413.899; 3002.900;  195.475;    0.000
413.953; 3020.900;  173.475;    0.000
414.008; 2834.900;  186.475;    0.000
414.062; 2895.900;  217.475;    0.000
414.116; 2966.900;  169.475;    0.000
414.170; 2950.900;  228.475;    0.000
414.225; 2871.900;  177.475;    0.000
414.279; 3042.900;  210.475;    0.000
414.333; 2924.900;  207.475;    0.000
414.387; 3012.900;  217.475;    0.000
414.441; 2968.900;  187.475;    0.000
414.496; 2972.900;  215.475;    0.000
414.550; 3038.900;  204.475;    0.000
414.604; 3057.900;  206.475;    0.000
414.658; 2853.900;  139.475;    0.000
414.712; 2873.900;  198.475;    0.000
414.766; 2925.900;  208.475;    0.000
414.820; 2984.900;  199.475;    0.000
414.874; 2987.900;  216.475;    0.000
414.928; 3029.900;  186.475;    0.000
414.982; 2935.900;  176.475;    0.000
415.037; 2937.900;  181.475;    0.000
415.091; 2853.900;  208.475;    0.000
415.145; 2948.900;  209.475;    0.000
415.199; 2845.900;  186.475;    0.000
415.253; 3044.900;  203.475;    0.000
415.307; 3031.900;  197.475;    0.000
415.361; 2861.900;  223.475;    0.000
415.415; 3001.900;  213.475;    0.000
415.469; 2997.900;  226.475;    0.000
415.523; 3011.900;  222.475;    0.000
415.577; 2950.900;  205.475;    0.000
415.631; 3011.900;  224.475;    0.000
415.684; 2957.900;  193.475;    0.000
415.738; 2883.900;  224.475;    0.000
415.792; 2924.900;  204.475;    0.000
415.846; 2876.900;  189.475;    0.000
415.900; 2986.900;  223.475;    0.000
415.954; 2965.900;  187.475;    0.000
416.008; 2964.900;  237.475;    0.000
416.062; 2971.900;  195.475;    0.000
416.116; 2953.900;  223.475;    0.000
416.169; 2962.900;  210.475;    0.000
416.223; 3011.900;  232.475;    0.000
416.277; 2873.900;  227.475;    0.000
416.331; 2818.900;  216.475;    0.000
416.385; 2897.900;  186.475;    0.000
416.439; 2996.900;  226.475;    0.000
416.492; 2874.900;  229.475;    0.000
416.546; 3061.900;  216.475;    0.000
416.600; 2916.900;  211.475;    0.000
416.654; 2943.900;  226.475;    0.000
416.707; 2863.900;  248.475;    0.000
416.761; 2898.900;  217.475;    0.000
416.815; 2903.900;  207.475;    0.000
416.869; 2947.900;  226.475;    0.000
416.922; 2880.900;  192.475;    0.000
416.976; 2910.900;  205.475;    0.000
417.030; 2932.900;  233.475;    0.000
417.083; 2860.900;  226.475;    0.000
417.137; 2884.900;  222.475;    0.000
417.191; 2949.900;  217.475;    0.000
417.244; 3040.900;  221.475;    0.000
417.298; 2885.900;  201.475;    0.000
417.352; 2891.900;  170.475;    0.000
417.405; 2945.900;  234.475;    0.000
417.459; 2913.900;  241.475;    0.000
417.512; 2925.900;  247.475;    0.000
417.566; 2991.900;  219.475;    0.000
417.620; 2952.900;  228.475;    0.000
417.673; 2841.900;  192.475;    0.000
417.727; 2925.900;  203.475;    0.000
417.780; 2961.900;  204.475;    0.000
417.834; 2956.900;  234.475;    0.000
417.887; 2963.900;  245.475;    0.000
417.941; 2839.900;  211.475;    0.000
417.994; 3029.900;  244.475;    0.000
418.048; 2905.900;  203.475;    0.000
418.101; 2823.900;  212.475;    0.000
418.155; 2916.900;  251.475;    0.000
418.208; 2910.900;  286.475;    0.000
418.262; 2957.900;  243.475;    0.000
418.315; 2911.900;  214.475;    0.000
418.369; 2936.900;  269.475;    0.000
418.422; 3033.900;  222.475;    0.000
418.476; 2860.900;  226.475;    0.000
418.529; 2903.900;  238.475;    0.000
418.582; 2940.900;  210.475;    0.000
418.636; 2881.900;  221.475;    0.000
418.689; 2923.900;  224.475;    0.000
418.743; 2895.900;  228.475;    0.000
418.796; 2900.900;  192.475;    0.000
418.849; 2917.900;  230.475;    0.000
418.903; 2963.900;  257.475;    0.000
418.956; 2952.900;  241.475;    0.000
419.009; 2976.900;  247.475;    0.000
419.063; 2899.900;  235.475;    0.000
419.116; 2907.900;  218.475;    0.000
419.169; 2916.900;  219.475;    0.000
419.222; 2955.900;  215.475;    0.000
419.276; 2997.900;  202.475;    0.000
419.329; 2868.900;  210.475;    0.000
419.382; 2838.900;  188.475;    0.000
419.435; 2927.900;  222.475;    0.000
419.489; 2978.900;  232.475;    0.000
419.542; 2935.900;  250.475;    0.000
419.595; 2945.900;  240.475;    0.000
419.648; 2882.900;  261.475;    0.000
419.701; 2842.900;  222.475;    0.000
419.755; 2908.900;  233.475;    0.000
419.808; 2848.900;  178.475;    0.000
419.861; 2853.900;  207.475;    0.000
419.914; 2874.900;  223.475;    0.000
419.967; 2788.900;  216.475;    0.000
420.020; 2891.900;  211.475;    0.000
420.073; 2905.900;  200.475;    0.000
420.127; 2841.900;  248.475;    0.000
420.180; 2736.900;  220.475;    0.000
420.233; 2841.900;  215.475;    0.000
420.286; 2822.900;  222.475;    0.000
420.339; 2893.900;  229.475;    0.000
420.392; 2833.900;  245.475;    0.000
420.445; 2755.900;  221.475;    0.000
420.498; 2833.900;  224.475;    0.000
420.551; 2776.900;  170.475;    0.000
420.604; 2863.900;  237.475;    0.000
420.657; 2827.900;  235.475;    0.000
420.710; 2796.900;  223.475;    0.000
420.763; 2767.900;  219.475;    0.000
420.816; 2797.900;  200.475;    0.000
420.869; 2800.900;  197.475;    0.000
420.922; 2776.900;  212.475;    0.000
420.975; 2891.900;  274.475;    0.000
421.028; 2734.900;  228.475;    0.000
421.081; 2811.900;  243.475;    0.000
421.134; 2881.900;  227.475;    0.000
421.187; 2807.900;  245.475;    0.000
421.239; 2826.900;  210.475;    0.000
421.292; 2728.900;  193.475;    0.000
421.345; 2886.900;  226.475;    0.000
421.398; 2813.900;  226.475;    0.000
421.451; 2762.900;  259.475;    0.000
421.504; 2744.900;  204.475;    0.000
421.557; 2685.900;  215.475;    0.000
421.609; 2716.900;  194.475;    0.000
421.662; 2789.900;  216.475;    0.000
421.715; 2680.900;  226.475;    0.000
421.768; 2765.900;  177.475;    0.000
421.821; 2791.900;  210.475;    0.000
421.873; 2725.900;  208.475;    0.000
421.926; 2789.900;  223.475;    0.000
421.979; 2855.900;  230.475;    0.000
422.032; 2761.900;  227.475;    0.000
422.084; 2730.900;  234.475;    0.000
422.137; 2743.900;  207.475;    0.000
422.190; 2703.900;  228.475;    0.000
422.243; 2690.900;  206.475;    0.000
422.295; 2835.900;  236.475;    0.000
422.348; 2844.900;  232.475;    0.000
422.401; 2760.900;  228.475;    0.000
422.453; 2752.900;  239.475;    0.000
422.506; 2760.900;  226.475;    0.000
422.559; 2666.900;  205.475;    0.000
422.611; 2751.900;  235.475;    0.000
422.664; 2851.900;  231.475;    0.000
422.716; 2957.900;  228.475;    0.000
422.769; 2751.900;  204.475;    0.000
422.822; 2728.900;  205.475;    0.000
422.874; 2652.900;  228.475;    0.000
422.927; 2772.900;  266.475;    0.000
422.979; 2731.900;  223.475;    0.000
423.032; 2752.900;  207.475;    0.000
423.084; 2761.900;  211.475;    0.000
423.137; 2717.900;  205.475;    0.000
423.189; 2669.900;  254.475;    0.000
423.242; 2790.900;  208.475;    0.000
423.294; 2673.900;  240.475;    0.000
423.347; 2723.900;  218.475;    0.000
423.399; 2693.900;  237.475;    0.000
423.452; 2645.900;  242.475;    0.000
423.504; 2710.900;  225.475;    0.000
423.557; 2627.900;  195.475;    0.000
423.609; 2610.900;  206.475;    0.000
423.662; 2633.900;  211.475;    0.000
423.714; 2659.900;  252.475;    0.000
423.766; 2678.900;  181.475;    0.000
423.819; 2570.900;  216.475;    0.000
423.871; 2698.900;  216.475;    0.000
423.923; 2717.900;  222.475;    0.000
423.976; 2642.900;  223.475;    0.000
424.028; 2656.900;  229.475;    0.000
424.081; 2670.900;  267.475;    0.000
424.133; 2646.900;  251.475;    0.000
424.185; 2641.900;  238.475;    0.000
424.238; 2616.900;  220.475;    0.000
424.290; 2639.900;  259.475;    0.000
424.342; 2688.900;  248.475;    0.000
424.394; 2666.900;  234.475;    0.000
424.447; 2677.900;  248.475;    0.000
424.499; 2675.900;  233.475;    0.000
424.551; 2674.900;  236.475;    0.000
424.603; 2605.900;  207.475;    0.000
424.656; 2552.900;  210.475;    0.000
424.708; 2699.900;  251.475;    0.000
424.760; 2650.900;  221.475;    0.000
424.812; 2686.900;  275.475;    0.000
424.864; 2649.900;  206.475;    0.000
424.917; 2693.900;  198.475;    0.000
424.969; 2702.900;  246.475;    0.000
425.021; 2700.900;  209.475;    0.000
425.073; 2710.900;  242.475;    0.000
425.125; 2605.900;  254.475;    0.000
425.177; 2627.900;  224.475;    0.000
425.229; 2710.900;  256.475;    0.000
425.282; 2653.900;  265.475;    0.000
425.334; 2652.900;  266.475;    0.000
425.386; 2695.900;  242.475;    0.000
425.438; 2672.900;  205.475;    0.000
425.490; 2584.900;  227.475;    0.000
425.542; 2683.900;  235.475;    0.000
425.594; 2651.900;  210.475;    0.000
425.646; 2634.900;  232.475;    0.000
425.698; 2533.900;  243.475;    0.000
425.750; 2585.900;  230.475;    0.000
425.802; 2638.900;  218.475;    0.000
425.854; 2592.900;  222.475;    0.000
425.906; 2534.900;  235.475;    0.000
425.958; 2535.900;  220.475;    0.000
426.010; 2539.900;  236.475;    0.000
426.062; 2690.900;  230.475;    0.000
426.114; 2605.900;  216.475;    0.000
426.166; 2588.900;  230.475;    0.000
426.218; 2646.900;  237.475;    0.000
426.270; 2538.900;  217.475;    0.000
426.321; 2566.900;  224.475;    0.000
426.373; 2601.900;  207.475;    0.000
426.425; 2589.900;  278.475;    0.000
426.477; 2482.900;  243.475;    0.000
426.529; 2612.900;  247.475;    0.000
426.581; 2532.900;  229.475;    0.000
426.633; 2593.900;  212.475;    0.000
426.684; 2585.900;  244.475;    0.000
426.736; 2526.900;  250.475;    0.000
426.788; 2519.900;  210.475;    0.000
426.840; 2599.900;  201.475;    0.000
426.892; 2555.900;  225.475;    0.000
426.943; 2541.900;  215.475;    0.000
426.995; 2464.900;  216.475;    0.000
427.047; 2518.900;  216.475;    0.000
427.099; 2568.900;  203.475;    0.000
427.150; 2546.900;  195.475;    0.000
427.202; 2485.900;  212.475;    0.000
427.254; 2499.900;  233.475;    0.000
427.306; 2470.900;  211.475;    0.000
427.357; 2545.900;  210.475;    0.000
427.409; 2542.900;  244.475;    0.000
427.461; 2579.900;  187.475;    0.000
427.512; 2542.900;  227.475;    0.000
427.564; 2458.900;  210.475;    0.000
427.616; 2577.900;  202.475;    0.000
427.667; 2392.900;  185.475;    0.000
427.719; 2408.900;  222.475;    0.000
427.770; 2486.900;  230.475;    0.000
427.822; 2504.900;  254.475;    0.000
427.874; 2479.900;  222.475;    0.000
427.925; 2499.900;  199.475;    0.000
427.977; 2511.900;  228.475;    0.000
428.028; 2472.900;  226.475;    0.000
428.080; 2511.900;  236.475;    0.000
428.131; 2454.900;  220.475;    0.000
428.183; 2468.900;  256.475;    0.000
428.234; 2444.900;  217.475;    0.000
428.286; 2475.900;  234.475;    0.000
428.337; 2402.900;  209.475;    0.000
428.389; 2410.900;  219.475;    0.000
428.440; 2517.900;  249.475;    0.000
428.492; 2461.900;  255.475;    0.000
428.543; 2564.900;  224.475;    0.000
428.595; 2460.900;  225.475;    0.000
428.646; 2434.900;  240.475;    0.000
428.697; 2437.900;  211.475;    0.000
428.749; 2507.900;  200.475;    0.000
428.800; 2499.900;  235.475;    0.000
428.852; 2487.900;  265.475;    0.000
428.903; 2426.900;  201.475;    0.000
428.954; 2469.900;  242.475;    0.000
429.006; 2442.900;  245.475;    0.000
429.057; 2548.900;  252.475;    0.000
429.108; 2366.900;  211.475;    0.000
429.160; 2382.900;  217.475;    0.000
429.211; 2513.900;  234.475;    0.000
429.262; 2388.900;  205.475;    0.000
429.314; 2413.900;  211.475;    0.000
429.365; 2426.900;  240.475;    0.000
429.416; 2452.900;  263.475;    0.000
429.467; 2403.900;  244.475;    0.000
429.519; 2539.900;  223.475;    0.000
429.570; 2311.900;  214.475;    0.000
429.621; 2374.900;  235.475;    0.000
429.672; 2455.900;  202.475;    0.000
429.724; 2408.900;  189.475;    0.000
429.775; 2398.900;  214.475;    0.000
429.826; 2388.900;  178.475;    0.000
429.877; 2442.900;  224.475;    0.000
429.928; 2444.900;  230.475;    0.000
429.980; 2331.900;  199.475;    0.000
430.031; 2388.900;  208.475;    0.000
430.082; 2443.900;  224.475;    0.000
430.133; 2436.900;  193.475;    0.000
430.184; 2483.900;  220.475;    0.000
430.235; 2386.900;  184.475;    0.000
430.286; 2361.900;  197.475;    0.000
430.337; 2312.900;  199.475;    0.000
430.388; 2363.900;  207.475;    0.000
430.439; 2322.900;  227.475;    0.000
430.490; 2402.900;  215.475;    0.000
430.542; 2361.900;  211.475;    0.000
430.593; 2411.900;  230.475;    0.000
430.644; 2380.900;  186.475;    0.000
430.695; 2358.900;  232.475;    0.000
430.746; 2384.900;  214.475;    0.000
430.797; 2325.900;  260.475;    0.000
430.848; 2346.900;  214.475;    0.000
430.898; 2397.900;  204.475;    0.000
430.949; 2446.900;  189.475;    0.000
431.000; 2407.900;  240.475;    0.000
431.051; 2371.900;  201.475;    0.000
431.102; 2386.900;  188.475;    0.000
431.153; 2419.900;  209.475;    0.000
431.204; 2374.900;  187.475;    0.000
431.255; 2278.900;  171.475;    0.000
431.306; 2358.900;  181.475;    0.000
431.357; 2468.900;  221.475;    0.000
431.408; 2388.900;  217.475;    0.000
431.458; 2386.900;  206.475;    0.000
431.509; 2404.900;  194.475;    0.000
431.560; 2366.900;  235.475;    0.000
431.611; 2315.900;  213.475;    0.000
431.662; 2327.900;  237.475;    0.000
431.713; 2352.900;  220.475;    0.000
431.763; 2319.900;  212.475;    0.000
431.814; 2410.900;  238.475;    0.000
431.865; 2362.900;  213.475;    0.000
431.916; 2400.900;  191.475;    0.000
431.966; 2369.900;  171.475;    0.000
432.017; 2428.900;  263.475;    0.000
432.068; 2382.900;  240.475;    0.000
432.118; 2400.900;  235.475;    0.000
432.169; 2355.900;  212.475;    0.000
432.220; 2341.900;  188.475;    0.000
432.271; 2321.900;  216.475;    0.000
432.321; 2356.900;  223.475;    0.000
432.372; 2341.900;  254.475;    0.000
432.423; 2468.900;  193.475;    0.000
432.473; 2351.900;  219.475;    0.000
432.524; 2303.900;  215.475;    0.000
432.574; 2349.900;  234.475;    0.000
432.625; 2385.900;  226.475;    0.000
432.676; 2259.900;  219.475;    0.000
432.726; 2436.900;  254.475;    0.000
432.777; 2278.900;  210.475;    0.000
432.827; 2351.900;  234.475;    0.000
432.878; 2377.900;  212.475;    0.000
432.928; 2292.900;  238.475;    0.000
432.979; 2355.900;  252.475;    0.000
433.029; 2310.900;  222.475;    0.000
433.080; 2322.900;  188.475;    0.000
433.130; 2331.900;  223.475;    0.000
433.181; 2331.900;  254.475;    0.000
433.231; 2424.900;  237.475;    0.000
433.282; 2430.900;  242.475;    0.000
433.332; 2486.900;  261.475;    0.000
433.383; 2408.900;  266.475;    0.000
433.433; 2334.900;  286.475;    0.000
433.484; 2409.900;  231.475;    0.000
433.534; 2424.900;  256.475;    0.000
433.585; 2314.900;  253.475;    0.000
433.635; 2383.900;  228.475;    0.000
433.685; 2336.900;  226.475;    0.000
433.736; 2315.900;  276.475;    0.000
433.786; 2345.900;  253.475;    0.000
433.836; 2404.900;  289.475;    0.000
433.887; 2334.900;  241.475;    0.000
433.937; 2345.900;  252.475;    0.000
433.987; 2364.900;  223.475;    0.000
434.038; 2331.900;  241.475;    0.000
434.088; 2309.900;  231.475;    0.000
434.138; 2378.900;  259.475;    0.000
434.189; 2311.900;  263.475;    0.000
434.239; 2397.900;  194.475;    0.000
434.289; 2444.900;  273.475;    0.000
434.339; 2351.900;  212.475;    0.000
434.389; 2340.900;  248.475;    0.000
434.440; 2420.900;  250.475;    0.000
434.490; 2365.900;  278.475;    0.000
434.540; 2353.900;  241.475;    0.000
434.590; 2358.900;  251.475;    0.000
434.640; 2417.900;  207.475;    0.000
434.691; 2409.900;  242.475;    0.000
434.741; 2407.900;  218.475;    0.000
434.791; 2473.900;  267.475;    0.000
434.841; 2408.900;  272.475;    0.000
434.891; 2399.900;  260.475;    0.000
434.941; 2385.900;  258.475;    0.000
434.991; 2436.900;  264.475;    0.000
435.042; 2433.900;  264.475;    0.000
435.092; 2349.900;  271.475;    0.000
435.142; 2364.900;  229.475;    0.000
435.192; 2397.900;  226.475;    0.000
435.242; 2391.900;  253.475;    0.000
435.292; 2377.900;  215.475;    0.000
435.342; 2357.900;  240.475;    0.000
435.392; 2383.900;  235.475;    0.000
435.442; 2381.900;  230.475;    0.000
435.492; 2344.900;  235.475;    0.000
435.542; 2329.900;  230.475;    0.000
435.592; 2315.900;  239.475;    0.000
435.642; 2336.900;  244.475;    0.000
435.692; 2363.900;  236.475;    0.000
435.742; 2313.900;  236.475;    0.000
435.792; 2301.900;  230.475;    0.000
435.842; 2268.900;  248.475;    0.000
435.891; 2265.900;  233.475;    0.000
435.941; 2276.900;  243.475;    0.000
435.991; 2377.900;  279.475;    0.000
436.041; 2237.900;  204.475;    0.000
436.091; 2297.900;  217.475;    0.000
436.141; 2263.900;  205.475;    0.000
436.191; 2313.900;  220.475;    0.000
436.241; 2265.900;  248.475;    0.000
436.290; 2321.900;  255.475;    0.000
436.340; 2231.900;  235.475;    0.000
436.390; 2316.900;  207.475;    0.000
436.440; 2305.900;  207.475;    0.000
436.490; 2337.900;  251.475;    0.000
436.539; 2265.900;  240.475;    0.000
436.589; 2248.900;  198.475;    0.000
436.639; 2319.900;  240.475;    0.000
436.689; 2271.900;  216.475;    0.000
436.738; 2201.900;  246.475;    0.000
436.788; 2251.900;  203.475;    0.000
436.838; 2267.900;  230.475;    0.000
436.887; 2292.900;  235.475;    0.000
436.937; 2178.900;  249.475;    0.000
436.987; 2213.900;  208.475;    0.000
437.036; 2240.900;  232.475;    0.000
437.086; 2232.900;  238.475;    0.000
437.136; 2193.900;  228.475;    0.000
437.185; 2236.900;  219.475;    0.000
437.235; 2263.900;  227.475;    0.000
437.285; 2109.900;  241.475;    0.000
437.334; 2205.900;  216.475;    0.000
437.384; 2191.900;  243.475;    0.000
437.433; 2207.900;  214.475;    0.000
437.483; 2204.900;  246.475;    0.000
437.532; 2233.900;  261.475;    0.000
437.582; 2211.900;  205.475;    0.000
437.631; 2120.900;  218.475;    0.000
437.681; 2208.900;  240.475;    0.000
437.730; 2183.900;  258.475;    0.000
437.780; 2203.900;  237.475;    0.000
437.829; 2176.900;  209.475;    0.000
437.879; 2193.900;  214.475;    0.000
437.928; 2269.900;  223.475;    0.000
437.978; 2236.900;  220.475;    0.000
438.027; 2212.900;  239.475;    0.000
438.077; 2219.900;  231.475;    0.000
438.126; 2213.900;  266.475;    0.000
438.176; 2263.900;  234.475;    0.000
438.225; 2217.900;  237.475;    0.000
438.274; 2173.900;  234.475;    0.000
438.324; 2138.900;  244.475;    0.000
438.373; 2197.900;  232.475;    0.000
438.422; 2136.900;  218.475;    0.000
438.472; 2149.900;  221.475;    0.000
438.521; 2143.900;  190.475;    0.000
438.570; 2168.900;  243.475;    0.000
438.620; 2191.900;  255.475;    0.000
438.669; 2229.900;  210.475;    0.000
438.718; 2221.900;  237.475;    0.000
438.768; 2204.900;  220.475;    0.000
438.817; 2217.900;  218.475;    0.000
438.866; 2142.900;  198.475;    0.000
438.915; 2173.900;  256.475;    0.000
438.965; 2143.900;  221.475;    0.000
439.014; 2195.900;  255.475;    0.000
439.063; 2269.900;  276.475;    0.000
439.112; 2144.900;  220.475;    0.000
439.162; 2163.900;  253.475;    0.000
439.211; 2228.900;  247.475;    0.000
439.260; 2214.900;  220.475;    0.000
439.309; 2239.900;  235.475;    0.000
439.358; 2189.900;  205.475;    0.000
439.407; 2232.900;  207.475;    0.000
439.456; 2205.900;  216.475;    0.000
439.506; 2216.900;  245.475;    0.000
439.555; 2226.900;  264.475;    0.000
439.604; 2167.900;  227.475;    0.000
439.653; 2201.900;  220.475;    0.000
439.702; 2135.900;  223.475;    0.000
439.751; 2147.900;  197.475;    0.000
439.800; 2168.900;  207.475;    0.000
439.849; 2234.900;  238.475;    0.000
439.898; 2217.900;  209.475;    0.000
439.947; 2190.900;  170.475;    0.000
439.996; 2160.900;  233.475;    0.000
440.045; 2155.900;  222.475;    0.000
440.094; 2240.900;  240.475;    0.000
440.143; 2213.900;  249.475;    0.000
440.192; 2278.900;  252.475;    0.000
440.241; 2189.900;  239.475;    0.000
440.290; 2284.900;  234.475;    0.000
440.339; 2179.900;  241.475;    0.000
440.388; 2189.900;  239.475;    0.000
440.437; 2216.900;  231.475;    0.000
440.486; 2155.900;  254.475;    0.000
440.535; 2227.900;  266.475;    0.000
440.583; 2328.900;  205.475;    0.000
440.632; 2283.900;  234.475;    0.000
440.681; 2203.900;  218.475;    0.000
440.730; 2260.900;  248.475;    0.000
440.779; 2228.900;  246.475;    0.000
440.828; 2201.900;  235.475;    0.000
440.876; 2124.900;  218.475;    0.000
440.925; 2212.900;  228.475;    0.000
440.974; 2223.900;  249.475;    0.000
441.023; 2239.900;  192.475;    0.000
441.072; 2203.900;  226.475;    0.000
441.120; 2347.900;  238.475;    0.000
441.169; 2275.900;  255.475;    0.000
441.218; 2264.900;  233.475;    0.000
441.267; 2324.900;  231.475;    0.000
441.315; 2312.900;  214.475;    0.000
441.364; 2292.900;  250.475;    0.000
441.413; 2372.900;  228.475;    0.000
441.461; 2217.900;  209.475;    0.000
441.510; 2349.900;  260.475;    0.000
441.559; 2269.900;  230.475;    0.000
441.607; 2287.900;  220.475;    0.000
441.656; 2305.900;  251.475;    0.000
441.705; 2385.900;  237.475;    0.000
441.753; 2353.900;  257.475;    0.000
441.802; 2369.900;  256.475;    0.000
441.850; 2266.900;  253.475;    0.000
441.899; 2331.900;  212.475;    0.000
441.948; 2369.900;  251.475;    0.000
441.996; 2373.900;  239.475;    0.000
442.045; 2283.900;  223.475;    0.000
442.093; 2310.900;  211.475;    0.000
442.142; 2394.900;  235.475;    0.000
442.190; 2313.900;  254.475;    0.000
442.239; 2349.900;  226.475;    0.000
442.287; 2330.900;  242.475;    0.000
442.336; 2286.900;  256.475;    0.000
442.384; 2326.900;  252.475;    0.000
442.433; 2425.900;  262.475;    0.000
442.481; 2349.900;  246.475;    0.000
442.529; 2340.900;  290.475;    0.000
442.578; 2360.900;  247.475;    0.000
442.626; 2356.900;  247.475;    0.000
442.675; 2363.900;  272.475;    0.000
442.723; 2293.900;  230.475;    0.000
442.771; 2309.900;  234.475;    0.000
442.820; 2395.900;  224.475;    0.000
442.868; 2337.900;  246.475;    0.000
442.917; 2362.900;  249.475;    0.000
442.965; 2447.900;  260.475;    0.000
443.013; 2349.900;  258.475;    0.000
443.062; 2322.900;  259.475;    0.000
443.110; 2373.900;  226.475;    0.000
443.158; 2294.900;  213.475;    0.000
443.206; 2338.900;  201.475;    0.000
443.255; 2455.900;  280.475;    0.000
443.303; 2374.900;  292.475;    0.000
443.351; 2357.900;  256.475;    0.000
443.399; 2374.900;  215.475;    0.000
443.448; 2378.900;  243.475;    0.000
443.496; 2350.900;  249.475;    0.000
443.544; 2346.900;  231.475;    0.000
443.592; 2347.900;  243.475;    0.000
443.640; 2400.900;  252.475;    0.000
443.689; 2312.900;  220.475;    0.000
443.737; 2438.900;  231.475;    0.000
443.785; 2408.900;  256.475;    0.000
443.833; 2472.900;  268.475;    0.000
443.881; 2449.900;  181.475;    0.000
443.929; 2477.900;  245.475;    0.000
443.977; 2486.900;  278.475;    0.000
444.025; 2401.900;  245.475;    0.000
444.074; 2361.900;  233.475;    0.000
444.122; 2433.900;  267.475;    0.000
444.170; 2395.900;  247.475;    0.000
444.218; 2474.900;  246.475;    0.000
444.266; 2449.900;  275.475;    0.000
444.314; 2499.900;  263.475;    0.000
444.362; 2393.900;  240.475;    0.000
444.410; 2326.900;  220.475;    0.000
444.458; 2512.900;  258.475;    0.000
444.506; 2497.900;  258.475;    0.000
444.554; 2406.900;  224.475;    0.000
444.602; 2469.900;  245.475;    0.000
444.650; 2512.900;  261.475;    0.000
444.698; 2499.900;  232.475;    0.000
444.746; 2447.900;  206.475;    0.000
444.793; 2544.900;  249.475;    0.000
444.841; 2505.900;  261.475;    0.000
444.889; 2489.900;  221.475;    0.000
444.937; 2542.900;  215.475;    0.000
444.985; 2516.900;  244.475;    0.000
445.033; 2475.900;  211.475;    0.000
445.081; 2497.900;  225.475;    0.000
445.129; 2537.900;  217.475;    0.000
445.176; 2478.900;  196.475;    0.000
445.224; 2467.900;  211.475;    0.000
445.272; 2462.900;  242.475;    0.000
445.320; 2493.900;  225.475;    0.000
445.368; 2473.900;  249.475;    0.000
445.415; 2582.900;  243.475;    0.000
445.463; 2446.900;  242.475;    0.000
445.511; 2530.900;  248.475;    0.000
445.559; 2477.900;  219.475;    0.000
445.606; 2485.900;  221.475;    0.000
445.654; 2580.900;  202.475;    0.000
445.702; 2524.900;  210.475;    0.000
445.749; 2536.900;  249.475;    0.000
445.797; 2475.900;  206.475;    0.000
445.845; 2505.900;  213.475;    0.000
445.892; 2495.900;  224.475;    0.000
445.940; 2519.900;  214.475;    0.000
445.988; 2595.900;  247.475;    0.000
446.035; 2544.900;  204.475;    0.000
446.083; 2607.900;  235.475;    0.000
446.130; 2538.900;  195.475;    0.000
446.178; 2496.900;  236.475;    0.000
446.226; 2592.900;  218.475;    0.000
446.273; 2487.900;  215.475;    0.000
446.321; 2594.900;  222.475;    0.000
446.368; 2578.900;  228.475;    0.000
446.416; 2547.900;  223.475;    0.000
446.463; 2637.900;  220.475;    0.000
446.511; 2618.900;  198.475;    0.000
446.558; 2666.900;  208.475;    0.000
446.606; 2666.900;  253.475;    0.000
446.653; 2706.900;  198.475;    0.000
446.701; 2739.900;  231.475;    0.000
446.748; 2712.900;  224.475;    0.000
446.796; 2688.900;  201.475;    0.000
446.843; 2746.900;  257.475;    0.000
446.891; 2772.900;  218.475;    0.000
446.938; 2830.900;  232.475;    0.000
446.985; 2681.900;  229.475;    0.000
447.033; 2799.900;  251.475;    0.000
447.080; 2778.900;  257.475;    0.000
447.128; 2857.900;  232.475;    0.000
447.175; 2912.900;  269.475;    0.000
447.222; 2897.900;  185.475;    0.000
447.270; 2906.900;  264.475;    0.000
447.317; 2872.900;  225.475;    0.000
447.364; 2955.900;  243.475;    0.000
447.411; 2943.900;  263.475;    0.000
447.459; 3005.900;  257.475;    0.000
447.506; 2966.900;  175.475;    0.000
447.553; 3021.900;  203.475;    0.000
447.601; 3032.900;  238.475;    0.000
447.648; 3158.900;  244.475;    0.000
447.695; 3241.900;  249.475;    0.000
447.742; 3212.900;  234.475;    0.000
447.789; 3243.900;  228.475;    0.000
447.837; 3331.900;  258.475;    0.000
447.884; 3372.900;  243.475;    0.000
447.931; 3377.900;  235.475;    0.000
447.978; 3487.900;  224.475;    0.000
448.025; 3470.900;  245.475;    0.000
448.072; 3642.900;  212.475;    0.000
448.120; 3641.900;  256.475;    0.000
448.167; 3585.900;  240.475;    0.000
448.214; 3458.900;  247.475;    0.000
448.261; 3390.900;  245.475;    0.000
448.308; 3350.900;  273.475;    0.000
448.355; 3273.900;  257.475;    0.000
448.402; 3247.900;  259.475;    0.000
448.449; 3164.900;  238.475;    0.000
448.496; 3132.900;  245.475;    0.000
448.543; 3120.900;  217.475;    0.000
448.590; 3135.900;  269.475;    0.000
448.637; 3036.900;  250.475;    0.000
448.684; 3029.900;  250.475;    0.000
448.731; 2885.900;  235.475;    0.000
448.778; 2921.900;  265.475;    0.000
448.825; 2860.900;  257.475;    0.000
448.872; 2867.900;  234.475;    0.000
448.919; 2833.900;  216.475;    0.000
448.966; 2855.900;  274.475;    0.000
449.013; 2829.900;  263.475;    0.000
449.060; 2879.900;  247.475;    0.000
449.107; 2790.900;  218.475;    0.000
449.154; 2751.900;  225.475;    0.000
449.200; 2758.900;  212.475;    0.000
449.247; 2625.900;  242.475;    0.000
449.294; 2642.900;  228.475;    0.000
449.341; 2522.900;  232.475;    0.000
449.388; 2594.900;  247.475;    0.000
449.435; 2612.900;  227.475;    0.000
449.481; 2707.900;  270.475;    0.000
449.528; 2628.900;  265.475;    0.000
449.575; 2482.900;  255.475;    0.000
449.622; 2506.900;  210.475;    0.000
449.668; 2577.900;  234.475;    0.000
449.715; 2516.900;  262.475;    0.000
449.762; 2483.900;  247.475;    0.000
449.809; 2476.900;  286.475;    0.000
449.855; 2464.900;  246.475;    0.000
449.902; 2571.900;  224.475;    0.000
449.949; 2553.900;  244.475;    0.000
449.995; 2530.900;  274.475;    0.000
450.042; 2515.900;  272.475;    0.000
450.089; 2463.900;  274.475;    0.000
450.135; 2516.900;  285.475;    0.000
450.182; 2335.900;  251.475;    0.000
450.229; 2388.900;  242.475;    0.000
450.275; 2370.900;  277.475;    0.000
450.322; 2424.900;  260.475;    0.000
450.368; 2417.900;  257.475;    0.000
450.415; 2350.900;  276.475;    0.000
450.462; 2363.900;  298.475;    0.000
450.508; 2452.900;  255.475;    0.000
450.555; 2407.900;  271.475;    0.000
450.601; 2419.900;  281.475;    0.000
450.648; 2300.900;  249.475;    0.000
450.694; 2360.900;  270.475;    0.000
450.741; 2395.900;  256.475;    0.000
450.787; 2400.900;  292.475;    0.000
450.834; 2364.900;  221.475;    0.000
450.880; 2297.900;  265.475;    0.000
450.927; 2357.900;  242.475;    0.000
450.973; 2336.900;  259.475;    0.000
451.019; 2343.900;  221.475;    0.000
451.066; 2301.900;  257.475;    0.000
451.112; 2335.900;  251.475;    0.000
451.159; 2323.900;  278.475;    0.000
451.205; 2309.900;  274.475;    0.000
451.251; 2282.900;  281.475;    0.000
451.298; 2311.900;  273.475;    0.000
451.344; 2262.900;  246.475;    0.000
451.390; 2312.900;  286.475;    0.000
451.437; 2349.900;  268.475;    0.000
451.483; 2342.900;  315.475;    0.000
451.529; 2268.900;  251.475;    0.000
451.576; 2272.900;  306.475;    0.000
451.622; 2285.900;  234.475;    0.000
451.668; 2193.900;  243.475;    0.000
451.714; 2190.900;  256.475;    0.000
451.761; 2313.900;  264.475;    0.000
451.807; 2265.900;  284.475;    0.000
451.853; 2269.900;  282.475;    0.000
451.899; 2231.900;  240.475;    0.000
451.945; 2256.900;  263.475;    0.000
451.992; 2221.900;  255.475;    0.000
452.038; 2263.900;  273.475;    0.000
452.084; 2253.900;  274.475;    0.000
452.130; 2170.900;  261.475;    0.000
452.176; 2217.900;  246.475;    0.000
452.222; 2165.900;  238.475;    0.000
452.268; 2228.900;  267.475;    0.000
452.315; 2237.900;  274.475;    0.000
452.361; 2238.900;  241.475;    0.000
452.407; 2199.900;  274.475;    0.000
452.453; 2211.900;  260.475;    0.000
452.499; 2181.900;  232.475;    0.000
452.545; 2101.900;  252.475;    0.000
452.591; 2172.900;  263.475;    0.000
452.637; 2154.900;  208.475;    0.000
452.683; 2064.900;  237.475;    0.000
452.729; 2151.900;  263.475;    0.000
452.775; 2225.900;  291.475;    0.000
452.821; 2205.900;  238.475;    0.000
452.867; 2174.900;  223.475;    0.000
452.913; 2187.900;  257.475;    0.000
452.959; 2228.900;  238.475;    0.000
453.005; 2249.900;  252.475;    0.000
453.051; 2133.900;  260.475;    0.000
453.097; 2216.900;  268.475;    0.000
453.142; 2074.900;  231.475;    0.000
453.188; 2179.900;  266.475;    0.000
453.234; 2185.900;  233.475;    0.000
453.280; 2131.900;  219.475;    0.000
453.326; 2177.900;  265.475;    0.000
453.372; 2102.900;  238.475;    0.000
453.418; 2146.900;  240.475;    0.000
453.463; 2099.900;  219.475;    0.000
453.509; 2146.900;  264.475;    0.000
453.555; 2143.900;  247.475;    0.000
453.601; 2066.900;  230.475;    0.000
453.647; 2182.900;  285.475;    0.000
453.692; 2016.900;  240.475;    0.000
453.738; 2106.900;  233.475;    0.000
453.784; 2102.900;  230.475;    0.000
453.829; 2112.900;  246.475;    0.000
453.875; 2140.900;  261.475;    0.000
453.921; 2067.900;  203.475;    0.000
453.967; 2128.900;  241.475;    0.000
454.012; 2138.900;  250.475;    0.000
454.058; 2099.900;  252.475;    0.000
454.104; 2153.900;  239.475;    0.000
454.149; 2150.900;  250.475;    0.000
454.195; 2071.900;  243.475;    0.000
454.240; 2044.900;  252.475;    0.000
454.286; 2136.900;  245.475;    0.000
454.332; 2111.900;  286.475;    0.000
454.377; 2118.900;  254.475;    0.000
454.423; 2060.900;  246.475;    0.000
454.468; 2123.900;  235.475;    0.000
454.514; 2069.900;  231.475;    0.000
454.559; 2160.900;  246.475;    0.000
454.605; 2136.900;  204.475;    0.000
454.650; 2125.900;  272.475;    0.000
454.696; 2082.900;  222.475;    0.000
454.741; 2073.900;  290.475;    0.000
454.787; 2137.900;  262.475;    0.000
454.832; 2081.900;  227.475;    0.000
454.878; 2103.900;  241.475;    0.000
454.923; 2024.900;  272.475;    0.000
454.969; 2033.900;  290.475;    0.000
455.014; 2035.900;  278.475;    0.000
455.060; 2177.900;  246.475;    0.000
455.105; 2152.900;  231.475;    0.000
455.150; 2109.900;  265.475;    0.000
455.196; 2049.900;  266.475;    0.000
455.241; 2140.900;  258.475;    0.000
455.286; 2039.900;  266.475;    0.000
455.332; 1989.900;  252.475;    0.000
455.377; 1991.900;  219.475;    0.000
455.422; 2081.900;  262.475;    0.000
455.468; 2085.900;  260.475;    0.000
455.513; 2062.900;  212.475;    0.000
455.558; 2033.900;  197.475;    0.000
455.604; 2106.900;  262.475;    0.000
455.649; 2101.900;  238.475;    0.000
455.694; 2071.900;  221.475;    0.000
455.739; 2120.900;  251.475;    0.000
455.785; 2153.900;  287.475;    0.000
455.830; 2078.900;  284.475;    0.000
455.875; 2019.900;  234.475;    0.000
455.920; 2080.900;  215.475;    0.000
455.965; 2081.900;  256.475;    0.000
456.010; 2105.900;  266.475;    0.000
456.056; 2068.900;  263.475;    0.000
456.101; 2044.900;  240.475;    0.000
456.146; 2043.900;  258.475;    0.000
456.191; 2069.900;  241.475;    0.000
456.236; 2081.900;  252.475;    0.000
456.281; 2063.900;  218.475;    0.000
456.326; 2057.900;  251.475;    0.000
456.371; 2006.900;  256.475;    0.000
456.416; 2059.900;  301.475;    0.000
456.461; 2057.900;  233.475;    0.000
456.507; 2016.900;  218.475;    0.000
456.552; 2129.900;  278.475;    0.000
456.597; 2162.900;  223.475;    0.000
456.642; 2038.900;  203.475;    0.000
456.687; 2067.900;  245.475;    0.000
456.732; 2099.900;  256.475;    0.000
456.776; 2113.900;  244.475;    0.000
456.821; 2136.900;  276.475;    0.000
456.866; 2042.900;  232.475;    0.000
456.911; 2072.900;  225.475;    0.000
456.956; 2054.900;  237.475;    0.000
457.001; 2043.900;  261.475;    0.000
457.046; 2001.900;  205.475;    0.000
457.091; 2156.900;  241.475;    0.000
457.136; 2035.900;  217.475;    0.000
457.181; 2072.900;  251.475;    0.000
457.225; 2056.900;  241.475;    0.000
457.270; 2165.900;  237.475;    0.000
457.315; 2129.900;  279.475;    0.000
457.360; 2034.900;  245.475;    0.000
457.405; 2101.900;  202.475;    0.000
457.450; 2109.900;  247.475;    0.000
457.494; 2151.900;  243.475;    0.000
457.539; 2103.900;  222.475;    0.000
457.584; 2134.900;  239.475;    0.000
457.629; 2103.900;  236.475;    0.000
457.673; 2027.900;  234.475;    0.000
457.718; 2092.900;  202.475;    0.000
457.763; 2154.900;  274.475;    0.000
457.807; 2082.900;  236.475;    0.000
457.852; 2116.900;  265.475;    0.000
457.897; 2144.900;  252.475;    0.000
457.941; 2119.900;  264.475;    0.000
457.986; 2168.900;  280.475;    0.000
458.031; 2160.900;  217.475;    0.000
458.075; 2147.900;  249.475;    0.000
458.120; 2201.900;  257.475;    0.000
458.165; 2104.900;  183.475;    0.000
458.209; 2093.900;  245.475;    0.000
458.254; 2175.900;  245.475;    0.000
458.298; 2092.900;  265.475;    0.000
458.343; 2099.900;  241.475;    0.000
458.387; 2117.900;  262.475;    0.000
458.432; 2145.900;  245.475;    0.000
458.476; 2172.900;  255.475;    0.000
458.521; 2143.900;  269.475;    0.000
458.565; 2146.900;  265.475;    0.000
458.610; 2193.900;  222.475;    0.000
458.654; 2153.900;  257.475;    0.000
458.699; 2111.900;  296.475;    0.000
458.743; 2136.900;  203.475;    0.000
458.788; 2244.900;  267.475;    0.000
458.832; 2149.900;  274.475;    0.000
458.877; 2223.900;  251.475;    0.000
458.921; 2176.900;  237.475;    0.000
458.965; 2221.900;  264.475;    0.000
459.010; 2193.900;  256.475;    0.000
459.054; 2201.900;  280.475;    0.000
459.099; 2192.900;  240.475;    0.000
459.143; 2273.900;  287.475;    0.000
459.187; 2239.900;  257.475;    0.000
459.231; 2275.900;  273.475;    0.000
459.276; 2245.900;  231.475;    0.000
459.320; 2227.900;  261.475;    0.000
459.364; 2275.900;  278.475;    0.000
459.409; 2220.900;  249.475;    0.000
459.453; 2294.900;  235.475;    0.000
459.497; 2203.900;  262.475;    0.000
459.541; 2286.900;  269.475;    0.000
459.586; 2280.900;  240.475;    0.000
459.630; 2259.900;  261.475;    0.000
459.674; 2220.900;  276.475;    0.000
459.718; 2256.900;  236.475;    0.000
459.762; 2272.900;  263.475;    0.000
459.807; 2295.900;  263.475;    0.000
459.851; 2334.900;  225.475;    0.000
459.895; 2277.900;  247.475;    0.000
459.939; 2225.900;  231.475;    0.000
459.983; 2323.900;  242.475;    0.000
460.027; 2256.900;  248.475;    0.000
460.071; 2280.900;  273.475;    0.000
460.115; 2317.900;  282.475;    0.000
460.159; 2307.900;  264.475;    0.000
460.204; 2270.900;  288.475;    0.000
460.248; 2281.900;  293.475;    0.000
460.292; 2289.900;  277.475;    0.000
460.336; 2289.900;  250.475;    0.000
460.380; 2304.900;  275.475;    0.000
460.424; 2292.900;  243.475;    0.000
460.468; 2341.900;  277.475;    0.000
460.512; 2363.900;  261.475;    0.000
460.556; 2355.900;  266.475;    0.000
460.599; 2333.900;  246.475;    0.000
460.643; 2311.900;  256.475;    0.000
460.687; 2353.900;  257.475;    0.000
460.731; 2298.900;  235.475;    0.000
460.775; 2382.900;  278.475;    0.000
460.819; 2311.900;  268.475;    0.000
460.863; 2420.900;  257.475;    0.000
460.907; 2219.900;  213.475;    0.000
460.951; 2328.900;  274.475;    0.000
460.995; 2280.900;  258.475;    0.000
461.038; 2316.900;  219.475;    0.000
461.082; 2419.900;  253.475;    0.000
461.126; 2302.900;  281.475;    0.000
461.170; 2295.900;  244.475;    0.000
461.214; 2369.900;  262.475;    0.000
461.257; 2407.900;  284.475;    0.000
461.301; 2378.900;  275.475;    0.000
461.345; 2436.900;  267.475;    0.000
461.389; 2372.900;  255.475;    0.000
461.432; 2377.900;  282.475;    0.000
461.476; 2350.900;  263.475;    0.000
461.520; 2290.900;  260.475;    0.000
461.563; 2361.900;  278.475;    0.000
461.607; 2393.900;  236.475;    0.000
461.651; 2315.900;  262.475;    0.000
461.694; 2346.900;  236.475;    0.000
461.738; 2360.900;  295.475;    0.000
461.782; 2343.900;  252.475;    0.000
461.825; 2335.900;  271.475;    0.000
461.869; 2340.900;  278.475;    0.000
461.913; 2430.900;  255.475;    0.000
461.956; 2373.900;  254.475;    0.000
462.000; 2318.900;  299.475;    0.000
462.043; 2338.900;  282.475;    0.000
462.087; 2451.900;  274.475;    0.000
462.130; 2434.900;  270.475;    0.000
462.174; 2531.900;  274.475;    0.000
462.217; 2412.900;  272.475;    0.000
462.261; 2380.900;  286.475;    0.000
462.304; 2348.900;  236.475;    0.000
462.348; 2374.900;  262.475;    0.000
462.391; 2378.900;  244.475;    0.000
462.435; 2443.900;  321.475;    0.000
462.478; 2503.900;  230.475;    0.000
462.522; 2493.900;  245.475;    0.000
462.565; 2474.900;  278.475;    0.000
462.608; 2456.900;  303.475;    0.000
462.652; 2490.900;  275.475;    0.000
462.695; 2496.900;  314.475;    0.000
462.739; 2489.900;  307.475;    0.000
462.782; 2500.900;  286.475;    0.000
462.825; 2529.900;  312.475;    0.000
462.869; 2520.900;  338.475;    0.000
462.912; 2491.900;  304.475;    0.000
462.955; 2543.900;  288.475;    0.000
462.998; 2613.900;  292.475;    0.000
463.042; 2491.900;  309.475;    0.000
463.085; 2533.900;  292.475;    0.000
463.128; 2568.900;  317.475;    0.000
463.172; 2414.900;  287.475;    0.000
463.215;  395.900;  313.475;    0.000
463.258;  338.900;  295.475;    0.000
463.301;  307.900;  275.475;    0.000
463.344;  331.900;  311.475;    0.000
463.388;  306.900;  296.475;    0.000
463.431;  304.900;  277.475;    0.000
463.474;  342.900;  364.475;    0.000
463.517;  300.900;  306.475;    0.000
463.560;  306.900;  308.475;    0.000
463.603;  366.900;  343.475;    0.000
463.646;  323.900;  309.475;    0.000
463.690;  324.900;  309.475;    0.000
463.733;  335.900;  320.475;    0.000
463.776;  288.900;  299.475;    0.000
463.819;  344.900;  320.475;    0.000
463.862;  294.900;  283.475;    0.000

