
Integration time [ms]:   1.000
Averaging Nr. [scans]: 1
Smoothing Nr. [pixels]: 0
Data measured with spectrometer [name]: VIS
Wave   ;Sample   ;Dark     ;Reference
[nm]   ;[counts] ;[counts] ;[counts] 

450.961;  207.875;  200.375;    0.000
451.100;  215.875;  241.375;    0.000
451.239;  217.875;  201.375;    0.000
451.377;  234.875;  262.375;    0.000
451.516;  187.875;  229.375;    0.000
451.655;  250.875;  211.375;    0.000
451.794;  234.875;  225.375;    0.000
451.932;  253.875;  247.375;    0.000
452.071;  216.875;  260.375;    0.000
452.210;  216.875;  235.375;    0.000
452.348;  222.875;  276.375;    0.000
452.487;  260.875;  259.375;    0.000
452.626;  243.875;  254.375;    0.000
452.764;  239.875;  233.375;    0.000
452.903;  235.875;  202.375;    0.000
453.042;  246.875;  211.375;    0.000
453.180; 2143.875;  240.375;    0.000
453.319; 2162.875;  238.375;    0.000
453.458; 2162.875;  215.375;    0.000
453.596; 2202.875;  252.375;    0.000
453.735; 2166.875;  240.375;    0.000
453.873; 2264.875;  257.375;    0.000
454.012; 2338.875;  228.375;    0.000
454.150; 2292.875;  270.375;    0.000
454.289; 2344.875;  233.375;    0.000
454.427; 2268.875;  243.375;    0.000
454.566; 2313.875;  257.375;    0.000
454.704; 2318.875;  243.375;    0.000
454.843; 2345.875;  190.375;    0.000
454.981; 2427.875;  271.375;    0.000
455.120; 2443.875;  210.375;    0.000
455.258; 2487.875;  235.375;    0.000
455.397; 2462.875;  214.375;    0.000
455.535; 2397.875;  214.375;    0.000
455.674; 2398.875;  184.375;    0.000
455.812; 2576.875;  228.375;    0.000
455.951; 2510.875;  204.375;    0.000
456.089; 2624.875;  220.375;    0.000
456.227; 2505.875;  196.375;    0.000
456.366; 2544.875;  261.375;    0.000
456.504; 2553.875;  249.375;    0.000
456.642; 2660.875;  245.375;    0.000
456.781; 2665.875;  183.375;    0.000
456.919; 2663.875;  203.375;    0.000
457.057; 2745.875;  177.375;    0.000
457.196; 2795.875;  191.375;    0.000
457.334; 2721.875;  233.375;    0.000
457.472; 2831.875;  214.375;    0.000
457.610; 2896.875;  230.375;    0.000
457.749; 2911.875;  247.375;    0.000
457.887; 2916.875;  220.375;    0.000
458.025; 3015.875;  195.375;    0.000
458.163; 3052.875;  224.375;    0.000
458.301; 3115.875;  228.375;    0.000
458.440; 3096.875;  200.375;    0.000
458.578; 3055.875;  233.375;    0.000
458.716; 3168.875;  182.375;    0.000
458.854; 3179.875;  251.375;    0.000
458.992; 3170.875;  187.375;    0.000
459.130; 3323.875;  229.375;    0.000
459.269; 3280.875;  237.375;    0.000
459.407; 3315.875;  228.375;    0.000
459.545; 3248.875;  216.375;    0.000
459.683; 3296.875;  204.375;    0.000
459.821; 3324.875;  191.375;    0.000
459.959; 3351.875;  227.375;    0.000
460.097; 3500.875;  221.375;    0.000
460.235; 3503.875;  241.375;    0.000
460.373; 3503.875;  231.375;    0.000
460.511; 3479.875;  214.375;    0.000
460.649; 3538.875;  172.375;    0.000
460.787; 3523.875;  275.375;    0.000
460.925; 3494.875;  175.375;    0.000
461.063; 3638.875;  252.375;    0.000
461.201; 3498.875;  210.375;    0.000
461.339; 3646.875;  237.375;    0.000
461.477; 3694.875;  210.375;    0.000
461.615; 3678.875;  236.375;    0.000
461.753; 3694.875;  215.375;    0.000
461.891; 3766.875;  222.375;    0.000
462.029; 3796.875;  227.375;    0.000
462.166; 3814.875;  202.375;    0.000
462.304; 3850.875;  191.375;    0.000
462.442; 3948.875;  210.375;    0.000
462.580; 3922.875;  184.375;    0.000
462.718; 3977.875;  220.375;    0.000
462.856; 3938.875;  226.375;    0.000
462.993; 3946.875;  254.375;    0.000
463.131; 3893.875;  200.375;    0.000
463.269; 3958.875;  215.375;    0.000
463.407; 3773.875;  213.375;    0.000
463.545; 3766.875;  242.375;    0.000
463.682; 3868.875;  212.375;    0.000
463.820; 3945.875;  185.375;    0.000
463.958; 4060.875;  212.375;    0.000
464.095; 4125.875;  181.375;    0.000
464.233; 4216.875;  192.375;    0.000
464.371; 4097.875;  247.375;    0.000
464.509; 4137.875;  151.375;    0.000
464.646; 4189.875;  207.375;    0.000
464.784; 4089.875;  199.375;    0.000
464.921; 4241.875;  253.375;    0.000
465.059; 3947.875;  214.375;    0.000
465.197; 3997.875;  200.375;    0.000
465.334; 3957.875;  180.375;    0.000
465.472; 3969.875;  204.375;    0.000
465.609; 3881.875;  203.375;    0.000
465.747; 3850.875;  214.375;    0.000
465.885; 3811.875;  233.375;    0.000
466.022; 3901.875;  215.375;    0.000
466.160; 3845.875;  201.375;    0.000
466.297; 3909.875;  196.375;    0.000
466.435; 3766.875;  230.375;    0.000
466.572; 3858.875;  227.375;    0.000
466.710; 3799.875;  218.375;    0.000
466.847; 3817.875;  245.375;    0.000
466.985; 3839.875;  223.375;    0.000
467.122; 3708.875;  168.375;    0.000
467.260; 3736.875;  196.375;    0.000
467.397; 3864.875;  198.375;    0.000
467.534; 3853.875;  219.375;    0.000
467.672; 3772.875;  214.375;    0.000
467.809; 3789.875;  185.375;    0.000
467.947; 3833.875;  247.375;    0.000
468.084; 3711.875;  196.375;    0.000
468.221; 3813.875;  238.375;    0.000
468.359; 3781.875;  236.375;    0.000
468.496; 3759.875;  235.375;    0.000
468.633; 3793.875;  218.375;    0.000
468.771; 3922.875;  223.375;    0.000
468.908; 3811.875;  208.375;    0.000
469.045; 3845.875;  249.375;    0.000
469.183; 3822.875;  222.375;    0.000
469.320; 3891.875;  216.375;    0.000
469.457; 3990.875;  224.375;    0.000
469.594; 3906.875;  259.375;    0.000
469.732; 3911.875;  223.375;    0.000
469.869; 4062.875;  234.375;    0.000
470.006; 4032.875;  225.375;    0.000
470.143; 4030.875;  243.375;    0.000
470.280; 4080.875;  208.375;    0.000
470.417; 4130.875;  232.375;    0.000
470.555; 3980.875;  218.375;    0.000
470.692; 4129.875;  223.375;    0.000
470.829; 3976.875;  238.375;    0.000
470.966; 4045.875;  205.375;    0.000
471.103; 4078.875;  259.375;    0.000
471.240; 4157.875;  214.375;    0.000
471.377; 3953.875;  226.375;    0.000
471.514; 4089.875;  250.375;    0.000
471.651; 3977.875;  221.375;    0.000
471.789; 4058.875;  242.375;    0.000
471.926; 3889.875;  190.375;    0.000
472.063; 3985.875;  234.375;    0.000
472.200; 3873.875;  252.375;    0.000
472.337; 3849.875;  241.375;    0.000
472.474; 3982.875;  244.375;    0.000
472.611; 3921.875;  268.375;    0.000
472.748; 3921.875;  222.375;    0.000
472.884; 4037.875;  271.375;    0.000
473.021; 3879.875;  195.375;    0.000
473.158; 3824.875;  205.375;    0.000
473.295; 3859.875;  223.375;    0.000
473.432; 3999.875;  216.375;    0.000
473.569; 3903.875;  196.375;    0.000
473.706; 3848.875;  190.375;    0.000
473.843; 3915.875;  211.375;    0.000
473.980; 3848.875;  254.375;    0.000
474.117; 3938.875;  185.375;    0.000
474.253; 3952.875;  229.375;    0.000
474.390; 3921.875;  238.375;    0.000
474.527; 3890.875;  220.375;    0.000
474.664; 3881.875;  242.375;    0.000
474.801; 3942.875;  229.375;    0.000
474.937; 4057.875;  229.375;    0.000
475.074; 3937.875;  210.375;    0.000
475.211; 3914.875;  219.375;    0.000
475.348; 3985.875;  226.375;    0.000
475.484; 4034.875;  207.375;    0.000
475.621; 4117.875;  233.375;    0.000
475.758; 3961.875;  230.375;    0.000
475.894; 4110.875;  234.375;    0.000
476.031; 4047.875;  202.375;    0.000
476.168; 3928.875;  222.375;    0.000
476.304; 3999.875;  237.375;    0.000
476.441; 4065.875;  238.375;    0.000
476.578; 4038.875;  216.375;    0.000
476.714; 4058.875;  212.375;    0.000
476.851; 4097.875;  210.375;    0.000
476.987; 4178.875;  239.375;    0.000
477.124; 4147.875;  250.375;    0.000
477.261; 4270.875;  227.375;    0.000
477.397; 4084.875;  189.375;    0.000
477.534; 4113.875;  204.375;    0.000
477.670; 4016.875;  190.375;    0.000
477.807; 4182.875;  198.375;    0.000
477.943; 4182.875;  216.375;    0.000
478.080; 4137.875;  213.375;    0.000
478.216; 4305.875;  239.375;    0.000
478.353; 4169.875;  218.375;    0.000
478.489; 4346.875;  184.375;    0.000
478.626; 4390.875;  223.375;    0.000
478.762; 4285.875;  213.375;    0.000
478.898; 4297.875;  216.375;    0.000
479.035; 4447.875;  250.375;    0.000
479.171; 4264.875;  201.375;    0.000
479.308; 4296.875;  242.375;    0.000
479.444; 4323.875;  205.375;    0.000
479.580; 4343.875;  203.375;    0.000
479.717; 4316.875;  260.375;    0.000
479.853; 4397.875;  225.375;    0.000
479.989; 4429.875;  226.375;    0.000
480.126; 4452.875;  211.375;    0.000
480.262; 4262.875;  220.375;    0.000
480.398; 4383.875;  207.375;    0.000
480.535; 4379.875;  179.375;    0.000
480.671; 4439.875;  200.375;    0.000
480.807; 4351.875;  190.375;    0.000
480.943; 4382.875;  165.375;    0.000
481.080; 4388.875;  210.375;    0.000
481.216; 4530.875;  232.375;    0.000
481.352; 4358.875;  235.375;    0.000
481.488; 4298.875;  208.375;    0.000
481.624; 4402.875;  245.375;    0.000
481.760; 4329.875;  210.375;    0.000
481.897; 4378.875;  189.375;    0.000
482.033; 4484.875;  256.375;    0.000
482.169; 4424.875;  257.375;    0.000
482.305; 4488.875;  199.375;    0.000
482.441; 4401.875;  182.375;    0.000
482.577; 4406.875;  223.375;    0.000
482.713; 4425.875;  243.375;    0.000
482.849; 4275.875;  197.375;    0.000
482.985; 4359.875;  240.375;    0.000
483.121; 4377.875;  210.375;    0.000
483.258; 4382.875;  248.375;    0.000
483.394; 4311.875;  224.375;    0.000
483.530; 4378.875;  209.375;    0.000
483.665; 4448.875;  225.375;    0.000
483.801; 4273.875;  216.375;    0.000
483.937; 4388.875;  211.375;    0.000
484.073; 4370.875;  259.375;    0.000
484.209; 4316.875;  191.375;    0.000
484.345; 4529.875;  239.375;    0.000
484.481; 4451.875;  231.375;    0.000
484.617; 4489.875;  216.375;    0.000
484.753; 4434.875;  180.375;    0.000
484.889; 4433.875;  252.375;    0.000
485.025; 4443.875;  244.375;    0.000
485.161; 4420.875;  242.375;    0.000
485.296; 4367.875;  235.375;    0.000
485.432; 4404.875;  247.375;    0.000
485.568; 4387.875;  203.375;    0.000
485.704; 4408.875;  229.375;    0.000
485.840; 4415.875;  230.375;    0.000
485.975; 4528.875;  266.375;    0.000
486.111; 4441.875;  220.375;    0.000
486.247; 4580.875;  264.375;    0.000
486.383; 4549.875;  213.375;    0.000
486.518; 4538.875;  222.375;    0.000
486.654; 4475.875;  244.375;    0.000
486.790; 4427.875;  273.375;    0.000
486.926; 4547.875;  203.375;    0.000
487.061; 4479.875;  227.375;    0.000
487.197; 4428.875;  210.375;    0.000
487.333; 4488.875;  209.375;    0.000
487.468; 4488.875;  197.375;    0.000
487.604; 4584.875;  230.375;    0.000
487.740; 4526.875;  254.375;    0.000
487.875; 4603.875;  286.375;    0.000
488.011; 4551.875;  225.375;    0.000
488.146; 4423.875;  251.375;    0.000
488.282; 4507.875;  242.375;    0.000
488.417; 4542.875;  230.375;    0.000
488.553; 4618.875;  260.375;    0.000
488.688; 4446.875;  207.375;    0.000
488.824; 4382.875;  204.375;    0.000
488.960; 4574.875;  248.375;    0.000
489.095; 4592.875;  204.375;    0.000
489.230; 4518.875;  227.375;    0.000
489.366; 4484.875;  226.375;    0.000
489.501; 4506.875;  199.375;    0.000
489.637; 4530.875;  233.375;    0.000
489.772; 4515.875;  249.375;    0.000
489.908; 4628.875;  200.375;    0.000
490.043; 4573.875;  246.375;    0.000
490.178; 4634.875;  222.375;    0.000
490.314; 4594.875;  219.375;    0.000
490.449; 4638.875;  227.375;    0.000
490.585; 4501.875;  209.375;    0.000
490.720; 4527.875;  238.375;    0.000
490.855; 4546.875;  222.375;    0.000
490.991; 4358.875;  202.375;    0.000
491.126; 4560.875;  272.375;    0.000
491.261; 4573.875;  261.375;    0.000
491.396; 4544.875;  190.375;    0.000
491.532; 4436.875;  202.375;    0.000
491.667; 4540.875;  208.375;    0.000
491.802; 4493.875;  203.375;    0.000
491.937; 4477.875;  253.375;    0.000
492.073; 4627.875;  242.375;    0.000
492.208; 4581.875;  230.375;    0.000
492.343; 4555.875;  183.375;    0.000
492.478; 4595.875;  246.375;    0.000
492.613; 4477.875;  223.375;    0.000
492.749; 4622.875;  230.375;    0.000
492.884; 4527.875;  190.375;    0.000
493.019; 4566.875;  234.375;    0.000
493.154; 4668.875;  218.375;    0.000
493.289; 4575.875;  222.375;    0.000
493.424; 4602.875;  196.375;    0.000
493.559; 4714.875;  202.375;    0.000
493.694; 4584.875;  180.375;    0.000
493.829; 4653.875;  224.375;    0.000
493.964; 4498.875;  218.375;    0.000
494.099; 4686.875;  275.375;    0.000
494.234; 4606.875;  226.375;    0.000
494.369; 4711.875;  225.375;    0.000
494.504; 4601.875;  219.375;    0.000
494.639; 4608.875;  296.375;    0.000
494.774; 4568.875;  228.375;    0.000
494.909; 4612.875;  222.375;    0.000
495.044; 4526.875;  215.375;    0.000
495.179; 4665.875;  200.375;    0.000
495.314; 4627.875;  235.375;    0.000
495.449; 4585.875;  249.375;    0.000
495.584; 4541.875;  228.375;    0.000
495.719; 4580.875;  212.375;    0.000
495.854; 4537.875;  201.375;    0.000
495.988; 4706.875;  248.375;    0.000
496.123; 4715.875;  209.375;    0.000
496.258; 4645.875;  249.375;    0.000
496.393; 4581.875;  223.375;    0.000
496.528; 4715.875;  209.375;    0.000
496.663; 4630.875;  207.375;    0.000
496.797; 4802.875;  229.375;    0.000
496.932; 4785.875;  225.375;    0.000
497.067; 4791.875;  218.375;    0.000
497.202; 4926.875;  163.375;    0.000
497.336; 4888.875;  246.375;    0.000
497.471; 4910.875;  229.375;    0.000
497.606; 5039.875;  251.375;    0.000
497.740; 5030.875;  220.375;    0.000
497.875; 5128.875;  216.375;    0.000
498.010; 5175.875;  226.375;    0.000
498.144; 5368.875;  237.375;    0.000
498.279; 5378.875;  196.375;    0.000
498.414; 5426.875;  219.375;    0.000
498.548; 5517.875;  205.375;    0.000
498.683; 5502.875;  206.375;    0.000
498.817; 5533.875;  225.375;    0.000
498.952; 5682.875;  221.375;    0.000
499.087; 5782.875;  220.375;    0.000
499.221; 5881.875;  233.375;    0.000
499.356; 6018.875;  230.375;    0.000
499.490; 6157.875;  229.375;    0.000
499.625; 6366.875;  231.375;    0.000
499.759; 6422.875;  243.375;    0.000
499.894; 6519.875;  241.375;    0.000
500.028; 6676.875;  264.375;    0.000
500.162; 6677.875;  287.375;    0.000
500.297; 6832.875;  234.375;    0.000
500.431; 6952.875;  230.375;    0.000
500.566; 6980.875;  213.375;    0.000
500.700; 6823.875;  243.375;    0.000
500.835; 6707.875;  272.375;    0.000
500.969; 6425.875;  188.375;    0.000
501.103; 6407.875;  200.375;    0.000
501.238; 6359.875;  257.375;    0.000
501.372; 6144.875;  224.375;    0.000
501.506; 5984.875;  225.375;    0.000
501.641; 5869.875;  271.375;    0.000
501.775; 5642.875;  199.375;    0.000
501.909; 5594.875;  249.375;    0.000
502.043; 5437.875;  211.375;    0.000
502.178; 5441.875;  269.375;    0.000
502.312; 5365.875;  198.375;    0.000
502.446; 5158.875;  256.375;    0.000
502.580; 5082.875;  195.375;    0.000
502.715; 5237.875;  224.375;    0.000
502.849; 5167.875;  245.375;    0.000
502.983; 4979.875;  250.375;    0.000
503.117; 4950.875;  193.375;    0.000
503.251; 4870.875;  242.375;    0.000
503.385; 4749.875;  227.375;    0.000
503.520; 4692.875;  235.375;    0.000
503.654; 4626.875;  220.375;    0.000
503.788; 4586.875;  267.375;    0.000
503.922; 4612.875;  220.375;    0.000
504.056; 4553.875;  238.375;    0.000
504.190; 4525.875;  212.375;    0.000
504.324; 4616.875;  265.375;    0.000
504.458; 4454.875;  228.375;    0.000
504.592; 4579.875;  231.375;    0.000
504.726; 4387.875;  218.375;    0.000
504.860; 4447.875;  253.375;    0.000
504.994; 4301.875;  217.375;    0.000
505.128; 4270.875;  243.375;    0.000
505.262; 4226.875;  194.375;    0.000
505.396; 4130.875;  210.375;    0.000
505.530; 4098.875;  211.375;    0.000
505.664; 4017.875;  219.375;    0.000
505.798; 4128.875;  240.375;    0.000
505.932; 4072.875;  240.375;    0.000
506.066; 4058.875;  252.375;    0.000
506.199; 3968.875;  242.375;    0.000
506.333; 3927.875;  244.375;    0.000
506.467; 3999.875;  223.375;    0.000
506.601; 3969.875;  183.375;    0.000
506.735; 3950.875;  249.375;    0.000
506.869; 3941.875;  270.375;    0.000
507.002; 3918.875;  207.375;    0.000
507.136; 3862.875;  242.375;    0.000
507.270; 3737.875;  232.375;    0.000
507.404; 3730.875;  195.375;    0.000
507.537; 3743.875;  218.375;    0.000
507.671; 3758.875;  246.375;    0.000
507.805; 3688.875;  244.375;    0.000
507.939; 3679.875;  251.375;    0.000
508.072; 3700.875;  212.375;    0.000
508.206; 3604.875;  198.375;    0.000
508.340; 3714.875;  234.375;    0.000
508.473; 3625.875;  217.375;    0.000
508.607; 3682.875;  224.375;    0.000
508.740; 3563.875;  207.375;    0.000
508.874; 3607.875;  230.375;    0.000
509.008; 3654.875;  246.375;    0.000
509.141; 3545.875;  239.375;    0.000
509.275; 3618.875;  229.375;    0.000
509.408; 3692.875;  234.375;    0.000
509.542; 3492.875;  212.375;    0.000
509.675; 3588.875;  256.375;    0.000
509.809; 3647.875;  232.375;    0.000
509.942; 3510.875;  237.375;    0.000
510.076; 3601.875;  226.375;    0.000
510.209; 3505.875;  251.375;    0.000
510.343; 3573.875;  229.375;    0.000
510.476; 3512.875;  285.375;    0.000
510.610; 3482.875;  211.375;    0.000
510.743; 3495.875;  258.375;    0.000
510.877; 3505.875;  244.375;    0.000
511.010; 3355.875;  235.375;    0.000
511.143; 3477.875;  251.375;    0.000
511.277; 3484.875;  228.375;    0.000
511.410; 3408.875;  216.375;    0.000
511.543; 3483.875;  231.375;    0.000
511.677; 3484.875;  244.375;    0.000
511.810; 3499.875;  186.375;    0.000
511.943; 3501.875;  211.375;    0.000
512.077; 3587.875;  201.375;    0.000
512.210; 3456.875;  194.375;    0.000
512.343; 3411.875;  233.375;    0.000
512.476; 3528.875;  234.375;    0.000
512.610; 3403.875;  224.375;    0.000
512.743; 3366.875;  255.375;    0.000
512.876; 3415.875;  264.375;    0.000
513.009; 3492.875;  283.375;    0.000
513.142; 3455.875;  246.375;    0.000
513.276; 3314.875;  217.375;    0.000
513.409; 3404.875;  222.375;    0.000
513.542; 3390.875;  237.375;    0.000
513.675; 3507.875;  238.375;    0.000
513.808; 3392.875;  220.375;    0.000
513.941; 3404.875;  233.375;    0.000
514.074; 3319.875;  248.375;    0.000
514.207; 3420.875;  233.375;    0.000
514.340; 3462.875;  190.375;    0.000
514.474; 3407.875;  221.375;    0.000
514.607; 3461.875;  213.375;    0.000
514.740; 3458.875;  251.375;    0.000
514.873; 3499.875;  257.375;    0.000
515.006; 3534.875;  268.375;    0.000
515.139; 3498.875;  257.375;    0.000
515.272; 3555.875;  227.375;    0.000
515.404; 3638.875;  238.375;    0.000
515.537; 3606.875;  275.375;    0.000
515.670; 3644.875;  239.375;    0.000
515.803; 3618.875;  223.375;    0.000
515.936; 3682.875;  202.375;    0.000
516.069; 3652.875;  188.375;    0.000
516.202; 3672.875;  240.375;    0.000
516.335; 3873.875;  252.375;    0.000
516.468; 3980.875;  254.375;    0.000
516.600; 4832.875;  254.375;    0.000
516.733; 6229.875;  255.375;    0.000
516.866; 6347.875;  265.375;    0.000
516.999; 5593.875;  251.375;    0.000
517.132; 7117.875;  256.375;    0.000
517.264;10171.875;  202.375;    0.000
517.397; 9965.875;  248.375;    0.000
517.530; 7224.875;  221.375;    0.000
517.663; 5917.875;  244.375;    0.000
517.795; 5349.875;  245.375;    0.000
517.928; 5018.875;  236.375;    0.000
518.061; 5329.875;  219.375;    0.000
518.193; 7077.875;  251.375;    0.000
518.326;11801.875;  271.375;    0.000
518.459;12741.875;  207.375;    0.000
518.591; 9366.875;  217.375;    0.000
518.724; 6749.875;  200.375;    0.000
518.857; 5841.875;  204.375;    0.000
518.989; 5241.875;  242.375;    0.000
519.122; 4731.875;  254.375;    0.000
519.254; 4586.875;  239.375;    0.000
519.387; 4369.875;  235.375;    0.000
519.519; 4121.875;  227.375;    0.000
519.652; 3977.875;  178.375;    0.000
519.784; 3922.875;  226.375;    0.000
519.917; 3864.875;  256.375;    0.000
520.049; 3781.875;  234.375;    0.000
520.182; 3681.875;  258.375;    0.000
520.314; 3597.875;  298.375;    0.000
520.447; 3580.875;  204.375;    0.000
520.579; 3667.875;  235.375;    0.000
520.712; 3469.875;  208.375;    0.000
520.844; 3467.875;  272.375;    0.000
520.976; 3505.875;  234.375;    0.000
521.109; 3341.875;  235.375;    0.000
521.241; 3498.875;  250.375;    0.000
521.373; 3269.875;  233.375;    0.000
521.506; 3394.875;  231.375;    0.000
521.638; 3285.875;  258.375;    0.000
521.770; 3213.875;  226.375;    0.000
521.903; 3262.875;  258.375;    0.000
522.035; 3239.875;  263.375;    0.000
522.167; 3134.875;  214.375;    0.000
522.300; 3225.875;  212.375;    0.000
522.432; 3171.875;  220.375;    0.000
522.564; 3186.875;  228.375;    0.000
522.696; 3150.875;  272.375;    0.000
522.828; 3136.875;  222.375;    0.000
522.961; 3273.875;  205.375;    0.000
523.093; 3114.875;  253.375;    0.000
523.225; 3136.875;  239.375;    0.000
523.357; 3160.875;  263.375;    0.000
523.489; 3095.875;  264.375;    0.000
523.621; 3053.875;  259.375;    0.000
523.753; 2998.875;  233.375;    0.000
523.885; 3051.875;  232.375;    0.000
524.018; 3041.875;  214.375;    0.000
524.150; 2944.875;  235.375;    0.000
524.282; 3049.875;  242.375;    0.000
524.414; 3046.875;  261.375;    0.000
524.546; 3034.875;  233.375;    0.000
524.678; 2981.875;  242.375;    0.000
524.810; 2981.875;  216.375;    0.000
524.942; 2927.875;  220.375;    0.000
525.074; 2942.875;  249.375;    0.000
525.206; 2922.875;  227.375;    0.000
525.338; 2885.875;  250.375;    0.000
525.469; 2829.875;  231.375;    0.000
525.601; 2934.875;  245.375;    0.000
525.733; 2942.875;  187.375;    0.000
525.865; 2850.875;  280.375;    0.000
525.997; 2793.875;  216.375;    0.000
526.129; 2853.875;  228.375;    0.000
526.261; 2840.875;  187.375;    0.000
526.393; 2908.875;  228.375;    0.000
526.524; 2764.875;  201.375;    0.000
526.656; 2795.875;  199.375;    0.000
526.788; 2929.875;  233.375;    0.000
526.920; 2837.875;  256.375;    0.000
527.052; 2719.875;  219.375;    0.000
527.183; 2879.875;  227.375;    0.000
527.315; 2814.875;  266.375;    0.000
527.447; 2779.875;  239.375;    0.000
527.578; 2857.875;  213.375;    0.000
527.710; 2762.875;  216.375;    0.000
527.842; 2732.875;  240.375;    0.000
527.973; 2758.875;  286.375;    0.000
528.105; 2850.875;  222.375;    0.000
528.237; 2755.875;  223.375;    0.000
528.368; 2762.875;  211.375;    0.000
528.500; 2725.875;  215.375;    0.000
528.632; 2754.875;  216.375;    0.000
528.763; 2718.875;  234.375;    0.000
528.895; 2822.875;  196.375;    0.000
529.026; 2758.875;  202.375;    0.000
529.158; 2707.875;  226.375;    0.000
529.289; 2808.875;  229.375;    0.000
529.421; 2728.875;  264.375;    0.000
529.552; 2742.875;  265.375;    0.000
529.684; 2716.875;  260.375;    0.000
529.815; 2772.875;  284.375;    0.000
529.947; 2725.875;  237.375;    0.000
530.078; 2771.875;  223.375;    0.000
530.210; 2658.875;  223.375;    0.000
530.341; 2733.875;  209.375;    0.000
530.472; 2687.875;  203.375;    0.000
530.604; 2653.875;  223.375;    0.000
530.735; 2714.875;  218.375;    0.000
530.867; 2806.875;  222.375;    0.000
530.998; 2805.875;  239.375;    0.000
531.129; 2718.875;  250.375;    0.000
531.260; 2769.875;  224.375;    0.000
531.392; 2758.875;  216.375;    0.000
531.523; 2744.875;  234.375;    0.000
531.654; 2785.875;  256.375;    0.000
531.786; 2742.875;  226.375;    0.000
531.917; 2841.875;  239.375;    0.000
532.048; 2772.875;  205.375;    0.000
532.179; 2831.875;  244.375;    0.000
532.311; 2771.875;  235.375;    0.000
532.442; 2872.875;  258.375;    0.000
532.573; 2773.875;  220.375;    0.000
532.704; 2757.875;  213.375;    0.000
532.835; 2758.875;  249.375;    0.000
532.966; 2706.875;  226.375;    0.000
533.097; 2779.875;  246.375;    0.000
533.229; 2701.875;  237.375;    0.000
533.360; 2781.875;  225.375;    0.000
533.491; 2686.875;  241.375;    0.000
533.622; 2790.875;  242.375;    0.000
533.753; 2788.875;  264.375;    0.000
533.884; 2781.875;  245.375;    0.000
534.015; 2769.875;  269.375;    0.000
534.146; 2750.875;  267.375;    0.000
534.277; 2754.875;  282.375;    0.000
534.408; 2771.875;  229.375;    0.000
534.539; 2745.875;  269.375;    0.000
534.670; 2733.875;  231.375;    0.000
534.801; 2728.875;  260.375;    0.000
534.932; 2628.875;  232.375;    0.000
535.063; 2712.875;  227.375;    0.000
535.194; 2755.875;  281.375;    0.000
535.324; 2681.875;  206.375;    0.000
535.455; 2731.875;  257.375;    0.000
535.586; 2731.875;  275.375;    0.000
535.717; 2715.875;  206.375;    0.000
535.848; 2642.875;  271.375;    0.000
535.979; 2647.875;  250.375;    0.000
536.109; 2670.875;  253.375;    0.000
536.240; 2654.875;  234.375;    0.000
536.371; 2664.875;  230.375;    0.000
536.502; 2710.875;  270.375;    0.000
536.632; 2636.875;  228.375;    0.000
536.763; 2702.875;  249.375;    0.000
536.894; 2642.875;  262.375;    0.000
537.025; 2579.875;  258.375;    0.000
537.155; 2710.875;  278.375;    0.000
537.286; 2599.875;  209.375;    0.000
537.417; 2702.875;  255.375;    0.000
537.547; 2618.875;  208.375;    0.000
537.678; 2618.875;  224.375;    0.000
537.808; 2596.875;  224.375;    0.000
537.939; 2672.875;  257.375;    0.000
538.070; 2626.875;  240.375;    0.000
538.200; 2624.875;  259.375;    0.000
538.331; 2666.875;  235.375;    0.000
538.461; 2509.875;  251.375;    0.000
538.592; 2707.875;  245.375;    0.000
538.722; 2624.875;  239.375;    0.000
538.853; 2657.875;  216.375;    0.000
538.983; 2668.875;  226.375;    0.000
539.114; 2617.875;  240.375;    0.000
539.244; 2646.875;  237.375;    0.000
539.375; 2589.875;  198.375;    0.000
539.505; 2631.875;  263.375;    0.000
539.636; 2563.875;  226.375;    0.000
539.766; 2641.875;  229.375;    0.000
539.896; 2546.875;  219.375;    0.000
540.027; 2613.875;  246.375;    0.000
540.157; 2616.875;  218.375;    0.000
540.287; 2652.875;  216.375;    0.000
540.418; 2601.875;  267.375;    0.000
540.548; 2580.875;  260.375;    0.000
540.678; 2503.875;  242.375;    0.000
540.809; 2647.875;  260.375;    0.000
540.939; 2637.875;  257.375;    0.000
541.069; 2689.875;  226.375;    0.000
541.200; 2607.875;  227.375;    0.000
541.330; 2662.875;  218.375;    0.000
541.460; 2582.875;  223.375;    0.000
541.590; 2627.875;  237.375;    0.000
541.720; 2621.875;  222.375;    0.000
541.851; 2654.875;  250.375;    0.000
541.981; 2636.875;  222.375;    0.000
542.111; 2678.875;  212.375;    0.000
542.241; 2696.875;  205.375;    0.000
542.371; 2647.875;  202.375;    0.000
542.501; 2732.875;  218.375;    0.000
542.631; 2665.875;  222.375;    0.000
542.761; 2732.875;  249.375;    0.000
542.891; 2735.875;  173.375;    0.000
543.021; 2736.875;  218.375;    0.000
543.151; 2747.875;  222.375;    0.000
543.281; 2721.875;  188.375;    0.000
543.411; 2721.875;  239.375;    0.000
543.542; 2646.875;  215.375;    0.000
543.671; 2691.875;  250.375;    0.000
543.801; 2700.875;  212.375;    0.000
543.931; 2679.875;  233.375;    0.000
544.061; 2721.875;  194.375;    0.000
544.191; 2694.875;  218.375;    0.000
544.321; 2750.875;  220.375;    0.000
544.451; 2717.875;  183.375;    0.000
544.581; 2682.875;  221.375;    0.000
544.711; 2741.875;  224.375;    0.000
544.841; 2746.875;  214.375;    0.000
544.970; 2746.875;  227.375;    0.000
545.100; 2763.875;  186.375;    0.000
545.230; 2818.875;  205.375;    0.000
545.360; 2687.875;  211.375;    0.000
545.490; 2708.875;  202.375;    0.000
545.619; 2694.875;  182.375;    0.000
545.749; 2650.875;  174.375;    0.000
545.879; 2652.875;  169.375;    0.000
546.009; 2702.875;  182.375;    0.000
546.138; 2683.875;  200.375;    0.000
546.268; 2692.875;  204.375;    0.000
546.398; 2656.875;  200.375;    0.000
546.527; 2687.875;  179.375;    0.000
546.657; 2664.875;  162.375;    0.000
546.786; 2692.875;  179.375;    0.000
546.916; 2715.875;  221.375;    0.000
547.046; 2699.875;  179.375;    0.000
547.175; 2752.875;  168.375;    0.000
547.305; 2601.875;  200.375;    0.000
547.434; 2637.875;  166.375;    0.000
547.564; 2642.875;  177.375;    0.000
547.693; 2678.875;  152.375;    0.000
547.823; 2613.875;  171.375;    0.000
547.953; 2663.875;  195.375;    0.000
548.082; 2765.875;  214.375;    0.000
548.211; 2684.875;  177.375;    0.000
548.341; 2694.875;  189.375;    0.000
548.470; 2665.875;  194.375;    0.000
548.600; 2628.875;  172.375;    0.000
548.729; 2761.875;  158.375;    0.000
548.859; 2653.875;  193.375;    0.000
548.988; 2700.875;  131.375;    0.000
549.117; 2705.875;  204.375;    0.000
549.247; 2783.875;  191.375;    0.000
549.376; 2669.875;  202.375;    0.000
549.505; 2669.875;  187.375;    0.000
549.635; 2689.875;  198.375;    0.000
549.764; 2657.875;  155.375;    0.000
549.893; 2702.875;  176.375;    0.000
550.023; 2785.875;  202.375;    0.000
550.152; 2663.875;  168.375;    0.000
550.281; 2711.875;  180.375;    0.000
550.410; 2819.875;  180.375;    0.000
550.539; 2702.875;  181.375;    0.000
550.669; 2705.875;  168.375;    0.000
550.798; 2796.875;  223.375;    0.000
550.927; 2730.875;  179.375;    0.000
551.056; 2720.875;  159.375;    0.000
551.185; 2672.875;  199.375;    0.000
551.314; 2753.875;  185.375;    0.000
551.443; 2717.875;  172.375;    0.000
551.573; 2702.875;  158.375;    0.000
551.702; 2729.875;  210.375;    0.000
551.831; 2749.875;  238.375;    0.000
551.960; 2789.875;  191.375;    0.000
552.089; 2799.875;  195.375;    0.000
552.218; 2764.875;  196.375;    0.000
552.347; 2773.875;  194.375;    0.000
552.476; 2851.875;  192.375;    0.000
552.605; 2809.875;  172.375;    0.000
552.734; 2922.875;  214.375;    0.000
552.863; 3037.875;  177.375;    0.000
552.992; 3103.875;  190.375;    0.000
553.121; 3044.875;  185.375;    0.000
553.249; 2983.875;  175.375;    0.000
553.378; 2908.875;  192.375;    0.000
553.507; 2867.875;  193.375;    0.000
553.636; 2898.875;  182.375;    0.000
553.765; 2797.875;  187.375;    0.000
553.894; 2816.875;  214.375;    0.000
554.023; 2789.875;  217.375;    0.000
554.151; 2826.875;  223.375;    0.000
554.280; 2820.875;  170.375;    0.000
554.409; 2755.875;  172.375;    0.000
554.538; 2797.875;  182.375;    0.000
554.666; 2741.875;  195.375;    0.000
554.795; 2838.875;  176.375;    0.000
554.924; 2755.875;  164.375;    0.000
555.052; 2664.875;  171.375;    0.000
555.181; 2741.875;  208.375;    0.000
555.310; 2793.875;  214.375;    0.000
555.439; 2780.875;  193.375;    0.000
555.567; 2734.875;  189.375;    0.000
555.696; 2739.875;  196.375;    0.000
555.824; 2655.875;  183.375;    0.000
555.953; 2719.875;  234.375;    0.000
556.082; 2619.875;  183.375;    0.000
556.210; 2658.875;  199.375;    0.000
556.339; 2710.875;  201.375;    0.000
556.467; 2704.875;  208.375;    0.000
556.596; 2800.875;  194.375;    0.000
556.724; 2638.875;  170.375;    0.000
556.853; 2678.875;  166.375;    0.000
556.981; 2618.875;  185.375;    0.000
557.110; 2685.875;  213.375;    0.000
557.238; 2671.875;  188.375;    0.000
557.367; 2626.875;  176.375;    0.000
557.495; 2712.875;  180.375;    0.000
557.623; 2680.875;  193.375;    0.000
557.752; 2683.875;  207.375;    0.000
557.880; 2708.875;  189.375;    0.000
558.008; 2530.875;  169.375;    0.000
558.137; 2631.875;  203.375;    0.000
558.265; 2705.875;  167.375;    0.000
558.393; 2742.875;  204.375;    0.000
558.522; 2611.875;  203.375;    0.000
558.650; 2730.875;  215.375;    0.000
558.778; 2748.875;  190.375;    0.000
558.906; 2701.875;  186.375;    0.000
559.035; 2688.875;  193.375;    0.000
559.163; 2580.875;  198.375;    0.000
559.291; 2718.875;  222.375;    0.000
559.419; 2683.875;  192.375;    0.000
559.548; 2577.875;  186.375;    0.000
559.676; 2643.875;  199.375;    0.000
559.804; 2667.875;  186.375;    0.000
559.932; 2714.875;  202.375;    0.000
560.060; 2688.875;  183.375;    0.000
560.188; 2797.875;  212.375;    0.000
560.316; 2700.875;  192.375;    0.000
560.444; 2722.875;  180.375;    0.000
560.572; 2700.875;  206.375;    0.000
560.700; 2793.875;  184.375;    0.000
560.828; 2839.875;  177.375;    0.000
560.956; 2757.875;  221.375;    0.000
561.085; 2676.875;  227.375;    0.000
561.212; 2749.875;  208.375;    0.000
561.340; 2765.875;  189.375;    0.000
561.468; 2774.875;  189.375;    0.000
561.596; 2859.875;  183.375;    0.000
561.724; 2747.875;  188.375;    0.000
561.852; 2831.875;  183.375;    0.000
561.980; 2757.875;  209.375;    0.000
562.108; 2738.875;  165.375;    0.000
562.236; 2818.875;  188.375;    0.000
562.364; 2840.875;  177.375;    0.000
562.492; 2780.875;  192.375;    0.000
562.619; 2833.875;  187.375;    0.000
562.747; 2834.875;  217.375;    0.000
562.875; 2902.875;  221.375;    0.000
563.003; 2859.875;  199.375;    0.000
563.130; 2923.875;  191.375;    0.000
563.258; 2947.875;  186.375;    0.000
563.386; 2908.875;  191.375;    0.000
563.514; 2932.875;  217.375;    0.000
563.641; 2928.875;  220.375;    0.000
563.769; 2916.875;  186.375;    0.000
563.897; 3020.875;  158.375;    0.000
564.024; 3019.875;  192.375;    0.000
564.152; 3077.875;  217.375;    0.000
564.280; 3003.875;  203.375;    0.000
564.407; 2999.875;  190.375;    0.000
564.535; 3119.875;  188.375;    0.000
564.662; 3164.875;  199.375;    0.000
564.790; 3167.875;  227.375;    0.000
564.917; 3140.875;  160.375;    0.000
565.045; 3192.875;  222.375;    0.000
565.173; 3116.875;  169.375;    0.000
565.300; 3167.875;  208.375;    0.000
565.428; 3210.875;  174.375;    0.000
565.555; 3259.875;  201.375;    0.000
565.682; 3271.875;  180.375;    0.000
565.810; 3335.875;  165.375;    0.000
565.937; 3328.875;  167.375;    0.000
566.065; 3440.875;  190.375;    0.000
566.192; 3462.875;  169.375;    0.000
566.320; 3482.875;  167.375;    0.000
566.447; 3558.875;  151.375;    0.000
566.574; 3641.875;  176.375;    0.000
566.702; 3629.875;  198.375;    0.000
566.829; 3746.875;  209.375;    0.000
566.956; 3588.875;  186.375;    0.000
567.083; 3726.875;  188.375;    0.000
567.211; 3697.875;  159.375;    0.000
567.338; 3747.875;  204.375;    0.000
567.465; 3786.875;  141.375;    0.000
567.593; 3681.875;  168.375;    0.000
567.720; 3690.875;  177.375;    0.000
567.847; 3753.875;  160.375;    0.000
567.974; 3746.875;  139.375;    0.000
568.101; 3794.875;  153.375;    0.000
568.228; 4123.875;  173.375;    0.000
568.356; 4250.875;  149.375;    0.000
568.483; 4053.875;  185.375;    0.000
568.610; 4020.875;  170.375;    0.000
568.737; 4382.875;  223.375;    0.000
568.864; 4766.875;  167.375;    0.000
568.991; 4460.875;  177.375;    0.000
569.118; 4095.875;  169.375;    0.000
569.245; 3811.875;  128.375;    0.000
569.372; 3730.875;  160.375;    0.000
569.499; 3530.875;  156.375;    0.000
569.626; 3477.875;  191.375;    0.000
569.753; 3416.875;  163.375;    0.000
569.880; 3386.875;  167.375;    0.000
570.007; 3258.875;  143.375;    0.000
570.134; 3206.875;  191.375;    0.000
570.261; 3157.875;  164.375;    0.000
570.388; 3121.875;  162.375;    0.000
570.515; 3216.875;  220.375;    0.000
570.642; 3138.875;  184.375;    0.000
570.768; 3046.875;  174.375;    0.000
570.895; 3145.875;  177.375;    0.000
571.022; 3107.875;  152.375;    0.000
571.149; 3113.875;  183.375;    0.000
571.276; 3066.875;  153.375;    0.000
571.402; 3030.875;  190.375;    0.000
571.529; 3041.875;  187.375;    0.000
571.656; 3018.875;  167.375;    0.000
571.783; 3005.875;  186.375;    0.000
571.909; 3020.875;  183.375;    0.000
572.036; 2976.875;  162.375;    0.000
572.163; 2891.875;  196.375;    0.000
572.289; 2948.875;  180.375;    0.000
572.416; 2891.875;  190.375;    0.000
572.543; 2871.875;  174.375;    0.000
572.669; 2749.875;  186.375;    0.000
572.796; 2898.875;  205.375;    0.000
572.922; 2851.875;  185.375;    0.000
573.049; 2866.875;  178.375;    0.000
573.176; 2790.875;  196.375;    0.000
573.302; 2839.875;  202.375;    0.000
573.429; 2826.875;  189.375;    0.000
573.555; 2850.875;  145.375;    0.000
573.682; 2868.875;  228.375;    0.000
573.808; 2832.875;  197.375;    0.000
573.935; 2826.875;  216.375;    0.000
574.061; 2814.875;  173.375;    0.000
574.188; 2684.875;  151.375;    0.000
574.314; 2753.875;  181.375;    0.000
574.440; 2749.875;  167.375;    0.000
574.567; 2782.875;  185.375;    0.000
574.693; 2708.875;  173.375;    0.000
574.820; 2779.875;  164.375;    0.000
574.946; 2715.875;  199.375;    0.000
575.072; 2901.875;  162.375;    0.000
575.198; 2714.875;  225.375;    0.000
575.325; 2709.875;  171.375;    0.000
575.451; 2700.875;  183.375;    0.000
575.577; 2768.875;  190.375;    0.000
575.704; 2753.875;  210.375;    0.000
575.830; 2766.875;  185.375;    0.000
575.956; 2793.875;  168.375;    0.000
576.082; 2757.875;  158.375;    0.000
576.208; 2661.875;  158.375;    0.000
576.335; 2821.875;  196.375;    0.000
576.461; 2726.875;  187.375;    0.000
576.587; 2743.875;  157.375;    0.000
576.713; 2737.875;  156.375;    0.000
576.839; 2711.875;  196.375;    0.000
576.965; 2761.875;  187.375;    0.000
577.091; 2698.875;  204.375;    0.000
577.217; 2786.875;  207.375;    0.000
577.343; 2631.875;  175.375;    0.000
577.469; 2756.875;  197.375;    0.000
577.596; 2711.875;  182.375;    0.000
577.722; 2700.875;  159.375;    0.000
577.848; 2728.875;  162.375;    0.000
577.974; 2724.875;  180.375;    0.000
578.099; 2743.875;  161.375;    0.000
578.225; 2724.875;  180.375;    0.000
578.351; 2751.875;  190.375;    0.000
578.477; 2697.875;  212.375;    0.000
578.603; 2767.875;  179.375;    0.000
578.729; 2672.875;  195.375;    0.000
578.855; 2701.875;  153.375;    0.000
578.981; 2718.875;  162.375;    0.000
579.107; 2721.875;  149.375;    0.000
579.232; 2706.875;  164.375;    0.000
579.358; 2739.875;  162.375;    0.000
579.484; 2789.875;  181.375;    0.000
579.610; 2760.875;  190.375;    0.000
579.735; 2771.875;  191.375;    0.000
579.861; 2742.875;  189.375;    0.000
579.987; 2816.875;  202.375;    0.000
580.113; 2711.875;  197.375;    0.000
580.238; 2671.875;  228.375;    0.000
580.364; 2736.875;  212.375;    0.000
580.490; 2742.875;  225.375;    0.000
580.615; 2785.875;  218.375;    0.000
580.741; 2734.875;  167.375;    0.000
580.867; 2874.875;  215.375;    0.000
580.992; 2817.875;  191.375;    0.000
581.118; 2762.875;  171.375;    0.000
581.243; 2851.875;  204.375;    0.000
581.369; 2794.875;  186.375;    0.000
581.494; 2810.875;  184.375;    0.000
581.620; 2829.875;  212.375;    0.000
581.745; 2816.875;  192.375;    0.000
581.871; 2892.875;  195.375;    0.000
581.996; 2758.875;  160.375;    0.000
582.122; 2776.875;  217.375;    0.000
582.247; 2881.875;  213.375;    0.000
582.373; 2831.875;  187.375;    0.000
582.498; 2881.875;  208.375;    0.000
582.624; 2858.875;  189.375;    0.000
582.749; 2901.875;  185.375;    0.000
582.874; 2869.875;  195.375;    0.000
583.000; 2868.875;  208.375;    0.000
583.125; 2893.875;  147.375;    0.000
583.250; 2972.875;  201.375;    0.000
583.376; 3007.875;  191.375;    0.000
583.501; 2879.875;  206.375;    0.000
583.626; 2929.875;  167.375;    0.000
583.751; 2961.875;  180.375;    0.000
583.877; 3041.875;  185.375;    0.000
584.002; 3072.875;  186.375;    0.000
584.127; 3046.875;  176.375;    0.000
584.252; 3117.875;  214.375;    0.000
584.377; 3119.875;  225.375;    0.000
584.503; 3091.875;  195.375;    0.000
584.628; 3035.875;  206.375;    0.000
584.753; 3062.875;  181.375;    0.000
584.878; 3109.875;  136.375;    0.000
585.003; 3196.875;  215.375;    0.000
585.128; 3316.875;  206.375;    0.000
585.253; 3336.875;  200.375;    0.000
585.378; 3322.875;  169.375;    0.000
585.503; 3287.875;  191.375;    0.000
585.628; 3361.875;  182.375;    0.000
585.753; 3343.875;  164.375;    0.000
585.878; 3385.875;  123.375;    0.000
586.003; 3596.875;  187.375;    0.000
586.128; 3642.875;  198.375;    0.000
586.253; 3583.875;  172.375;    0.000
586.378; 3728.875;  191.375;    0.000
586.503; 3863.875;  190.375;    0.000
586.628; 4019.875;  178.375;    0.000
586.753; 3980.875;  184.375;    0.000
586.878; 4122.875;  169.375;    0.000
587.003; 4217.875;  186.375;    0.000
587.127; 4318.875;  170.375;    0.000
587.252; 4648.875;  170.375;    0.000
587.377; 4819.875;  181.375;    0.000
587.502; 5008.875;  209.375;    0.000
587.627; 5327.875;  210.375;    0.000
587.751; 5666.875;  212.375;    0.000
587.876; 6059.875;  198.375;    0.000
588.001; 6396.875;  161.375;    0.000
588.125; 7143.875;  191.375;    0.000
588.250; 7942.875;  132.375;    0.000
588.375; 9148.875;  183.375;    0.000
588.499;10532.875;  176.375;    0.000
588.624;13039.875;  173.375;    0.000
588.749;16680.875;  204.375;    0.000
588.873;21172.875;  179.375;    0.000
588.998;25959.875;  182.375;    0.000
589.122;26505.875;  165.375;    0.000
589.247;23496.875;  185.375;    0.000
589.372;20797.875;  199.375;    0.000
589.496;22017.875;  182.375;    0.000
589.621;24300.875;  158.375;    0.000
589.745;22575.875;  213.375;    0.000
589.870;17815.875;  175.375;    0.000
589.994;14047.875;  194.375;    0.000
590.118;11675.875;  218.375;    0.000
590.243; 9871.875;  170.375;    0.000
590.367; 8638.875;  189.375;    0.000
590.492; 7524.875;  196.375;    0.000
590.616; 7166.875;  182.375;    0.000
590.740; 6590.875;  210.375;    0.000
590.865; 6144.875;  242.375;    0.000
590.989; 5796.875;  191.375;    0.000
591.114; 5493.875;  167.375;    0.000
591.238; 5178.875;  194.375;    0.000
591.362; 4924.875;  236.375;    0.000
591.486; 4901.875;  194.375;    0.000
591.611; 4697.875;  154.375;    0.000
591.735; 4617.875;  186.375;    0.000
591.859; 4552.875;  148.375;    0.000
591.983; 4349.875;  211.375;    0.000
592.107; 4207.875;  204.375;    0.000
592.232; 4185.875;  194.375;    0.000
592.356; 4109.875;  238.375;    0.000
592.480; 4071.875;  179.375;    0.000
592.604; 3959.875;  192.375;    0.000
592.728; 3926.875;  201.375;    0.000
592.852; 3853.875;  158.375;    0.000
592.976; 3761.875;  152.375;    0.000
593.100; 3664.875;  194.375;    0.000
593.224; 3790.875;  235.375;    0.000
593.349; 3736.875;  233.375;    0.000
593.473; 3585.875;  194.375;    0.000
593.597; 3629.875;  215.375;    0.000
593.721; 3607.875;  212.375;    0.000
593.844; 3510.875;  220.375;    0.000
593.968; 3515.875;  221.375;    0.000
594.092; 3397.875;  150.375;    0.000
594.216; 3389.875;  212.375;    0.000
594.340; 3390.875;  209.375;    0.000
594.464; 3320.875;  207.375;    0.000
594.588; 3336.875;  195.375;    0.000
594.712; 3205.875;  176.375;    0.000
594.836; 3331.875;  219.375;    0.000
594.959; 3232.875;  215.375;    0.000
595.083; 3249.875;  200.375;    0.000
595.207; 3225.875;  206.375;    0.000
595.331; 3115.875;  207.375;    0.000
595.455; 3118.875;  206.375;    0.000
595.578; 3043.875;  204.375;    0.000
595.702; 3111.875;  225.375;    0.000
595.826; 3071.875;  186.375;    0.000
595.949; 3162.875;  196.375;    0.000
596.073; 2988.875;  188.375;    0.000
596.197; 3004.875;  217.375;    0.000
596.320; 2994.875;  225.375;    0.000
596.444; 2918.875;  220.375;    0.000
596.568; 2854.875;  155.375;    0.000
596.691; 2815.875;  195.375;    0.000
596.815; 2903.875;  163.375;    0.000
596.938; 2926.875;  181.375;    0.000
597.062; 2900.875;  201.375;    0.000
597.186; 2864.875;  200.375;    0.000
597.309; 2748.875;  214.375;    0.000
597.433; 2826.875;  176.375;    0.000
597.556; 2882.875;  193.375;    0.000
597.680; 2805.875;  241.375;    0.000
597.803; 2689.875;  185.375;    0.000
597.926; 2855.875;  200.375;    0.000
598.050; 2722.875;  193.375;    0.000
598.173; 2738.875;  219.375;    0.000
598.297; 2675.875;  223.375;    0.000
598.420; 2781.875;  187.375;    0.000
598.543; 2640.875;  205.375;    0.000
598.667; 2640.875;  177.375;    0.000
598.790; 2782.875;  208.375;    0.000
598.913; 2698.875;  170.375;    0.000
599.037; 2621.875;  212.375;    0.000
599.160; 2651.875;  165.375;    0.000
599.283; 2691.875;  211.375;    0.000
599.406; 2660.875;  207.375;    0.000
599.530; 2648.875;  182.375;    0.000
599.653; 2589.875;  215.375;    0.000
599.776; 2666.875;  167.375;    0.000
599.899; 2626.875;  190.375;    0.000
600.022; 2587.875;  182.375;    0.000
600.145; 2547.875;  180.375;    0.000
600.269; 2695.875;  208.375;    0.000
600.392; 2616.875;  214.375;    0.000
600.515; 2586.875;  196.375;    0.000
600.638; 2624.875;  204.375;    0.000
600.761; 2610.875;  209.375;    0.000
600.884; 2626.875;  207.375;    0.000
601.007; 2621.875;  234.375;    0.000
601.130; 2526.875;  183.375;    0.000
601.253; 2555.875;  211.375;    0.000
601.376; 2554.875;  199.375;    0.000
601.499; 2510.875;  190.375;    0.000
601.622; 2479.875;  210.375;    0.000
601.745; 2536.875;  180.375;    0.000
601.868; 2588.875;  204.375;    0.000
601.991; 2548.875;  188.375;    0.000
602.113; 2608.875;  210.375;    0.000
602.236; 2546.875;  194.375;    0.000
602.359; 2459.875;  213.375;    0.000
602.482; 2591.875;  169.375;    0.000
602.605; 2483.875;  189.375;    0.000
602.728; 2523.875;  236.375;    0.000
602.850; 2540.875;  230.375;    0.000
602.973; 2488.875;  187.375;    0.000
603.096; 2558.875;  201.375;    0.000
603.219; 2484.875;  209.375;    0.000
603.341; 2418.875;  209.375;    0.000
603.464; 2487.875;  194.375;    0.000
603.587; 2489.875;  166.375;    0.000
603.709; 2508.875;  175.375;    0.000
603.832; 2453.875;  239.375;    0.000
603.955; 2496.875;  205.375;    0.000
604.077; 2530.875;  196.375;    0.000
604.200; 2437.875;  188.375;    0.000
604.323; 2417.875;  224.375;    0.000
604.445; 2423.875;  182.375;    0.000
604.568; 2459.875;  199.375;    0.000
604.690; 2406.875;  175.375;    0.000
604.813; 2449.875;  211.375;    0.000
604.935; 2491.875;  171.375;    0.000
605.058; 2406.875;  196.375;    0.000
605.180; 2458.875;  194.375;    0.000
605.303; 2432.875;  198.375;    0.000
605.425; 2445.875;  212.375;    0.000
605.547; 2502.875;  238.375;    0.000
605.670; 2394.875;  207.375;    0.000
605.792; 2448.875;  204.375;    0.000
605.915; 2385.875;  198.375;    0.000
606.037; 2419.875;  215.375;    0.000
606.159; 2480.875;  170.375;    0.000
606.282; 2552.875;  194.375;    0.000
606.404; 2403.875;  207.375;    0.000
606.526; 2391.875;  208.375;    0.000
606.648; 2388.875;  174.375;    0.000
606.771; 2343.875;  170.375;    0.000
606.893; 2297.875;  182.375;    0.000
607.015; 2368.875;  180.375;    0.000
607.137; 2436.875;  187.375;    0.000
607.260; 2391.875;  202.375;    0.000
607.382; 2462.875;  226.375;    0.000
607.504; 2395.875;  208.375;    0.000
607.626; 2453.875;  229.375;    0.000
607.748; 2481.875;  170.375;    0.000
607.870; 2434.875;  208.375;    0.000
607.992; 2386.875;  184.375;    0.000
608.114; 2382.875;  213.375;    0.000
608.237; 2437.875;  237.375;    0.000
608.359; 2415.875;  176.375;    0.000
608.481; 2384.875;  173.375;    0.000
608.603; 2394.875;  189.375;    0.000
608.725; 2336.875;  185.375;    0.000
608.847; 2421.875;  239.375;    0.000
608.969; 2344.875;  237.375;    0.000
609.090; 2389.875;  189.375;    0.000
609.212; 2350.875;  147.375;    0.000
609.334; 2345.875;  177.375;    0.000
609.456; 2413.875;  196.375;    0.000
609.578; 2315.875;  199.375;    0.000
609.700; 2333.875;  167.375;    0.000
609.822; 2446.875;  140.375;    0.000
609.944; 2387.875;  225.375;    0.000
610.065; 2391.875;  183.375;    0.000
610.187; 2350.875;  170.375;    0.000
610.309; 2311.875;  210.375;    0.000
610.431; 2298.875;  185.375;    0.000
610.552; 2408.875;  197.375;    0.000
610.674; 2310.875;  188.375;    0.000
610.796; 2326.875;  162.375;    0.000
610.918; 2318.875;  200.375;    0.000
611.039; 2328.875;  209.375;    0.000
611.161; 2351.875;  201.375;    0.000
611.282; 2310.875;  197.375;    0.000
611.404; 2390.875;  220.375;    0.000
611.526; 2368.875;  159.375;    0.000
611.647; 2391.875;  205.375;    0.000
611.769; 2260.875;  161.375;    0.000
611.890; 2286.875;  173.375;    0.000
612.012; 2420.875;  225.375;    0.000
612.133; 2385.875;  188.375;    0.000
612.255; 2396.875;  217.375;    0.000
612.377; 2333.875;  219.375;    0.000
612.498; 2350.875;  177.375;    0.000
612.619; 2321.875;  211.375;    0.000
612.741; 2343.875;  185.375;    0.000
612.862; 2345.875;  191.375;    0.000
612.984; 2369.875;  190.375;    0.000
613.105; 2396.875;  211.375;    0.000
613.226; 2307.875;  174.375;    0.000
613.348; 2356.875;  235.375;    0.000
613.469; 2349.875;  230.375;    0.000
613.590; 2275.875;  208.375;    0.000
613.712; 2295.875;  244.375;    0.000
613.833; 2324.875;  202.375;    0.000
613.954; 2333.875;  228.375;    0.000
614.076; 2311.875;  220.375;    0.000
614.197; 2290.875;  191.375;    0.000
614.318; 2344.875;  201.375;    0.000
614.439; 2327.875;  212.375;    0.000
614.560; 2275.875;  219.375;    0.000
614.682; 2242.875;  189.375;    0.000
614.803; 2300.875;  188.375;    0.000
614.924; 2347.875;  225.375;    0.000
615.045; 2324.875;  227.375;    0.000
615.166; 2398.875;  200.375;    0.000
615.287; 2376.875;  195.375;    0.000
615.408; 2447.875;  199.375;    0.000
615.529; 2586.875;  227.375;    0.000
615.650; 2433.875;  176.375;    0.000
615.771; 2366.875;  211.375;    0.000
615.892; 2431.875;  212.375;    0.000
616.013; 2664.875;  172.375;    0.000
616.134; 2836.875;  220.375;    0.000
616.255; 2657.875;  251.375;    0.000
616.376; 2470.875;  186.375;    0.000
616.497; 2404.875;  201.375;    0.000
616.618; 2407.875;  149.375;    0.000
616.739; 2397.875;  213.375;    0.000
616.860; 2403.875;  224.375;    0.000
616.981; 2364.875;  224.375;    0.000
617.102; 2389.875;  217.375;    0.000
617.222; 2296.875;  237.375;    0.000
617.343; 2323.875;  205.375;    0.000
617.464; 2358.875;  229.375;    0.000
617.585; 2329.875;  227.375;    0.000
617.705; 2315.875;  191.375;    0.000
617.826; 2319.875;  237.375;    0.000
617.947; 2318.875;  223.375;    0.000
618.068; 2294.875;  189.375;    0.000
618.188; 2337.875;  194.375;    0.000
618.309; 2308.875;  206.375;    0.000
618.430; 2380.875;  229.375;    0.000
618.550; 2252.875;  250.375;    0.000
618.671; 2332.875;  201.375;    0.000
618.791; 2247.875;  226.375;    0.000
618.912; 2319.875;  246.375;    0.000
619.033; 2347.875;  243.375;    0.000
619.153; 2253.875;  208.375;    0.000
619.274; 2227.875;  223.375;    0.000
619.394; 2222.875;  226.375;    0.000
619.515; 2274.875;  188.375;    0.000
619.635; 2286.875;  216.375;    0.000
619.756; 2257.875;  229.375;    0.000
619.876; 2250.875;  216.375;    0.000
619.996; 2290.875;  244.375;    0.000
620.117; 2154.875;  225.375;    0.000
620.237; 2248.875;  207.375;    0.000
620.358; 2261.875;  239.375;    0.000
620.478; 2212.875;  237.375;    0.000
620.598; 2274.875;  237.375;    0.000
620.719; 2212.875;  223.375;    0.000
620.839; 2235.875;  254.375;    0.000
620.959; 2219.875;  244.375;    0.000
621.079; 2267.875;  193.375;    0.000
621.200; 2212.875;  233.375;    0.000
621.320; 2285.875;  270.375;    0.000
621.440; 2262.875;  206.375;    0.000
621.560; 2146.875;  241.375;    0.000
621.681; 2254.875;  231.375;    0.000
621.801; 2199.875;  235.375;    0.000
621.921; 2177.875;  240.375;    0.000
622.041; 2268.875;  244.375;    0.000
622.161; 2130.875;  225.375;    0.000
622.281; 2240.875;  222.375;    0.000
622.401; 2242.875;  238.375;    0.000
622.521; 2237.875;  233.375;    0.000
622.641; 2281.875;  241.375;    0.000
622.761; 2130.875;  233.375;    0.000
622.882; 2175.875;  230.375;    0.000
623.002; 2242.875;  206.375;    0.000
623.121; 2247.875;  217.375;    0.000
623.241; 2207.875;  263.375;    0.000
623.361; 2176.875;  245.375;    0.000
623.481; 2154.875;  194.375;    0.000
623.601; 2244.875;  228.375;    0.000
623.721; 2130.875;  219.375;    0.000
623.841; 2234.875;  234.375;    0.000
623.961; 2219.875;  235.375;    0.000
624.081; 2132.875;  166.375;    0.000
624.201; 2231.875;  229.375;    0.000
624.320; 2134.875;  224.375;    0.000
624.440; 2064.875;  200.375;    0.000
624.560; 2194.875;  220.375;    0.000
624.680; 2119.875;  214.375;    0.000
624.799; 2208.875;  179.375;    0.000
624.919; 2172.875;  199.375;    0.000
625.039; 2139.875;  211.375;    0.000
625.159; 2090.875;  213.375;    0.000
625.278; 2152.875;  178.375;    0.000
625.398; 2153.875;  206.375;    0.000
625.518; 2103.875;  182.375;    0.000
625.637; 2050.875;  206.375;    0.000
625.757; 2184.875;  197.375;    0.000
625.876; 1989.875;  204.375;    0.000
625.996; 2075.875;  222.375;    0.000
626.115; 2208.875;  222.375;    0.000
626.235; 2130.875;  222.375;    0.000
626.354; 2191.875;  211.375;    0.000
626.474; 2141.875;  217.375;    0.000
626.594; 2122.875;  190.375;    0.000
626.713; 2103.875;  200.375;    0.000
626.832; 2104.875;  234.375;    0.000
626.952; 2104.875;  214.375;    0.000
627.071; 2105.875;  243.375;    0.000
627.191; 2080.875;  192.375;    0.000
627.310; 2124.875;  211.375;    0.000
627.429; 2221.875;  218.375;    0.000
627.549; 2111.875;  214.375;    0.000
627.668; 2069.875;  208.375;    0.000
627.787; 2111.875;  199.375;    0.000
627.907; 2113.875;  208.375;    0.000
628.026; 2115.875;  216.375;    0.000
628.145; 2100.875;  170.375;    0.000
628.264; 2123.875;  217.375;    0.000
628.384; 2092.875;  190.375;    0.000
628.503; 2107.875;  203.375;    0.000
628.622; 2128.875;  197.375;    0.000
628.741; 2173.875;  186.375;    0.000
628.860; 2002.875;  191.375;    0.000
628.980; 2057.875;  196.375;    0.000
629.099; 2124.875;  190.375;    0.000
629.218; 2033.875;  165.375;    0.000
629.337; 2045.875;  190.375;    0.000
629.456; 2140.875;  222.375;    0.000
629.575; 2071.875;  197.375;    0.000
629.694; 2047.875;  210.375;    0.000
629.813; 2077.875;  187.375;    0.000
629.932; 2077.875;  224.375;    0.000
630.051; 2137.875;  216.375;    0.000
630.170; 2094.875;  203.375;    0.000
630.289; 2108.875;  178.375;    0.000
630.408; 2067.875;  192.375;    0.000
630.527; 2063.875;  223.375;    0.000
630.646; 2027.875;  177.375;    0.000
630.764; 2034.875;  224.375;    0.000
630.883; 2047.875;  220.375;    0.000
631.002; 2058.875;  187.375;    0.000
631.121; 2050.875;  208.375;    0.000
631.240; 2066.875;  217.375;    0.000
631.359; 2112.875;  241.375;    0.000
631.477; 2064.875;  189.375;    0.000
631.596; 2184.875;  244.375;    0.000
631.715; 2032.875;  241.375;    0.000
631.834; 2046.875;  219.375;    0.000
631.952; 2041.875;  231.375;    0.000
632.071; 2065.875;  197.375;    0.000
632.190; 2047.875;  193.375;    0.000
632.308; 2123.875;  185.375;    0.000
632.427; 2076.875;  188.375;    0.000
632.546; 2087.875;  208.375;    0.000
632.664; 2071.875;  191.375;    0.000
632.783; 2086.875;  201.375;    0.000
632.901; 2044.875;  239.375;    0.000
633.020; 2043.875;  197.375;    0.000
633.138; 2088.875;  189.375;    0.000
633.257; 2062.875;  210.375;    0.000
633.375; 1984.875;  213.375;    0.000
633.494; 2045.875;  206.375;    0.000
633.612; 2136.875;  231.375;    0.000
633.731; 2113.875;  213.375;    0.000
633.849; 2036.875;  244.375;    0.000
633.968; 2051.875;  251.375;    0.000
634.086; 2055.875;  224.375;    0.000
634.204; 2039.875;  212.375;    0.000
634.323; 2025.875;  213.375;    0.000
634.441; 2107.875;  219.375;    0.000
634.559; 1980.875;  198.375;    0.000
634.678; 1984.875;  201.375;    0.000
634.796; 2040.875;  179.375;    0.000
634.914; 2087.875;  255.375;    0.000
635.032; 2104.875;  264.375;    0.000
635.151; 1973.875;  228.375;    0.000
635.269; 2081.875;  223.375;    0.000
635.387; 2079.875;  228.375;    0.000
635.505; 2050.875;  214.375;    0.000
635.623; 1997.875;  279.375;    0.000
635.742; 2075.875;  237.375;    0.000
635.860; 2067.875;  244.375;    0.000
635.978; 2026.875;  213.375;    0.000
636.096; 2036.875;  230.375;    0.000
636.214; 2051.875;  252.375;    0.000
636.332; 2016.875;  221.375;    0.000
636.450; 2092.875;  227.375;    0.000
636.568; 1978.875;  193.375;    0.000
636.686; 2023.875;  208.375;    0.000
636.804; 2034.875;  213.375;    0.000
636.922; 1935.875;  199.375;    0.000
637.040; 2005.875;  202.375;    0.000
637.158; 2014.875;  239.375;    0.000
637.276; 2112.875;  225.375;    0.000
637.394; 2066.875;  217.375;    0.000
637.512; 1970.875;  192.375;    0.000
637.629; 2129.875;  216.375;    0.000
637.747; 1932.875;  198.375;    0.000
637.865; 2011.875;  265.375;    0.000
637.983; 2134.875;  245.375;    0.000
638.101; 1998.875;  199.375;    0.000
638.218; 2009.875;  197.375;    0.000
638.336; 2045.875;  212.375;    0.000
638.454; 2068.875;  227.375;    0.000
638.572; 1926.875;  215.375;    0.000
638.689; 2006.875;  214.375;    0.000
638.807; 2057.875;  233.375;    0.000
638.925; 2083.875;  217.375;    0.000
639.042; 2001.875;  180.375;    0.000
639.160; 2068.875;  220.375;    0.000
639.278; 1934.875;  180.375;    0.000
639.395; 1951.875;  243.375;    0.000
639.513; 2012.875;  207.375;    0.000
639.630; 1995.875;  183.375;    0.000
639.748; 1997.875;  231.375;    0.000
639.865; 2002.875;  215.375;    0.000
639.983; 2038.875;  182.375;    0.000
640.100; 2021.875;  190.375;    0.000
640.218; 1976.875;  224.375;    0.000
640.335; 1979.875;  214.375;    0.000
640.453; 1976.875;  212.375;    0.000
640.570; 2038.875;  224.375;    0.000
640.688; 1927.875;  220.375;    0.000
640.805; 2003.875;  189.375;    0.000
640.922; 1934.875;  256.375;    0.000
641.040; 1967.875;  209.375;    0.000
641.157; 2014.875;  195.375;    0.000
641.274; 2014.875;  195.375;    0.000
641.391; 2092.875;  231.375;    0.000
641.509; 2028.875;  207.375;    0.000
641.626; 2046.875;  227.375;    0.000
641.743; 2016.875;  188.375;    0.000
641.860; 1976.875;  208.375;    0.000
641.978; 1947.875;  222.375;    0.000
642.095; 2001.875;  194.375;    0.000
642.212; 2012.875;  202.375;    0.000
642.329; 1999.875;  241.375;    0.000
642.446; 1987.875;  261.375;    0.000
642.563; 1964.875;  236.375;    0.000
642.681; 1933.875;  228.375;    0.000
642.798; 1959.875;  242.375;    0.000
642.915; 1992.875;  197.375;    0.000
643.032; 2072.875;  239.375;    0.000
643.149; 1995.875;  241.375;    0.000
643.266; 1969.875;  199.375;    0.000
643.383; 2018.875;  200.375;    0.000
643.500; 2037.875;  221.375;    0.000
643.617; 2021.875;  196.375;    0.000
643.734; 2040.875;  207.375;    0.000
643.850; 2009.875;  222.375;    0.000
643.967; 1994.875;  235.375;    0.000
644.084; 1995.875;  233.375;    0.000
644.201; 1977.875;  229.375;    0.000
644.318; 1925.875;  210.375;    0.000
644.435; 2037.875;  234.375;    0.000
644.552; 2008.875;  220.375;    0.000
644.668; 2104.875;  231.375;    0.000
644.785; 2045.875;  231.375;    0.000
644.902; 2033.875;  238.375;    0.000
645.019; 2023.875;  226.375;    0.000
645.135; 2025.875;  179.375;    0.000
645.252; 2047.875;  224.375;    0.000
645.369; 2033.875;  206.375;    0.000
645.485; 2049.875;  200.375;    0.000
645.602; 2052.875;  210.375;    0.000
645.719; 2113.875;  206.375;    0.000
645.835; 2112.875;  247.375;    0.000
645.952; 2095.875;  222.375;    0.000
646.068; 2135.875;  205.375;    0.000
646.185; 2085.875;  230.375;    0.000
646.302; 2131.875;  254.375;    0.000
646.418; 2133.875;  230.375;    0.000
646.535; 2154.875;  214.375;    0.000
646.651; 2034.875;  179.375;    0.000
646.768; 2261.875;  190.375;    0.000
646.884; 2130.875;  208.375;    0.000
647.000; 2135.875;  262.375;    0.000
647.117; 2148.875;  212.375;    0.000
647.233; 2136.875;  228.375;    0.000
647.350; 2213.875;  208.375;    0.000
647.466; 2144.875;  211.375;    0.000
647.582; 2178.875;  196.375;    0.000
647.699; 2137.875;  217.375;    0.000
647.815; 2215.875;  203.375;    0.000
647.931; 2191.875;  201.375;    0.000
648.047; 2193.875;  182.375;    0.000
648.164; 2150.875;  219.375;    0.000
648.280; 2145.875;  213.375;    0.000
648.396; 2164.875;  202.375;    0.000
648.512; 2170.875;  233.375;    0.000
648.629; 2223.875;  206.375;    0.000
648.745; 2180.875;  188.375;    0.000
648.861; 2189.875;  209.375;    0.000
648.977; 2171.875;  218.375;    0.000
649.093; 2234.875;  225.375;    0.000
649.209; 2260.875;  240.375;    0.000
649.325; 2165.875;  253.375;    0.000
649.441; 2253.875;  263.375;    0.000
649.557; 2240.875;  256.375;    0.000
649.673; 2216.875;  211.375;    0.000
649.789; 2331.875;  237.375;    0.000
649.905; 2183.875;  183.375;    0.000
650.021; 2277.875;  238.375;    0.000
650.137; 2239.875;  241.375;    0.000
650.253; 2305.875;  228.375;    0.000
650.369; 2238.875;  221.375;    0.000
650.485; 2196.875;  240.375;    0.000
650.601; 2241.875;  254.375;    0.000
650.717; 2336.875;  201.375;    0.000
650.833; 2399.875;  257.375;    0.000
650.948; 2320.875;  213.375;    0.000
651.064; 2309.875;  223.375;    0.000
651.180; 2303.875;  230.375;    0.000
651.296; 2349.875;  235.375;    0.000
651.411; 2342.875;  221.375;    0.000
651.527; 2397.875;  233.375;    0.000
651.643; 2363.875;  236.375;    0.000
651.759; 2432.875;  268.375;    0.000
651.874; 2435.875;  214.375;    0.000
651.990; 2422.875;  251.375;    0.000
652.105; 2385.875;  217.375;    0.000
652.221; 2492.875;  243.375;    0.000
652.337; 2415.875;  231.375;    0.000
652.452; 2522.875;  238.375;    0.000
652.568; 2440.875;  188.375;    0.000
652.683; 2617.875;  197.375;    0.000
652.799; 2539.875;  194.375;    0.000
652.914; 2522.875;  222.375;    0.000
653.030; 2590.875;  200.375;    0.000
653.145; 2557.875;  235.375;    0.000
653.261; 2603.875;  261.375;    0.000
653.376; 2642.875;  228.375;    0.000
653.492; 2724.875;  222.375;    0.000
653.607; 2700.875;  227.375;    0.000
653.722; 2713.875;  250.375;    0.000
653.838; 2756.875;  255.375;    0.000
653.953; 2870.875;  235.375;    0.000
654.068; 2851.875;  266.375;    0.000
654.184; 2795.875;  210.375;    0.000
654.299; 2967.875;  240.375;    0.000
654.414; 2867.875;  222.375;    0.000
654.530; 2908.875;  222.375;    0.000
654.645; 3032.875;  256.375;    0.000
654.760; 3074.875;  244.375;    0.000
654.875; 3128.875;  229.375;    0.000
654.990; 3234.875;  226.375;    0.000
655.106; 3157.875;  254.375;    0.000
655.221; 3459.875;  251.375;    0.000
655.336; 3484.875;  245.375;    0.000
655.451; 3523.875;  199.375;    0.000
655.566; 3550.875;  228.375;    0.000
655.681; 3603.875;  208.375;    0.000
655.796; 3788.875;  218.375;    0.000
655.911; 3937.875;  233.375;    0.000
656.026; 4112.875;  232.375;    0.000
656.141; 4142.875;  223.375;    0.000
656.256; 4286.875;  247.375;    0.000
656.371; 4349.875;  220.375;    0.000
656.486; 4367.875;  225.375;    0.000
656.601; 4303.875;  257.375;    0.000
656.716; 4174.875;  248.375;    0.000
656.831; 4124.875;  262.375;    0.000
656.946; 4065.875;  249.375;    0.000
657.060; 4106.875;  245.375;    0.000
657.175; 3842.875;  245.375;    0.000
657.290; 3904.875;  219.375;    0.000
657.405; 3825.875;  286.375;    0.000
657.520; 3711.875;  259.375;    0.000
657.634; 3626.875;  239.375;    0.000
657.749; 3498.875;  227.375;    0.000
657.864; 3399.875;  210.375;    0.000
657.979; 3395.875;  236.375;    0.000
658.093; 3336.875;  210.375;    0.000
658.208; 3314.875;  248.375;    0.000
658.323; 3114.875;  216.375;    0.000
658.437; 3186.875;  248.375;    0.000
658.552; 3086.875;  249.375;    0.000
658.666; 3075.875;  256.375;    0.000
658.781; 3086.875;  247.375;    0.000
658.895; 3032.875;  209.375;    0.000
659.010; 3012.875;  219.375;    0.000
659.125; 2980.875;  215.375;    0.000
659.239; 2874.875;  205.375;    0.000
659.353; 2894.875;  246.375;    0.000
659.468; 2839.875;  245.375;    0.000
659.582; 2809.875;  244.375;    0.000
659.697; 2779.875;  242.375;    0.000
659.811; 2824.875;  239.375;    0.000
659.926; 2722.875;  226.375;    0.000
660.040; 2696.875;  255.375;    0.000
660.154; 2715.875;  225.375;    0.000
660.269; 2606.875;  200.375;    0.000
660.383; 2589.875;  192.375;    0.000
660.497; 2588.875;  218.375;    0.000
660.612; 2495.875;  236.375;    0.000
660.726; 2536.875;  263.375;    0.000
660.840; 2512.875;  205.375;    0.000
660.954; 2499.875;  219.375;    0.000
661.068; 2545.875;  240.375;    0.000
661.183; 2448.875;  221.375;    0.000
661.297; 2409.875;  194.375;    0.000
661.411; 2483.875;  253.375;    0.000
661.525; 2342.875;  246.375;    0.000
661.639; 2387.875;  217.375;    0.000
661.753; 2355.875;  241.375;    0.000
661.867; 2283.875;  276.375;    0.000
661.981; 2242.875;  203.375;    0.000
662.095; 2282.875;  224.375;    0.000
662.209; 2236.875;  217.375;    0.000
662.323; 2294.875;  251.375;    0.000
662.437; 2218.875;  243.375;    0.000
662.551; 2266.875;  244.375;    0.000
662.665; 2214.875;  247.375;    0.000
662.779; 2181.875;  251.375;    0.000
662.893; 2240.875;  254.375;    0.000
663.007; 2274.875;  222.375;    0.000
663.121; 2156.875;  253.375;    0.000
663.235; 2168.875;  270.375;    0.000
663.349; 2113.875;  242.375;    0.000
663.462; 2141.875;  230.375;    0.000
663.576; 2052.875;  230.375;    0.000
663.690; 2125.875;  249.375;    0.000
663.804; 2083.875;  200.375;    0.000
663.917; 2027.875;  204.375;    0.000
664.031; 2003.875;  206.375;    0.000
664.145; 2039.875;  202.375;    0.000
664.258; 1977.875;  221.375;    0.000
664.372; 2024.875;  215.375;    0.000
664.486; 1968.875;  179.375;    0.000
664.599; 2012.875;  208.375;    0.000
664.713; 2078.875;  268.375;    0.000
664.827; 1965.875;  225.375;    0.000
664.940; 2049.875;  222.375;    0.000
665.054; 1955.875;  208.375;    0.000
665.167; 1873.875;  253.375;    0.000
665.281; 1910.875;  237.375;    0.000
665.394; 1931.875;  227.375;    0.000
665.508; 1941.875;  192.375;    0.000
665.621; 2004.875;  175.375;    0.000
665.735; 1965.875;  249.375;    0.000
665.848; 1982.875;  197.375;    0.000
665.961; 1948.875;  206.375;    0.000
666.075; 1973.875;  245.375;    0.000
666.188; 1981.875;  230.375;    0.000
666.301; 1835.875;  219.375;    0.000
666.415; 1898.875;  231.375;    0.000
666.528; 1931.875;  258.375;    0.000
666.641; 1869.875;  243.375;    0.000
666.755; 1883.875;  208.375;    0.000
666.868; 1870.875;  228.375;    0.000
666.981; 1842.875;  244.375;    0.000
667.094; 1840.875;  244.375;    0.000
667.207; 1831.875;  226.375;    0.000
667.321; 1856.875;  175.375;    0.000
667.434; 1824.875;  211.375;    0.000
667.547; 1832.875;  249.375;    0.000
667.660; 1785.875;  225.375;    0.000
667.773; 1754.875;  242.375;    0.000
667.886; 1797.875;  246.375;    0.000
667.999; 1797.875;  244.375;    0.000
668.112; 1775.875;  227.375;    0.000
668.225; 1811.875;  231.375;    0.000
668.338; 1814.875;  256.375;    0.000
668.451; 1757.875;  216.375;    0.000
668.564; 1813.875;  261.375;    0.000
668.677; 1794.875;  230.375;    0.000
668.790; 1770.875;  192.375;    0.000
668.903; 1770.875;  243.375;    0.000
669.016; 1675.875;  201.375;    0.000
669.129; 1747.875;  249.375;    0.000
669.242; 1688.875;  190.375;    0.000
669.354; 1720.875;  219.375;    0.000
669.467; 1782.875;  242.375;    0.000
669.580; 1778.875;  237.375;    0.000
669.693; 1776.875;  243.375;    0.000
669.806; 1711.875;  234.375;    0.000
669.918; 1649.875;  206.375;    0.000
670.031; 1690.875;  258.375;    0.000
670.144; 1696.875;  231.375;    0.000
670.256; 1671.875;  244.375;    0.000
670.369; 1672.875;  262.375;    0.000
670.482; 1733.875;  264.375;    0.000
670.594; 1700.875;  256.375;    0.000
670.707; 1727.875;  224.375;    0.000
670.820; 1758.875;  261.375;    0.000
670.932; 1643.875;  226.375;    0.000
671.045; 1659.875;  243.375;    0.000
671.157; 1701.875;  235.375;    0.000
671.270; 1634.875;  217.375;    0.000
671.382; 1690.875;  267.375;    0.000
671.495; 1632.875;  258.375;    0.000
671.607; 1636.875;  236.375;    0.000
671.720; 1627.875;  200.375;    0.000
671.832; 1606.875;  219.375;    0.000
671.944; 1692.875;  234.375;    0.000
672.057; 1627.875;  226.375;    0.000
672.169; 1661.875;  225.375;    0.000
672.281; 1656.875;  253.375;    0.000
672.394; 1670.875;  238.375;    0.000
672.506; 1627.875;  244.375;    0.000
672.618; 1654.875;  272.375;    0.000
672.731; 1603.875;  247.375;    0.000
672.843; 1615.875;  261.375;    0.000
672.955; 1588.875;  262.375;    0.000
673.067; 1710.875;  253.375;    0.000
673.180; 1646.875;  239.375;    0.000
673.292; 1658.875;  240.375;    0.000
673.404; 1614.875;  243.375;    0.000
673.516; 1633.875;  258.375;    0.000
673.628; 1646.875;  263.375;    0.000
673.740; 1568.875;  250.375;    0.000
673.852; 1672.875;  285.375;    0.000
673.964; 1632.875;  264.375;    0.000
674.076; 1523.875;  260.375;    0.000
674.188; 1588.875;  226.375;    0.000
674.300; 1643.875;  272.375;    0.000
674.412; 1625.875;  259.375;    0.000
674.524; 1637.875;  283.375;    0.000
674.636; 1554.875;  259.375;    0.000
674.748; 1597.875;  238.375;    0.000
674.860; 1564.875;  277.375;    0.000
674.972; 1591.875;  272.375;    0.000
675.084; 1603.875;  244.375;    0.000
675.196; 1600.875;  272.375;    0.000
675.307; 1509.875;  244.375;    0.000
675.419; 1543.875;  219.375;    0.000
675.531; 1656.875;  275.375;    0.000
675.643; 1552.875;  215.375;    0.000
675.755; 1563.875;  243.375;    0.000
675.866; 1585.875;  223.375;    0.000
675.978; 1546.875;  216.375;    0.000
676.090; 1609.875;  242.375;    0.000
676.201; 1607.875;  276.375;    0.000
676.313; 1528.875;  226.375;    0.000
676.425; 1547.875;  234.375;    0.000
676.536; 1582.875;  231.375;    0.000
676.648; 1541.875;  254.375;    0.000
676.759; 1578.875;  273.375;    0.000
676.871; 1559.875;  250.375;    0.000
676.983; 1564.875;  256.375;    0.000
677.094; 1524.875;  210.375;    0.000
677.206; 1525.875;  248.375;    0.000
677.317; 1548.875;  263.375;    0.000
677.429; 1500.875;  238.375;    0.000
677.540; 1479.875;  247.375;    0.000
677.651; 1449.875;  224.375;    0.000
677.763; 1503.875;  217.375;    0.000
677.874; 1537.875;  234.375;    0.000
677.986; 1457.875;  238.375;    0.000
678.097; 1480.875;  226.375;    0.000
678.208; 1505.875;  253.375;    0.000
678.320; 1524.875;  217.375;    0.000
678.431; 1499.875;  238.375;    0.000
678.542; 1523.875;  236.375;    0.000
678.653; 1503.875;  218.375;    0.000
678.765; 1411.875;  275.375;    0.000
678.876; 1479.875;  213.375;    0.000
678.987; 1444.875;  182.375;    0.000
679.098; 1384.875;  221.375;    0.000
679.209; 1488.875;  238.375;    0.000
679.320; 1396.875;  212.375;    0.000
679.432; 1416.875;  231.375;    0.000
679.543; 1423.875;  198.375;    0.000
679.654; 1455.875;  191.375;    0.000
679.765; 1405.875;  214.375;    0.000
679.876; 1433.875;  221.375;    0.000
679.987; 1439.875;  162.375;    0.000
680.098; 1468.875;  230.375;    0.000
680.209; 1414.875;  206.375;    0.000
680.320; 1451.875;  196.375;    0.000
680.431; 1489.875;  191.375;    0.000
680.542; 1486.875;  214.375;    0.000
680.653; 1485.875;  238.375;    0.000
680.763; 1444.875;  182.375;    0.000
680.874; 1446.875;  213.375;    0.000
680.985; 1407.875;  224.375;    0.000
681.096; 1434.875;  222.375;    0.000
681.207; 1421.875;  220.375;    0.000
681.318; 1505.875;  216.375;    0.000
681.428; 1450.875;  229.375;    0.000
681.539; 1426.875;  183.375;    0.000
681.650; 1458.875;  202.375;    0.000
681.760; 1453.875;  223.375;    0.000
681.871; 1421.875;  211.375;    0.000
681.982; 1358.875;  189.375;    0.000
682.093; 1438.875;  222.375;    0.000
682.203; 1356.875;  220.375;    0.000
682.314; 1355.875;  214.375;    0.000
682.424; 1505.875;  208.375;    0.000
682.535; 1412.875;  213.375;    0.000
682.646; 1478.875;  302.375;    0.000
682.756; 1413.875;  255.375;    0.000
682.867; 1456.875;  244.375;    0.000
682.977; 1397.875;  221.375;    0.000
683.088; 1435.875;  259.375;    0.000
683.198; 1420.875;  212.375;    0.000
683.308; 1417.875;  202.375;    0.000
683.419; 1423.875;  255.375;    0.000
683.529; 1403.875;  217.375;    0.000
683.640; 1406.875;  240.375;    0.000
683.750; 1407.875;  181.375;    0.000
683.860; 1453.875;  246.375;    0.000
683.971; 1358.875;  254.375;    0.000
684.081; 1378.875;  235.375;    0.000
684.191; 1446.875;  251.375;    0.000
684.301; 1378.875;  233.375;    0.000
684.412; 1425.875;  202.375;    0.000
684.522; 1370.875;  232.375;    0.000
684.632; 1392.875;  202.375;    0.000
684.742; 1424.875;  254.375;    0.000
684.852; 1402.875;  219.375;    0.000
684.963; 1429.875;  256.375;    0.000
685.073; 1408.875;  253.375;    0.000
685.183; 1445.875;  254.375;    0.000
685.293; 1377.875;  232.375;    0.000
685.403; 1430.875;  242.375;    0.000
685.513; 1423.875;  261.375;    0.000
685.623; 1437.875;  245.375;    0.000
685.733; 1433.875;  254.375;    0.000
685.843; 1381.875;  249.375;    0.000
685.953; 1362.875;  252.375;    0.000
686.063; 1426.875;  227.375;    0.000
686.173; 1393.875;  223.375;    0.000
686.283; 1379.875;  234.375;    0.000
686.393; 1385.875;  239.375;    0.000
686.503; 1424.875;  231.375;    0.000
686.612; 1406.875;  232.375;    0.000
686.722; 1377.875;  258.375;    0.000
686.832; 1350.875;  256.375;    0.000
686.942; 1417.875;  230.375;    0.000
687.052; 1331.875;  274.375;    0.000
687.161; 1412.875;  269.375;    0.000
687.271; 1393.875;  218.375;    0.000
687.381; 1412.875;  235.375;    0.000
687.491; 1477.875;  262.375;    0.000
687.600; 1386.875;  256.375;    0.000
687.710; 1369.875;  225.375;    0.000
687.820; 1399.875;  230.375;    0.000
687.929; 1375.875;  226.375;    0.000
688.039; 1385.875;  228.375;    0.000
688.148; 1346.875;  249.375;    0.000
688.258; 1347.875;  237.375;    0.000
688.367; 1342.875;  260.375;    0.000
688.477; 1430.875;  200.375;    0.000
688.586; 1421.875;  223.375;    0.000
688.696; 1412.875;  223.375;    0.000
688.805; 1362.875;  257.375;    0.000
688.915; 1392.875;  185.375;    0.000
689.024; 1316.875;  227.375;    0.000
689.134; 1385.875;  224.375;    0.000
689.243; 1335.875;  206.375;    0.000
689.352; 1350.875;  275.375;    0.000
689.462; 1311.875;  233.375;    0.000
689.571; 1351.875;  244.375;    0.000
689.680; 1389.875;  261.375;    0.000
689.790; 1322.875;  192.375;    0.000
689.899; 1364.875;  214.375;    0.000
690.008; 1366.875;  255.375;    0.000
690.117; 1360.875;  219.375;    0.000
690.227; 1379.875;  241.375;    0.000
690.336; 1380.875;  231.375;    0.000
690.445; 1297.875;  212.375;    0.000
690.554; 1312.875;  234.375;    0.000
690.663; 1317.875;  210.375;    0.000
690.772; 1350.875;  221.375;    0.000
690.881; 1397.875;  244.375;    0.000
690.990; 1359.875;  247.375;    0.000
691.099; 1259.875;  222.375;    0.000
691.209; 1289.875;  240.375;    0.000
691.318; 1284.875;  223.375;    0.000
691.427; 1289.875;  217.375;    0.000
691.536; 1382.875;  216.375;    0.000
691.644; 1382.875;  194.375;    0.000
691.753; 1327.875;  221.375;    0.000
691.862; 1355.875;  224.375;    0.000
691.971; 1297.875;  191.375;    0.000
692.080; 1390.875;  247.375;    0.000
692.189; 1368.875;  208.375;    0.000
692.298; 1314.875;  203.375;    0.000
692.406; 1386.875;  239.375;    0.000
692.515; 1411.875;  250.375;    0.000
692.624; 1322.875;  226.375;    0.000
692.733; 1339.875;  229.375;    0.000
692.842; 1296.875;  254.375;    0.000
692.950; 1374.875;  242.375;    0.000
693.059; 1320.875;  204.375;    0.000
693.168; 1358.875;  252.375;    0.000
693.276; 1348.875;  195.375;    0.000
693.385; 1355.875;  228.375;    0.000
693.494; 1392.875;  282.375;    0.000
693.602; 1381.875;  221.375;    0.000
693.711; 1370.875;  225.375;    0.000
693.819; 1335.875;  234.375;    0.000
693.928; 1354.875;  229.375;    0.000
694.036; 1335.875;  192.375;    0.000
694.145; 1299.875;  233.375;    0.000
694.253; 1296.875;  277.375;    0.000
694.362; 1314.875;  188.375;    0.000
694.470; 1344.875;  263.375;    0.000
694.579; 1290.875;  253.375;    0.000
694.687; 1350.875;  281.375;    0.000
694.795; 1277.875;  233.375;    0.000
694.904; 1358.875;  223.375;    0.000
695.012; 1357.875;  296.375;    0.000
695.120; 1380.875;  227.375;    0.000
695.229; 1378.875;  269.375;    0.000
695.337; 1305.875;  229.375;    0.000
695.445; 1342.875;  244.375;    0.000
695.553; 1331.875;  259.375;    0.000
695.662; 1339.875;  208.375;    0.000
695.770; 1338.875;  241.375;    0.000
695.878; 1331.875;  239.375;    0.000
695.986; 1340.875;  247.375;    0.000
696.094; 1332.875;  224.375;    0.000
696.202; 1302.875;  205.375;    0.000
696.310; 1298.875;  217.375;    0.000
696.419; 1276.875;  228.375;    0.000
696.527; 1309.875;  246.375;    0.000
696.635; 1339.875;  245.375;    0.000
696.743; 1340.875;  233.375;    0.000
696.851; 1314.875;  251.375;    0.000
696.959; 1387.875;  257.375;    0.000
697.067; 1297.875;  260.375;    0.000
697.174; 1324.875;  223.375;    0.000
697.282; 1297.875;  239.375;    0.000
697.390; 1350.875;  264.375;    0.000
697.498; 1312.875;  227.375;    0.000
697.606; 1309.875;  243.375;    0.000
697.714; 1261.875;  256.375;    0.000
697.822; 1351.875;  278.375;    0.000
697.929; 1312.875;  227.375;    0.000
698.037; 1347.875;  232.375;    0.000
698.145; 1285.875;  256.375;    0.000
698.253; 1321.875;  245.375;    0.000
698.360; 1382.875;  282.375;    0.000
698.468; 1363.875;  244.375;    0.000
698.576; 1404.875;  279.375;    0.000
698.683; 1359.875;  259.375;    0.000
698.791; 1297.875;  265.375;    0.000
698.899; 1326.875;  250.375;    0.000
699.006; 1376.875;  245.375;    0.000
699.114; 1353.875;  280.375;    0.000
699.221; 1318.875;  240.375;    0.000
699.329; 1309.875;  293.375;    0.000
699.436; 1288.875;  216.375;    0.000
699.544; 1303.875;  269.375;    0.000
699.651; 1319.875;  219.375;    0.000
699.759; 1282.875;  245.375;    0.000
699.866; 1365.875;  261.375;    0.000
699.974; 1305.875;  245.375;    0.000
700.081; 1326.875;  257.375;    0.000
700.188; 1302.875;  268.375;    0.000
700.296; 1260.875;  225.375;    0.000
700.403; 1263.875;  257.375;    0.000
700.510; 1295.875;  267.375;    0.000
700.618; 1328.875;  299.375;    0.000
700.725; 1344.875;  223.375;    0.000
700.832; 1311.875;  233.375;    0.000
700.940; 1332.875;  255.375;    0.000
701.047; 1308.875;  244.375;    0.000
701.154; 1307.875;  248.375;    0.000
701.261; 1307.875;  264.375;    0.000
701.368; 1358.875;  299.375;    0.000
701.475; 1293.875;  264.375;    0.000
701.582; 1313.875;  275.375;    0.000
701.690; 1252.875;  261.375;    0.000
701.797; 1384.875;  273.375;    0.000
701.904; 1348.875;  320.375;    0.000
702.011; 1375.875;  299.375;    0.000
702.118; 1339.875;  292.375;    0.000
702.225; 1431.875;  317.375;    0.000
702.332; 1311.875;  307.375;    0.000
702.439; 1345.875;  313.375;    0.000
702.546; 1370.875;  312.375;    0.000
702.652; 1368.875;  297.375;    0.000
702.759; 1368.875;  345.375;    0.000
702.866; 1376.875;  330.375;    0.000
702.973; 1329.875;  303.375;    0.000
703.080; 1382.875;  303.375;    0.000
703.187; 1357.875;  327.375;    0.000
703.294; 1377.875;  325.375;    0.000
703.400; 1277.875;  302.375;    0.000
703.507;  433.875;  344.375;    0.000
703.614;  322.875;  294.375;    0.000
703.720;  327.875;  322.375;    0.000
703.827;  331.875;  329.375;    0.000
703.934;  327.875;  318.375;    0.000
704.040;  303.875;  299.375;    0.000
704.147;  304.875;  352.375;    0.000
704.254;  344.875;  350.375;    0.000
704.360;  314.875;  347.375;    0.000
704.467;  342.875;  336.375;    0.000
704.573;  346.875;  344.375;    0.000
704.680;  353.875;  365.375;    0.000
704.786;  343.875;  332.375;    0.000
704.893;  320.875;  304.375;    0.000
704.999;  318.875;  299.375;    0.000
705.106;  312.875;  365.375;    0.000

