
Integration time [ms]:   1.000
Averaging Nr. [scans]: 1
Smoothing Nr. [pixels]: 0
Data measured with spectrometer [name]: VIS
Wave   ;Sample   ;Dark     ;Reference
[nm]   ;[counts] ;[counts] ;[counts] 

450.961;  198.375;  200.375;    0.000
451.100;  216.375;  241.375;    0.000
451.239;  211.375;  201.375;    0.000
451.377;  224.375;  262.375;    0.000
451.516;  186.375;  229.375;    0.000
451.655;  233.375;  211.375;    0.000
451.794;  218.375;  225.375;    0.000
451.932;  228.375;  247.375;    0.000
452.071;  188.375;  260.375;    0.000
452.210;  233.375;  235.375;    0.000
452.348;  257.375;  276.375;    0.000
452.487;  235.375;  259.375;    0.000
452.626;  236.375;  254.375;    0.000
452.764;  232.375;  233.375;    0.000
452.903;  211.375;  202.375;    0.000
453.042;  297.375;  211.375;    0.000
453.180; 3282.375;  240.375;    0.000
453.319; 3380.375;  238.375;    0.000
453.458; 3352.375;  215.375;    0.000
453.596; 3334.375;  252.375;    0.000
453.735; 3371.375;  240.375;    0.000
453.873; 3543.375;  257.375;    0.000
454.012; 3348.375;  228.375;    0.000
454.150; 3524.375;  270.375;    0.000
454.289; 3503.375;  233.375;    0.000
454.427; 3546.375;  243.375;    0.000
454.566; 3578.375;  257.375;    0.000
454.704; 3578.375;  243.375;    0.000
454.843; 3598.375;  190.375;    0.000
454.981; 3702.375;  271.375;    0.000
455.120; 3601.375;  210.375;    0.000
455.258; 3759.375;  235.375;    0.000
455.397; 3709.375;  214.375;    0.000
455.535; 3839.375;  214.375;    0.000
455.674; 3845.375;  184.375;    0.000
455.812; 3861.375;  228.375;    0.000
455.951; 3916.375;  204.375;    0.000
456.089; 3953.375;  220.375;    0.000
456.227; 3942.375;  196.375;    0.000
456.366; 3987.375;  261.375;    0.000
456.504; 4125.375;  249.375;    0.000
456.642; 4088.375;  245.375;    0.000
456.781; 4147.375;  183.375;    0.000
456.919; 4175.375;  203.375;    0.000
457.057; 4086.375;  177.375;    0.000
457.196; 4367.375;  191.375;    0.000
457.334; 4292.375;  233.375;    0.000
457.472; 4410.375;  214.375;    0.000
457.610; 4410.375;  230.375;    0.000
457.749; 4485.375;  247.375;    0.000
457.887; 4524.375;  220.375;    0.000
458.025; 4544.375;  195.375;    0.000
458.163; 4675.375;  224.375;    0.000
458.301; 4785.375;  228.375;    0.000
458.440; 4815.375;  200.375;    0.000
458.578; 4862.375;  233.375;    0.000
458.716; 4890.375;  182.375;    0.000
458.854; 5004.375;  251.375;    0.000
458.992; 5007.375;  187.375;    0.000
459.130; 5016.375;  229.375;    0.000
459.269; 5107.375;  237.375;    0.000
459.407; 5263.375;  228.375;    0.000
459.545; 5200.375;  216.375;    0.000
459.683; 5354.375;  204.375;    0.000
459.821; 5320.375;  191.375;    0.000
459.959; 5394.375;  227.375;    0.000
460.097; 5450.375;  221.375;    0.000
460.235; 5476.375;  241.375;    0.000
460.373; 5507.375;  231.375;    0.000
460.511; 5568.375;  214.375;    0.000
460.649; 5589.375;  172.375;    0.000
460.787; 5593.375;  275.375;    0.000
460.925; 5710.375;  175.375;    0.000
461.063; 5710.375;  252.375;    0.000
461.201; 5718.375;  210.375;    0.000
461.339; 5781.375;  237.375;    0.000
461.477; 5891.375;  210.375;    0.000
461.615; 5893.375;  236.375;    0.000
461.753; 5887.375;  215.375;    0.000
461.891; 5971.375;  222.375;    0.000
462.029; 6057.375;  227.375;    0.000
462.166; 6098.375;  202.375;    0.000
462.304; 6227.375;  191.375;    0.000
462.442; 6400.375;  210.375;    0.000
462.580; 6376.375;  184.375;    0.000
462.718; 6345.375;  220.375;    0.000
462.856; 6443.375;  226.375;    0.000
462.993; 6334.375;  254.375;    0.000
463.131; 6216.375;  200.375;    0.000
463.269; 6348.375;  215.375;    0.000
463.407; 6277.375;  213.375;    0.000
463.545; 6142.375;  242.375;    0.000
463.682; 6217.375;  212.375;    0.000
463.820; 6582.375;  185.375;    0.000
463.958; 6606.375;  212.375;    0.000
464.095; 6795.375;  181.375;    0.000
464.233; 6735.375;  192.375;    0.000
464.371; 6699.375;  247.375;    0.000
464.509; 6701.375;  151.375;    0.000
464.646; 6763.375;  207.375;    0.000
464.784; 6694.375;  199.375;    0.000
464.921; 6588.375;  253.375;    0.000
465.059; 6612.375;  214.375;    0.000
465.197; 6377.375;  200.375;    0.000
465.334; 6244.375;  180.375;    0.000
465.472; 6189.375;  204.375;    0.000
465.609; 6286.375;  203.375;    0.000
465.747; 6142.375;  214.375;    0.000
465.885; 6171.375;  233.375;    0.000
466.022; 6006.375;  215.375;    0.000
466.160; 6209.375;  201.375;    0.000
466.297; 5995.375;  196.375;    0.000
466.435; 5867.375;  230.375;    0.000
466.572; 5970.375;  227.375;    0.000
466.710; 5985.375;  218.375;    0.000
466.847; 5963.375;  245.375;    0.000
466.985; 5884.375;  223.375;    0.000
467.122; 5930.375;  168.375;    0.000
467.260; 5901.375;  196.375;    0.000
467.397; 5781.375;  198.375;    0.000
467.534; 5826.375;  219.375;    0.000
467.672; 5876.375;  214.375;    0.000
467.809; 6041.375;  185.375;    0.000
467.947; 5989.375;  247.375;    0.000
468.084; 5875.375;  196.375;    0.000
468.221; 5987.375;  238.375;    0.000
468.359; 5916.375;  236.375;    0.000
468.496; 5845.375;  235.375;    0.000
468.633; 5839.375;  218.375;    0.000
468.771; 5962.375;  223.375;    0.000
468.908; 5902.375;  208.375;    0.000
469.045; 6004.375;  249.375;    0.000
469.183; 6075.375;  222.375;    0.000
469.320; 6220.375;  216.375;    0.000
469.457; 6073.375;  224.375;    0.000
469.594; 6223.375;  259.375;    0.000
469.732; 6142.375;  223.375;    0.000
469.869; 6152.375;  234.375;    0.000
470.006; 6206.375;  225.375;    0.000
470.143; 6299.375;  243.375;    0.000
470.280; 6466.375;  208.375;    0.000
470.417; 6401.375;  232.375;    0.000
470.555; 6420.375;  218.375;    0.000
470.692; 6437.375;  223.375;    0.000
470.829; 6276.375;  238.375;    0.000
470.966; 6295.375;  205.375;    0.000
471.103; 6275.375;  259.375;    0.000
471.240; 6266.375;  214.375;    0.000
471.377; 6273.375;  226.375;    0.000
471.514; 6322.375;  250.375;    0.000
471.651; 6340.375;  221.375;    0.000
471.789; 6250.375;  242.375;    0.000
471.926; 6347.375;  190.375;    0.000
472.063; 6159.375;  234.375;    0.000
472.200; 6125.375;  252.375;    0.000
472.337; 6106.375;  241.375;    0.000
472.474; 6205.375;  244.375;    0.000
472.611; 6064.375;  268.375;    0.000
472.748; 6122.375;  222.375;    0.000
472.884; 6157.375;  271.375;    0.000
473.021; 6053.375;  195.375;    0.000
473.158; 6049.375;  205.375;    0.000
473.295; 6062.375;  223.375;    0.000
473.432; 6079.375;  216.375;    0.000
473.569; 6115.375;  196.375;    0.000
473.706; 5971.375;  190.375;    0.000
473.843; 6121.375;  211.375;    0.000
473.980; 6111.375;  254.375;    0.000
474.117; 6082.375;  185.375;    0.000
474.253; 6154.375;  229.375;    0.000
474.390; 5974.375;  238.375;    0.000
474.527; 5981.375;  220.375;    0.000
474.664; 6190.375;  242.375;    0.000
474.801; 6063.375;  229.375;    0.000
474.937; 6141.375;  229.375;    0.000
475.074; 6307.375;  210.375;    0.000
475.211; 6163.375;  219.375;    0.000
475.348; 6181.375;  226.375;    0.000
475.484; 6206.375;  207.375;    0.000
475.621; 6273.375;  233.375;    0.000
475.758; 6104.375;  230.375;    0.000
475.894; 6216.375;  234.375;    0.000
476.031; 6269.375;  202.375;    0.000
476.168; 6279.375;  222.375;    0.000
476.304; 6223.375;  237.375;    0.000
476.441; 6294.375;  238.375;    0.000
476.578; 6414.375;  216.375;    0.000
476.714; 6357.375;  212.375;    0.000
476.851; 6302.375;  210.375;    0.000
476.987; 6412.375;  239.375;    0.000
477.124; 6401.375;  250.375;    0.000
477.261; 6459.375;  227.375;    0.000
477.397; 6493.375;  189.375;    0.000
477.534; 6551.375;  204.375;    0.000
477.670; 6540.375;  190.375;    0.000
477.807; 6473.375;  198.375;    0.000
477.943; 6664.375;  216.375;    0.000
478.080; 6629.375;  213.375;    0.000
478.216; 6712.375;  239.375;    0.000
478.353; 6784.375;  218.375;    0.000
478.489; 6765.375;  184.375;    0.000
478.626; 6882.375;  223.375;    0.000
478.762; 6829.375;  213.375;    0.000
478.898; 7002.375;  216.375;    0.000
479.035; 6832.375;  250.375;    0.000
479.171; 6767.375;  201.375;    0.000
479.308; 6775.375;  242.375;    0.000
479.444; 6895.375;  205.375;    0.000
479.580; 6857.375;  203.375;    0.000
479.717; 6926.375;  260.375;    0.000
479.853; 6908.375;  225.375;    0.000
479.989; 7154.375;  226.375;    0.000
480.126; 6960.375;  211.375;    0.000
480.262; 7045.375;  220.375;    0.000
480.398; 7057.375;  207.375;    0.000
480.535; 7070.375;  179.375;    0.000
480.671; 7091.375;  200.375;    0.000
480.807; 7124.375;  190.375;    0.000
480.943; 7055.375;  165.375;    0.000
481.080; 7129.375;  210.375;    0.000
481.216; 6933.375;  232.375;    0.000
481.352; 7040.375;  235.375;    0.000
481.488; 6980.375;  208.375;    0.000
481.624; 6766.375;  245.375;    0.000
481.760; 6865.375;  210.375;    0.000
481.897; 6851.375;  189.375;    0.000
482.033; 7070.375;  256.375;    0.000
482.169; 7050.375;  257.375;    0.000
482.305; 6901.375;  199.375;    0.000
482.441; 6835.375;  182.375;    0.000
482.577; 6918.375;  223.375;    0.000
482.713; 6893.375;  243.375;    0.000
482.849; 6931.375;  197.375;    0.000
482.985; 6963.375;  240.375;    0.000
483.121; 6946.375;  210.375;    0.000
483.258; 6941.375;  248.375;    0.000
483.394; 6907.375;  224.375;    0.000
483.530; 6770.375;  209.375;    0.000
483.665; 6818.375;  225.375;    0.000
483.801; 6941.375;  216.375;    0.000
483.937; 6989.375;  211.375;    0.000
484.073; 6986.375;  259.375;    0.000
484.209; 6921.375;  191.375;    0.000
484.345; 7111.375;  239.375;    0.000
484.481; 7053.375;  231.375;    0.000
484.617; 7103.375;  216.375;    0.000
484.753; 7069.375;  180.375;    0.000
484.889; 7099.375;  252.375;    0.000
485.025; 7184.375;  244.375;    0.000
485.161; 7031.375;  242.375;    0.000
485.296; 7194.375;  235.375;    0.000
485.432; 7165.375;  247.375;    0.000
485.568; 7160.375;  203.375;    0.000
485.704; 7088.375;  229.375;    0.000
485.840; 7180.375;  230.375;    0.000
485.975; 7197.375;  266.375;    0.000
486.111; 7183.375;  220.375;    0.000
486.247; 7274.375;  264.375;    0.000
486.383; 7228.375;  213.375;    0.000
486.518; 7140.375;  222.375;    0.000
486.654; 7191.375;  244.375;    0.000
486.790; 7050.375;  273.375;    0.000
486.926; 7103.375;  203.375;    0.000
487.061; 7012.375;  227.375;    0.000
487.197; 7016.375;  210.375;    0.000
487.333; 7106.375;  209.375;    0.000
487.468; 7059.375;  197.375;    0.000
487.604; 7126.375;  230.375;    0.000
487.740; 7114.375;  254.375;    0.000
487.875; 7182.375;  286.375;    0.000
488.011; 7119.375;  225.375;    0.000
488.146; 7022.375;  251.375;    0.000
488.282; 7061.375;  242.375;    0.000
488.417; 7001.375;  230.375;    0.000
488.553; 7151.375;  260.375;    0.000
488.688; 7206.375;  207.375;    0.000
488.824; 7129.375;  204.375;    0.000
488.960; 7097.375;  248.375;    0.000
489.095; 7159.375;  204.375;    0.000
489.230; 7282.375;  227.375;    0.000
489.366; 7233.375;  226.375;    0.000
489.501; 7171.375;  199.375;    0.000
489.637; 7169.375;  233.375;    0.000
489.772; 7190.375;  249.375;    0.000
489.908; 7115.375;  200.375;    0.000
490.043; 7291.375;  246.375;    0.000
490.178; 7250.375;  222.375;    0.000
490.314; 7273.375;  219.375;    0.000
490.449; 7207.375;  227.375;    0.000
490.585; 7194.375;  209.375;    0.000
490.720; 7116.375;  238.375;    0.000
490.855; 7149.375;  222.375;    0.000
490.991; 7133.375;  202.375;    0.000
491.126; 7136.375;  272.375;    0.000
491.261; 7071.375;  261.375;    0.000
491.396; 7086.375;  190.375;    0.000
491.532; 7181.375;  202.375;    0.000
491.667; 7163.375;  208.375;    0.000
491.802; 7152.375;  203.375;    0.000
491.937; 7226.375;  253.375;    0.000
492.073; 7169.375;  242.375;    0.000
492.208; 7187.375;  230.375;    0.000
492.343; 7216.375;  183.375;    0.000
492.478; 7344.375;  246.375;    0.000
492.613; 7335.375;  223.375;    0.000
492.749; 7231.375;  230.375;    0.000
492.884; 7260.375;  190.375;    0.000
493.019; 7262.375;  234.375;    0.000
493.154; 7164.375;  218.375;    0.000
493.289; 7318.375;  222.375;    0.000
493.424; 7288.375;  196.375;    0.000
493.559; 7120.375;  202.375;    0.000
493.694; 7105.375;  180.375;    0.000
493.829; 7206.375;  224.375;    0.000
493.964; 7183.375;  218.375;    0.000
494.099; 7200.375;  275.375;    0.000
494.234; 7310.375;  226.375;    0.000
494.369; 7323.375;  225.375;    0.000
494.504; 7181.375;  219.375;    0.000
494.639; 7248.375;  296.375;    0.000
494.774; 7274.375;  228.375;    0.000
494.909; 7171.375;  222.375;    0.000
495.044; 7262.375;  215.375;    0.000
495.179; 6999.375;  200.375;    0.000
495.314; 7194.375;  235.375;    0.000
495.449; 7181.375;  249.375;    0.000
495.584; 7272.375;  228.375;    0.000
495.719; 7271.375;  212.375;    0.000
495.854; 7184.375;  201.375;    0.000
495.988; 7293.375;  248.375;    0.000
496.123; 7219.375;  209.375;    0.000
496.258; 7178.375;  249.375;    0.000
496.393; 7286.375;  223.375;    0.000
496.528; 7424.375;  209.375;    0.000
496.663; 7467.375;  207.375;    0.000
496.797; 7498.375;  229.375;    0.000
496.932; 7359.375;  225.375;    0.000
497.067; 7709.375;  218.375;    0.000
497.202; 7624.375;  163.375;    0.000
497.336; 7752.375;  246.375;    0.000
497.471; 7913.375;  229.375;    0.000
497.606; 7946.375;  251.375;    0.000
497.740; 8133.375;  220.375;    0.000
497.875; 8126.375;  216.375;    0.000
498.010; 8354.375;  226.375;    0.000
498.144; 8465.375;  237.375;    0.000
498.279; 8457.375;  196.375;    0.000
498.414; 8819.375;  219.375;    0.000
498.548; 8851.375;  205.375;    0.000
498.683; 8993.375;  206.375;    0.000
498.817; 9053.375;  225.375;    0.000
498.952; 9221.375;  221.375;    0.000
499.087; 9376.375;  220.375;    0.000
499.221; 9714.375;  233.375;    0.000
499.356; 9883.375;  230.375;    0.000
499.490;10171.375;  229.375;    0.000
499.625;10461.375;  231.375;    0.000
499.759;10772.375;  243.375;    0.000
499.894;11015.375;  241.375;    0.000
500.028;11282.375;  264.375;    0.000
500.162;11566.375;  287.375;    0.000
500.297;11671.375;  234.375;    0.000
500.431;11728.375;  230.375;    0.000
500.566;11682.375;  213.375;    0.000
500.700;11749.375;  243.375;    0.000
500.835;11499.375;  272.375;    0.000
500.969;11124.375;  188.375;    0.000
501.103;10980.375;  200.375;    0.000
501.238;10623.375;  257.375;    0.000
501.372;10301.375;  224.375;    0.000
501.506; 9930.375;  225.375;    0.000
501.641; 9720.375;  271.375;    0.000
501.775; 9402.375;  199.375;    0.000
501.909; 9042.375;  249.375;    0.000
502.043; 8753.375;  211.375;    0.000
502.178; 8835.375;  269.375;    0.000
502.312; 8606.375;  198.375;    0.000
502.446; 8551.375;  256.375;    0.000
502.580; 8303.375;  195.375;    0.000
502.715; 8223.375;  224.375;    0.000
502.849; 8220.375;  245.375;    0.000
502.983; 7915.375;  250.375;    0.000
503.117; 7778.375;  193.375;    0.000
503.251; 7844.375;  242.375;    0.000
503.385; 7774.375;  227.375;    0.000
503.520; 7520.375;  235.375;    0.000
503.654; 7602.375;  220.375;    0.000
503.788; 7451.375;  267.375;    0.000
503.922; 7266.375;  220.375;    0.000
504.056; 7265.375;  238.375;    0.000
504.190; 7304.375;  212.375;    0.000
504.324; 7149.375;  265.375;    0.000
504.458; 7070.375;  228.375;    0.000
504.592; 7187.375;  231.375;    0.000
504.726; 6923.375;  218.375;    0.000
504.860; 7108.375;  253.375;    0.000
504.994; 6925.375;  217.375;    0.000
505.128; 6677.375;  243.375;    0.000
505.262; 6732.375;  194.375;    0.000
505.396; 6646.375;  210.375;    0.000
505.530; 6460.375;  211.375;    0.000
505.664; 6437.375;  219.375;    0.000
505.798; 6391.375;  240.375;    0.000
505.932; 6204.375;  240.375;    0.000
506.066; 6269.375;  252.375;    0.000
506.199; 6216.375;  242.375;    0.000
506.333; 6173.375;  244.375;    0.000
506.467; 6090.375;  223.375;    0.000
506.601; 5966.375;  183.375;    0.000
506.735; 6009.375;  249.375;    0.000
506.869; 6038.375;  270.375;    0.000
507.002; 6019.375;  207.375;    0.000
507.136; 5951.375;  242.375;    0.000
507.270; 5855.375;  232.375;    0.000
507.404; 5987.375;  195.375;    0.000
507.537; 5783.375;  218.375;    0.000
507.671; 5874.375;  246.375;    0.000
507.805; 5882.375;  244.375;    0.000
507.939; 5722.375;  251.375;    0.000
508.072; 5838.375;  212.375;    0.000
508.206; 5608.375;  198.375;    0.000
508.340; 5743.375;  234.375;    0.000
508.473; 5665.375;  217.375;    0.000
508.607; 5837.375;  224.375;    0.000
508.740; 5597.375;  207.375;    0.000
508.874; 5716.375;  230.375;    0.000
509.008; 5584.375;  246.375;    0.000
509.141; 5583.375;  239.375;    0.000
509.275; 5505.375;  229.375;    0.000
509.408; 5495.375;  234.375;    0.000
509.542; 5594.375;  212.375;    0.000
509.675; 5592.375;  256.375;    0.000
509.809; 5600.375;  232.375;    0.000
509.942; 5493.375;  237.375;    0.000
510.076; 5442.375;  226.375;    0.000
510.209; 5469.375;  251.375;    0.000
510.343; 5476.375;  229.375;    0.000
510.476; 5448.375;  285.375;    0.000
510.610; 5321.375;  211.375;    0.000
510.743; 5405.375;  258.375;    0.000
510.877; 5341.375;  244.375;    0.000
511.010; 5280.375;  235.375;    0.000
511.143; 5314.375;  251.375;    0.000
511.277; 5381.375;  228.375;    0.000
511.410; 5291.375;  216.375;    0.000
511.543; 5325.375;  231.375;    0.000
511.677; 5294.375;  244.375;    0.000
511.810; 5217.375;  186.375;    0.000
511.943; 5257.375;  211.375;    0.000
512.077; 5186.375;  201.375;    0.000
512.210; 5245.375;  194.375;    0.000
512.343; 5343.375;  233.375;    0.000
512.476; 5313.375;  234.375;    0.000
512.610; 5281.375;  224.375;    0.000
512.743; 5167.375;  255.375;    0.000
512.876; 5399.375;  264.375;    0.000
513.009; 5198.375;  283.375;    0.000
513.142; 5177.375;  246.375;    0.000
513.276; 5113.375;  217.375;    0.000
513.409; 5294.375;  222.375;    0.000
513.542; 5252.375;  237.375;    0.000
513.675; 5261.375;  238.375;    0.000
513.808; 5169.375;  220.375;    0.000
513.941; 5249.375;  233.375;    0.000
514.074; 5295.375;  248.375;    0.000
514.207; 5152.375;  233.375;    0.000
514.340; 5159.375;  190.375;    0.000
514.474; 5175.375;  221.375;    0.000
514.607; 5351.375;  213.375;    0.000
514.740; 5342.375;  251.375;    0.000
514.873; 5248.375;  257.375;    0.000
515.006; 5388.375;  268.375;    0.000
515.139; 5296.375;  257.375;    0.000
515.272; 5350.375;  227.375;    0.000
515.404; 5599.375;  238.375;    0.000
515.537; 5540.375;  275.375;    0.000
515.670; 5416.375;  239.375;    0.000
515.803; 5494.375;  223.375;    0.000
515.936; 5647.375;  202.375;    0.000
516.069; 5546.375;  188.375;    0.000
516.202; 5726.375;  240.375;    0.000
516.335; 5888.375;  252.375;    0.000
516.468; 6153.375;  254.375;    0.000
516.600; 7348.375;  254.375;    0.000
516.733; 9399.375;  255.375;    0.000
516.866; 9257.375;  265.375;    0.000
516.999; 8234.375;  251.375;    0.000
517.132;10425.375;  256.375;    0.000
517.264;14666.375;  202.375;    0.000
517.397;14272.375;  248.375;    0.000
517.530;10375.375;  221.375;    0.000
517.663; 8665.375;  244.375;    0.000
517.795; 7971.375;  245.375;    0.000
517.928; 7735.375;  236.375;    0.000
518.061; 8002.375;  219.375;    0.000
518.193;10466.375;  251.375;    0.000
518.326;17143.375;  271.375;    0.000
518.459;18316.375;  207.375;    0.000
518.591;13446.375;  217.375;    0.000
518.724; 9881.375;  200.375;    0.000
518.857; 8371.375;  204.375;    0.000
518.989; 7742.375;  242.375;    0.000
519.122; 7292.375;  254.375;    0.000
519.254; 6739.375;  239.375;    0.000
519.387; 6447.375;  235.375;    0.000
519.519; 6266.375;  227.375;    0.000
519.652; 6047.375;  178.375;    0.000
519.784; 5920.375;  226.375;    0.000
519.917; 5870.375;  256.375;    0.000
520.049; 5734.375;  234.375;    0.000
520.182; 5555.375;  258.375;    0.000
520.314; 5514.375;  298.375;    0.000
520.447; 5494.375;  204.375;    0.000
520.579; 5495.375;  235.375;    0.000
520.712; 5387.375;  208.375;    0.000
520.844; 5440.375;  272.375;    0.000
520.976; 5247.375;  234.375;    0.000
521.109; 5061.375;  235.375;    0.000
521.241; 5184.375;  250.375;    0.000
521.373; 5082.375;  233.375;    0.000
521.506; 4992.375;  231.375;    0.000
521.638; 5054.375;  258.375;    0.000
521.770; 5011.375;  226.375;    0.000
521.903; 4776.375;  258.375;    0.000
522.035; 4857.375;  263.375;    0.000
522.167; 4796.375;  214.375;    0.000
522.300; 4809.375;  212.375;    0.000
522.432; 4874.375;  220.375;    0.000
522.564; 4772.375;  228.375;    0.000
522.696; 4787.375;  272.375;    0.000
522.828; 4772.375;  222.375;    0.000
522.961; 4745.375;  205.375;    0.000
523.093; 4667.375;  253.375;    0.000
523.225; 4664.375;  239.375;    0.000
523.357; 4656.375;  263.375;    0.000
523.489; 4596.375;  264.375;    0.000
523.621; 4605.375;  259.375;    0.000
523.753; 4578.375;  233.375;    0.000
523.885; 4568.375;  232.375;    0.000
524.018; 4522.375;  214.375;    0.000
524.150; 4676.375;  235.375;    0.000
524.282; 4505.375;  242.375;    0.000
524.414; 4649.375;  261.375;    0.000
524.546; 4474.375;  233.375;    0.000
524.678; 4457.375;  242.375;    0.000
524.810; 4404.375;  216.375;    0.000
524.942; 4359.375;  220.375;    0.000
525.074; 4327.375;  249.375;    0.000
525.206; 4317.375;  227.375;    0.000
525.338; 4427.375;  250.375;    0.000
525.469; 4432.375;  231.375;    0.000
525.601; 4534.375;  245.375;    0.000
525.733; 4298.375;  187.375;    0.000
525.865; 4425.375;  280.375;    0.000
525.997; 4324.375;  216.375;    0.000
526.129; 4260.375;  228.375;    0.000
526.261; 4281.375;  187.375;    0.000
526.393; 4247.375;  228.375;    0.000
526.524; 4225.375;  201.375;    0.000
526.656; 4246.375;  199.375;    0.000
526.788; 4264.375;  233.375;    0.000
526.920; 4295.375;  256.375;    0.000
527.052; 4230.375;  219.375;    0.000
527.183; 4209.375;  227.375;    0.000
527.315; 4227.375;  266.375;    0.000
527.447; 4194.375;  239.375;    0.000
527.578; 4244.375;  213.375;    0.000
527.710; 4249.375;  216.375;    0.000
527.842; 4217.375;  240.375;    0.000
527.973; 4342.375;  286.375;    0.000
528.105; 4253.375;  222.375;    0.000
528.237; 4216.375;  223.375;    0.000
528.368; 4207.375;  211.375;    0.000
528.500; 4251.375;  215.375;    0.000
528.632; 4169.375;  216.375;    0.000
528.763; 4149.375;  234.375;    0.000
528.895; 4246.375;  196.375;    0.000
529.026; 4162.375;  202.375;    0.000
529.158; 4196.375;  226.375;    0.000
529.289; 4207.375;  229.375;    0.000
529.421; 4289.375;  264.375;    0.000
529.552; 4191.375;  265.375;    0.000
529.684; 4303.375;  260.375;    0.000
529.815; 4170.375;  284.375;    0.000
529.947; 4100.375;  237.375;    0.000
530.078; 4181.375;  223.375;    0.000
530.210; 4240.375;  223.375;    0.000
530.341; 4168.375;  209.375;    0.000
530.472; 4221.375;  203.375;    0.000
530.604; 4126.375;  223.375;    0.000
530.735; 4231.375;  218.375;    0.000
530.867; 4182.375;  222.375;    0.000
530.998; 4276.375;  239.375;    0.000
531.129; 4181.375;  250.375;    0.000
531.260; 4217.375;  224.375;    0.000
531.392; 4150.375;  216.375;    0.000
531.523; 4217.375;  234.375;    0.000
531.654; 4242.375;  256.375;    0.000
531.786; 4225.375;  226.375;    0.000
531.917; 4319.375;  239.375;    0.000
532.048; 4241.375;  205.375;    0.000
532.179; 4193.375;  244.375;    0.000
532.311; 4227.375;  235.375;    0.000
532.442; 4247.375;  258.375;    0.000
532.573; 4196.375;  220.375;    0.000
532.704; 4243.375;  213.375;    0.000
532.835; 4143.375;  249.375;    0.000
532.966; 4146.375;  226.375;    0.000
533.097; 4166.375;  246.375;    0.000
533.229; 4152.375;  237.375;    0.000
533.360; 4064.375;  225.375;    0.000
533.491; 4086.375;  241.375;    0.000
533.622; 4203.375;  242.375;    0.000
533.753; 4123.375;  264.375;    0.000
533.884; 4106.375;  245.375;    0.000
534.015; 4198.375;  269.375;    0.000
534.146; 4263.375;  267.375;    0.000
534.277; 4218.375;  282.375;    0.000
534.408; 4200.375;  229.375;    0.000
534.539; 4159.375;  269.375;    0.000
534.670; 4279.375;  231.375;    0.000
534.801; 4126.375;  260.375;    0.000
534.932; 4139.375;  232.375;    0.000
535.063; 4192.375;  227.375;    0.000
535.194; 4152.375;  281.375;    0.000
535.324; 4094.375;  206.375;    0.000
535.455; 4205.375;  257.375;    0.000
535.586; 4136.375;  275.375;    0.000
535.717; 4076.375;  206.375;    0.000
535.848; 3990.375;  271.375;    0.000
535.979; 4085.375;  250.375;    0.000
536.109; 4187.375;  253.375;    0.000
536.240; 3954.375;  234.375;    0.000
536.371; 4056.375;  230.375;    0.000
536.502; 4195.375;  270.375;    0.000
536.632; 4079.375;  228.375;    0.000
536.763; 4080.375;  249.375;    0.000
536.894; 4149.375;  262.375;    0.000
537.025; 3988.375;  258.375;    0.000
537.155; 4020.375;  278.375;    0.000
537.286; 3930.375;  209.375;    0.000
537.417; 4120.375;  255.375;    0.000
537.547; 3897.375;  208.375;    0.000
537.678; 4014.375;  224.375;    0.000
537.808; 3936.375;  224.375;    0.000
537.939; 3951.375;  257.375;    0.000
538.070; 4058.375;  240.375;    0.000
538.200; 4013.375;  259.375;    0.000
538.331; 3941.375;  235.375;    0.000
538.461; 4024.375;  251.375;    0.000
538.592; 4090.375;  245.375;    0.000
538.722; 4079.375;  239.375;    0.000
538.853; 3969.375;  216.375;    0.000
538.983; 3931.375;  226.375;    0.000
539.114; 4064.375;  240.375;    0.000
539.244; 3885.375;  237.375;    0.000
539.375; 3904.375;  198.375;    0.000
539.505; 3945.375;  263.375;    0.000
539.636; 3968.375;  226.375;    0.000
539.766; 4042.375;  229.375;    0.000
539.896; 4003.375;  219.375;    0.000
540.027; 3976.375;  246.375;    0.000
540.157; 3991.375;  218.375;    0.000
540.287; 3948.375;  216.375;    0.000
540.418; 4021.375;  267.375;    0.000
540.548; 3928.375;  260.375;    0.000
540.678; 3992.375;  242.375;    0.000
540.809; 4034.375;  260.375;    0.000
540.939; 3968.375;  257.375;    0.000
541.069; 3985.375;  226.375;    0.000
541.200; 3906.375;  227.375;    0.000
541.330; 4002.375;  218.375;    0.000
541.460; 4047.375;  223.375;    0.000
541.590; 4066.375;  237.375;    0.000
541.720; 3997.375;  222.375;    0.000
541.851; 4081.375;  250.375;    0.000
541.981; 4079.375;  222.375;    0.000
542.111; 4072.375;  212.375;    0.000
542.241; 4103.375;  205.375;    0.000
542.371; 4173.375;  202.375;    0.000
542.501; 4065.375;  218.375;    0.000
542.631; 4130.375;  222.375;    0.000
542.761; 4222.375;  249.375;    0.000
542.891; 4224.375;  173.375;    0.000
543.021; 4065.375;  218.375;    0.000
543.151; 4159.375;  222.375;    0.000
543.281; 4209.375;  188.375;    0.000
543.411; 4079.375;  239.375;    0.000
543.542; 4060.375;  215.375;    0.000
543.671; 4103.375;  250.375;    0.000
543.801; 4164.375;  212.375;    0.000
543.931; 4149.375;  233.375;    0.000
544.061; 4140.375;  194.375;    0.000
544.191; 4234.375;  218.375;    0.000
544.321; 4158.375;  220.375;    0.000
544.451; 4148.375;  183.375;    0.000
544.581; 4175.375;  221.375;    0.000
544.711; 4142.375;  224.375;    0.000
544.841; 4269.375;  214.375;    0.000
544.970; 4221.375;  227.375;    0.000
545.100; 4246.375;  186.375;    0.000
545.230; 4310.375;  205.375;    0.000
545.360; 4369.375;  211.375;    0.000
545.490; 4281.375;  202.375;    0.000
545.619; 4307.375;  182.375;    0.000
545.749; 4137.375;  174.375;    0.000
545.879; 4223.375;  169.375;    0.000
546.009; 4213.375;  182.375;    0.000
546.138; 4157.375;  200.375;    0.000
546.268; 4138.375;  204.375;    0.000
546.398; 4059.375;  200.375;    0.000
546.527; 4010.375;  179.375;    0.000
546.657; 4175.375;  162.375;    0.000
546.786; 4193.375;  179.375;    0.000
546.916; 4187.375;  221.375;    0.000
547.046; 4214.375;  179.375;    0.000
547.175; 4251.375;  168.375;    0.000
547.305; 4096.375;  200.375;    0.000
547.434; 4053.375;  166.375;    0.000
547.564; 4152.375;  177.375;    0.000
547.693; 4149.375;  152.375;    0.000
547.823; 4042.375;  171.375;    0.000
547.953; 4072.375;  195.375;    0.000
548.082; 4167.375;  214.375;    0.000
548.211; 4120.375;  177.375;    0.000
548.341; 4151.375;  189.375;    0.000
548.470; 4133.375;  194.375;    0.000
548.600; 4080.375;  172.375;    0.000
548.729; 4202.375;  158.375;    0.000
548.859; 4158.375;  193.375;    0.000
548.988; 4188.375;  131.375;    0.000
549.117; 4053.375;  204.375;    0.000
549.247; 4202.375;  191.375;    0.000
549.376; 4251.375;  202.375;    0.000
549.505; 4181.375;  187.375;    0.000
549.635; 4246.375;  198.375;    0.000
549.764; 4157.375;  155.375;    0.000
549.893; 4329.375;  176.375;    0.000
550.023; 4306.375;  202.375;    0.000
550.152; 4279.375;  168.375;    0.000
550.281; 4167.375;  180.375;    0.000
550.410; 4287.375;  180.375;    0.000
550.539; 4333.375;  181.375;    0.000
550.669; 4199.375;  168.375;    0.000
550.798; 4260.375;  223.375;    0.000
550.927; 4226.375;  179.375;    0.000
551.056; 4230.375;  159.375;    0.000
551.185; 4311.375;  199.375;    0.000
551.314; 4242.375;  185.375;    0.000
551.443; 4264.375;  172.375;    0.000
551.573; 4269.375;  158.375;    0.000
551.702; 4219.375;  210.375;    0.000
551.831; 4240.375;  238.375;    0.000
551.960; 4163.375;  191.375;    0.000
552.089; 4332.375;  195.375;    0.000
552.218; 4227.375;  196.375;    0.000
552.347; 4316.375;  194.375;    0.000
552.476; 4320.375;  192.375;    0.000
552.605; 4422.375;  172.375;    0.000
552.734; 4492.375;  214.375;    0.000
552.863; 4780.375;  177.375;    0.000
552.992; 4774.375;  190.375;    0.000
553.121; 4562.375;  185.375;    0.000
553.249; 4633.375;  175.375;    0.000
553.378; 4618.375;  192.375;    0.000
553.507; 4456.375;  193.375;    0.000
553.636; 4391.375;  182.375;    0.000
553.765; 4371.375;  187.375;    0.000
553.894; 4409.375;  214.375;    0.000
554.023; 4391.375;  217.375;    0.000
554.151; 4384.375;  223.375;    0.000
554.280; 4322.375;  170.375;    0.000
554.409; 4310.375;  172.375;    0.000
554.538; 4301.375;  182.375;    0.000
554.666; 4260.375;  195.375;    0.000
554.795; 4234.375;  176.375;    0.000
554.924; 4347.375;  164.375;    0.000
555.052; 4235.375;  171.375;    0.000
555.181; 4339.375;  208.375;    0.000
555.310; 4284.375;  214.375;    0.000
555.439; 4229.375;  193.375;    0.000
555.567; 4112.375;  189.375;    0.000
555.696; 4144.375;  196.375;    0.000
555.824; 4068.375;  183.375;    0.000
555.953; 4214.375;  234.375;    0.000
556.082; 4105.375;  183.375;    0.000
556.210; 4192.375;  199.375;    0.000
556.339; 4150.375;  201.375;    0.000
556.467; 4178.375;  208.375;    0.000
556.596; 4161.375;  194.375;    0.000
556.724; 4109.375;  170.375;    0.000
556.853; 4104.375;  166.375;    0.000
556.981; 4115.375;  185.375;    0.000
557.110; 4251.375;  213.375;    0.000
557.238; 4185.375;  188.375;    0.000
557.367; 4009.375;  176.375;    0.000
557.495; 4078.375;  180.375;    0.000
557.623; 4068.375;  193.375;    0.000
557.752; 4074.375;  207.375;    0.000
557.880; 4003.375;  189.375;    0.000
558.008; 4097.375;  169.375;    0.000
558.137; 4135.375;  203.375;    0.000
558.265; 4102.375;  167.375;    0.000
558.393; 4091.375;  204.375;    0.000
558.522; 4076.375;  203.375;    0.000
558.650; 4133.375;  215.375;    0.000
558.778; 4086.375;  190.375;    0.000
558.906; 4113.375;  186.375;    0.000
559.035; 4096.375;  193.375;    0.000
559.163; 4052.375;  198.375;    0.000
559.291; 4171.375;  222.375;    0.000
559.419; 4081.375;  192.375;    0.000
559.548; 3979.375;  186.375;    0.000
559.676; 4094.375;  199.375;    0.000
559.804; 4130.375;  186.375;    0.000
559.932; 4110.375;  202.375;    0.000
560.060; 4141.375;  183.375;    0.000
560.188; 4142.375;  212.375;    0.000
560.316; 4161.375;  192.375;    0.000
560.444; 4205.375;  180.375;    0.000
560.572; 4239.375;  206.375;    0.000
560.700; 4313.375;  184.375;    0.000
560.828; 4345.375;  177.375;    0.000
560.956; 4297.375;  221.375;    0.000
561.085; 4353.375;  227.375;    0.000
561.212; 4310.375;  208.375;    0.000
561.340; 4267.375;  189.375;    0.000
561.468; 4359.375;  189.375;    0.000
561.596; 4281.375;  183.375;    0.000
561.724; 4253.375;  188.375;    0.000
561.852; 4225.375;  183.375;    0.000
561.980; 4218.375;  209.375;    0.000
562.108; 4278.375;  165.375;    0.000
562.236; 4421.375;  188.375;    0.000
562.364; 4455.375;  177.375;    0.000
562.492; 4349.375;  192.375;    0.000
562.619; 4263.375;  187.375;    0.000
562.747; 4389.375;  217.375;    0.000
562.875; 4499.375;  221.375;    0.000
563.003; 4384.375;  199.375;    0.000
563.130; 4471.375;  191.375;    0.000
563.258; 4440.375;  186.375;    0.000
563.386; 4497.375;  191.375;    0.000
563.514; 4624.375;  217.375;    0.000
563.641; 4508.375;  220.375;    0.000
563.769; 4566.375;  186.375;    0.000
563.897; 4724.375;  158.375;    0.000
564.024; 4771.375;  192.375;    0.000
564.152; 4810.375;  217.375;    0.000
564.280; 4890.375;  203.375;    0.000
564.407; 4879.375;  190.375;    0.000
564.535; 4802.375;  188.375;    0.000
564.662; 4786.375;  199.375;    0.000
564.790; 4787.375;  227.375;    0.000
564.917; 4915.375;  160.375;    0.000
565.045; 5000.375;  222.375;    0.000
565.173; 4865.375;  169.375;    0.000
565.300; 4987.375;  208.375;    0.000
565.428; 5114.375;  174.375;    0.000
565.555; 5082.375;  201.375;    0.000
565.682; 5258.375;  180.375;    0.000
565.810; 5223.375;  165.375;    0.000
565.937; 5522.375;  167.375;    0.000
566.065; 5547.375;  190.375;    0.000
566.192; 5573.375;  169.375;    0.000
566.320; 5687.375;  167.375;    0.000
566.447; 5628.375;  151.375;    0.000
566.574; 5723.375;  176.375;    0.000
566.702; 5812.375;  198.375;    0.000
566.829; 5803.375;  209.375;    0.000
566.956; 5876.375;  186.375;    0.000
567.083; 6122.375;  188.375;    0.000
567.211; 6000.375;  159.375;    0.000
567.338; 6052.375;  204.375;    0.000
567.465; 6064.375;  141.375;    0.000
567.593; 6068.375;  168.375;    0.000
567.720; 6189.375;  177.375;    0.000
567.847; 6122.375;  160.375;    0.000
567.974; 6098.375;  139.375;    0.000
568.101; 6280.375;  153.375;    0.000
568.228; 6710.375;  173.375;    0.000
568.356; 6731.375;  149.375;    0.000
568.483; 6321.375;  185.375;    0.000
568.610; 6269.375;  170.375;    0.000
568.737; 6876.375;  223.375;    0.000
568.864; 7301.375;  167.375;    0.000
568.991; 6886.375;  177.375;    0.000
569.118; 6145.375;  169.375;    0.000
569.245; 5899.375;  128.375;    0.000
569.372; 5678.375;  160.375;    0.000
569.499; 5347.375;  156.375;    0.000
569.626; 5335.375;  191.375;    0.000
569.753; 5211.375;  163.375;    0.000
569.880; 5230.375;  167.375;    0.000
570.007; 5059.375;  143.375;    0.000
570.134; 4904.375;  191.375;    0.000
570.261; 5050.375;  164.375;    0.000
570.388; 4900.375;  162.375;    0.000
570.515; 4961.375;  220.375;    0.000
570.642; 4866.375;  184.375;    0.000
570.768; 4854.375;  174.375;    0.000
570.895; 4813.375;  177.375;    0.000
571.022; 4684.375;  152.375;    0.000
571.149; 4825.375;  183.375;    0.000
571.276; 4657.375;  153.375;    0.000
571.402; 4735.375;  190.375;    0.000
571.529; 4695.375;  187.375;    0.000
571.656; 4628.375;  167.375;    0.000
571.783; 4531.375;  186.375;    0.000
571.909; 4485.375;  183.375;    0.000
572.036; 4578.375;  162.375;    0.000
572.163; 4524.375;  196.375;    0.000
572.289; 4466.375;  180.375;    0.000
572.416; 4388.375;  190.375;    0.000
572.543; 4373.375;  174.375;    0.000
572.669; 4369.375;  186.375;    0.000
572.796; 4364.375;  205.375;    0.000
572.922; 4407.375;  185.375;    0.000
573.049; 4368.375;  178.375;    0.000
573.176; 4227.375;  196.375;    0.000
573.302; 4269.375;  202.375;    0.000
573.429; 4372.375;  189.375;    0.000
573.555; 4362.375;  145.375;    0.000
573.682; 4356.375;  228.375;    0.000
573.808; 4246.375;  197.375;    0.000
573.935; 4283.375;  216.375;    0.000
574.061; 4260.375;  173.375;    0.000
574.188; 4219.375;  151.375;    0.000
574.314; 4290.375;  181.375;    0.000
574.440; 4277.375;  167.375;    0.000
574.567; 4288.375;  185.375;    0.000
574.693; 4174.375;  173.375;    0.000
574.820; 4242.375;  164.375;    0.000
574.946; 4359.375;  199.375;    0.000
575.072; 4259.375;  162.375;    0.000
575.198; 4226.375;  225.375;    0.000
575.325; 4297.375;  171.375;    0.000
575.451; 4199.375;  183.375;    0.000
575.577; 4232.375;  190.375;    0.000
575.704; 4150.375;  210.375;    0.000
575.830; 4225.375;  185.375;    0.000
575.956; 4115.375;  168.375;    0.000
576.082; 4230.375;  158.375;    0.000
576.208; 4172.375;  158.375;    0.000
576.335; 4089.375;  196.375;    0.000
576.461; 4205.375;  187.375;    0.000
576.587; 4102.375;  157.375;    0.000
576.713; 4213.375;  156.375;    0.000
576.839; 4128.375;  196.375;    0.000
576.965; 4157.375;  187.375;    0.000
577.091; 4033.375;  204.375;    0.000
577.217; 4197.375;  207.375;    0.000
577.343; 4155.375;  175.375;    0.000
577.469; 4172.375;  197.375;    0.000
577.596; 4043.375;  182.375;    0.000
577.722; 4151.375;  159.375;    0.000
577.848; 4241.375;  162.375;    0.000
577.974; 4052.375;  180.375;    0.000
578.099; 4210.375;  161.375;    0.000
578.225; 4168.375;  180.375;    0.000
578.351; 4126.375;  190.375;    0.000
578.477; 4179.375;  212.375;    0.000
578.603; 4118.375;  179.375;    0.000
578.729; 4127.375;  195.375;    0.000
578.855; 4216.375;  153.375;    0.000
578.981; 4233.375;  162.375;    0.000
579.107; 4150.375;  149.375;    0.000
579.232; 4103.375;  164.375;    0.000
579.358; 4158.375;  162.375;    0.000
579.484; 4112.375;  181.375;    0.000
579.610; 4277.375;  190.375;    0.000
579.735; 4103.375;  191.375;    0.000
579.861; 4088.375;  189.375;    0.000
579.987; 4149.375;  202.375;    0.000
580.113; 4150.375;  197.375;    0.000
580.238; 4253.375;  228.375;    0.000
580.364; 4158.375;  212.375;    0.000
580.490; 4244.375;  225.375;    0.000
580.615; 4149.375;  218.375;    0.000
580.741; 4167.375;  167.375;    0.000
580.867; 4153.375;  215.375;    0.000
580.992; 4117.375;  191.375;    0.000
581.118; 4150.375;  171.375;    0.000
581.243; 4293.375;  204.375;    0.000
581.369; 4266.375;  186.375;    0.000
581.494; 4237.375;  184.375;    0.000
581.620; 4247.375;  212.375;    0.000
581.745; 4331.375;  192.375;    0.000
581.871; 4425.375;  195.375;    0.000
581.996; 4323.375;  160.375;    0.000
582.122; 4271.375;  217.375;    0.000
582.247; 4290.375;  213.375;    0.000
582.373; 4362.375;  187.375;    0.000
582.498; 4329.375;  208.375;    0.000
582.624; 4304.375;  189.375;    0.000
582.749; 4496.375;  185.375;    0.000
582.874; 4237.375;  195.375;    0.000
583.000; 4441.375;  208.375;    0.000
583.125; 4307.375;  147.375;    0.000
583.250; 4450.375;  201.375;    0.000
583.376; 4428.375;  191.375;    0.000
583.501; 4413.375;  206.375;    0.000
583.626; 4485.375;  167.375;    0.000
583.751; 4456.375;  180.375;    0.000
583.877; 4565.375;  185.375;    0.000
584.002; 4548.375;  186.375;    0.000
584.127; 4607.375;  176.375;    0.000
584.252; 4583.375;  214.375;    0.000
584.377; 4670.375;  225.375;    0.000
584.503; 4609.375;  195.375;    0.000
584.628; 4728.375;  206.375;    0.000
584.753; 4724.375;  181.375;    0.000
584.878; 4708.375;  136.375;    0.000
585.003; 4727.375;  215.375;    0.000
585.128; 4909.375;  206.375;    0.000
585.253; 4978.375;  200.375;    0.000
585.378; 4942.375;  169.375;    0.000
585.503; 4994.375;  191.375;    0.000
585.628; 4976.375;  182.375;    0.000
585.753; 4989.375;  164.375;    0.000
585.878; 5099.375;  123.375;    0.000
586.003; 5271.375;  187.375;    0.000
586.128; 5169.375;  198.375;    0.000
586.253; 5422.375;  172.375;    0.000
586.378; 5439.375;  191.375;    0.000
586.503; 5564.375;  190.375;    0.000
586.628; 5720.375;  178.375;    0.000
586.753; 5753.375;  184.375;    0.000
586.878; 5987.375;  169.375;    0.000
587.003; 6286.375;  186.375;    0.000
587.127; 6426.375;  170.375;    0.000
587.252; 6622.375;  170.375;    0.000
587.377; 7035.375;  181.375;    0.000
587.502; 7118.375;  209.375;    0.000
587.627; 7573.375;  210.375;    0.000
587.751; 8035.375;  212.375;    0.000
587.876; 8681.375;  198.375;    0.000
588.001; 9190.375;  161.375;    0.000
588.125;10117.375;  191.375;    0.000
588.250;11263.375;  132.375;    0.000
588.375;12994.375;  183.375;    0.000
588.499;15219.375;  176.375;    0.000
588.624;18797.375;  173.375;    0.000
588.749;24683.375;  204.375;    0.000
588.873;35148.375;  179.375;    0.000
588.998;46093.375;  182.375;    0.000
589.122;44112.375;  165.375;    0.000
589.247;35001.375;  185.375;    0.000
589.372;30754.375;  199.375;    0.000
589.496;35582.375;  182.375;    0.000
589.621;41019.375;  158.375;    0.000
589.745;35726.375;  213.375;    0.000
589.870;26147.375;  175.375;    0.000
589.994;19961.375;  194.375;    0.000
590.118;16329.375;  218.375;    0.000
590.243;14196.375;  170.375;    0.000
590.367;12507.375;  189.375;    0.000
590.492;11244.375;  196.375;    0.000
590.616;10251.375;  182.375;    0.000
590.740; 9639.375;  210.375;    0.000
590.865; 9014.375;  242.375;    0.000
590.989; 8382.375;  191.375;    0.000
591.114; 8088.375;  167.375;    0.000
591.238; 7594.375;  194.375;    0.000
591.362; 7442.375;  236.375;    0.000
591.486; 7065.375;  194.375;    0.000
591.611; 7027.375;  154.375;    0.000
591.735; 6648.375;  186.375;    0.000
591.859; 6667.375;  148.375;    0.000
591.983; 6521.375;  211.375;    0.000
592.107; 6291.375;  204.375;    0.000
592.232; 6214.375;  194.375;    0.000
592.356; 6130.375;  238.375;    0.000
592.480; 6116.375;  179.375;    0.000
592.604; 5937.375;  192.375;    0.000
592.728; 5938.375;  201.375;    0.000
592.852; 5787.375;  158.375;    0.000
592.976; 5679.375;  152.375;    0.000
593.100; 5746.375;  194.375;    0.000
593.224; 5641.375;  235.375;    0.000
593.349; 5619.375;  233.375;    0.000
593.473; 5388.375;  194.375;    0.000
593.597; 5438.375;  215.375;    0.000
593.721; 5493.375;  212.375;    0.000
593.844; 5447.375;  220.375;    0.000
593.968; 5356.375;  221.375;    0.000
594.092; 5300.375;  150.375;    0.000
594.216; 5333.375;  212.375;    0.000
594.340; 5181.375;  209.375;    0.000
594.464; 5166.375;  207.375;    0.000
594.588; 5138.375;  195.375;    0.000
594.712; 5086.375;  176.375;    0.000
594.836; 4947.375;  219.375;    0.000
594.959; 4965.375;  215.375;    0.000
595.083; 4799.375;  200.375;    0.000
595.207; 4767.375;  206.375;    0.000
595.331; 4803.375;  207.375;    0.000
595.455; 4700.375;  206.375;    0.000
595.578; 4747.375;  204.375;    0.000
595.702; 4630.375;  225.375;    0.000
595.826; 4476.375;  186.375;    0.000
595.949; 4610.375;  196.375;    0.000
596.073; 4548.375;  188.375;    0.000
596.197; 4606.375;  217.375;    0.000
596.320; 4535.375;  225.375;    0.000
596.444; 4486.375;  220.375;    0.000
596.568; 4419.375;  155.375;    0.000
596.691; 4410.375;  195.375;    0.000
596.815; 4361.375;  163.375;    0.000
596.938; 4358.375;  181.375;    0.000
597.062; 4281.375;  201.375;    0.000
597.186; 4238.375;  200.375;    0.000
597.309; 4299.375;  214.375;    0.000
597.433; 4263.375;  176.375;    0.000
597.556; 4201.375;  193.375;    0.000
597.680; 4111.375;  241.375;    0.000
597.803; 4161.375;  185.375;    0.000
597.926; 4124.375;  200.375;    0.000
598.050; 4118.375;  193.375;    0.000
598.173; 4155.375;  219.375;    0.000
598.297; 4140.375;  223.375;    0.000
598.420; 4085.375;  187.375;    0.000
598.543; 4120.375;  205.375;    0.000
598.667; 4113.375;  177.375;    0.000
598.790; 4126.375;  208.375;    0.000
598.913; 3962.375;  170.375;    0.000
599.037; 4077.375;  212.375;    0.000
599.160; 3926.375;  165.375;    0.000
599.283; 3973.375;  211.375;    0.000
599.406; 4077.375;  207.375;    0.000
599.530; 4123.375;  182.375;    0.000
599.653; 3889.375;  215.375;    0.000
599.776; 3995.375;  167.375;    0.000
599.899; 3955.375;  190.375;    0.000
600.022; 3969.375;  182.375;    0.000
600.145; 3958.375;  180.375;    0.000
600.269; 4035.375;  208.375;    0.000
600.392; 4056.375;  214.375;    0.000
600.515; 3894.375;  196.375;    0.000
600.638; 3929.375;  204.375;    0.000
600.761; 3893.375;  209.375;    0.000
600.884; 3886.375;  207.375;    0.000
601.007; 3864.375;  234.375;    0.000
601.130; 3787.375;  183.375;    0.000
601.253; 3939.375;  211.375;    0.000
601.376; 3825.375;  199.375;    0.000
601.499; 3859.375;  190.375;    0.000
601.622; 3874.375;  210.375;    0.000
601.745; 3776.375;  180.375;    0.000
601.868; 3848.375;  204.375;    0.000
601.991; 3843.375;  188.375;    0.000
602.113; 3812.375;  210.375;    0.000
602.236; 3917.375;  194.375;    0.000
602.359; 3824.375;  213.375;    0.000
602.482; 3870.375;  169.375;    0.000
602.605; 3684.375;  189.375;    0.000
602.728; 3844.375;  236.375;    0.000
602.850; 3833.375;  230.375;    0.000
602.973; 3712.375;  187.375;    0.000
603.096; 3825.375;  201.375;    0.000
603.219; 3836.375;  209.375;    0.000
603.341; 3750.375;  209.375;    0.000
603.464; 3813.375;  194.375;    0.000
603.587; 3832.375;  166.375;    0.000
603.709; 3869.375;  175.375;    0.000
603.832; 3770.375;  239.375;    0.000
603.955; 3733.375;  205.375;    0.000
604.077; 3777.375;  196.375;    0.000
604.200; 3792.375;  188.375;    0.000
604.323; 3757.375;  224.375;    0.000
604.445; 3737.375;  182.375;    0.000
604.568; 3743.375;  199.375;    0.000
604.690; 3709.375;  175.375;    0.000
604.813; 3724.375;  211.375;    0.000
604.935; 3797.375;  171.375;    0.000
605.058; 3675.375;  196.375;    0.000
605.180; 3654.375;  194.375;    0.000
605.303; 3785.375;  198.375;    0.000
605.425; 3732.375;  212.375;    0.000
605.547; 3611.375;  238.375;    0.000
605.670; 3612.375;  207.375;    0.000
605.792; 3697.375;  204.375;    0.000
605.915; 3677.375;  198.375;    0.000
606.037; 3682.375;  215.375;    0.000
606.159; 3732.375;  170.375;    0.000
606.282; 3580.375;  194.375;    0.000
606.404; 3687.375;  207.375;    0.000
606.526; 3619.375;  208.375;    0.000
606.648; 3589.375;  174.375;    0.000
606.771; 3692.375;  170.375;    0.000
606.893; 3562.375;  182.375;    0.000
607.015; 3796.375;  180.375;    0.000
607.137; 3636.375;  187.375;    0.000
607.260; 3675.375;  202.375;    0.000
607.382; 3612.375;  226.375;    0.000
607.504; 3657.375;  208.375;    0.000
607.626; 3602.375;  229.375;    0.000
607.748; 3638.375;  170.375;    0.000
607.870; 3578.375;  208.375;    0.000
607.992; 3588.375;  184.375;    0.000
608.114; 3603.375;  213.375;    0.000
608.237; 3517.375;  237.375;    0.000
608.359; 3605.375;  176.375;    0.000
608.481; 3545.375;  173.375;    0.000
608.603; 3626.375;  189.375;    0.000
608.725; 3602.375;  185.375;    0.000
608.847; 3609.375;  239.375;    0.000
608.969; 3681.375;  237.375;    0.000
609.090; 3585.375;  189.375;    0.000
609.212; 3543.375;  147.375;    0.000
609.334; 3561.375;  177.375;    0.000
609.456; 3567.375;  196.375;    0.000
609.578; 3581.375;  199.375;    0.000
609.700; 3561.375;  167.375;    0.000
609.822; 3536.375;  140.375;    0.000
609.944; 3673.375;  225.375;    0.000
610.065; 3624.375;  183.375;    0.000
610.187; 3553.375;  170.375;    0.000
610.309; 3621.375;  210.375;    0.000
610.431; 3670.375;  185.375;    0.000
610.552; 3615.375;  197.375;    0.000
610.674; 3518.375;  188.375;    0.000
610.796; 3521.375;  162.375;    0.000
610.918; 3507.375;  200.375;    0.000
611.039; 3513.375;  209.375;    0.000
611.161; 3482.375;  201.375;    0.000
611.282; 3551.375;  197.375;    0.000
611.404; 3607.375;  220.375;    0.000
611.526; 3532.375;  159.375;    0.000
611.647; 3611.375;  205.375;    0.000
611.769; 3491.375;  161.375;    0.000
611.890; 3574.375;  173.375;    0.000
612.012; 3524.375;  225.375;    0.000
612.133; 3462.375;  188.375;    0.000
612.255; 3506.375;  217.375;    0.000
612.377; 3572.375;  219.375;    0.000
612.498; 3543.375;  177.375;    0.000
612.619; 3568.375;  211.375;    0.000
612.741; 3505.375;  185.375;    0.000
612.862; 3485.375;  191.375;    0.000
612.984; 3532.375;  190.375;    0.000
613.105; 3478.375;  211.375;    0.000
613.226; 3506.375;  174.375;    0.000
613.348; 3619.375;  235.375;    0.000
613.469; 3547.375;  230.375;    0.000
613.590; 3512.375;  208.375;    0.000
613.712; 3511.375;  244.375;    0.000
613.833; 3591.375;  202.375;    0.000
613.954; 3568.375;  228.375;    0.000
614.076; 3430.375;  220.375;    0.000
614.197; 3474.375;  191.375;    0.000
614.318; 3636.375;  201.375;    0.000
614.439; 3444.375;  212.375;    0.000
614.560; 3542.375;  219.375;    0.000
614.682; 3547.375;  189.375;    0.000
614.803; 3501.375;  188.375;    0.000
614.924; 3536.375;  225.375;    0.000
615.045; 3504.375;  227.375;    0.000
615.166; 3497.375;  200.375;    0.000
615.287; 3626.375;  195.375;    0.000
615.408; 3749.375;  199.375;    0.000
615.529; 3798.375;  227.375;    0.000
615.650; 3700.375;  176.375;    0.000
615.771; 3659.375;  211.375;    0.000
615.892; 3675.375;  212.375;    0.000
616.013; 3991.375;  172.375;    0.000
616.134; 4097.375;  220.375;    0.000
616.255; 4006.375;  251.375;    0.000
616.376; 3648.375;  186.375;    0.000
616.497; 3708.375;  201.375;    0.000
616.618; 3656.375;  149.375;    0.000
616.739; 3737.375;  213.375;    0.000
616.860; 3597.375;  224.375;    0.000
616.981; 3584.375;  224.375;    0.000
617.102; 3502.375;  217.375;    0.000
617.222; 3572.375;  237.375;    0.000
617.343; 3523.375;  205.375;    0.000
617.464; 3557.375;  229.375;    0.000
617.585; 3502.375;  227.375;    0.000
617.705; 3519.375;  191.375;    0.000
617.826; 3572.375;  237.375;    0.000
617.947; 3514.375;  223.375;    0.000
618.068; 3529.375;  189.375;    0.000
618.188; 3435.375;  194.375;    0.000
618.309; 3502.375;  206.375;    0.000
618.430; 3546.375;  229.375;    0.000
618.550; 3497.375;  250.375;    0.000
618.671; 3483.375;  201.375;    0.000
618.791; 3478.375;  226.375;    0.000
618.912; 3545.375;  246.375;    0.000
619.033; 3443.375;  243.375;    0.000
619.153; 3401.375;  208.375;    0.000
619.274; 3394.375;  223.375;    0.000
619.394; 3449.375;  226.375;    0.000
619.515; 3369.375;  188.375;    0.000
619.635; 3440.375;  216.375;    0.000
619.756; 3363.375;  229.375;    0.000
619.876; 3493.375;  216.375;    0.000
619.996; 3495.375;  244.375;    0.000
620.117; 3599.375;  225.375;    0.000
620.237; 3450.375;  207.375;    0.000
620.358; 3536.375;  239.375;    0.000
620.478; 3397.375;  237.375;    0.000
620.598; 3484.375;  237.375;    0.000
620.719; 3426.375;  223.375;    0.000
620.839; 3471.375;  254.375;    0.000
620.959; 3328.375;  244.375;    0.000
621.079; 3423.375;  193.375;    0.000
621.200; 3338.375;  233.375;    0.000
621.320; 3477.375;  270.375;    0.000
621.440; 3380.375;  206.375;    0.000
621.560; 3336.375;  241.375;    0.000
621.681; 3424.375;  231.375;    0.000
621.801; 3319.375;  235.375;    0.000
621.921; 3363.375;  240.375;    0.000
622.041; 3258.375;  244.375;    0.000
622.161; 3344.375;  225.375;    0.000
622.281; 3410.375;  222.375;    0.000
622.401; 3366.375;  238.375;    0.000
622.521; 3316.375;  233.375;    0.000
622.641; 3351.375;  241.375;    0.000
622.761; 3448.375;  233.375;    0.000
622.882; 3347.375;  230.375;    0.000
623.002; 3267.375;  206.375;    0.000
623.121; 3310.375;  217.375;    0.000
623.241; 3354.375;  263.375;    0.000
623.361; 3278.375;  245.375;    0.000
623.481; 3262.375;  194.375;    0.000
623.601; 3288.375;  228.375;    0.000
623.721; 3369.375;  219.375;    0.000
623.841; 3281.375;  234.375;    0.000
623.961; 3233.375;  235.375;    0.000
624.081; 3323.375;  166.375;    0.000
624.201; 3414.375;  229.375;    0.000
624.320; 3317.375;  224.375;    0.000
624.440; 3227.375;  200.375;    0.000
624.560; 3379.375;  220.375;    0.000
624.680; 3206.375;  214.375;    0.000
624.799; 3343.375;  179.375;    0.000
624.919; 3369.375;  199.375;    0.000
625.039; 3268.375;  211.375;    0.000
625.159; 3328.375;  213.375;    0.000
625.278; 3277.375;  178.375;    0.000
625.398; 3314.375;  206.375;    0.000
625.518; 3179.375;  182.375;    0.000
625.637; 3300.375;  206.375;    0.000
625.757; 3210.375;  197.375;    0.000
625.876; 3277.375;  204.375;    0.000
625.996; 3289.375;  222.375;    0.000
626.115; 3256.375;  222.375;    0.000
626.235; 3190.375;  222.375;    0.000
626.354; 3159.375;  211.375;    0.000
626.474; 3267.375;  217.375;    0.000
626.594; 3205.375;  190.375;    0.000
626.713; 3274.375;  200.375;    0.000
626.832; 3287.375;  234.375;    0.000
626.952; 3244.375;  214.375;    0.000
627.071; 3196.375;  243.375;    0.000
627.191; 3249.375;  192.375;    0.000
627.310; 3163.375;  211.375;    0.000
627.429; 3180.375;  218.375;    0.000
627.549; 3214.375;  214.375;    0.000
627.668; 3194.375;  208.375;    0.000
627.787; 3271.375;  199.375;    0.000
627.907; 3116.375;  208.375;    0.000
628.026; 3178.375;  216.375;    0.000
628.145; 3151.375;  170.375;    0.000
628.264; 3221.375;  217.375;    0.000
628.384; 3192.375;  190.375;    0.000
628.503; 3174.375;  203.375;    0.000
628.622; 3221.375;  197.375;    0.000
628.741; 3158.375;  186.375;    0.000
628.860; 3219.375;  191.375;    0.000
628.980; 3222.375;  196.375;    0.000
629.099; 3287.375;  190.375;    0.000
629.218; 3083.375;  165.375;    0.000
629.337; 3213.375;  190.375;    0.000
629.456; 3192.375;  222.375;    0.000
629.575; 3177.375;  197.375;    0.000
629.694; 3238.375;  210.375;    0.000
629.813; 3242.375;  187.375;    0.000
629.932; 3263.375;  224.375;    0.000
630.051; 3160.375;  216.375;    0.000
630.170; 3187.375;  203.375;    0.000
630.289; 3197.375;  178.375;    0.000
630.408; 3143.375;  192.375;    0.000
630.527; 3194.375;  223.375;    0.000
630.646; 3156.375;  177.375;    0.000
630.764; 3068.375;  224.375;    0.000
630.883; 3161.375;  220.375;    0.000
631.002; 3202.375;  187.375;    0.000
631.121; 3173.375;  208.375;    0.000
631.240; 3208.375;  217.375;    0.000
631.359; 3210.375;  241.375;    0.000
631.477; 3197.375;  189.375;    0.000
631.596; 3159.375;  244.375;    0.000
631.715; 3217.375;  241.375;    0.000
631.834; 3192.375;  219.375;    0.000
631.952; 3179.375;  231.375;    0.000
632.071; 3247.375;  197.375;    0.000
632.190; 3150.375;  193.375;    0.000
632.308; 3115.375;  185.375;    0.000
632.427; 3062.375;  188.375;    0.000
632.546; 3098.375;  208.375;    0.000
632.664; 3130.375;  191.375;    0.000
632.783; 3161.375;  201.375;    0.000
632.901; 3082.375;  239.375;    0.000
633.020; 3143.375;  197.375;    0.000
633.138; 3141.375;  189.375;    0.000
633.257; 3169.375;  210.375;    0.000
633.375; 3163.375;  213.375;    0.000
633.494; 3051.375;  206.375;    0.000
633.612; 3146.375;  231.375;    0.000
633.731; 3121.375;  213.375;    0.000
633.849; 3129.375;  244.375;    0.000
633.968; 3136.375;  251.375;    0.000
634.086; 3136.375;  224.375;    0.000
634.204; 3167.375;  212.375;    0.000
634.323; 3083.375;  213.375;    0.000
634.441; 3057.375;  219.375;    0.000
634.559; 3048.375;  198.375;    0.000
634.678; 3138.375;  201.375;    0.000
634.796; 3110.375;  179.375;    0.000
634.914; 3088.375;  255.375;    0.000
635.032; 3173.375;  264.375;    0.000
635.151; 3156.375;  228.375;    0.000
635.269; 3001.375;  223.375;    0.000
635.387; 3131.375;  228.375;    0.000
635.505; 3108.375;  214.375;    0.000
635.623; 3037.375;  279.375;    0.000
635.742; 3168.375;  237.375;    0.000
635.860; 3123.375;  244.375;    0.000
635.978; 3068.375;  213.375;    0.000
636.096; 3138.375;  230.375;    0.000
636.214; 3155.375;  252.375;    0.000
636.332; 3010.375;  221.375;    0.000
636.450; 3074.375;  227.375;    0.000
636.568; 3110.375;  193.375;    0.000
636.686; 3069.375;  208.375;    0.000
636.804; 3094.375;  213.375;    0.000
636.922; 3043.375;  199.375;    0.000
637.040; 3109.375;  202.375;    0.000
637.158; 3079.375;  239.375;    0.000
637.276; 3165.375;  225.375;    0.000
637.394; 3067.375;  217.375;    0.000
637.512; 3076.375;  192.375;    0.000
637.629; 3119.375;  216.375;    0.000
637.747; 3062.375;  198.375;    0.000
637.865; 3077.375;  265.375;    0.000
637.983; 3066.375;  245.375;    0.000
638.101; 3056.375;  199.375;    0.000
638.218; 3088.375;  197.375;    0.000
638.336; 3067.375;  212.375;    0.000
638.454; 3055.375;  227.375;    0.000
638.572; 3133.375;  215.375;    0.000
638.689; 3070.375;  214.375;    0.000
638.807; 3136.375;  233.375;    0.000
638.925; 3038.375;  217.375;    0.000
639.042; 3116.375;  180.375;    0.000
639.160; 3009.375;  220.375;    0.000
639.278; 3015.375;  180.375;    0.000
639.395; 3096.375;  243.375;    0.000
639.513; 3121.375;  207.375;    0.000
639.630; 3084.375;  183.375;    0.000
639.748; 3009.375;  231.375;    0.000
639.865; 3098.375;  215.375;    0.000
639.983; 3138.375;  182.375;    0.000
640.100; 3163.375;  190.375;    0.000
640.218; 3130.375;  224.375;    0.000
640.335; 3017.375;  214.375;    0.000
640.453; 3073.375;  212.375;    0.000
640.570; 3073.375;  224.375;    0.000
640.688; 3026.375;  220.375;    0.000
640.805; 2997.375;  189.375;    0.000
640.922; 3017.375;  256.375;    0.000
641.040; 3063.375;  209.375;    0.000
641.157; 3113.375;  195.375;    0.000
641.274; 3077.375;  195.375;    0.000
641.391; 3019.375;  231.375;    0.000
641.509; 3011.375;  207.375;    0.000
641.626; 3094.375;  227.375;    0.000
641.743; 3129.375;  188.375;    0.000
641.860; 3045.375;  208.375;    0.000
641.978; 3148.375;  222.375;    0.000
642.095; 3120.375;  194.375;    0.000
642.212; 3159.375;  202.375;    0.000
642.329; 3149.375;  241.375;    0.000
642.446; 3031.375;  261.375;    0.000
642.563; 3082.375;  236.375;    0.000
642.681; 3058.375;  228.375;    0.000
642.798; 3120.375;  242.375;    0.000
642.915; 3011.375;  197.375;    0.000
643.032; 3078.375;  239.375;    0.000
643.149; 3135.375;  241.375;    0.000
643.266; 3163.375;  199.375;    0.000
643.383; 3172.375;  200.375;    0.000
643.500; 3104.375;  221.375;    0.000
643.617; 3117.375;  196.375;    0.000
643.734; 3100.375;  207.375;    0.000
643.850; 3120.375;  222.375;    0.000
643.967; 3140.375;  235.375;    0.000
644.084; 3154.375;  233.375;    0.000
644.201; 3059.375;  229.375;    0.000
644.318; 3162.375;  210.375;    0.000
644.435; 3234.375;  234.375;    0.000
644.552; 3242.375;  220.375;    0.000
644.668; 3193.375;  231.375;    0.000
644.785; 3282.375;  231.375;    0.000
644.902; 3181.375;  238.375;    0.000
645.019; 3103.375;  226.375;    0.000
645.135; 3317.375;  179.375;    0.000
645.252; 3191.375;  224.375;    0.000
645.369; 3227.375;  206.375;    0.000
645.485; 3169.375;  200.375;    0.000
645.602; 3304.375;  210.375;    0.000
645.719; 3223.375;  206.375;    0.000
645.835; 3320.375;  247.375;    0.000
645.952; 3294.375;  222.375;    0.000
646.068; 3383.375;  205.375;    0.000
646.185; 3250.375;  230.375;    0.000
646.302; 3324.375;  254.375;    0.000
646.418; 3336.375;  230.375;    0.000
646.535; 3325.375;  214.375;    0.000
646.651; 3322.375;  179.375;    0.000
646.768; 3359.375;  190.375;    0.000
646.884; 3458.375;  208.375;    0.000
647.000; 3336.375;  262.375;    0.000
647.117; 3337.375;  212.375;    0.000
647.233; 3355.375;  228.375;    0.000
647.350; 3404.375;  208.375;    0.000
647.466; 3483.375;  211.375;    0.000
647.582; 3426.375;  196.375;    0.000
647.699; 3431.375;  217.375;    0.000
647.815; 3430.375;  203.375;    0.000
647.931; 3468.375;  201.375;    0.000
648.047; 3384.375;  182.375;    0.000
648.164; 3519.375;  219.375;    0.000
648.280; 3500.375;  213.375;    0.000
648.396; 3477.375;  202.375;    0.000
648.512; 3482.375;  233.375;    0.000
648.629; 3564.375;  206.375;    0.000
648.745; 3502.375;  188.375;    0.000
648.861; 3474.375;  209.375;    0.000
648.977; 3599.375;  218.375;    0.000
649.093; 3531.375;  225.375;    0.000
649.209; 3570.375;  240.375;    0.000
649.325; 3623.375;  253.375;    0.000
649.441; 3547.375;  263.375;    0.000
649.557; 3658.375;  256.375;    0.000
649.673; 3586.375;  211.375;    0.000
649.789; 3681.375;  237.375;    0.000
649.905; 3568.375;  183.375;    0.000
650.021; 3698.375;  238.375;    0.000
650.137; 3701.375;  241.375;    0.000
650.253; 3683.375;  228.375;    0.000
650.369; 3701.375;  221.375;    0.000
650.485; 3686.375;  240.375;    0.000
650.601; 3787.375;  254.375;    0.000
650.717; 3697.375;  201.375;    0.000
650.833; 3784.375;  257.375;    0.000
650.948; 3821.375;  213.375;    0.000
651.064; 3797.375;  223.375;    0.000
651.180; 3824.375;  230.375;    0.000
651.296; 3887.375;  235.375;    0.000
651.411; 3856.375;  221.375;    0.000
651.527; 3891.375;  233.375;    0.000
651.643; 4005.375;  236.375;    0.000
651.759; 3940.375;  268.375;    0.000
651.874; 3952.375;  214.375;    0.000
651.990; 4104.375;  251.375;    0.000
652.105; 4056.375;  217.375;    0.000
652.221; 4085.375;  243.375;    0.000
652.337; 4154.375;  231.375;    0.000
652.452; 4098.375;  238.375;    0.000
652.568; 4204.375;  188.375;    0.000
652.683; 4244.375;  197.375;    0.000
652.799; 4275.375;  194.375;    0.000
652.914; 4339.375;  222.375;    0.000
653.030; 4347.375;  200.375;    0.000
653.145; 4320.375;  235.375;    0.000
653.261; 4592.375;  261.375;    0.000
653.376; 4566.375;  228.375;    0.000
653.492; 4526.375;  222.375;    0.000
653.607; 4636.375;  227.375;    0.000
653.722; 4592.375;  250.375;    0.000
653.838; 4890.375;  255.375;    0.000
653.953; 4833.375;  235.375;    0.000
654.068; 4831.375;  266.375;    0.000
654.184; 4950.375;  210.375;    0.000
654.299; 5148.375;  240.375;    0.000
654.414; 5187.375;  222.375;    0.000
654.530; 5289.375;  222.375;    0.000
654.645; 5276.375;  256.375;    0.000
654.760; 5533.375;  244.375;    0.000
654.875; 5638.375;  229.375;    0.000
654.990; 5710.375;  226.375;    0.000
655.106; 5969.375;  254.375;    0.000
655.221; 6142.375;  251.375;    0.000
655.336; 6321.375;  245.375;    0.000
655.451; 6535.375;  199.375;    0.000
655.566; 6631.375;  228.375;    0.000
655.681; 6875.375;  208.375;    0.000
655.796; 7215.375;  218.375;    0.000
655.911; 7453.375;  233.375;    0.000
656.026; 7830.375;  232.375;    0.000
656.141; 8208.375;  223.375;    0.000
656.256; 8450.375;  247.375;    0.000
656.371; 8564.375;  220.375;    0.000
656.486; 8397.375;  225.375;    0.000
656.601; 8335.375;  257.375;    0.000
656.716; 8032.375;  248.375;    0.000
656.831; 7833.375;  262.375;    0.000
656.946; 7600.375;  249.375;    0.000
657.060; 7603.375;  245.375;    0.000
657.175; 7332.375;  245.375;    0.000
657.290; 7050.375;  219.375;    0.000
657.405; 6947.375;  286.375;    0.000
657.520; 6802.375;  259.375;    0.000
657.634; 6596.375;  239.375;    0.000
657.749; 6480.375;  227.375;    0.000
657.864; 6307.375;  210.375;    0.000
657.979; 6118.375;  236.375;    0.000
658.093; 5949.375;  210.375;    0.000
658.208; 5858.375;  248.375;    0.000
658.323; 5740.375;  216.375;    0.000
658.437; 5678.375;  248.375;    0.000
658.552; 5601.375;  249.375;    0.000
658.666; 5459.375;  256.375;    0.000
658.781; 5535.375;  247.375;    0.000
658.895; 5270.375;  209.375;    0.000
659.010; 5205.375;  219.375;    0.000
659.125; 5129.375;  215.375;    0.000
659.239; 5120.375;  205.375;    0.000
659.353; 4996.375;  246.375;    0.000
659.468; 4843.375;  245.375;    0.000
659.582; 4907.375;  244.375;    0.000
659.697; 4721.375;  242.375;    0.000
659.811; 4730.375;  239.375;    0.000
659.926; 4596.375;  226.375;    0.000
660.040; 4578.375;  255.375;    0.000
660.154; 4550.375;  225.375;    0.000
660.269; 4547.375;  200.375;    0.000
660.383; 4485.375;  192.375;    0.000
660.497; 4426.375;  218.375;    0.000
660.612; 4409.375;  236.375;    0.000
660.726; 4301.375;  263.375;    0.000
660.840; 4306.375;  205.375;    0.000
660.954; 4191.375;  219.375;    0.000
661.068; 4203.375;  240.375;    0.000
661.183; 4171.375;  221.375;    0.000
661.297; 4089.375;  194.375;    0.000
661.411; 4035.375;  253.375;    0.000
661.525; 3986.375;  246.375;    0.000
661.639; 3918.375;  217.375;    0.000
661.753; 3934.375;  241.375;    0.000
661.867; 3893.375;  276.375;    0.000
661.981; 3802.375;  203.375;    0.000
662.095; 3887.375;  224.375;    0.000
662.209; 3777.375;  217.375;    0.000
662.323; 3753.375;  251.375;    0.000
662.437; 3631.375;  243.375;    0.000
662.551; 3683.375;  244.375;    0.000
662.665; 3740.375;  247.375;    0.000
662.779; 3583.375;  251.375;    0.000
662.893; 3635.375;  254.375;    0.000
663.007; 3476.375;  222.375;    0.000
663.121; 3502.375;  253.375;    0.000
663.235; 3544.375;  270.375;    0.000
663.349; 3388.375;  242.375;    0.000
663.462; 3470.375;  230.375;    0.000
663.576; 3402.375;  230.375;    0.000
663.690; 3413.375;  249.375;    0.000
663.804; 3278.375;  200.375;    0.000
663.917; 3352.375;  204.375;    0.000
664.031; 3301.375;  206.375;    0.000
664.145; 3327.375;  202.375;    0.000
664.258; 3237.375;  221.375;    0.000
664.372; 3343.375;  215.375;    0.000
664.486; 3176.375;  179.375;    0.000
664.599; 3209.375;  208.375;    0.000
664.713; 3160.375;  268.375;    0.000
664.827; 3107.375;  225.375;    0.000
664.940; 3192.375;  222.375;    0.000
665.054; 3118.375;  208.375;    0.000
665.167; 3077.375;  253.375;    0.000
665.281; 3112.375;  237.375;    0.000
665.394; 3128.375;  227.375;    0.000
665.508; 3044.375;  192.375;    0.000
665.621; 3113.375;  175.375;    0.000
665.735; 3119.375;  249.375;    0.000
665.848; 3092.375;  197.375;    0.000
665.961; 3032.375;  206.375;    0.000
666.075; 3050.375;  245.375;    0.000
666.188; 3061.375;  230.375;    0.000
666.301; 3052.375;  219.375;    0.000
666.415; 2966.375;  231.375;    0.000
666.528; 2944.375;  258.375;    0.000
666.641; 2941.375;  243.375;    0.000
666.755; 2945.375;  208.375;    0.000
666.868; 2906.375;  228.375;    0.000
666.981; 2959.375;  244.375;    0.000
667.094; 2848.375;  244.375;    0.000
667.207; 2967.375;  226.375;    0.000
667.321; 2791.375;  175.375;    0.000
667.434; 2793.375;  211.375;    0.000
667.547; 2946.375;  249.375;    0.000
667.660; 2834.375;  225.375;    0.000
667.773; 2912.375;  242.375;    0.000
667.886; 2846.375;  246.375;    0.000
667.999; 2881.375;  244.375;    0.000
668.112; 2789.375;  227.375;    0.000
668.225; 2727.375;  231.375;    0.000
668.338; 2716.375;  256.375;    0.000
668.451; 2833.375;  216.375;    0.000
668.564; 2725.375;  261.375;    0.000
668.677; 2721.375;  230.375;    0.000
668.790; 2728.375;  192.375;    0.000
668.903; 2712.375;  243.375;    0.000
669.016; 2593.375;  201.375;    0.000
669.129; 2661.375;  249.375;    0.000
669.242; 2675.375;  190.375;    0.000
669.354; 2682.375;  219.375;    0.000
669.467; 2766.375;  242.375;    0.000
669.580; 2657.375;  237.375;    0.000
669.693; 2685.375;  243.375;    0.000
669.806; 2660.375;  234.375;    0.000
669.918; 2609.375;  206.375;    0.000
670.031; 2649.375;  258.375;    0.000
670.144; 2669.375;  231.375;    0.000
670.256; 2581.375;  244.375;    0.000
670.369; 2576.375;  262.375;    0.000
670.482; 2619.375;  264.375;    0.000
670.594; 2565.375;  256.375;    0.000
670.707; 2573.375;  224.375;    0.000
670.820; 2625.375;  261.375;    0.000
670.932; 2548.375;  226.375;    0.000
671.045; 2538.375;  243.375;    0.000
671.157; 2537.375;  235.375;    0.000
671.270; 2505.375;  217.375;    0.000
671.382; 2541.375;  267.375;    0.000
671.495; 2504.375;  258.375;    0.000
671.607; 2529.375;  236.375;    0.000
671.720; 2507.375;  200.375;    0.000
671.832; 2519.375;  219.375;    0.000
671.944; 2487.375;  234.375;    0.000
672.057; 2506.375;  226.375;    0.000
672.169; 2563.375;  225.375;    0.000
672.281; 2498.375;  253.375;    0.000
672.394; 2508.375;  238.375;    0.000
672.506; 2412.375;  244.375;    0.000
672.618; 2473.375;  272.375;    0.000
672.731; 2420.375;  247.375;    0.000
672.843; 2513.375;  261.375;    0.000
672.955; 2530.375;  262.375;    0.000
673.067; 2504.375;  253.375;    0.000
673.180; 2497.375;  239.375;    0.000
673.292; 2474.375;  240.375;    0.000
673.404; 2497.375;  243.375;    0.000
673.516; 2551.375;  258.375;    0.000
673.628; 2500.375;  263.375;    0.000
673.740; 2449.375;  250.375;    0.000
673.852; 2499.375;  285.375;    0.000
673.964; 2405.375;  264.375;    0.000
674.076; 2468.375;  260.375;    0.000
674.188; 2422.375;  226.375;    0.000
674.300; 2379.375;  272.375;    0.000
674.412; 2410.375;  259.375;    0.000
674.524; 2497.375;  283.375;    0.000
674.636; 2428.375;  259.375;    0.000
674.748; 2373.375;  238.375;    0.000
674.860; 2498.375;  277.375;    0.000
674.972; 2343.375;  272.375;    0.000
675.084; 2467.375;  244.375;    0.000
675.196; 2404.375;  272.375;    0.000
675.307; 2445.375;  244.375;    0.000
675.419; 2367.375;  219.375;    0.000
675.531; 2356.375;  275.375;    0.000
675.643; 2404.375;  215.375;    0.000
675.755; 2340.375;  243.375;    0.000
675.866; 2353.375;  223.375;    0.000
675.978; 2346.375;  216.375;    0.000
676.090; 2378.375;  242.375;    0.000
676.201; 2400.375;  276.375;    0.000
676.313; 2316.375;  226.375;    0.000
676.425; 2377.375;  234.375;    0.000
676.536; 2277.375;  231.375;    0.000
676.648; 2325.375;  254.375;    0.000
676.759; 2350.375;  273.375;    0.000
676.871; 2306.375;  250.375;    0.000
676.983; 2307.375;  256.375;    0.000
677.094; 2271.375;  210.375;    0.000
677.206; 2283.375;  248.375;    0.000
677.317; 2307.375;  263.375;    0.000
677.429; 2239.375;  238.375;    0.000
677.540; 2234.375;  247.375;    0.000
677.651; 2330.375;  224.375;    0.000
677.763; 2282.375;  217.375;    0.000
677.874; 2232.375;  234.375;    0.000
677.986; 2276.375;  238.375;    0.000
678.097; 2241.375;  226.375;    0.000
678.208; 2247.375;  253.375;    0.000
678.320; 2333.375;  217.375;    0.000
678.431; 2230.375;  238.375;    0.000
678.542; 2254.375;  236.375;    0.000
678.653; 2253.375;  218.375;    0.000
678.765; 2306.375;  275.375;    0.000
678.876; 2187.375;  213.375;    0.000
678.987; 2165.375;  182.375;    0.000
679.098; 2225.375;  221.375;    0.000
679.209; 2211.375;  238.375;    0.000
679.320; 2215.375;  212.375;    0.000
679.432; 2210.375;  231.375;    0.000
679.543; 2201.375;  198.375;    0.000
679.654; 2177.375;  191.375;    0.000
679.765; 2256.375;  214.375;    0.000
679.876; 2232.375;  221.375;    0.000
679.987; 2161.375;  162.375;    0.000
680.098; 2217.375;  230.375;    0.000
680.209; 2153.375;  206.375;    0.000
680.320; 2146.375;  196.375;    0.000
680.431; 2142.375;  191.375;    0.000
680.542; 2219.375;  214.375;    0.000
680.653; 2199.375;  238.375;    0.000
680.763; 2129.375;  182.375;    0.000
680.874; 2151.375;  213.375;    0.000
680.985; 2097.375;  224.375;    0.000
681.096; 2188.375;  222.375;    0.000
681.207; 2220.375;  220.375;    0.000
681.318; 2141.375;  216.375;    0.000
681.428; 2132.375;  229.375;    0.000
681.539; 2099.375;  183.375;    0.000
681.650; 2228.375;  202.375;    0.000
681.760; 2130.375;  223.375;    0.000
681.871; 2155.375;  211.375;    0.000
681.982; 2110.375;  189.375;    0.000
682.093; 2146.375;  222.375;    0.000
682.203; 2230.375;  220.375;    0.000
682.314; 2153.375;  214.375;    0.000
682.424; 2160.375;  208.375;    0.000
682.535; 2109.375;  213.375;    0.000
682.646; 2217.375;  302.375;    0.000
682.756; 2071.375;  255.375;    0.000
682.867; 2067.375;  244.375;    0.000
682.977; 2138.375;  221.375;    0.000
683.088; 2029.375;  259.375;    0.000
683.198; 2083.375;  212.375;    0.000
683.308; 2008.375;  202.375;    0.000
683.419; 2082.375;  255.375;    0.000
683.529; 2097.375;  217.375;    0.000
683.640; 2131.375;  240.375;    0.000
683.750; 2076.375;  181.375;    0.000
683.860; 2140.375;  246.375;    0.000
683.971; 2191.375;  254.375;    0.000
684.081; 2081.375;  235.375;    0.000
684.191; 2154.375;  251.375;    0.000
684.301; 2096.375;  233.375;    0.000
684.412; 2130.375;  202.375;    0.000
684.522; 2128.375;  232.375;    0.000
684.632; 2113.375;  202.375;    0.000
684.742; 2127.375;  254.375;    0.000
684.852; 2098.375;  219.375;    0.000
684.963; 2019.375;  256.375;    0.000
685.073; 2072.375;  253.375;    0.000
685.183; 2139.375;  254.375;    0.000
685.293; 2058.375;  232.375;    0.000
685.403; 2103.375;  242.375;    0.000
685.513; 2114.375;  261.375;    0.000
685.623; 2080.375;  245.375;    0.000
685.733; 2054.375;  254.375;    0.000
685.843; 2151.375;  249.375;    0.000
685.953; 2074.375;  252.375;    0.000
686.063; 2091.375;  227.375;    0.000
686.173; 2054.375;  223.375;    0.000
686.283; 2057.375;  234.375;    0.000
686.393; 2052.375;  239.375;    0.000
686.503; 2121.375;  231.375;    0.000
686.612; 2038.375;  232.375;    0.000
686.722; 2119.375;  258.375;    0.000
686.832; 2111.375;  256.375;    0.000
686.942; 2158.375;  230.375;    0.000
687.052; 2081.375;  274.375;    0.000
687.161; 2089.375;  269.375;    0.000
687.271; 2046.375;  218.375;    0.000
687.381; 2034.375;  235.375;    0.000
687.491; 2115.375;  262.375;    0.000
687.600; 2073.375;  256.375;    0.000
687.710; 2041.375;  225.375;    0.000
687.820; 2031.375;  230.375;    0.000
687.929; 1997.375;  226.375;    0.000
688.039; 1974.375;  228.375;    0.000
688.148; 2085.375;  249.375;    0.000
688.258; 2033.375;  237.375;    0.000
688.367; 1998.375;  260.375;    0.000
688.477; 2025.375;  200.375;    0.000
688.586; 2029.375;  223.375;    0.000
688.696; 2099.375;  223.375;    0.000
688.805; 1967.375;  257.375;    0.000
688.915; 1919.375;  185.375;    0.000
689.024; 1983.375;  227.375;    0.000
689.134; 2087.375;  224.375;    0.000
689.243; 2006.375;  206.375;    0.000
689.352; 2040.375;  275.375;    0.000
689.462; 2014.375;  233.375;    0.000
689.571; 2022.375;  244.375;    0.000
689.680; 2020.375;  261.375;    0.000
689.790; 2003.375;  192.375;    0.000
689.899; 1990.375;  214.375;    0.000
690.008; 1999.375;  255.375;    0.000
690.117; 1983.375;  219.375;    0.000
690.227; 2048.375;  241.375;    0.000
690.336; 1980.375;  231.375;    0.000
690.445; 1967.375;  212.375;    0.000
690.554; 1966.375;  234.375;    0.000
690.663; 1996.375;  210.375;    0.000
690.772; 1948.375;  221.375;    0.000
690.881; 2008.375;  244.375;    0.000
690.990; 2016.375;  247.375;    0.000
691.099; 2049.375;  222.375;    0.000
691.209; 1974.375;  240.375;    0.000
691.318; 1970.375;  223.375;    0.000
691.427; 2000.375;  217.375;    0.000
691.536; 2020.375;  216.375;    0.000
691.644; 1957.375;  194.375;    0.000
691.753; 1975.375;  221.375;    0.000
691.862; 1969.375;  224.375;    0.000
691.971; 1920.375;  191.375;    0.000
692.080; 1940.375;  247.375;    0.000
692.189; 1985.375;  208.375;    0.000
692.298; 2000.375;  203.375;    0.000
692.406; 2027.375;  239.375;    0.000
692.515; 2036.375;  250.375;    0.000
692.624; 1994.375;  226.375;    0.000
692.733; 1959.375;  229.375;    0.000
692.842; 2044.375;  254.375;    0.000
692.950; 2014.375;  242.375;    0.000
693.059; 1984.375;  204.375;    0.000
693.168; 1963.375;  252.375;    0.000
693.276; 2022.375;  195.375;    0.000
693.385; 2036.375;  228.375;    0.000
693.494; 1989.375;  282.375;    0.000
693.602; 1942.375;  221.375;    0.000
693.711; 1978.375;  225.375;    0.000
693.819; 2041.375;  234.375;    0.000
693.928; 2010.375;  229.375;    0.000
694.036; 1931.375;  192.375;    0.000
694.145; 1947.375;  233.375;    0.000
694.253; 1981.375;  277.375;    0.000
694.362; 1913.375;  188.375;    0.000
694.470; 2015.375;  263.375;    0.000
694.579; 1920.375;  253.375;    0.000
694.687; 2060.375;  281.375;    0.000
694.795; 1987.375;  233.375;    0.000
694.904; 1893.375;  223.375;    0.000
695.012; 2006.375;  296.375;    0.000
695.120; 1996.375;  227.375;    0.000
695.229; 2056.375;  269.375;    0.000
695.337; 1924.375;  229.375;    0.000
695.445; 2059.375;  244.375;    0.000
695.553; 1995.375;  259.375;    0.000
695.662; 1924.375;  208.375;    0.000
695.770; 1964.375;  241.375;    0.000
695.878; 1994.375;  239.375;    0.000
695.986; 1920.375;  247.375;    0.000
696.094; 1966.375;  224.375;    0.000
696.202; 1936.375;  205.375;    0.000
696.310; 1956.375;  217.375;    0.000
696.419; 1961.375;  228.375;    0.000
696.527; 1998.375;  246.375;    0.000
696.635; 1935.375;  245.375;    0.000
696.743; 1914.375;  233.375;    0.000
696.851; 2000.375;  251.375;    0.000
696.959; 1905.375;  257.375;    0.000
697.067; 1953.375;  260.375;    0.000
697.174; 1880.375;  223.375;    0.000
697.282; 1889.375;  239.375;    0.000
697.390; 2026.375;  264.375;    0.000
697.498; 1895.375;  227.375;    0.000
697.606; 2017.375;  243.375;    0.000
697.714; 1958.375;  256.375;    0.000
697.822; 1923.375;  278.375;    0.000
697.929; 1911.375;  227.375;    0.000
698.037; 1916.375;  232.375;    0.000
698.145; 1947.375;  256.375;    0.000
698.253; 2013.375;  245.375;    0.000
698.360; 1988.375;  282.375;    0.000
698.468; 1930.375;  244.375;    0.000
698.576; 1978.375;  279.375;    0.000
698.683; 1976.375;  259.375;    0.000
698.791; 1883.375;  265.375;    0.000
698.899; 1946.375;  250.375;    0.000
699.006; 1919.375;  245.375;    0.000
699.114; 1951.375;  280.375;    0.000
699.221; 1902.375;  240.375;    0.000
699.329; 1970.375;  293.375;    0.000
699.436; 1935.375;  216.375;    0.000
699.544; 1940.375;  269.375;    0.000
699.651; 1912.375;  219.375;    0.000
699.759; 1971.375;  245.375;    0.000
699.866; 1939.375;  261.375;    0.000
699.974; 1896.375;  245.375;    0.000
700.081; 1896.375;  257.375;    0.000
700.188; 1944.375;  268.375;    0.000
700.296; 1894.375;  225.375;    0.000
700.403; 1962.375;  257.375;    0.000
700.510; 1908.375;  267.375;    0.000
700.618; 1890.375;  299.375;    0.000
700.725; 1952.375;  223.375;    0.000
700.832; 1869.375;  233.375;    0.000
700.940; 1987.375;  255.375;    0.000
701.047; 1840.375;  244.375;    0.000
701.154; 1917.375;  248.375;    0.000
701.261; 1884.375;  264.375;    0.000
701.368; 1947.375;  299.375;    0.000
701.475; 1968.375;  264.375;    0.000
701.582; 1896.375;  275.375;    0.000
701.690; 1889.375;  261.375;    0.000
701.797; 1976.375;  273.375;    0.000
701.904; 1962.375;  320.375;    0.000
702.011; 1886.375;  299.375;    0.000
702.118; 1944.375;  292.375;    0.000
702.225; 1983.375;  317.375;    0.000
702.332; 1988.375;  307.375;    0.000
702.439; 1915.375;  313.375;    0.000
702.546; 2043.375;  312.375;    0.000
702.652; 1978.375;  297.375;    0.000
702.759; 2014.375;  345.375;    0.000
702.866; 1984.375;  330.375;    0.000
702.973; 1936.375;  303.375;    0.000
703.080; 2030.375;  303.375;    0.000
703.187; 1933.375;  327.375;    0.000
703.294; 1929.375;  325.375;    0.000
703.400; 1832.375;  302.375;    0.000
703.507;  512.375;  344.375;    0.000
703.614;  335.375;  294.375;    0.000
703.720;  355.375;  322.375;    0.000
703.827;  313.375;  329.375;    0.000
703.934;  320.375;  318.375;    0.000
704.040;  318.375;  299.375;    0.000
704.147;  312.375;  352.375;    0.000
704.254;  350.375;  350.375;    0.000
704.360;  323.375;  347.375;    0.000
704.467;  344.375;  336.375;    0.000
704.573;  345.375;  344.375;    0.000
704.680;  346.375;  365.375;    0.000
704.786;  323.375;  332.375;    0.000
704.893;  312.375;  304.375;    0.000
704.999;  338.375;  299.375;    0.000
705.106;  357.375;  365.375;    0.000

