
Integration time [ms]:   1.000
Averaging Nr. [scans]: 1
Smoothing Nr. [pixels]: 0
Data measured with spectrometer [name]: UV2
Wave   ;Sample   ;Dark     ;Reference
[nm]   ;[counts] ;[counts] ;[counts] 

353.533;  218.175;  216.475;    0.000
353.597;  234.175;  244.475;    0.000
353.660;  198.175;  181.475;    0.000
353.723;  213.175;  203.475;    0.000
353.786;  203.175;  180.475;    0.000
353.850;  213.175;  213.475;    0.000
353.913;  207.175;  191.475;    0.000
353.976;  219.175;  195.475;    0.000
354.039;  167.175;  158.475;    0.000
354.102;  216.175;  199.475;    0.000
354.166;  177.175;  185.475;    0.000
354.229;  182.175;  188.475;    0.000
354.292;  158.175;  188.475;    0.000
354.355;  186.175;  226.475;    0.000
354.418;  174.175;  158.475;    0.000
354.481;  201.175;  185.475;    0.000
354.545;  379.175;  191.475;    0.000
354.608;  379.175;  247.475;    0.000
354.671;  409.175;  176.475;    0.000
354.734;  427.175;  198.475;    0.000
354.797;  441.175;  195.475;    0.000
354.860;  410.175;  212.475;    0.000
354.923;  398.175;  184.475;    0.000
354.986;  419.175;  169.475;    0.000
355.050;  396.175;  206.475;    0.000
355.113;  427.175;  210.475;    0.000
355.176;  433.175;  217.475;    0.000
355.239;  431.175;  201.475;    0.000
355.302;  410.175;  193.475;    0.000
355.365;  480.175;  234.475;    0.000
355.428;  466.175;  182.475;    0.000
355.491;  511.175;  233.475;    0.000
355.554;  430.175;  167.475;    0.000
355.617;  441.175;  195.475;    0.000
355.680;  434.175;  198.475;    0.000
355.743;  431.175;  186.475;    0.000
355.806;  448.175;  171.475;    0.000
355.869;  435.175;  244.475;    0.000
355.932;  389.175;  164.475;    0.000
355.995;  465.175;  220.475;    0.000
356.058;  448.175;  172.475;    0.000
356.121;  468.175;  228.475;    0.000
356.184;  466.175;  225.475;    0.000
356.247;  511.175;  161.475;    0.000
356.310;  425.175;  195.475;    0.000
356.373;  478.175;  191.475;    0.000
356.436;  466.175;  147.475;    0.000
356.498;  437.175;  183.475;    0.000
356.561;  478.175;  137.475;    0.000
356.624;  471.175;  186.475;    0.000
356.687;  509.175;  158.475;    0.000
356.750;  469.175;  194.475;    0.000
356.813;  509.175;  186.475;    0.000
356.876;  473.175;  161.475;    0.000
356.939;  482.175;  188.475;    0.000
357.001;  519.175;  200.475;    0.000
357.064;  445.175;  182.475;    0.000
357.127;  481.175;  168.475;    0.000
357.190;  449.175;  157.475;    0.000
357.253;  473.175;  199.475;    0.000
357.316;  502.175;  187.475;    0.000
357.378;  493.175;  174.475;    0.000
357.441;  463.175;  165.475;    0.000
357.504;  517.175;  189.475;    0.000
357.567;  459.175;  116.475;    0.000
357.629;  547.175;  176.475;    0.000
357.692;  457.175;  134.475;    0.000
357.755;  500.175;  175.475;    0.000
357.818;  473.175;  159.475;    0.000
357.880;  468.175;  185.475;    0.000
357.943;  476.175;  159.475;    0.000
358.006;  509.175;  176.475;    0.000
358.069;  480.175;  156.475;    0.000
358.131;  511.175;  170.475;    0.000
358.194;  478.175;  125.475;    0.000
358.257;  476.175;  186.475;    0.000
358.319;  531.175;  139.475;    0.000
358.382;  474.175;  175.475;    0.000
358.445;  488.175;  170.475;    0.000
358.507;  475.175;  129.475;    0.000
358.570;  494.175;  168.475;    0.000
358.633;  476.175;  152.475;    0.000
358.695;  479.175;  194.475;    0.000
358.758;  520.175;  154.475;    0.000
358.821;  518.175;  147.475;    0.000
358.883;  483.175;  163.475;    0.000
358.946;  462.175;  155.475;    0.000
359.008;  504.175;  208.475;    0.000
359.071;  468.175;  182.475;    0.000
359.134;  451.175;  126.475;    0.000
359.196;  466.175;  142.475;    0.000
359.259;  521.175;  138.475;    0.000
359.321;  432.175;  153.475;    0.000
359.384;  492.175;  186.475;    0.000
359.446;  492.175;  152.475;    0.000
359.509;  507.175;  144.475;    0.000
359.571;  483.175;  164.475;    0.000
359.634;  512.175;  171.475;    0.000
359.696;  464.175;  144.475;    0.000
359.759;  516.175;  171.475;    0.000
359.821;  464.175;  161.475;    0.000
359.884;  476.175;  159.475;    0.000
359.946;  548.175;  186.475;    0.000
360.009;  464.175;  171.475;    0.000
360.071;  496.175;  166.475;    0.000
360.134;  558.175;  215.475;    0.000
360.196;  506.175;  138.475;    0.000
360.259;  504.175;  196.475;    0.000
360.321;  526.175;  148.475;    0.000
360.384;  498.175;  150.475;    0.000
360.446;  463.175;  148.475;    0.000
360.508;  493.175;  172.475;    0.000
360.571;  534.175;  155.475;    0.000
360.633;  505.175;  153.475;    0.000
360.696;  523.175;  142.475;    0.000
360.758;  498.175;  165.475;    0.000
360.820;  513.175;  155.475;    0.000
360.883;  515.175;  156.475;    0.000
360.945;  543.175;  171.475;    0.000
361.007;  532.175;  138.475;    0.000
361.070;  511.175;  129.475;    0.000
361.132;  507.175;  166.475;    0.000
361.194;  536.175;  143.475;    0.000
361.257;  480.175;  154.475;    0.000
361.319;  532.175;  176.475;    0.000
361.381;  552.175;  143.475;    0.000
361.443;  508.175;  136.475;    0.000
361.506;  518.175;  160.475;    0.000
361.568;  506.175;  140.475;    0.000
361.630;  516.175;  159.475;    0.000
361.693;  536.175;  162.475;    0.000
361.755;  536.175;  185.475;    0.000
361.817;  539.175;  209.475;    0.000
361.879;  571.175;  161.475;    0.000
361.941;  564.175;  152.475;    0.000
362.004;  522.175;  132.475;    0.000
362.066;  478.175;  159.475;    0.000
362.128;  532.175;  143.475;    0.000
362.190;  532.175;  131.475;    0.000
362.252;  592.175;  131.475;    0.000
362.315;  529.175;  175.475;    0.000
362.377;  557.175;  140.475;    0.000
362.439;  500.175;  140.475;    0.000
362.501;  528.175;  140.475;    0.000
362.563;  604.175;  152.475;    0.000
362.625;  531.175;  174.475;    0.000
362.688;  531.175;  195.475;    0.000
362.750;  584.175;  221.475;    0.000
362.812;  548.175;  171.475;    0.000
362.874;  538.175;  117.475;    0.000
362.936;  538.175;  162.475;    0.000
362.998;  572.175;  142.475;    0.000
363.060;  582.175;  143.475;    0.000
363.122;  578.175;  148.475;    0.000
363.184;  599.175;  179.475;    0.000
363.246;  547.175;  186.475;    0.000
363.308;  556.175;  180.475;    0.000
363.370;  553.175;  200.475;    0.000
363.432;  501.175;  139.475;    0.000
363.494;  576.175;  138.475;    0.000
363.556;  566.175;  114.475;    0.000
363.618;  514.175;  153.475;    0.000
363.680;  529.175;  153.475;    0.000
363.742;  565.175;  178.475;    0.000
363.804;  556.175;  214.475;    0.000
363.866;  605.175;  170.475;    0.000
363.928;  557.175;  145.475;    0.000
363.990;  563.175;  215.475;    0.000
364.052;  567.175;  166.475;    0.000
364.114;  560.175;  168.475;    0.000
364.176;  571.175;  176.475;    0.000
364.238;  569.175;  203.475;    0.000
364.300;  590.175;  158.475;    0.000
364.362;  560.175;  152.475;    0.000
364.424;  548.175;  119.475;    0.000
364.486;  600.175;  187.475;    0.000
364.548;  595.175;  180.475;    0.000
364.609;  629.175;  212.475;    0.000
364.671;  630.175;  165.475;    0.000
364.733;  538.175;  190.475;    0.000
364.795;  554.175;  148.475;    0.000
364.857;  556.175;  159.475;    0.000
364.919;  547.175;  159.475;    0.000
364.981;  547.175;  191.475;    0.000
365.042;  609.175;  170.475;    0.000
365.104;  551.175;  145.475;    0.000
365.166;  546.175;  134.475;    0.000
365.228;  560.175;  150.475;    0.000
365.290;  508.175;  158.475;    0.000
365.351;  591.175;  168.475;    0.000
365.413;  610.175;  173.475;    0.000
365.475;  589.175;  172.475;    0.000
365.537;  552.175;  126.475;    0.000
365.598;  586.175;  160.475;    0.000
365.660;  554.175;  127.475;    0.000
365.722;  595.175;  189.475;    0.000
365.784;  549.175;  161.475;    0.000
365.845;  550.175;  152.475;    0.000
365.907;  527.175;  117.475;    0.000
365.969;  589.175;  146.475;    0.000
366.030;  614.175;  171.475;    0.000
366.092;  577.175;  155.475;    0.000
366.154;  567.175;  137.475;    0.000
366.215;  570.175;  147.475;    0.000
366.277;  565.175;  148.475;    0.000
366.339;  593.175;  158.475;    0.000
366.400;  561.175;  140.475;    0.000
366.462;  552.175;  159.475;    0.000
366.524;  529.175;  160.475;    0.000
366.585;  601.175;  157.475;    0.000
366.647;  591.175;  170.475;    0.000
366.708;  553.175;  123.475;    0.000
366.770;  606.175;  194.475;    0.000
366.832;  597.175;  191.475;    0.000
366.893;  563.175;  155.475;    0.000
366.955;  608.175;  132.475;    0.000
367.016;  587.175;  126.475;    0.000
367.078;  547.175;  202.475;    0.000
367.139;  595.175;  116.475;    0.000
367.201;  568.175;  134.475;    0.000
367.262;  612.175;  157.475;    0.000
367.324;  556.175;  202.475;    0.000
367.385;  544.175;  118.475;    0.000
367.447;  570.175;  155.475;    0.000
367.508;  574.175;  134.475;    0.000
367.570;  616.175;  165.475;    0.000
367.631;  572.175;  118.475;    0.000
367.693;  606.175;  170.475;    0.000
367.754;  599.175;  154.475;    0.000
367.816;  609.175;  146.475;    0.000
367.877;  592.175;  175.475;    0.000
367.939;  628.175;  200.475;    0.000
368.000;  591.175;  168.475;    0.000
368.062;  572.175;  138.475;    0.000
368.123;  587.175;  170.475;    0.000
368.184;  610.175;  188.475;    0.000
368.246;  534.175;  145.475;    0.000
368.307;  638.175;  163.475;    0.000
368.369;  594.175;  144.475;    0.000
368.430;  568.175;  140.475;    0.000
368.491;  599.175;  133.475;    0.000
368.553;  647.175;  145.475;    0.000
368.614;  599.175;  158.475;    0.000
368.675;  607.175;  147.475;    0.000
368.737;  568.175;  157.475;    0.000
368.798;  622.175;  163.475;    0.000
368.859;  642.175;  173.475;    0.000
368.921;  624.175;  122.475;    0.000
368.982;  658.175;  184.475;    0.000
369.043;  628.175;  169.475;    0.000
369.104;  567.175;  142.475;    0.000
369.166;  609.175;  169.475;    0.000
369.227;  594.175;  156.475;    0.000
369.288;  579.175;  151.475;    0.000
369.349;  622.175;  191.475;    0.000
369.411;  680.175;  168.475;    0.000
369.472;  639.175;  155.475;    0.000
369.533;  653.175;  149.475;    0.000
369.594;  650.175;  174.475;    0.000
369.656;  649.175;  188.475;    0.000
369.717;  536.175;  113.475;    0.000
369.778;  594.175;  184.475;    0.000
369.839;  645.175;  151.475;    0.000
369.900;  657.175;  180.475;    0.000
369.961;  619.175;  171.475;    0.000
370.023;  580.175;  143.475;    0.000
370.084;  591.175;  137.475;    0.000
370.145;  617.175;  152.475;    0.000
370.206;  653.175;  151.475;    0.000
370.267;  648.175;  134.475;    0.000
370.328;  676.175;  178.475;    0.000
370.389;  606.175;  181.475;    0.000
370.451;  635.175;  169.475;    0.000
370.512;  639.175;  172.475;    0.000
370.573;  574.175;  148.475;    0.000
370.634;  660.175;  156.475;    0.000
370.695;  591.175;  151.475;    0.000
370.756;  618.175;  185.475;    0.000
370.817;  616.175;  185.475;    0.000
370.878;  679.175;  191.475;    0.000
370.939;  630.175;  147.475;    0.000
371.000;  666.175;  162.475;    0.000
371.061;  621.175;  145.475;    0.000
371.122;  628.175;  179.475;    0.000
371.183;  596.175;  114.475;    0.000
371.244;  601.175;  180.475;    0.000
371.305;  621.175;  138.475;    0.000
371.366;  613.175;  157.475;    0.000
371.427;  614.175;  148.475;    0.000
371.488;  650.175;  138.475;    0.000
371.549;  637.175;  193.475;    0.000
371.610;  663.175;  158.475;    0.000
371.671;  605.175;  119.475;    0.000
371.732;  631.175;  159.475;    0.000
371.793;  671.175;  178.475;    0.000
371.853;  579.175;  155.475;    0.000
371.914;  612.175;  148.475;    0.000
371.975;  595.175;  124.475;    0.000
372.036;  636.175;  158.475;    0.000
372.097;  664.175;  136.475;    0.000
372.158;  608.175;  116.475;    0.000
372.219;  632.175;  157.475;    0.000
372.280;  620.175;  151.475;    0.000
372.340;  622.175;  190.475;    0.000
372.401;  630.175;  151.475;    0.000
372.462;  618.175;  129.475;    0.000
372.523;  594.175;  121.475;    0.000
372.584;  652.175;  152.475;    0.000
372.645;  637.175;  132.475;    0.000
372.705;  637.175;  190.475;    0.000
372.766;  671.175;  153.475;    0.000
372.827;  635.175;  133.475;    0.000
372.888;  680.175;  161.475;    0.000
372.948;  673.175;  159.475;    0.000
373.009;  647.175;  164.475;    0.000
373.070;  646.175;  139.475;    0.000
373.131;  664.175;  137.475;    0.000
373.191;  694.175;  181.475;    0.000
373.252;  583.175;  154.475;    0.000
373.313;  664.175;  179.475;    0.000
373.373;  587.175;  136.475;    0.000
373.434;  612.175;  169.475;    0.000
373.495;  591.175;   97.475;    0.000
373.555;  640.175;  142.475;    0.000
373.616;  644.175;  178.475;    0.000
373.677;  646.175;  167.475;    0.000
373.737;  674.175;  139.475;    0.000
373.798;  638.175;  155.475;    0.000
373.859;  636.175;  162.475;    0.000
373.919;  682.175;  174.475;    0.000
373.980;  659.175;  172.475;    0.000
374.041;  635.175;  166.475;    0.000
374.101;  691.175;  172.475;    0.000
374.162;  670.175;  188.475;    0.000
374.222;  677.175;  186.475;    0.000
374.283;  686.175;  195.475;    0.000
374.343;  680.175;  204.475;    0.000
374.404;  658.175;  187.475;    0.000
374.465;  709.175;  183.475;    0.000
374.525;  665.175;  136.475;    0.000
374.586;  677.175;  140.475;    0.000
374.646;  708.175;  191.475;    0.000
374.707;  705.175;  208.475;    0.000
374.767;  731.175;  178.475;    0.000
374.828;  611.175;  159.475;    0.000
374.888;  723.175;  143.475;    0.000
374.949;  668.175;  202.475;    0.000
375.009;  661.175;  151.475;    0.000
375.070;  670.175;  160.475;    0.000
375.130;  646.175;  160.475;    0.000
375.190;  678.175;  164.475;    0.000
375.251;  712.175;  196.475;    0.000
375.311;  689.175;  154.475;    0.000
375.372;  695.175;  197.475;    0.000
375.432;  685.175;  159.475;    0.000
375.493;  669.175;  197.475;    0.000
375.553;  646.175;  165.475;    0.000
375.613;  709.175;  174.475;    0.000
375.674;  686.175;  165.475;    0.000
375.734;  659.175;  128.475;    0.000
375.794;  671.175;  169.475;    0.000
375.855;  657.175;  193.475;    0.000
375.915;  683.175;  162.475;    0.000
375.975;  717.175;  181.475;    0.000
376.036;  672.175;  161.475;    0.000
376.096;  690.175;  131.475;    0.000
376.156;  675.175;  165.475;    0.000
376.217;  694.175;  182.475;    0.000
376.277;  691.175;  185.475;    0.000
376.337;  698.175;  177.475;    0.000
376.398;  725.175;  162.475;    0.000
376.458;  686.175;  179.475;    0.000
376.518;  715.175;  150.475;    0.000
376.578;  678.175;  165.475;    0.000
376.639;  647.175;  159.475;    0.000
376.699;  709.175;  180.475;    0.000
376.759;  725.175;  206.475;    0.000
376.819;  696.175;  146.475;    0.000
376.880;  741.175;  177.475;    0.000
376.940;  704.175;  160.475;    0.000
377.000;  659.175;  149.475;    0.000
377.060;  697.175;  180.475;    0.000
377.120;  678.175;  146.475;    0.000
377.180;  651.175;  137.475;    0.000
377.241;  692.175;  163.475;    0.000
377.301;  738.175;  169.475;    0.000
377.361;  697.175;  137.475;    0.000
377.421;  701.175;  184.475;    0.000
377.481;  662.175;  185.475;    0.000
377.541;  686.175;  146.475;    0.000
377.601;  725.175;  179.475;    0.000
377.661;  769.175;  181.475;    0.000
377.722;  751.175;  185.475;    0.000
377.782;  745.175;  147.475;    0.000
377.842;  705.175;  190.475;    0.000
377.902;  707.175;  166.475;    0.000
377.962;  721.175;  153.475;    0.000
378.022;  730.175;  163.475;    0.000
378.082;  787.175;  146.475;    0.000
378.142;  707.175;  152.475;    0.000
378.202;  748.175;  164.475;    0.000
378.262;  725.175;  195.475;    0.000
378.322;  743.175;  190.475;    0.000
378.382;  748.175;  152.475;    0.000
378.442;  754.175;  175.475;    0.000
378.502;  712.175;  153.475;    0.000
378.562;  665.175;  142.475;    0.000
378.622;  716.175;  166.475;    0.000
378.682;  746.175;  173.475;    0.000
378.742;  709.175;  182.475;    0.000
378.802;  712.175;  145.475;    0.000
378.862;  803.175;  210.475;    0.000
378.921;  780.175;  182.475;    0.000
378.981;  759.175;  185.475;    0.000
379.041;  745.175;  130.475;    0.000
379.101;  772.175;  177.475;    0.000
379.161;  816.175;  166.475;    0.000
379.221;  748.175;  162.475;    0.000
379.281;  784.175;  167.475;    0.000
379.341;  775.175;  136.475;    0.000
379.401;  780.175;  145.475;    0.000
379.460;  762.175;  176.475;    0.000
379.520;  798.175;  162.475;    0.000
379.580;  774.175;  144.475;    0.000
379.640;  760.175;  163.475;    0.000
379.700;  756.175;  157.475;    0.000
379.759;  851.175;  165.475;    0.000
379.819;  779.175;  190.475;    0.000
379.879;  753.175;  143.475;    0.000
379.939;  798.175;  188.475;    0.000
379.999;  774.175;  141.475;    0.000
380.058;  808.175;  169.475;    0.000
380.118;  768.175;  158.475;    0.000
380.178;  805.175;  114.475;    0.000
380.237;  805.175;  157.475;    0.000
380.297;  803.175;  177.475;    0.000
380.357;  842.175;  189.475;    0.000
380.417;  852.175;  182.475;    0.000
380.476;  787.175;  178.475;    0.000
380.536;  829.175;  189.475;    0.000
380.596;  808.175;  183.475;    0.000
380.655;  819.175;  195.475;    0.000
380.715;  888.175;  170.475;    0.000
380.775;  854.175;  170.475;    0.000
380.834;  849.175;  179.475;    0.000
380.894;  814.175;  188.475;    0.000
380.954;  798.175;  142.475;    0.000
381.013;  866.175;  178.475;    0.000
381.073;  817.175;  164.475;    0.000
381.132;  863.175;  192.475;    0.000
381.192;  857.175;  187.475;    0.000
381.252;  857.175;  176.475;    0.000
381.311;  849.175;  206.475;    0.000
381.371;  853.175;  167.475;    0.000
381.430;  862.175;  131.475;    0.000
381.490;  823.175;  150.475;    0.000
381.549;  865.175;  129.475;    0.000
381.609;  883.175;  178.475;    0.000
381.668;  875.175;  194.475;    0.000
381.728;  933.175;  210.475;    0.000
381.787;  952.175;  190.475;    0.000
381.847;  955.175;  181.475;    0.000
381.906;  900.175;  156.475;    0.000
381.966;  880.175;  176.475;    0.000
382.025;  897.175;  186.475;    0.000
382.085;  962.175;  192.475;    0.000
382.144;  926.175;  173.475;    0.000
382.204;  946.175;  207.475;    0.000
382.263;  884.175;  193.475;    0.000
382.323;  999.175;  164.475;    0.000
382.382;  963.175;  161.475;    0.000
382.441;  985.175;  199.475;    0.000
382.501; 1055.175;  208.475;    0.000
382.560; 1068.175;  173.475;    0.000
382.619; 1022.175;  179.475;    0.000
382.679; 1056.175;  177.475;    0.000
382.738; 1211.175;  190.475;    0.000
382.798; 1310.175;  213.475;    0.000
382.857; 1404.175;  195.475;    0.000
382.916; 1465.175;  184.475;    0.000
382.976; 1520.175;  169.475;    0.000
383.035; 1512.175;  194.475;    0.000
383.094; 1479.175;  185.475;    0.000
383.154; 1648.175;  198.475;    0.000
383.213; 1901.175;  147.475;    0.000
383.272; 1888.175;  175.475;    0.000
383.331; 1522.175;  122.475;    0.000
383.391; 1418.175;  185.475;    0.000
383.450; 1334.175;  160.475;    0.000
383.509; 1279.175;  168.475;    0.000
383.568; 1306.175;  196.475;    0.000
383.628; 1433.175;  156.475;    0.000
383.687; 1613.175;  171.475;    0.000
383.746; 1797.175;  155.475;    0.000
383.805; 2152.175;  201.475;    0.000
383.864; 2071.175;  125.475;    0.000
383.924; 1707.175;  213.475;    0.000
383.983; 1307.175;  188.475;    0.000
384.042; 1295.175;  162.475;    0.000
384.101; 1176.175;  183.475;    0.000
384.160; 1044.175;  155.475;    0.000
384.219; 1030.175;  155.475;    0.000
384.279; 1042.175;  189.475;    0.000
384.338; 1012.175;  156.475;    0.000
384.397; 1010.175;  148.475;    0.000
384.456;  964.175;  154.475;    0.000
384.515;  957.175;  160.475;    0.000
384.574;  999.175;  223.475;    0.000
384.633;  990.175;  133.475;    0.000
384.692;  935.175;  163.475;    0.000
384.751;  942.175;  186.475;    0.000
384.810;  905.175;  187.475;    0.000
384.869;  956.175;  172.475;    0.000
384.929;  939.175;  153.475;    0.000
384.988;  926.175;  174.475;    0.000
385.047;  879.175;  154.475;    0.000
385.106;  849.175;  164.475;    0.000
385.165;  898.175;  151.475;    0.000
385.224;  898.175;  147.475;    0.000
385.283;  899.175;  176.475;    0.000
385.342;  952.175;  142.475;    0.000
385.401;  927.175;  175.475;    0.000
385.459;  951.175;  150.475;    0.000
385.518;  893.175;  124.475;    0.000
385.577;  878.175;  115.475;    0.000
385.636;  896.175;  174.475;    0.000
385.695;  864.175;  158.475;    0.000
385.754;  882.175;  150.475;    0.000
385.813;  909.175;  129.475;    0.000
385.872;  905.175;  146.475;    0.000
385.931;  882.175;  194.475;    0.000
385.990;  918.175;  174.475;    0.000
386.049;  937.175;  176.475;    0.000
386.107;  975.175;  151.475;    0.000
386.166;  903.175;  178.475;    0.000
386.225;  909.175;  162.475;    0.000
386.284;  899.175;  180.475;    0.000
386.343;  979.175;  171.475;    0.000
386.402;  922.175;  176.475;    0.000
386.460;  844.175;  144.475;    0.000
386.519;  905.175;  140.475;    0.000
386.578;  950.175;  145.475;    0.000
386.637;  918.175;  164.475;    0.000
386.696;  913.175;  189.475;    0.000
386.754;  940.175;  135.475;    0.000
386.813;  869.175;  139.475;    0.000
386.872;  909.175;  121.475;    0.000
386.931;  895.175;  153.475;    0.000
386.989;  941.175;  211.475;    0.000
387.048;  868.175;  156.475;    0.000
387.107;  909.175;  210.475;    0.000
387.165;  873.175;  129.475;    0.000
387.224;  864.175;  205.475;    0.000
387.283;  843.175;  130.475;    0.000
387.342;  896.175;  171.475;    0.000
387.400;  925.175;  156.475;    0.000
387.459;  897.175;  141.475;    0.000
387.517;  932.175;  219.475;    0.000
387.576;  904.175;  166.475;    0.000
387.635;  876.175;  136.475;    0.000
387.693;  919.175;  191.475;    0.000
387.752;  883.175;  165.475;    0.000
387.811;  914.175;  158.475;    0.000
387.869;  964.175;  204.475;    0.000
387.928;  914.175;  149.475;    0.000
387.986;  864.175;  156.475;    0.000
388.045;  882.175;  123.475;    0.000
388.103;  899.175;  150.475;    0.000
388.162;  860.175;  173.475;    0.000
388.221;  883.175;  143.475;    0.000
388.279;  896.175;  129.475;    0.000
388.338;  977.175;  212.475;    0.000
388.396;  870.175;  150.475;    0.000
388.455;  896.175;  167.475;    0.000
388.513;  880.175;  116.475;    0.000
388.572;  890.175;  181.475;    0.000
388.630;  893.175;  187.475;    0.000
388.689;  881.175;  180.475;    0.000
388.747;  934.175;  154.475;    0.000
388.806;  836.175;  161.475;    0.000
388.864;  893.175;  167.475;    0.000
388.922;  917.175;  184.475;    0.000
388.981;  887.175;  169.475;    0.000
389.039;  903.175;  102.475;    0.000
389.098;  942.175;  183.475;    0.000
389.156;  907.175;  182.475;    0.000
389.214;  877.175;  173.475;    0.000
389.273;  922.175;  167.475;    0.000
389.331;  898.175;  170.475;    0.000
389.390;  869.175;  150.475;    0.000
389.448;  852.175;  156.475;    0.000
389.506;  929.175;  149.475;    0.000
389.565;  919.175;  162.475;    0.000
389.623;  865.175;  188.475;    0.000
389.681;  857.175;  204.475;    0.000
389.740;  912.175;  187.475;    0.000
389.798;  897.175;  153.475;    0.000
389.856;  900.175;  214.475;    0.000
389.914;  945.175;  177.475;    0.000
389.973;  941.175;  189.475;    0.000
390.031;  928.175;  178.475;    0.000
390.089;  921.175;  163.475;    0.000
390.147;  908.175;  170.475;    0.000
390.206;  883.175;  183.475;    0.000
390.264;  875.175;  161.475;    0.000
390.322;  898.175;  148.475;    0.000
390.380;  875.175;  138.475;    0.000
390.439;  872.175;  194.475;    0.000
390.497;  930.175;  170.475;    0.000
390.555;  856.175;  165.475;    0.000
390.613;  913.175;  177.475;    0.000
390.671;  928.175;  170.475;    0.000
390.729;  862.175;  158.475;    0.000
390.788;  939.175;  162.475;    0.000
390.846;  866.175;  161.475;    0.000
390.904;  905.175;  197.475;    0.000
390.962;  860.175;  212.475;    0.000
391.020;  939.175;  224.475;    0.000
391.078;  928.175;  184.475;    0.000
391.136;  865.175;  191.475;    0.000
391.194;  917.175;  187.475;    0.000
391.253;  916.175;  197.475;    0.000
391.311;  876.175;  185.475;    0.000
391.369;  884.175;  207.475;    0.000
391.427;  949.175;  222.475;    0.000
391.485;  915.175;  184.475;    0.000
391.543;  946.175;  203.475;    0.000
391.601;  950.175;  151.475;    0.000
391.659;  912.175;  176.475;    0.000
391.717;  919.175;  190.475;    0.000
391.775;  844.175;  159.475;    0.000
391.833;  971.175;  186.475;    0.000
391.891;  913.175;  154.475;    0.000
391.949;  942.175;  181.475;    0.000
392.007;  898.175;  190.475;    0.000
392.065;  898.175;  182.475;    0.000
392.123;  878.175;  158.475;    0.000
392.180;  951.175;  198.475;    0.000
392.238;  951.175;  191.475;    0.000
392.296;  997.175;  164.475;    0.000
392.354;  925.175;  172.475;    0.000
392.412;  909.175;  194.475;    0.000
392.470;  958.175;  154.475;    0.000
392.528;  908.175;  172.475;    0.000
392.586;  909.175;  179.475;    0.000
392.644;  965.175;  173.475;    0.000
392.701;  925.175;  202.475;    0.000
392.759;  943.175;  180.475;    0.000
392.817;  914.175;  181.475;    0.000
392.875;  923.175;  168.475;    0.000
392.933;  959.175;  161.475;    0.000
392.991;  909.175;  216.475;    0.000
393.048;  978.175;  197.475;    0.000
393.106; 1003.175;  199.475;    0.000
393.164;  890.175;  173.475;    0.000
393.222;  962.175;  179.475;    0.000
393.279;  993.175;  209.475;    0.000
393.337;  991.175;  185.475;    0.000
393.395; 1008.175;  174.475;    0.000
393.453;  929.175;  181.475;    0.000
393.510;  973.175;  188.475;    0.000
393.568;  967.175;  191.475;    0.000
393.626;  890.175;  151.475;    0.000
393.684;  926.175;  208.475;    0.000
393.741;  931.175;  179.475;    0.000
393.799;  961.175;  149.475;    0.000
393.857;  868.175;  136.475;    0.000
393.914;  987.175;  190.475;    0.000
393.972;  941.175;  155.475;    0.000
394.030;  922.175;  170.475;    0.000
394.087;  991.175;  213.475;    0.000
394.145;  954.175;  191.475;    0.000
394.202;  948.175;  188.475;    0.000
394.260;  927.175;  168.475;    0.000
394.318; 1017.175;  176.475;    0.000
394.375;  944.175;  159.475;    0.000
394.433;  983.175;  168.475;    0.000
394.490;  900.175;  163.475;    0.000
394.548;  958.175;  163.475;    0.000
394.605;  977.175;  181.475;    0.000
394.663;  934.175;  180.475;    0.000
394.720;  968.175;  193.475;    0.000
394.778;  994.175;  168.475;    0.000
394.836;  999.175;  128.475;    0.000
394.893;  919.175;  151.475;    0.000
394.951;  979.175;  173.475;    0.000
395.008;  952.175;  201.475;    0.000
395.065;  947.175;  139.475;    0.000
395.123;  954.175;  173.475;    0.000
395.180;  900.175;  144.475;    0.000
395.238; 1012.175;  135.475;    0.000
395.295;  950.175;  167.475;    0.000
395.353;  968.175;  150.475;    0.000
395.410; 1003.175;  165.475;    0.000
395.468; 1054.175;  223.475;    0.000
395.525;  992.175;  156.475;    0.000
395.582; 1007.175;  178.475;    0.000
395.640; 1008.175;  178.475;    0.000
395.697; 1016.175;  173.475;    0.000
395.754; 1005.175;  154.475;    0.000
395.812;  994.175;  169.475;    0.000
395.869; 1014.175;  196.475;    0.000
395.927; 1022.175;  190.475;    0.000
395.984; 1002.175;  195.475;    0.000
396.041;  983.175;  160.475;    0.000
396.098;  973.175;  161.475;    0.000
396.156; 1031.175;  187.475;    0.000
396.213;  961.175;  200.475;    0.000
396.270;  983.175;  160.475;    0.000
396.328;  972.175;  113.475;    0.000
396.385;  949.175;  165.475;    0.000
396.442; 1052.175;  168.475;    0.000
396.499;  975.175;  117.475;    0.000
396.557;  972.175;  203.475;    0.000
396.614;  996.175;  155.475;    0.000
396.671; 1019.175;  187.475;    0.000
396.728;  980.175;  169.475;    0.000
396.785; 1004.175;  167.475;    0.000
396.843; 1036.175;  154.475;    0.000
396.900; 1078.175;  172.475;    0.000
396.957; 1040.175;  176.475;    0.000
397.014; 1062.175;  193.475;    0.000
397.071; 1038.175;  170.475;    0.000
397.128; 1054.175;  172.475;    0.000
397.186; 1055.175;  205.475;    0.000
397.243; 1020.175;  163.475;    0.000
397.300; 1057.175;  193.475;    0.000
397.357; 1031.175;  166.475;    0.000
397.414; 1045.175;  149.475;    0.000
397.471;  986.175;  157.475;    0.000
397.528; 1082.175;  180.475;    0.000
397.585;  999.175;  203.475;    0.000
397.642; 1028.175;  156.475;    0.000
397.699;  979.175;  229.475;    0.000
397.756;  987.175;  185.475;    0.000
397.814; 1049.175;  191.475;    0.000
397.871; 1000.175;  170.475;    0.000
397.928; 1052.175;  191.475;    0.000
397.985; 1064.175;  183.475;    0.000
398.042; 1012.175;  161.475;    0.000
398.099; 1023.175;  192.475;    0.000
398.156; 1002.175;  176.475;    0.000
398.212; 1068.175;  170.475;    0.000
398.269; 1058.175;  158.475;    0.000
398.326; 1072.175;  175.475;    0.000
398.383; 1082.175;  177.475;    0.000
398.440; 1021.175;  169.475;    0.000
398.497; 1038.175;  184.475;    0.000
398.554; 1043.175;  196.475;    0.000
398.611; 1096.175;  198.475;    0.000
398.668; 1001.175;  135.475;    0.000
398.725; 1095.175;  181.475;    0.000
398.782; 1181.175;  195.475;    0.000
398.839; 1106.175;  179.475;    0.000
398.895; 1094.175;  188.475;    0.000
398.952; 1129.175;  176.475;    0.000
399.009; 1132.175;  183.475;    0.000
399.066; 1165.175;  190.475;    0.000
399.123; 1099.175;  174.475;    0.000
399.180; 1147.175;  191.475;    0.000
399.236; 1113.175;  217.475;    0.000
399.293; 1136.175;  154.475;    0.000
399.350; 1147.175;  210.475;    0.000
399.407; 1146.175;  202.475;    0.000
399.463; 1148.175;  162.475;    0.000
399.520; 1133.175;  207.475;    0.000
399.577; 1170.175;  174.475;    0.000
399.634; 1206.175;  170.475;    0.000
399.690; 1167.175;  186.475;    0.000
399.747; 1210.175;  218.475;    0.000
399.804; 1205.175;  200.475;    0.000
399.861; 1249.175;  190.475;    0.000
399.917; 1127.175;  218.475;    0.000
399.974; 1216.175;  200.475;    0.000
400.031; 1265.175;  200.475;    0.000
400.087; 1151.175;  153.475;    0.000
400.144; 1169.175;  188.475;    0.000
400.201; 1188.175;  198.475;    0.000
400.257; 1202.175;  205.475;    0.000
400.314; 1179.175;  183.475;    0.000
400.370; 1198.175;  227.475;    0.000
400.427; 1147.175;  177.475;    0.000
400.484; 1188.175;  202.475;    0.000
400.540; 1167.175;  173.475;    0.000
400.597; 1164.175;  212.475;    0.000
400.653; 1147.175;  182.475;    0.000
400.710; 1164.175;  201.475;    0.000
400.766; 1170.175;  188.475;    0.000
400.823; 1140.175;  205.475;    0.000
400.879; 1210.175;  165.475;    0.000
400.936; 1118.175;  180.475;    0.000
400.993; 1096.175;  181.475;    0.000
401.049; 1199.175;  147.475;    0.000
401.105; 1182.175;  205.475;    0.000
401.162; 1181.175;  197.475;    0.000
401.218; 1141.175;  177.475;    0.000
401.275; 1128.175;  183.475;    0.000
401.331; 1196.175;  198.475;    0.000
401.388; 1161.175;  209.475;    0.000
401.444; 1141.175;  211.475;    0.000
401.501; 1145.175;  185.475;    0.000
401.557; 1166.175;  190.475;    0.000
401.614; 1110.175;  172.475;    0.000
401.670; 1105.175;  185.475;    0.000
401.726; 1123.175;  196.475;    0.000
401.783; 1093.175;  187.475;    0.000
401.839; 1147.175;  192.475;    0.000
401.895; 1147.175;  173.475;    0.000
401.952; 1115.175;  145.475;    0.000
402.008; 1130.175;  197.475;    0.000
402.064; 1075.175;  146.475;    0.000
402.121; 1178.175;  197.475;    0.000
402.177; 1180.175;  173.475;    0.000
402.233; 1148.175;  185.475;    0.000
402.290; 1133.175;  175.475;    0.000
402.346; 1200.175;  164.475;    0.000
402.402; 1105.175;  173.475;    0.000
402.458; 1122.175;  183.475;    0.000
402.515; 1158.175;  147.475;    0.000
402.571; 1145.175;  210.475;    0.000
402.627; 1196.175;  181.475;    0.000
402.683; 1109.175;  177.475;    0.000
402.740; 1117.175;  162.475;    0.000
402.796; 1151.175;  178.475;    0.000
402.852; 1115.175;  138.475;    0.000
402.908; 1164.175;  181.475;    0.000
402.964; 1153.175;  151.475;    0.000
403.021; 1179.175;  170.475;    0.000
403.077; 1198.175;  204.475;    0.000
403.133; 1096.175;  144.475;    0.000
403.189; 1230.175;  207.475;    0.000
403.245; 1233.175;  184.475;    0.000
403.301; 1192.175;  170.475;    0.000
403.357; 1185.175;  201.475;    0.000
403.414; 1202.175;  205.475;    0.000
403.470; 1211.175;  170.475;    0.000
403.526; 1151.175;  135.475;    0.000
403.582; 1192.175;  180.475;    0.000
403.638; 1233.175;  185.475;    0.000
403.694; 1203.175;  169.475;    0.000
403.750; 1178.175;  210.475;    0.000
403.806; 1220.175;  210.475;    0.000
403.862; 1194.175;  219.475;    0.000
403.918; 1275.175;  191.475;    0.000
403.974; 1184.175;  193.475;    0.000
404.030; 1215.175;  154.475;    0.000
404.086; 1194.175;  170.475;    0.000
404.142; 1277.175;  194.475;    0.000
404.198; 1230.175;  224.475;    0.000
404.254; 1192.175;  177.475;    0.000
404.310; 1266.175;  204.475;    0.000
404.366; 1193.175;  170.475;    0.000
404.422; 1209.175;  172.475;    0.000
404.478; 1187.175;  153.475;    0.000
404.534; 1180.175;  159.475;    0.000
404.590; 1243.175;  203.475;    0.000
404.646; 1199.175;  164.475;    0.000
404.701; 1207.175;  141.475;    0.000
404.757; 1218.175;  195.475;    0.000
404.813; 1198.175;  152.475;    0.000
404.869; 1246.175;  174.475;    0.000
404.925; 1204.175;  167.475;    0.000
404.981; 1242.175;  175.475;    0.000
405.037; 1233.175;  170.475;    0.000
405.092; 1161.175;  155.475;    0.000
405.148; 1193.175;  160.475;    0.000
405.204; 1288.175;  158.475;    0.000
405.260; 1217.175;  128.475;    0.000
405.316; 1221.175;  168.475;    0.000
405.371; 1197.175;  162.475;    0.000
405.427; 1241.175;  187.475;    0.000
405.483; 1270.175;  214.475;    0.000
405.539; 1219.175;  163.475;    0.000
405.594; 1259.175;  191.475;    0.000
405.650; 1197.175;  124.475;    0.000
405.706; 1217.175;  188.475;    0.000
405.761; 1229.175;  204.475;    0.000
405.817; 1150.175;  150.475;    0.000
405.873; 1200.175;  152.475;    0.000
405.928; 1211.175;  135.475;    0.000
405.984; 1253.175;  209.475;    0.000
406.040; 1261.175;  165.475;    0.000
406.095; 1241.175;  146.475;    0.000
406.151; 1218.175;  169.475;    0.000
406.207; 1308.175;  174.475;    0.000
406.262; 1227.175;  189.475;    0.000
406.318; 1301.175;  141.475;    0.000
406.374; 1215.175;  178.475;    0.000
406.429; 1257.175;  197.475;    0.000
406.485; 1264.175;  194.475;    0.000
406.540; 1208.175;  149.475;    0.000
406.596; 1237.175;  173.475;    0.000
406.651; 1248.175;  154.475;    0.000
406.707; 1239.175;  183.475;    0.000
406.763; 1282.175;  156.475;    0.000
406.818; 1270.175;  181.475;    0.000
406.874; 1231.175;  135.475;    0.000
406.929; 1286.175;  194.475;    0.000
406.985; 1322.175;  166.475;    0.000
407.040; 1351.175;  207.475;    0.000
407.095; 1333.175;  213.475;    0.000
407.151; 1330.175;  198.475;    0.000
407.206; 1351.175;  186.475;    0.000
407.262; 1357.175;  148.475;    0.000
407.317; 1346.175;  212.475;    0.000
407.373; 1323.175;  209.475;    0.000
407.428; 1329.175;  218.475;    0.000
407.484; 1386.175;  158.475;    0.000
407.539; 1287.175;  165.475;    0.000
407.594; 1307.175;  197.475;    0.000
407.650; 1326.175;  177.475;    0.000
407.705; 1261.175;  154.475;    0.000
407.760; 1379.175;  198.475;    0.000
407.816; 1328.175;  181.475;    0.000
407.871; 1348.175;  185.475;    0.000
407.926; 1327.175;  167.475;    0.000
407.982; 1367.175;  172.475;    0.000
408.037; 1314.175;  202.475;    0.000
408.092; 1348.175;  201.475;    0.000
408.148; 1376.175;  199.475;    0.000
408.203; 1356.175;  174.475;    0.000
408.258; 1364.175;  157.475;    0.000
408.314; 1391.175;  194.475;    0.000
408.369; 1348.175;  189.475;    0.000
408.424; 1352.175;  204.475;    0.000
408.479; 1340.175;  192.475;    0.000
408.534; 1388.175;  215.475;    0.000
408.590; 1312.175;  190.475;    0.000
408.645; 1372.175;  159.475;    0.000
408.700; 1360.175;  191.475;    0.000
408.755; 1400.175;  217.475;    0.000
408.810; 1330.175;  158.475;    0.000
408.866; 1380.175;  166.475;    0.000
408.921; 1362.175;  214.475;    0.000
408.976; 1336.175;  158.475;    0.000
409.031; 1362.175;  185.475;    0.000
409.086; 1309.175;  158.475;    0.000
409.141; 1336.175;  180.475;    0.000
409.196; 1283.175;  188.475;    0.000
409.252; 1294.175;  186.475;    0.000
409.307; 1319.175;  135.475;    0.000
409.362; 1407.175;  162.475;    0.000
409.417; 1342.175;  149.475;    0.000
409.472; 1312.175;  205.475;    0.000
409.527; 1315.175;  184.475;    0.000
409.582; 1368.175;  174.475;    0.000
409.637; 1336.175;  188.475;    0.000
409.692; 1303.175;  211.475;    0.000
409.747; 1364.175;  159.475;    0.000
409.802; 1348.175;  199.475;    0.000
409.857; 1312.175;  118.475;    0.000
409.912; 1360.175;  177.475;    0.000
409.967; 1360.175;  182.475;    0.000
410.022; 1434.175;  188.475;    0.000
410.077; 1368.175;  204.475;    0.000
410.132; 1370.175;  174.475;    0.000
410.187; 1290.175;  169.475;    0.000
410.242; 1330.175;  178.475;    0.000
410.297; 1331.175;  185.475;    0.000
410.351; 1344.175;  203.475;    0.000
410.406; 1325.175;  180.475;    0.000
410.461; 1339.175;  213.475;    0.000
410.516; 1391.175;  198.475;    0.000
410.571; 1296.175;  171.475;    0.000
410.626; 1360.175;  186.475;    0.000
410.681; 1355.175;  187.475;    0.000
410.736; 1344.175;  147.475;    0.000
410.790; 1278.175;  186.475;    0.000
410.845; 1428.175;  152.475;    0.000
410.900; 1340.175;  202.475;    0.000
410.955; 1380.175;  196.475;    0.000
411.010; 1404.175;  150.475;    0.000
411.064; 1387.175;  200.475;    0.000
411.119; 1376.175;  203.475;    0.000
411.174; 1352.175;  176.475;    0.000
411.229; 1406.175;  203.475;    0.000
411.283; 1336.175;  176.475;    0.000
411.338; 1346.175;  153.475;    0.000
411.393; 1328.175;  168.475;    0.000
411.447; 1338.175;  223.475;    0.000
411.502; 1397.175;  238.475;    0.000
411.557; 1346.175;  179.475;    0.000
411.612; 1311.175;  159.475;    0.000
411.666; 1384.175;  189.475;    0.000
411.721; 1351.175;  212.475;    0.000
411.776; 1409.175;  242.475;    0.000
411.830; 1359.175;  194.475;    0.000
411.885; 1388.175;  188.475;    0.000
411.939; 1368.175;  245.475;    0.000
411.994; 1370.175;  177.475;    0.000
412.049; 1343.175;  170.475;    0.000
412.103; 1392.175;  196.475;    0.000
412.158; 1370.175;  215.475;    0.000
412.212; 1360.175;  199.475;    0.000
412.267; 1375.175;  191.475;    0.000
412.322; 1376.175;  238.475;    0.000
412.376; 1436.175;  243.475;    0.000
412.431; 1405.175;  214.475;    0.000
412.485; 1388.175;  210.475;    0.000
412.540; 1358.175;  200.475;    0.000
412.594; 1346.175;  174.475;    0.000
412.649; 1370.175;  246.475;    0.000
412.703; 1411.175;  182.475;    0.000
412.758; 1370.175;  222.475;    0.000
412.812; 1309.175;  201.475;    0.000
412.866; 1353.175;  162.475;    0.000
412.921; 1385.175;  202.475;    0.000
412.975; 1370.175;  212.475;    0.000
413.030; 1383.175;  238.475;    0.000
413.084; 1407.175;  201.475;    0.000
413.139; 1325.175;  210.475;    0.000
413.193; 1357.175;  218.475;    0.000
413.247; 1387.175;  203.475;    0.000
413.302; 1408.175;  176.475;    0.000
413.356; 1352.175;  215.475;    0.000
413.410; 1383.175;  204.475;    0.000
413.465; 1355.175;  186.475;    0.000
413.519; 1318.175;  196.475;    0.000
413.573; 1368.175;  181.475;    0.000
413.628; 1338.175;  200.475;    0.000
413.682; 1360.175;  157.475;    0.000
413.736; 1350.175;  194.475;    0.000
413.791; 1395.175;  193.475;    0.000
413.845; 1366.175;  225.475;    0.000
413.899; 1337.175;  195.475;    0.000
413.953; 1412.175;  173.475;    0.000
414.008; 1283.175;  186.475;    0.000
414.062; 1306.175;  217.475;    0.000
414.116; 1375.175;  169.475;    0.000
414.170; 1399.175;  228.475;    0.000
414.225; 1346.175;  177.475;    0.000
414.279; 1370.175;  210.475;    0.000
414.333; 1383.175;  207.475;    0.000
414.387; 1366.175;  217.475;    0.000
414.441; 1416.175;  187.475;    0.000
414.496; 1373.175;  215.475;    0.000
414.550; 1397.175;  204.475;    0.000
414.604; 1392.175;  206.475;    0.000
414.658; 1315.175;  139.475;    0.000
414.712; 1374.175;  198.475;    0.000
414.766; 1467.175;  208.475;    0.000
414.820; 1405.175;  199.475;    0.000
414.874; 1366.175;  216.475;    0.000
414.928; 1346.175;  186.475;    0.000
414.982; 1389.175;  176.475;    0.000
415.037; 1322.175;  181.475;    0.000
415.091; 1363.175;  208.475;    0.000
415.145; 1375.175;  209.475;    0.000
415.199; 1313.175;  186.475;    0.000
415.253; 1411.175;  203.475;    0.000
415.307; 1423.175;  197.475;    0.000
415.361; 1368.175;  223.475;    0.000
415.415; 1372.175;  213.475;    0.000
415.469; 1365.175;  226.475;    0.000
415.523; 1392.175;  222.475;    0.000
415.577; 1328.175;  205.475;    0.000
415.631; 1422.175;  224.475;    0.000
415.684; 1370.175;  193.475;    0.000
415.738; 1379.175;  224.475;    0.000
415.792; 1372.175;  204.475;    0.000
415.846; 1374.175;  189.475;    0.000
415.900; 1347.175;  223.475;    0.000
415.954; 1355.175;  187.475;    0.000
416.008; 1314.175;  237.475;    0.000
416.062; 1328.175;  195.475;    0.000
416.116; 1385.175;  223.475;    0.000
416.169; 1352.175;  210.475;    0.000
416.223; 1360.175;  232.475;    0.000
416.277; 1373.175;  227.475;    0.000
416.331; 1358.175;  216.475;    0.000
416.385; 1387.175;  186.475;    0.000
416.439; 1348.175;  226.475;    0.000
416.492; 1384.175;  229.475;    0.000
416.546; 1393.175;  216.475;    0.000
416.600; 1419.175;  211.475;    0.000
416.654; 1386.175;  226.475;    0.000
416.707; 1416.175;  248.475;    0.000
416.761; 1336.175;  217.475;    0.000
416.815; 1315.175;  207.475;    0.000
416.869; 1374.175;  226.475;    0.000
416.922; 1415.175;  192.475;    0.000
416.976; 1430.175;  205.475;    0.000
417.030; 1364.175;  233.475;    0.000
417.083; 1324.175;  226.475;    0.000
417.137; 1375.175;  222.475;    0.000
417.191; 1388.175;  217.475;    0.000
417.244; 1303.175;  221.475;    0.000
417.298; 1334.175;  201.475;    0.000
417.352; 1346.175;  170.475;    0.000
417.405; 1368.175;  234.475;    0.000
417.459; 1352.175;  241.475;    0.000
417.512; 1374.175;  247.475;    0.000
417.566; 1367.175;  219.475;    0.000
417.620; 1361.175;  228.475;    0.000
417.673; 1338.175;  192.475;    0.000
417.727; 1398.175;  203.475;    0.000
417.780; 1347.175;  204.475;    0.000
417.834; 1350.175;  234.475;    0.000
417.887; 1409.175;  245.475;    0.000
417.941; 1395.175;  211.475;    0.000
417.994; 1401.175;  244.475;    0.000
418.048; 1394.175;  203.475;    0.000
418.101; 1355.175;  212.475;    0.000
418.155; 1393.175;  251.475;    0.000
418.208; 1386.175;  286.475;    0.000
418.262; 1395.175;  243.475;    0.000
418.315; 1381.175;  214.475;    0.000
418.369; 1404.175;  269.475;    0.000
418.422; 1395.175;  222.475;    0.000
418.476; 1377.175;  226.475;    0.000
418.529; 1358.175;  238.475;    0.000
418.582; 1391.175;  210.475;    0.000
418.636; 1402.175;  221.475;    0.000
418.689; 1328.175;  224.475;    0.000
418.743; 1375.175;  228.475;    0.000
418.796; 1381.175;  192.475;    0.000
418.849; 1328.175;  230.475;    0.000
418.903; 1369.175;  257.475;    0.000
418.956; 1426.175;  241.475;    0.000
419.009; 1372.175;  247.475;    0.000
419.063; 1371.175;  235.475;    0.000
419.116; 1432.175;  218.475;    0.000
419.169; 1427.175;  219.475;    0.000
419.222; 1407.175;  215.475;    0.000
419.276; 1408.175;  202.475;    0.000
419.329; 1360.175;  210.475;    0.000
419.382; 1344.175;  188.475;    0.000
419.435; 1388.175;  222.475;    0.000
419.489; 1444.175;  232.475;    0.000
419.542; 1314.175;  250.475;    0.000
419.595; 1340.175;  240.475;    0.000
419.648; 1368.175;  261.475;    0.000
419.701; 1290.175;  222.475;    0.000
419.755; 1408.175;  233.475;    0.000
419.808; 1347.175;  178.475;    0.000
419.861; 1382.175;  207.475;    0.000
419.914; 1404.175;  223.475;    0.000
419.967; 1379.175;  216.475;    0.000
420.020; 1376.175;  211.475;    0.000
420.073; 1390.175;  200.475;    0.000
420.127; 1291.175;  248.475;    0.000
420.180; 1380.175;  220.475;    0.000
420.233; 1398.175;  215.475;    0.000
420.286; 1354.175;  222.475;    0.000
420.339; 1347.175;  229.475;    0.000
420.392; 1312.175;  245.475;    0.000
420.445; 1348.175;  221.475;    0.000
420.498; 1367.175;  224.475;    0.000
420.551; 1363.175;  170.475;    0.000
420.604; 1348.175;  237.475;    0.000
420.657; 1376.175;  235.475;    0.000
420.710; 1370.175;  223.475;    0.000
420.763; 1344.175;  219.475;    0.000
420.816; 1312.175;  200.475;    0.000
420.869; 1352.175;  197.475;    0.000
420.922; 1280.175;  212.475;    0.000
420.975; 1343.175;  274.475;    0.000
421.028; 1344.175;  228.475;    0.000
421.081; 1396.175;  243.475;    0.000
421.134; 1336.175;  227.475;    0.000
421.187; 1338.175;  245.475;    0.000
421.239; 1322.175;  210.475;    0.000
421.292; 1368.175;  193.475;    0.000
421.345; 1324.175;  226.475;    0.000
421.398; 1348.175;  226.475;    0.000
421.451; 1313.175;  259.475;    0.000
421.504; 1335.175;  204.475;    0.000
421.557; 1290.175;  215.475;    0.000
421.609; 1310.175;  194.475;    0.000
421.662; 1284.175;  216.475;    0.000
421.715; 1299.175;  226.475;    0.000
421.768; 1372.175;  177.475;    0.000
421.821; 1291.175;  210.475;    0.000
421.873; 1301.175;  208.475;    0.000
421.926; 1332.175;  223.475;    0.000
421.979; 1364.175;  230.475;    0.000
422.032; 1286.175;  227.475;    0.000
422.084; 1376.175;  234.475;    0.000
422.137; 1311.175;  207.475;    0.000
422.190; 1296.175;  228.475;    0.000
422.243; 1304.175;  206.475;    0.000
422.295; 1319.175;  236.475;    0.000
422.348; 1298.175;  232.475;    0.000
422.401; 1298.175;  228.475;    0.000
422.453; 1288.175;  239.475;    0.000
422.506; 1290.175;  226.475;    0.000
422.559; 1258.175;  205.475;    0.000
422.611; 1273.175;  235.475;    0.000
422.664; 1295.175;  231.475;    0.000
422.716; 1366.175;  228.475;    0.000
422.769; 1335.175;  204.475;    0.000
422.822; 1283.175;  205.475;    0.000
422.874; 1325.175;  228.475;    0.000
422.927; 1318.175;  266.475;    0.000
422.979; 1307.175;  223.475;    0.000
423.032; 1298.175;  207.475;    0.000
423.084; 1292.175;  211.475;    0.000
423.137; 1315.175;  205.475;    0.000
423.189; 1307.175;  254.475;    0.000
423.242; 1332.175;  208.475;    0.000
423.294; 1303.175;  240.475;    0.000
423.347; 1262.175;  218.475;    0.000
423.399; 1272.175;  237.475;    0.000
423.452; 1336.175;  242.475;    0.000
423.504; 1310.175;  225.475;    0.000
423.557; 1282.175;  195.475;    0.000
423.609; 1287.175;  206.475;    0.000
423.662; 1340.175;  211.475;    0.000
423.714; 1272.175;  252.475;    0.000
423.766; 1249.175;  181.475;    0.000
423.819; 1293.175;  216.475;    0.000
423.871; 1252.175;  216.475;    0.000
423.923; 1290.175;  222.475;    0.000
423.976; 1272.175;  223.475;    0.000
424.028; 1271.175;  229.475;    0.000
424.081; 1313.175;  267.475;    0.000
424.133; 1292.175;  251.475;    0.000
424.185; 1283.175;  238.475;    0.000
424.238; 1278.175;  220.475;    0.000
424.290; 1296.175;  259.475;    0.000
424.342; 1209.175;  248.475;    0.000
424.394; 1268.175;  234.475;    0.000
424.447; 1336.175;  248.475;    0.000
424.499; 1285.175;  233.475;    0.000
424.551; 1288.175;  236.475;    0.000
424.603; 1231.175;  207.475;    0.000
424.656; 1288.175;  210.475;    0.000
424.708; 1266.175;  251.475;    0.000
424.760; 1247.175;  221.475;    0.000
424.812; 1338.175;  275.475;    0.000
424.864; 1294.175;  206.475;    0.000
424.917; 1258.175;  198.475;    0.000
424.969; 1309.175;  246.475;    0.000
425.021; 1276.175;  209.475;    0.000
425.073; 1303.175;  242.475;    0.000
425.125; 1281.175;  254.475;    0.000
425.177; 1319.175;  224.475;    0.000
425.229; 1299.175;  256.475;    0.000
425.282; 1260.175;  265.475;    0.000
425.334; 1324.175;  266.475;    0.000
425.386; 1271.175;  242.475;    0.000
425.438; 1256.175;  205.475;    0.000
425.490; 1266.175;  227.475;    0.000
425.542; 1266.175;  235.475;    0.000
425.594; 1212.175;  210.475;    0.000
425.646; 1248.175;  232.475;    0.000
425.698; 1236.175;  243.475;    0.000
425.750; 1215.175;  230.475;    0.000
425.802; 1241.175;  218.475;    0.000
425.854; 1298.175;  222.475;    0.000
425.906; 1232.175;  235.475;    0.000
425.958; 1298.175;  220.475;    0.000
426.010; 1184.175;  236.475;    0.000
426.062; 1249.175;  230.475;    0.000
426.114; 1243.175;  216.475;    0.000
426.166; 1262.175;  230.475;    0.000
426.218; 1265.175;  237.475;    0.000
426.270; 1272.175;  217.475;    0.000
426.321; 1235.175;  224.475;    0.000
426.373; 1180.175;  207.475;    0.000
426.425; 1273.175;  278.475;    0.000
426.477; 1211.175;  243.475;    0.000
426.529; 1240.175;  247.475;    0.000
426.581; 1152.175;  229.475;    0.000
426.633; 1150.175;  212.475;    0.000
426.684; 1277.175;  244.475;    0.000
426.736; 1284.175;  250.475;    0.000
426.788; 1250.175;  210.475;    0.000
426.840; 1198.175;  201.475;    0.000
426.892; 1223.175;  225.475;    0.000
426.943; 1213.175;  215.475;    0.000
426.995; 1154.175;  216.475;    0.000
427.047; 1231.175;  216.475;    0.000
427.099; 1195.175;  203.475;    0.000
427.150; 1262.175;  195.475;    0.000
427.202; 1221.175;  212.475;    0.000
427.254; 1217.175;  233.475;    0.000
427.306; 1274.175;  211.475;    0.000
427.357; 1244.175;  210.475;    0.000
427.409; 1231.175;  244.475;    0.000
427.461; 1161.175;  187.475;    0.000
427.512; 1209.175;  227.475;    0.000
427.564; 1221.175;  210.475;    0.000
427.616; 1196.175;  202.475;    0.000
427.667; 1220.175;  185.475;    0.000
427.719; 1221.175;  222.475;    0.000
427.770; 1233.175;  230.475;    0.000
427.822; 1265.175;  254.475;    0.000
427.874; 1188.175;  222.475;    0.000
427.925; 1200.175;  199.475;    0.000
427.977; 1199.175;  228.475;    0.000
428.028; 1215.175;  226.475;    0.000
428.080; 1179.175;  236.475;    0.000
428.131; 1204.175;  220.475;    0.000
428.183; 1192.175;  256.475;    0.000
428.234; 1218.175;  217.475;    0.000
428.286; 1236.175;  234.475;    0.000
428.337; 1194.175;  209.475;    0.000
428.389; 1222.175;  219.475;    0.000
428.440; 1284.175;  249.475;    0.000
428.492; 1241.175;  255.475;    0.000
428.543; 1198.175;  224.475;    0.000
428.595; 1179.175;  225.475;    0.000
428.646; 1257.175;  240.475;    0.000
428.697; 1146.175;  211.475;    0.000
428.749; 1165.175;  200.475;    0.000
428.800; 1209.175;  235.475;    0.000
428.852; 1136.175;  265.475;    0.000
428.903; 1181.175;  201.475;    0.000
428.954; 1193.175;  242.475;    0.000
429.006; 1213.175;  245.475;    0.000
429.057; 1185.175;  252.475;    0.000
429.108; 1146.175;  211.475;    0.000
429.160; 1155.175;  217.475;    0.000
429.211; 1211.175;  234.475;    0.000
429.262; 1131.175;  205.475;    0.000
429.314; 1127.175;  211.475;    0.000
429.365; 1173.175;  240.475;    0.000
429.416; 1180.175;  263.475;    0.000
429.467; 1146.175;  244.475;    0.000
429.519; 1208.175;  223.475;    0.000
429.570; 1056.175;  214.475;    0.000
429.621; 1191.175;  235.475;    0.000
429.672; 1168.175;  202.475;    0.000
429.724; 1107.175;  189.475;    0.000
429.775; 1204.175;  214.475;    0.000
429.826; 1124.175;  178.475;    0.000
429.877; 1158.175;  224.475;    0.000
429.928; 1180.175;  230.475;    0.000
429.980; 1142.175;  199.475;    0.000
430.031; 1168.175;  208.475;    0.000
430.082; 1128.175;  224.475;    0.000
430.133; 1125.175;  193.475;    0.000
430.184; 1268.175;  220.475;    0.000
430.235; 1127.175;  184.475;    0.000
430.286; 1126.175;  197.475;    0.000
430.337; 1110.175;  199.475;    0.000
430.388; 1181.175;  207.475;    0.000
430.439; 1212.175;  227.475;    0.000
430.490; 1166.175;  215.475;    0.000
430.542; 1107.175;  211.475;    0.000
430.593; 1193.175;  230.475;    0.000
430.644; 1181.175;  186.475;    0.000
430.695; 1168.175;  232.475;    0.000
430.746; 1181.175;  214.475;    0.000
430.797; 1164.175;  260.475;    0.000
430.848; 1139.175;  214.475;    0.000
430.898; 1091.175;  204.475;    0.000
430.949; 1160.175;  189.475;    0.000
431.000; 1137.175;  240.475;    0.000
431.051; 1148.175;  201.475;    0.000
431.102; 1134.175;  188.475;    0.000
431.153; 1146.175;  209.475;    0.000
431.204; 1156.175;  187.475;    0.000
431.255; 1111.175;  171.475;    0.000
431.306; 1148.175;  181.475;    0.000
431.357; 1159.175;  221.475;    0.000
431.408; 1131.175;  217.475;    0.000
431.458; 1146.175;  206.475;    0.000
431.509; 1174.175;  194.475;    0.000
431.560; 1138.175;  235.475;    0.000
431.611; 1128.175;  213.475;    0.000
431.662; 1206.175;  237.475;    0.000
431.713; 1137.175;  220.475;    0.000
431.763; 1151.175;  212.475;    0.000
431.814; 1155.175;  238.475;    0.000
431.865; 1164.175;  213.475;    0.000
431.916; 1101.175;  191.475;    0.000
431.966; 1111.175;  171.475;    0.000
432.017; 1234.175;  263.475;    0.000
432.068; 1112.175;  240.475;    0.000
432.118; 1166.175;  235.475;    0.000
432.169; 1139.175;  212.475;    0.000
432.220; 1162.175;  188.475;    0.000
432.271; 1115.175;  216.475;    0.000
432.321; 1140.175;  223.475;    0.000
432.372; 1181.175;  254.475;    0.000
432.423; 1126.175;  193.475;    0.000
432.473; 1143.175;  219.475;    0.000
432.524; 1188.175;  215.475;    0.000
432.574; 1142.175;  234.475;    0.000
432.625; 1153.175;  226.475;    0.000
432.676; 1149.175;  219.475;    0.000
432.726; 1130.175;  254.475;    0.000
432.777; 1220.175;  210.475;    0.000
432.827; 1239.175;  234.475;    0.000
432.878; 1111.175;  212.475;    0.000
432.928; 1077.175;  238.475;    0.000
432.979; 1141.175;  252.475;    0.000
433.029; 1146.175;  222.475;    0.000
433.080; 1120.175;  188.475;    0.000
433.130; 1214.175;  223.475;    0.000
433.181; 1209.175;  254.475;    0.000
433.231; 1201.175;  237.475;    0.000
433.282; 1193.175;  242.475;    0.000
433.332; 1178.175;  261.475;    0.000
433.383; 1165.175;  266.475;    0.000
433.433; 1175.175;  286.475;    0.000
433.484; 1155.175;  231.475;    0.000
433.534; 1097.175;  256.475;    0.000
433.585; 1135.175;  253.475;    0.000
433.635; 1145.175;  228.475;    0.000
433.685; 1200.175;  226.475;    0.000
433.736; 1210.175;  276.475;    0.000
433.786; 1109.175;  253.475;    0.000
433.836; 1164.175;  289.475;    0.000
433.887; 1177.175;  241.475;    0.000
433.937; 1218.175;  252.475;    0.000
433.987; 1133.175;  223.475;    0.000
434.038; 1133.175;  241.475;    0.000
434.088; 1142.175;  231.475;    0.000
434.138; 1201.175;  259.475;    0.000
434.189; 1241.175;  263.475;    0.000
434.239; 1163.175;  194.475;    0.000
434.289; 1187.175;  273.475;    0.000
434.339; 1161.175;  212.475;    0.000
434.389; 1171.175;  248.475;    0.000
434.440; 1191.175;  250.475;    0.000
434.490; 1260.175;  278.475;    0.000
434.540; 1158.175;  241.475;    0.000
434.590; 1169.175;  251.475;    0.000
434.640; 1156.175;  207.475;    0.000
434.691; 1216.175;  242.475;    0.000
434.741; 1202.175;  218.475;    0.000
434.791; 1265.175;  267.475;    0.000
434.841; 1197.175;  272.475;    0.000
434.891; 1168.175;  260.475;    0.000
434.941; 1184.175;  258.475;    0.000
434.991; 1195.175;  264.475;    0.000
435.042; 1215.175;  264.475;    0.000
435.092; 1213.175;  271.475;    0.000
435.142; 1200.175;  229.475;    0.000
435.192; 1132.175;  226.475;    0.000
435.242; 1176.175;  253.475;    0.000
435.292; 1136.175;  215.475;    0.000
435.342; 1169.175;  240.475;    0.000
435.392; 1126.175;  235.475;    0.000
435.442; 1128.175;  230.475;    0.000
435.492; 1160.175;  235.475;    0.000
435.542; 1112.175;  230.475;    0.000
435.592; 1193.175;  239.475;    0.000
435.642; 1121.175;  244.475;    0.000
435.692; 1174.175;  236.475;    0.000
435.742; 1136.175;  236.475;    0.000
435.792; 1198.175;  230.475;    0.000
435.842; 1203.175;  248.475;    0.000
435.891; 1189.175;  233.475;    0.000
435.941; 1137.175;  243.475;    0.000
435.991; 1166.175;  279.475;    0.000
436.041; 1161.175;  204.475;    0.000
436.091; 1146.175;  217.475;    0.000
436.141; 1111.175;  205.475;    0.000
436.191; 1089.175;  220.475;    0.000
436.241; 1115.175;  248.475;    0.000
436.290; 1111.175;  255.475;    0.000
436.340; 1117.175;  235.475;    0.000
436.390; 1160.175;  207.475;    0.000
436.440; 1089.175;  207.475;    0.000
436.490; 1098.175;  251.475;    0.000
436.539; 1104.175;  240.475;    0.000
436.589; 1141.175;  198.475;    0.000
436.639; 1106.175;  240.475;    0.000
436.689; 1169.175;  216.475;    0.000
436.738; 1145.175;  246.475;    0.000
436.788; 1086.175;  203.475;    0.000
436.838; 1165.175;  230.475;    0.000
436.887; 1135.175;  235.475;    0.000
436.937; 1117.175;  249.475;    0.000
436.987; 1037.175;  208.475;    0.000
437.036; 1071.175;  232.475;    0.000
437.086; 1097.175;  238.475;    0.000
437.136; 1112.175;  228.475;    0.000
437.185; 1107.175;  219.475;    0.000
437.235; 1165.175;  227.475;    0.000
437.285; 1112.175;  241.475;    0.000
437.334; 1125.175;  216.475;    0.000
437.384; 1100.175;  243.475;    0.000
437.433; 1116.175;  214.475;    0.000
437.483; 1111.175;  246.475;    0.000
437.532; 1114.175;  261.475;    0.000
437.582; 1147.175;  205.475;    0.000
437.631; 1100.175;  218.475;    0.000
437.681; 1124.175;  240.475;    0.000
437.730; 1124.175;  258.475;    0.000
437.780; 1045.175;  237.475;    0.000
437.829; 1168.175;  209.475;    0.000
437.879; 1060.175;  214.475;    0.000
437.928; 1068.175;  223.475;    0.000
437.978; 1130.175;  220.475;    0.000
438.027; 1091.175;  239.475;    0.000
438.077; 1124.175;  231.475;    0.000
438.126; 1100.175;  266.475;    0.000
438.176; 1072.175;  234.475;    0.000
438.225; 1141.175;  237.475;    0.000
438.274; 1048.175;  234.475;    0.000
438.324; 1088.175;  244.475;    0.000
438.373; 1064.175;  232.475;    0.000
438.422; 1122.175;  218.475;    0.000
438.472; 1125.175;  221.475;    0.000
438.521; 1088.175;  190.475;    0.000
438.570; 1150.175;  243.475;    0.000
438.620; 1130.175;  255.475;    0.000
438.669; 1103.175;  210.475;    0.000
438.718; 1051.175;  237.475;    0.000
438.768;  998.175;  220.475;    0.000
438.817; 1111.175;  218.475;    0.000
438.866; 1081.175;  198.475;    0.000
438.915; 1128.175;  256.475;    0.000
438.965; 1036.175;  221.475;    0.000
439.014; 1065.175;  255.475;    0.000
439.063; 1130.175;  276.475;    0.000
439.112; 1115.175;  220.475;    0.000
439.162; 1100.175;  253.475;    0.000
439.211; 1118.175;  247.475;    0.000
439.260; 1071.175;  220.475;    0.000
439.309; 1073.175;  235.475;    0.000
439.358; 1096.175;  205.475;    0.000
439.407; 1084.175;  207.475;    0.000
439.456; 1077.175;  216.475;    0.000
439.506; 1110.175;  245.475;    0.000
439.555; 1133.175;  264.475;    0.000
439.604; 1144.175;  227.475;    0.000
439.653; 1104.175;  220.475;    0.000
439.702; 1123.175;  223.475;    0.000
439.751; 1111.175;  197.475;    0.000
439.800; 1101.175;  207.475;    0.000
439.849; 1084.175;  238.475;    0.000
439.898; 1068.175;  209.475;    0.000
439.947; 1066.175;  170.475;    0.000
439.996; 1098.175;  233.475;    0.000
440.045; 1103.175;  222.475;    0.000
440.094; 1104.175;  240.475;    0.000
440.143; 1110.175;  249.475;    0.000
440.192; 1159.175;  252.475;    0.000
440.241; 1105.175;  239.475;    0.000
440.290; 1152.175;  234.475;    0.000
440.339; 1044.175;  241.475;    0.000
440.388; 1081.175;  239.475;    0.000
440.437; 1114.175;  231.475;    0.000
440.486; 1103.175;  254.475;    0.000
440.535; 1100.175;  266.475;    0.000
440.583; 1074.175;  205.475;    0.000
440.632; 1109.175;  234.475;    0.000
440.681; 1145.175;  218.475;    0.000
440.730; 1130.175;  248.475;    0.000
440.779; 1138.175;  246.475;    0.000
440.828; 1075.175;  235.475;    0.000
440.876; 1101.175;  218.475;    0.000
440.925; 1099.175;  228.475;    0.000
440.974; 1083.175;  249.475;    0.000
441.023; 1047.175;  192.475;    0.000
441.072; 1114.175;  226.475;    0.000
441.120; 1139.175;  238.475;    0.000
441.169; 1130.175;  255.475;    0.000
441.218; 1108.175;  233.475;    0.000
441.267; 1108.175;  231.475;    0.000
441.315; 1077.175;  214.475;    0.000
441.364; 1142.175;  250.475;    0.000
441.413; 1111.175;  228.475;    0.000
441.461; 1048.175;  209.475;    0.000
441.510; 1166.175;  260.475;    0.000
441.559; 1147.175;  230.475;    0.000
441.607; 1105.175;  220.475;    0.000
441.656; 1136.175;  251.475;    0.000
441.705; 1158.175;  237.475;    0.000
441.753; 1109.175;  257.475;    0.000
441.802; 1156.175;  256.475;    0.000
441.850; 1123.175;  253.475;    0.000
441.899; 1178.175;  212.475;    0.000
441.948; 1235.175;  251.475;    0.000
441.996; 1141.175;  239.475;    0.000
442.045; 1124.175;  223.475;    0.000
442.093; 1174.175;  211.475;    0.000
442.142; 1165.175;  235.475;    0.000
442.190; 1136.175;  254.475;    0.000
442.239; 1197.175;  226.475;    0.000
442.287; 1162.175;  242.475;    0.000
442.336; 1139.175;  256.475;    0.000
442.384; 1111.175;  252.475;    0.000
442.433; 1182.175;  262.475;    0.000
442.481; 1159.175;  246.475;    0.000
442.529; 1105.175;  290.475;    0.000
442.578; 1136.175;  247.475;    0.000
442.626; 1132.175;  247.475;    0.000
442.675; 1201.175;  272.475;    0.000
442.723; 1110.175;  230.475;    0.000
442.771; 1153.175;  234.475;    0.000
442.820; 1156.175;  224.475;    0.000
442.868; 1104.175;  246.475;    0.000
442.917; 1145.175;  249.475;    0.000
442.965; 1203.175;  260.475;    0.000
443.013; 1143.175;  258.475;    0.000
443.062; 1130.175;  259.475;    0.000
443.110; 1166.175;  226.475;    0.000
443.158; 1137.175;  213.475;    0.000
443.206; 1088.175;  201.475;    0.000
443.255; 1160.175;  280.475;    0.000
443.303; 1151.175;  292.475;    0.000
443.351; 1139.175;  256.475;    0.000
443.399; 1151.175;  215.475;    0.000
443.448; 1206.175;  243.475;    0.000
443.496; 1124.175;  249.475;    0.000
443.544; 1100.175;  231.475;    0.000
443.592; 1162.175;  243.475;    0.000
443.640; 1190.175;  252.475;    0.000
443.689; 1175.175;  220.475;    0.000
443.737; 1176.175;  231.475;    0.000
443.785; 1178.175;  256.475;    0.000
443.833; 1217.175;  268.475;    0.000
443.881; 1209.175;  181.475;    0.000
443.929; 1186.175;  245.475;    0.000
443.977; 1180.175;  278.475;    0.000
444.025; 1171.175;  245.475;    0.000
444.074; 1163.175;  233.475;    0.000
444.122; 1159.175;  267.475;    0.000
444.170; 1165.175;  247.475;    0.000
444.218; 1202.175;  246.475;    0.000
444.266; 1202.175;  275.475;    0.000
444.314; 1190.175;  263.475;    0.000
444.362; 1142.175;  240.475;    0.000
444.410; 1179.175;  220.475;    0.000
444.458; 1187.175;  258.475;    0.000
444.506; 1145.175;  258.475;    0.000
444.554; 1191.175;  224.475;    0.000
444.602; 1199.175;  245.475;    0.000
444.650; 1212.175;  261.475;    0.000
444.698; 1094.175;  232.475;    0.000
444.746; 1191.175;  206.475;    0.000
444.793; 1190.175;  249.475;    0.000
444.841; 1264.175;  261.475;    0.000
444.889; 1178.175;  221.475;    0.000
444.937; 1185.175;  215.475;    0.000
444.985; 1196.175;  244.475;    0.000
445.033; 1237.175;  211.475;    0.000
445.081; 1182.175;  225.475;    0.000
445.129; 1153.175;  217.475;    0.000
445.176; 1211.175;  196.475;    0.000
445.224; 1138.175;  211.475;    0.000
445.272; 1185.175;  242.475;    0.000
445.320; 1193.175;  225.475;    0.000
445.368; 1215.175;  249.475;    0.000
445.415; 1184.175;  243.475;    0.000
445.463; 1173.175;  242.475;    0.000
445.511; 1205.175;  248.475;    0.000
445.559; 1147.175;  219.475;    0.000
445.606; 1160.175;  221.475;    0.000
445.654; 1180.175;  202.475;    0.000
445.702; 1177.175;  210.475;    0.000
445.749; 1237.175;  249.475;    0.000
445.797; 1184.175;  206.475;    0.000
445.845; 1154.175;  213.475;    0.000
445.892; 1186.175;  224.475;    0.000
445.940; 1121.175;  214.475;    0.000
445.988; 1183.175;  247.475;    0.000
446.035; 1220.175;  204.475;    0.000
446.083; 1235.175;  235.475;    0.000
446.130; 1159.175;  195.475;    0.000
446.178; 1185.175;  236.475;    0.000
446.226; 1154.175;  218.475;    0.000
446.273; 1204.175;  215.475;    0.000
446.321; 1164.175;  222.475;    0.000
446.368; 1158.175;  228.475;    0.000
446.416; 1141.175;  223.475;    0.000
446.463; 1241.175;  220.475;    0.000
446.511; 1188.175;  198.475;    0.000
446.558; 1222.175;  208.475;    0.000
446.606; 1159.175;  253.475;    0.000
446.653; 1249.175;  198.475;    0.000
446.701; 1277.175;  231.475;    0.000
446.748; 1206.175;  224.475;    0.000
446.796; 1293.175;  201.475;    0.000
446.843; 1252.175;  257.475;    0.000
446.891; 1203.175;  218.475;    0.000
446.938; 1235.175;  232.475;    0.000
446.985; 1221.175;  229.475;    0.000
447.033; 1249.175;  251.475;    0.000
447.080; 1234.175;  257.475;    0.000
447.128; 1290.175;  232.475;    0.000
447.175; 1328.175;  269.475;    0.000
447.222; 1241.175;  185.475;    0.000
447.270; 1325.175;  264.475;    0.000
447.317; 1279.175;  225.475;    0.000
447.364; 1165.175;  243.475;    0.000
447.411; 1356.175;  263.475;    0.000
447.459; 1305.175;  257.475;    0.000
447.506; 1217.175;  175.475;    0.000
447.553; 1358.175;  203.475;    0.000
447.601; 1279.175;  238.475;    0.000
447.648; 1314.175;  244.475;    0.000
447.695; 1337.175;  249.475;    0.000
447.742; 1375.175;  234.475;    0.000
447.789; 1321.175;  228.475;    0.000
447.837; 1336.175;  258.475;    0.000
447.884; 1365.175;  243.475;    0.000
447.931; 1457.175;  235.475;    0.000
447.978; 1454.175;  224.475;    0.000
448.025; 1361.175;  245.475;    0.000
448.072; 1414.175;  212.475;    0.000
448.120; 1397.175;  256.475;    0.000
448.167; 1435.175;  240.475;    0.000
448.214; 1393.175;  247.475;    0.000
448.261; 1419.175;  245.475;    0.000
448.308; 1383.175;  273.475;    0.000
448.355; 1443.175;  257.475;    0.000
448.402; 1352.175;  259.475;    0.000
448.449; 1333.175;  238.475;    0.000
448.496; 1314.175;  245.475;    0.000
448.543; 1300.175;  217.475;    0.000
448.590; 1346.175;  269.475;    0.000
448.637; 1310.175;  250.475;    0.000
448.684; 1359.175;  250.475;    0.000
448.731; 1307.175;  235.475;    0.000
448.778; 1276.175;  265.475;    0.000
448.825; 1235.175;  257.475;    0.000
448.872; 1249.175;  234.475;    0.000
448.919; 1234.175;  216.475;    0.000
448.966; 1336.175;  274.475;    0.000
449.013; 1274.175;  263.475;    0.000
449.060; 1304.175;  247.475;    0.000
449.107; 1271.175;  218.475;    0.000
449.154; 1191.175;  225.475;    0.000
449.200; 1178.175;  212.475;    0.000
449.247; 1195.175;  242.475;    0.000
449.294; 1226.175;  228.475;    0.000
449.341; 1180.175;  232.475;    0.000
449.388; 1190.175;  247.475;    0.000
449.435; 1151.175;  227.475;    0.000
449.481; 1234.175;  270.475;    0.000
449.528; 1213.175;  265.475;    0.000
449.575; 1192.175;  255.475;    0.000
449.622; 1211.175;  210.475;    0.000
449.668; 1148.175;  234.475;    0.000
449.715; 1199.175;  262.475;    0.000
449.762; 1193.175;  247.475;    0.000
449.809; 1190.175;  286.475;    0.000
449.855; 1136.175;  246.475;    0.000
449.902; 1234.175;  224.475;    0.000
449.949; 1266.175;  244.475;    0.000
449.995; 1151.175;  274.475;    0.000
450.042; 1195.175;  272.475;    0.000
450.089; 1170.175;  274.475;    0.000
450.135; 1243.175;  285.475;    0.000
450.182; 1201.175;  251.475;    0.000
450.229; 1094.175;  242.475;    0.000
450.275; 1228.175;  277.475;    0.000
450.322; 1185.175;  260.475;    0.000
450.368; 1166.175;  257.475;    0.000
450.415; 1213.175;  276.475;    0.000
450.462; 1189.175;  298.475;    0.000
450.508; 1182.175;  255.475;    0.000
450.555; 1111.175;  271.475;    0.000
450.601; 1127.175;  281.475;    0.000
450.648; 1161.175;  249.475;    0.000
450.694; 1093.175;  270.475;    0.000
450.741; 1143.175;  256.475;    0.000
450.787; 1118.175;  292.475;    0.000
450.834; 1194.175;  221.475;    0.000
450.880; 1079.175;  265.475;    0.000
450.927; 1187.175;  242.475;    0.000
450.973; 1116.175;  259.475;    0.000
451.019; 1099.175;  221.475;    0.000
451.066; 1101.175;  257.475;    0.000
451.112; 1132.175;  251.475;    0.000
451.159; 1088.175;  278.475;    0.000
451.205; 1190.175;  274.475;    0.000
451.251; 1148.175;  281.475;    0.000
451.298; 1135.175;  273.475;    0.000
451.344; 1168.175;  246.475;    0.000
451.390; 1124.175;  286.475;    0.000
451.437; 1149.175;  268.475;    0.000
451.483; 1128.175;  315.475;    0.000
451.529; 1108.175;  251.475;    0.000
451.576; 1202.175;  306.475;    0.000
451.622; 1122.175;  234.475;    0.000
451.668; 1099.175;  243.475;    0.000
451.714; 1126.175;  256.475;    0.000
451.761; 1116.175;  264.475;    0.000
451.807; 1139.175;  284.475;    0.000
451.853; 1099.175;  282.475;    0.000
451.899; 1084.175;  240.475;    0.000
451.945; 1089.175;  263.475;    0.000
451.992; 1142.175;  255.475;    0.000
452.038; 1088.175;  273.475;    0.000
452.084; 1082.175;  274.475;    0.000
452.130; 1180.175;  261.475;    0.000
452.176; 1095.175;  246.475;    0.000
452.222; 1075.175;  238.475;    0.000
452.268; 1168.175;  267.475;    0.000
452.315; 1071.175;  274.475;    0.000
452.361; 1138.175;  241.475;    0.000
452.407; 1032.175;  274.475;    0.000
452.453; 1114.175;  260.475;    0.000
452.499; 1128.175;  232.475;    0.000
452.545; 1152.175;  252.475;    0.000
452.591; 1099.175;  263.475;    0.000
452.637; 1082.175;  208.475;    0.000
452.683; 1087.175;  237.475;    0.000
452.729; 1072.175;  263.475;    0.000
452.775; 1118.175;  291.475;    0.000
452.821; 1104.175;  238.475;    0.000
452.867; 1117.175;  223.475;    0.000
452.913; 1136.175;  257.475;    0.000
452.959; 1118.175;  238.475;    0.000
453.005; 1125.175;  252.475;    0.000
453.051; 1168.175;  260.475;    0.000
453.097; 1123.175;  268.475;    0.000
453.142; 1050.175;  231.475;    0.000
453.188; 1147.175;  266.475;    0.000
453.234; 1073.175;  233.475;    0.000
453.280; 1044.175;  219.475;    0.000
453.326; 1032.175;  265.475;    0.000
453.372; 1093.175;  238.475;    0.000
453.418; 1112.175;  240.475;    0.000
453.463; 1097.175;  219.475;    0.000
453.509; 1050.175;  264.475;    0.000
453.555; 1108.175;  247.475;    0.000
453.601; 1057.175;  230.475;    0.000
453.647; 1110.175;  285.475;    0.000
453.692; 1107.175;  240.475;    0.000
453.738; 1099.175;  233.475;    0.000
453.784; 1104.175;  230.475;    0.000
453.829; 1063.175;  246.475;    0.000
453.875; 1017.175;  261.475;    0.000
453.921; 1026.175;  203.475;    0.000
453.967; 1078.175;  241.475;    0.000
454.012; 1136.175;  250.475;    0.000
454.058; 1176.175;  252.475;    0.000
454.104; 1073.175;  239.475;    0.000
454.149; 1047.175;  250.475;    0.000
454.195; 1059.175;  243.475;    0.000
454.240; 1078.175;  252.475;    0.000
454.286; 1058.175;  245.475;    0.000
454.332; 1083.175;  286.475;    0.000
454.377; 1100.175;  254.475;    0.000
454.423; 1076.175;  246.475;    0.000
454.468; 1053.175;  235.475;    0.000
454.514; 1071.175;  231.475;    0.000
454.559; 1072.175;  246.475;    0.000
454.605; 1104.175;  204.475;    0.000
454.650; 1064.175;  272.475;    0.000
454.696; 1131.175;  222.475;    0.000
454.741; 1074.175;  290.475;    0.000
454.787; 1078.175;  262.475;    0.000
454.832; 1060.175;  227.475;    0.000
454.878; 1146.175;  241.475;    0.000
454.923; 1074.175;  272.475;    0.000
454.969; 1077.175;  290.475;    0.000
455.014; 1121.175;  278.475;    0.000
455.060; 1026.175;  246.475;    0.000
455.105; 1031.175;  231.475;    0.000
455.150; 1087.175;  265.475;    0.000
455.196; 1111.175;  266.475;    0.000
455.241; 1135.175;  258.475;    0.000
455.286; 1085.175;  266.475;    0.000
455.332; 1080.175;  252.475;    0.000
455.377; 1070.175;  219.475;    0.000
455.422; 1058.175;  262.475;    0.000
455.468; 1002.175;  260.475;    0.000
455.513; 1071.175;  212.475;    0.000
455.558;  936.175;  197.475;    0.000
455.604; 1093.175;  262.475;    0.000
455.649; 1131.175;  238.475;    0.000
455.694; 1055.175;  221.475;    0.000
455.739; 1066.175;  251.475;    0.000
455.785; 1098.175;  287.475;    0.000
455.830; 1083.175;  284.475;    0.000
455.875; 1060.175;  234.475;    0.000
455.920; 1056.175;  215.475;    0.000
455.965; 1113.175;  256.475;    0.000
456.010; 1095.175;  266.475;    0.000
456.056; 1076.175;  263.475;    0.000
456.101; 1102.175;  240.475;    0.000
456.146; 1118.175;  258.475;    0.000
456.191; 1121.175;  241.475;    0.000
456.236; 1080.175;  252.475;    0.000
456.281; 1026.175;  218.475;    0.000
456.326; 1055.175;  251.475;    0.000
456.371; 1073.175;  256.475;    0.000
456.416; 1091.175;  301.475;    0.000
456.461; 1062.175;  233.475;    0.000
456.507; 1061.175;  218.475;    0.000
456.552; 1130.175;  278.475;    0.000
456.597; 1059.175;  223.475;    0.000
456.642; 1092.175;  203.475;    0.000
456.687; 1031.175;  245.475;    0.000
456.732; 1099.175;  256.475;    0.000
456.776; 1089.175;  244.475;    0.000
456.821; 1160.175;  276.475;    0.000
456.866; 1118.175;  232.475;    0.000
456.911; 1102.175;  225.475;    0.000
456.956; 1106.175;  237.475;    0.000
457.001; 1059.175;  261.475;    0.000
457.046; 1072.175;  205.475;    0.000
457.091; 1055.175;  241.475;    0.000
457.136; 1049.175;  217.475;    0.000
457.181; 1117.175;  251.475;    0.000
457.225; 1118.175;  241.475;    0.000
457.270; 1032.175;  237.475;    0.000
457.315; 1050.175;  279.475;    0.000
457.360; 1097.175;  245.475;    0.000
457.405; 1069.175;  202.475;    0.000
457.450; 1061.175;  247.475;    0.000
457.494; 1096.175;  243.475;    0.000
457.539; 1045.175;  222.475;    0.000
457.584; 1129.175;  239.475;    0.000
457.629; 1101.175;  236.475;    0.000
457.673; 1081.175;  234.475;    0.000
457.718; 1068.175;  202.475;    0.000
457.763; 1053.175;  274.475;    0.000
457.807; 1067.175;  236.475;    0.000
457.852; 1101.175;  265.475;    0.000
457.897; 1107.175;  252.475;    0.000
457.941; 1110.175;  264.475;    0.000
457.986; 1065.175;  280.475;    0.000
458.031; 1110.175;  217.475;    0.000
458.075; 1065.175;  249.475;    0.000
458.120; 1094.175;  257.475;    0.000
458.165; 1113.175;  183.475;    0.000
458.209; 1145.175;  245.475;    0.000
458.254; 1133.175;  245.475;    0.000
458.298; 1119.175;  265.475;    0.000
458.343; 1055.175;  241.475;    0.000
458.387; 1125.175;  262.475;    0.000
458.432; 1139.175;  245.475;    0.000
458.476; 1041.175;  255.475;    0.000
458.521; 1076.175;  269.475;    0.000
458.565; 1096.175;  265.475;    0.000
458.610; 1097.175;  222.475;    0.000
458.654; 1108.175;  257.475;    0.000
458.699; 1093.175;  296.475;    0.000
458.743; 1084.175;  203.475;    0.000
458.788; 1126.175;  267.475;    0.000
458.832; 1137.175;  274.475;    0.000
458.877; 1178.175;  251.475;    0.000
458.921; 1141.175;  237.475;    0.000
458.965; 1152.175;  264.475;    0.000
459.010; 1153.175;  256.475;    0.000
459.054; 1131.175;  280.475;    0.000
459.099; 1155.175;  240.475;    0.000
459.143; 1151.175;  287.475;    0.000
459.187; 1152.175;  257.475;    0.000
459.231; 1155.175;  273.475;    0.000
459.276; 1182.175;  231.475;    0.000
459.320; 1154.175;  261.475;    0.000
459.364; 1184.175;  278.475;    0.000
459.409; 1204.175;  249.475;    0.000
459.453; 1146.175;  235.475;    0.000
459.497; 1189.175;  262.475;    0.000
459.541; 1175.175;  269.475;    0.000
459.586; 1128.175;  240.475;    0.000
459.630; 1136.175;  261.475;    0.000
459.674; 1141.175;  276.475;    0.000
459.718; 1173.175;  236.475;    0.000
459.762; 1122.175;  263.475;    0.000
459.807; 1128.175;  263.475;    0.000
459.851; 1202.175;  225.475;    0.000
459.895; 1167.175;  247.475;    0.000
459.939; 1161.175;  231.475;    0.000
459.983; 1139.175;  242.475;    0.000
460.027; 1178.175;  248.475;    0.000
460.071; 1211.175;  273.475;    0.000
460.115; 1146.175;  282.475;    0.000
460.159; 1239.175;  264.475;    0.000
460.204; 1248.175;  288.475;    0.000
460.248; 1177.175;  293.475;    0.000
460.292; 1202.175;  277.475;    0.000
460.336; 1195.175;  250.475;    0.000
460.380; 1186.175;  275.475;    0.000
460.424; 1188.175;  243.475;    0.000
460.468; 1229.175;  277.475;    0.000
460.512; 1171.175;  261.475;    0.000
460.556; 1218.175;  266.475;    0.000
460.599; 1197.175;  246.475;    0.000
460.643; 1174.175;  256.475;    0.000
460.687; 1197.175;  257.475;    0.000
460.731; 1234.175;  235.475;    0.000
460.775; 1189.175;  278.475;    0.000
460.819; 1143.175;  268.475;    0.000
460.863; 1265.175;  257.475;    0.000
460.907; 1217.175;  213.475;    0.000
460.951; 1213.175;  274.475;    0.000
460.995; 1277.175;  258.475;    0.000
461.038; 1214.175;  219.475;    0.000
461.082; 1229.175;  253.475;    0.000
461.126; 1233.175;  281.475;    0.000
461.170; 1215.175;  244.475;    0.000
461.214; 1207.175;  262.475;    0.000
461.257; 1229.175;  284.475;    0.000
461.301; 1247.175;  275.475;    0.000
461.345; 1247.175;  267.475;    0.000
461.389; 1238.175;  255.475;    0.000
461.432; 1270.175;  282.475;    0.000
461.476; 1189.175;  263.475;    0.000
461.520; 1190.175;  260.475;    0.000
461.563; 1220.175;  278.475;    0.000
461.607; 1145.175;  236.475;    0.000
461.651; 1211.175;  262.475;    0.000
461.694; 1215.175;  236.475;    0.000
461.738; 1235.175;  295.475;    0.000
461.782; 1262.175;  252.475;    0.000
461.825; 1215.175;  271.475;    0.000
461.869; 1240.175;  278.475;    0.000
461.913; 1234.175;  255.475;    0.000
461.956; 1216.175;  254.475;    0.000
462.000; 1219.175;  299.475;    0.000
462.043; 1192.175;  282.475;    0.000
462.087; 1248.175;  274.475;    0.000
462.130; 1209.175;  270.475;    0.000
462.174; 1258.175;  274.475;    0.000
462.217; 1252.175;  272.475;    0.000
462.261; 1224.175;  286.475;    0.000
462.304; 1216.175;  236.475;    0.000
462.348; 1211.175;  262.475;    0.000
462.391; 1253.175;  244.475;    0.000
462.435; 1278.175;  321.475;    0.000
462.478; 1220.175;  230.475;    0.000
462.522; 1270.175;  245.475;    0.000
462.565; 1252.175;  278.475;    0.000
462.608; 1301.175;  303.475;    0.000
462.652; 1243.175;  275.475;    0.000
462.695; 1286.175;  314.475;    0.000
462.739; 1293.175;  307.475;    0.000
462.782; 1308.175;  286.475;    0.000
462.825; 1363.175;  312.475;    0.000
462.869; 1292.175;  338.475;    0.000
462.912; 1335.175;  304.475;    0.000
462.955; 1315.175;  288.475;    0.000
462.998; 1338.175;  292.475;    0.000
463.042; 1320.175;  309.475;    0.000
463.085; 1294.175;  292.475;    0.000
463.128; 1354.175;  317.475;    0.000
463.172; 1216.175;  287.475;    0.000
463.215;  373.175;  313.475;    0.000
463.258;  326.175;  295.475;    0.000
463.301;  303.175;  275.475;    0.000
463.344;  313.175;  311.475;    0.000
463.388;  314.175;  296.475;    0.000
463.431;  299.175;  277.475;    0.000
463.474;  331.175;  364.475;    0.000
463.517;  274.175;  306.475;    0.000
463.560;  313.175;  308.475;    0.000
463.603;  325.175;  343.475;    0.000
463.646;  326.175;  309.475;    0.000
463.690;  336.175;  309.475;    0.000
463.733;  311.175;  320.475;    0.000
463.776;  325.175;  299.475;    0.000
463.819;  325.175;  320.475;    0.000
463.862;  299.175;  283.475;    0.000

