
Integration time [ms]:   1.000
Averaging Nr. [scans]: 1
Smoothing Nr. [pixels]: 0
Data measured with spectrometer [name]: UV1
Wave   ;Sample   ;Dark     ;Reference
[nm]   ;[counts] ;[counts] ;[counts] 

236.381;  117.150;  175.825;    0.000
236.451;  203.150;  220.825;    0.000
236.520;  198.150;  178.825;    0.000
236.590;  190.150;  182.825;    0.000
236.660;  185.150;  180.825;    0.000
236.730;  146.150;  201.825;    0.000
236.799;  201.150;  168.825;    0.000
236.869;  199.150;  205.825;    0.000
236.939;  179.150;  175.825;    0.000
237.009;  184.150;  186.825;    0.000
237.078;  175.150;  200.825;    0.000
237.148;  156.150;  156.825;    0.000
237.218;  181.150;  190.825;    0.000
237.287;  187.150;  167.825;    0.000
237.357;  168.150;  213.825;    0.000
237.427;  171.150;  164.825;    0.000
237.496;  498.150;  210.825;    0.000
237.566;  430.150;  193.825;    0.000
237.636;  493.150;  179.825;    0.000
237.705;  488.150;  218.825;    0.000
237.775;  457.150;  160.825;    0.000
237.845;  495.150;  207.825;    0.000
237.914;  443.150;  180.825;    0.000
237.984;  480.150;  207.825;    0.000
238.054;  458.150;  149.825;    0.000
238.123;  480.150;  190.825;    0.000
238.193;  465.150;  167.825;    0.000
238.263;  487.150;  172.825;    0.000
238.332;  428.150;  173.825;    0.000
238.402;  469.150;  214.825;    0.000
238.471;  470.150;  181.825;    0.000
238.541;  474.150;  177.825;    0.000
238.611;  483.150;  138.825;    0.000
238.680;  484.150;  168.825;    0.000
238.750;  450.150;  171.825;    0.000
238.819;  439.150;  156.825;    0.000
238.889;  479.150;  194.825;    0.000
238.958;  493.150;  185.825;    0.000
239.028;  506.150;  170.825;    0.000
239.097;  457.150;  159.825;    0.000
239.167;  457.150;  208.825;    0.000
239.237;  501.150;  167.825;    0.000
239.306;  396.150;  154.825;    0.000
239.376;  505.150;  183.825;    0.000
239.445;  520.150;  221.825;    0.000
239.515;  446.150;  208.825;    0.000
239.584;  470.150;  177.825;    0.000
239.654;  496.150;  133.825;    0.000
239.723;  490.150;  167.825;    0.000
239.793;  470.150;  190.825;    0.000
239.862;  455.150;  192.825;    0.000
239.932;  447.150;  174.825;    0.000
240.001;  446.150;  166.825;    0.000
240.070;  453.150;  179.825;    0.000
240.140;  453.150;  191.825;    0.000
240.209;  429.150;  134.825;    0.000
240.279;  471.150;  185.825;    0.000
240.348;  459.150;  193.825;    0.000
240.418;  444.150;  149.825;    0.000
240.487;  476.150;  197.825;    0.000
240.556;  474.150;  193.825;    0.000
240.626;  501.150;  178.825;    0.000
240.695;  471.150;  194.825;    0.000
240.765;  488.150;  178.825;    0.000
240.834;  422.150;  190.825;    0.000
240.903;  463.150;  212.825;    0.000
240.973;  466.150;  153.825;    0.000
241.042;  469.150;  177.825;    0.000
241.112;  444.150;  193.825;    0.000
241.181;  471.150;  171.825;    0.000
241.250;  431.150;  152.825;    0.000
241.320;  435.150;  176.825;    0.000
241.389;  444.150;  186.825;    0.000
241.458;  486.150;  182.825;    0.000
241.528;  431.150;  175.825;    0.000
241.597;  457.150;  180.825;    0.000
241.666;  445.150;  162.825;    0.000
241.736;  440.150;  187.825;    0.000
241.805;  437.150;  173.825;    0.000
241.874;  425.150;  177.825;    0.000
241.943;  454.150;  208.825;    0.000
242.013;  424.150;  183.825;    0.000
242.082;  446.150;  171.825;    0.000
242.151;  414.150;  208.825;    0.000
242.221;  440.150;  160.825;    0.000
242.290;  421.150;  200.825;    0.000
242.359;  412.150;  167.825;    0.000
242.428;  483.150;  213.825;    0.000
242.498;  445.150;  156.825;    0.000
242.567;  448.150;  200.825;    0.000
242.636;  440.150;  178.825;    0.000
242.705;  438.150;  185.825;    0.000
242.774;  413.150;  190.825;    0.000
242.844;  460.150;  194.825;    0.000
242.913;  384.150;  162.825;    0.000
242.982;  414.150;  189.825;    0.000
243.051;  419.150;  176.825;    0.000
243.120;  438.150;  213.825;    0.000
243.190;  420.150;  155.825;    0.000
243.259;  428.150;  183.825;    0.000
243.328;  447.150;  170.825;    0.000
243.397;  455.150;  224.825;    0.000
243.466;  465.150;  172.825;    0.000
243.535;  422.150;  145.825;    0.000
243.605;  444.150;  157.825;    0.000
243.674;  463.150;  199.825;    0.000
243.743;  435.150;  196.825;    0.000
243.812;  440.150;  152.825;    0.000
243.881;  453.150;  188.825;    0.000
243.950;  412.150;  154.825;    0.000
244.019;  443.150;  195.825;    0.000
244.088;  475.150;  164.825;    0.000
244.158;  448.150;  220.825;    0.000
244.227;  440.150;  150.825;    0.000
244.296;  422.150;  153.825;    0.000
244.365;  459.150;  195.825;    0.000
244.434;  413.150;  136.825;    0.000
244.503;  452.150;  172.825;    0.000
244.572;  424.150;  129.825;    0.000
244.641;  425.150;  132.825;    0.000
244.710;  465.150;  185.825;    0.000
244.779;  412.150;  164.825;    0.000
244.848;  438.150;  132.825;    0.000
244.917;  428.150;  196.825;    0.000
244.986;  434.150;  148.825;    0.000
245.055;  438.150;  192.825;    0.000
245.124;  416.150;  170.825;    0.000
245.193;  433.150;  172.825;    0.000
245.262;  426.150;  146.825;    0.000
245.331;  455.150;  178.825;    0.000
245.400;  445.150;  108.825;    0.000
245.469;  380.150;  173.825;    0.000
245.538;  384.150;  180.825;    0.000
245.607;  421.150;  171.825;    0.000
245.676;  411.150;  149.825;    0.000
245.745;  440.150;  194.825;    0.000
245.814;  422.150;  186.825;    0.000
245.883;  464.150;  192.825;    0.000
245.952;  434.150;  169.825;    0.000
246.021;  445.150;  190.825;    0.000
246.090;  452.150;  181.825;    0.000
246.159;  435.150;  179.825;    0.000
246.227;  426.150;  182.825;    0.000
246.296;  423.150;  182.825;    0.000
246.365;  384.150;  171.825;    0.000
246.434;  406.150;  218.825;    0.000
246.503;  437.150;  147.825;    0.000
246.572;  419.150;  227.825;    0.000
246.641;  415.150;  193.825;    0.000
246.710;  384.150;  207.825;    0.000
246.779;  367.150;  181.825;    0.000
246.847;  404.150;  179.825;    0.000
246.916;  419.150;  155.825;    0.000
246.985;  425.150;  168.825;    0.000
247.054;  388.150;  137.825;    0.000
247.123;  367.150;  128.825;    0.000
247.192;  448.150;  163.825;    0.000
247.260;  427.150;  173.825;    0.000
247.329;  392.150;  174.825;    0.000
247.398;  440.150;  238.825;    0.000
247.467;  369.150;  168.825;    0.000
247.536;  444.150;  203.825;    0.000
247.604;  407.150;  194.825;    0.000
247.673;  426.150;  145.825;    0.000
247.742;  388.150;  167.825;    0.000
247.811;  432.150;  180.825;    0.000
247.879;  432.150;  187.825;    0.000
247.948;  399.150;  187.825;    0.000
248.017;  397.150;  170.825;    0.000
248.086;  464.150;  223.825;    0.000
248.154;  406.150;  160.825;    0.000
248.223;  426.150;  163.825;    0.000
248.292;  379.150;  201.825;    0.000
248.361;  384.150;  205.825;    0.000
248.429;  416.150;  191.825;    0.000
248.498;  393.150;  194.825;    0.000
248.567;  427.150;  217.825;    0.000
248.635;  439.150;  224.825;    0.000
248.704;  446.150;  204.825;    0.000
248.773;  396.150;  175.825;    0.000
248.841;  400.150;  157.825;    0.000
248.910;  447.150;  206.825;    0.000
248.979;  393.150;  170.825;    0.000
249.047;  387.150;  178.825;    0.000
249.116;  376.150;  183.825;    0.000
249.185;  456.150;  202.825;    0.000
249.253;  363.150;  159.825;    0.000
249.322;  392.150;  177.825;    0.000
249.390;  377.150;  157.825;    0.000
249.459;  420.150;  211.825;    0.000
249.528;  402.150;  181.825;    0.000
249.596;  423.150;  179.825;    0.000
249.665;  402.150;  176.825;    0.000
249.733;  376.150;  186.825;    0.000
249.802;  468.150;  185.825;    0.000
249.871;  369.150;  166.825;    0.000
249.939;  369.150;  163.825;    0.000
250.008;  425.150;  212.825;    0.000
250.076;  408.150;  227.825;    0.000
250.145;  396.150;  172.825;    0.000
250.213;  368.150;  173.825;    0.000
250.282;  372.150;  189.825;    0.000
250.350;  368.150;  166.825;    0.000
250.419;  370.150;  161.825;    0.000
250.487;  422.150;  178.825;    0.000
250.556;  416.150;  208.825;    0.000
250.624;  400.150;  190.825;    0.000
250.693;  374.150;  163.825;    0.000
250.761;  371.150;  194.825;    0.000
250.830;  423.150;  225.825;    0.000
250.898;  378.150;  140.825;    0.000
250.967;  348.150;  167.825;    0.000
251.035;  361.150;  155.825;    0.000
251.104;  353.150;  189.825;    0.000
251.172;  365.150;  136.825;    0.000
251.241;  365.150;  148.825;    0.000
251.309;  376.150;  201.825;    0.000
251.378;  400.150;  169.825;    0.000
251.446;  394.150;  178.825;    0.000
251.514;  390.150;  206.825;    0.000
251.583;  378.150;  178.825;    0.000
251.651;  370.150;  168.825;    0.000
251.720;  358.150;  190.825;    0.000
251.788;  411.150;  209.825;    0.000
251.856;  339.150;  173.825;    0.000
251.925;  385.150;  171.825;    0.000
251.993;  393.150;  188.825;    0.000
252.062;  371.150;  169.825;    0.000
252.130;  405.150;  196.825;    0.000
252.198;  387.150;  210.825;    0.000
252.267;  348.150;  181.825;    0.000
252.335;  376.150;  164.825;    0.000
252.403;  387.150;  152.825;    0.000
252.472;  368.150;  166.825;    0.000
252.540;  353.150;  189.825;    0.000
252.608;  388.150;  198.825;    0.000
252.677;  326.150;  156.825;    0.000
252.745;  371.150;  184.825;    0.000
252.813;  354.150;  163.825;    0.000
252.881;  334.150;  130.825;    0.000
252.950;  348.150;  189.825;    0.000
253.018;  317.150;  164.825;    0.000
253.086;  333.150;  172.825;    0.000
253.155;  359.150;  205.825;    0.000
253.223;  315.150;  175.825;    0.000
253.291;  302.150;  176.825;    0.000
253.359;  314.150;  182.825;    0.000
253.428;  364.150;  222.825;    0.000
253.496;  341.150;  166.825;    0.000
253.564;  251.150;  135.825;    0.000
253.632;  335.150;  184.825;    0.000
253.700;  321.150;  173.825;    0.000
253.769;  288.150;  163.825;    0.000
253.837;  306.150;  179.825;    0.000
253.905;  319.150;  157.825;    0.000
253.973;  283.150;  164.825;    0.000
254.041;  358.150;  170.825;    0.000
254.110;  276.150;  169.825;    0.000
254.178;  257.150;  165.825;    0.000
254.246;  269.150;  126.825;    0.000
254.314;  325.150;  166.825;    0.000
254.382;  259.150;  169.825;    0.000
254.450;  288.150;  170.825;    0.000
254.518;  296.150;  196.825;    0.000
254.587;  316.150;  161.825;    0.000
254.655;  340.150;  187.825;    0.000
254.723;  281.150;  144.825;    0.000
254.791;  312.150;  175.825;    0.000
254.859;  318.150;  168.825;    0.000
254.927;  312.150;  198.825;    0.000
254.995;  260.150;  165.825;    0.000
255.063;  286.150;  150.825;    0.000
255.131;  304.150;  181.825;    0.000
255.199;  303.150;  160.825;    0.000
255.267;  236.150;  131.825;    0.000
255.336;  358.150;  188.825;    0.000
255.404;  329.150;  163.825;    0.000
255.472;  292.150;  192.825;    0.000
255.540;  339.150;  158.825;    0.000
255.608;  324.150;  147.825;    0.000
255.676;  329.150;  166.825;    0.000
255.744;  320.150;  159.825;    0.000
255.812;  318.150;  164.825;    0.000
255.880;  333.150;  195.825;    0.000
255.948;  294.150;  167.825;    0.000
256.016;  318.150;  185.825;    0.000
256.084;  372.150;  191.825;    0.000
256.152;  351.150;  214.825;    0.000
256.220;  290.150;  195.825;    0.000
256.288;  315.150;  185.825;    0.000
256.356;  325.150;  168.825;    0.000
256.424;  314.150;  161.825;    0.000
256.491;  335.150;  161.825;    0.000
256.559;  295.150;  157.825;    0.000
256.627;  327.150;  164.825;    0.000
256.695;  344.150;  146.825;    0.000
256.763;  329.150;  194.825;    0.000
256.831;  341.150;  182.825;    0.000
256.899;  361.150;  192.825;    0.000
256.967;  343.150;  172.825;    0.000
257.035;  362.150;  169.825;    0.000
257.103;  366.150;  223.825;    0.000
257.171;  322.150;  141.825;    0.000
257.238;  320.150;  146.825;    0.000
257.306;  341.150;  180.825;    0.000
257.374;  395.150;  138.825;    0.000
257.442;  329.150;  135.825;    0.000
257.510;  343.150;  130.825;    0.000
257.578;  362.150;  123.825;    0.000
257.646;  358.150;  162.825;    0.000
257.713;  359.150;  149.825;    0.000
257.781;  368.150;  125.825;    0.000
257.849;  361.150;  149.825;    0.000
257.917;  367.150;  177.825;    0.000
257.985;  367.150;  143.825;    0.000
258.052;  393.150;  154.825;    0.000
258.120;  358.150;  162.825;    0.000
258.188;  352.150;  172.825;    0.000
258.256;  337.150;  160.825;    0.000
258.324;  449.150;  209.825;    0.000
258.391;  346.150;  153.825;    0.000
258.459;  409.150;  133.825;    0.000
258.527;  396.150;  160.825;    0.000
258.595;  352.150;  128.825;    0.000
258.662;  386.150;  114.825;    0.000
258.730;  453.150;  192.825;    0.000
258.798;  376.150;  144.825;    0.000
258.865;  390.150;  140.825;    0.000
258.933;  434.150;  150.825;    0.000
259.001;  441.150;  149.825;    0.000
259.069;  406.150;  110.825;    0.000
259.136;  388.150;  150.825;    0.000
259.204;  427.150;  156.825;    0.000
259.272;  469.150;  185.825;    0.000
259.339;  404.150;  148.825;    0.000
259.407;  467.150;  163.825;    0.000
259.475;  452.150;  129.825;    0.000
259.542;  439.150;  144.825;    0.000
259.610;  442.150;  164.825;    0.000
259.677;  468.150;  188.825;    0.000
259.745;  451.150;  113.825;    0.000
259.813;  520.150;  188.825;    0.000
259.880;  485.150;  174.825;    0.000
259.948;  471.150;  166.825;    0.000
260.016;  442.150;  150.825;    0.000
260.083;  537.150;  178.825;    0.000
260.151;  464.150;  120.825;    0.000
260.218;  494.150;  175.825;    0.000
260.286;  483.150;  155.825;    0.000
260.353;  523.150;  165.825;    0.000
260.421;  508.150;  169.825;    0.000
260.489;  526.150;  194.825;    0.000
260.556;  483.150;  161.825;    0.000
260.624;  541.150;  179.825;    0.000
260.691;  493.150;  174.825;    0.000
260.759;  568.150;  164.825;    0.000
260.826;  487.150;  125.825;    0.000
260.894;  567.150;  164.825;    0.000
260.961;  534.150;  147.825;    0.000
261.029;  504.150;  167.825;    0.000
261.096;  526.150;  136.825;    0.000
261.164;  563.150;  146.825;    0.000
261.231;  551.150;  190.825;    0.000
261.299;  549.150;  171.825;    0.000
261.366;  542.150;  165.825;    0.000
261.434;  543.150;  160.825;    0.000
261.501;  597.150;  149.825;    0.000
261.568;  539.150;  155.825;    0.000
261.636;  572.150;  137.825;    0.000
261.703;  639.150;  186.825;    0.000
261.771;  609.150;  162.825;    0.000
261.838;  632.150;  190.825;    0.000
261.906;  553.150;  133.825;    0.000
261.973;  558.150;  202.825;    0.000
262.040;  575.150;  179.825;    0.000
262.108;  602.150;  161.825;    0.000
262.175;  540.150;  155.825;    0.000
262.243;  596.150;  158.825;    0.000
262.310;  613.150;  129.825;    0.000
262.377;  617.150;  157.825;    0.000
262.445;  637.150;  132.825;    0.000
262.512;  612.150;  161.825;    0.000
262.579;  618.150;  151.825;    0.000
262.647;  622.150;  174.825;    0.000
262.714;  608.150;  174.825;    0.000
262.781;  632.150;  164.825;    0.000
262.849;  562.150;  168.825;    0.000
262.916;  623.150;  153.825;    0.000
262.983;  671.150;  201.825;    0.000
263.051;  638.150;  117.825;    0.000
263.118;  672.150;  150.825;    0.000
263.185;  629.150;  172.825;    0.000
263.252;  617.150;  154.825;    0.000
263.320;  615.150;  152.825;    0.000
263.387;  673.150;  136.825;    0.000
263.454;  660.150;  167.825;    0.000
263.522;  640.150;  122.825;    0.000
263.589;  684.150;  147.825;    0.000
263.656;  641.150;  130.825;    0.000
263.723;  660.150;  182.825;    0.000
263.790;  648.150;  163.825;    0.000
263.858;  722.150;  161.825;    0.000
263.925;  702.150;  153.825;    0.000
263.992;  670.150;  139.825;    0.000
264.059;  716.150;  141.825;    0.000
264.126;  712.150;  153.825;    0.000
264.194;  647.150;  144.825;    0.000
264.261;  745.150;  188.825;    0.000
264.328;  691.150;  161.825;    0.000
264.395;  748.150;  184.825;    0.000
264.462;  728.150;  162.825;    0.000
264.529;  751.150;  178.825;    0.000
264.597;  704.150;  160.825;    0.000
264.664;  741.150;  158.825;    0.000
264.731;  748.150;  176.825;    0.000
264.798;  696.150;  137.825;    0.000
264.865;  775.150;  175.825;    0.000
264.932;  786.150;  162.825;    0.000
264.999;  700.150;  153.825;    0.000
265.066;  790.150;  168.825;    0.000
265.133;  802.150;  142.825;    0.000
265.201;  807.150;  163.825;    0.000
265.268;  775.150;  143.825;    0.000
265.335;  756.150;  156.825;    0.000
265.402;  821.150;  136.825;    0.000
265.469;  773.150;  127.825;    0.000
265.536;  749.150;  159.825;    0.000
265.603;  809.150;  191.825;    0.000
265.670;  698.150;  136.825;    0.000
265.737;  834.150;  186.825;    0.000
265.804;  768.150;  147.825;    0.000
265.871;  796.150;  147.825;    0.000
265.938;  838.150;  153.825;    0.000
266.005;  755.150;  172.825;    0.000
266.072;  751.150;  151.825;    0.000
266.139;  862.150;  175.825;    0.000
266.206;  768.150;  165.825;    0.000
266.273;  783.150;  162.825;    0.000
266.340;  841.150;  150.825;    0.000
266.407;  813.150;  169.825;    0.000
266.474;  847.150;  151.825;    0.000
266.541;  830.150;  164.825;    0.000
266.608;  807.150;  111.825;    0.000
266.675;  832.150;  173.825;    0.000
266.742;  846.150;  148.825;    0.000
266.808;  829.150;  185.825;    0.000
266.875;  881.150;  188.825;    0.000
266.942;  817.150;  131.825;    0.000
267.009;  854.150;  184.825;    0.000
267.076;  887.150;  200.825;    0.000
267.143;  836.150;  216.825;    0.000
267.210;  812.150;  138.825;    0.000
267.277;  858.150;  143.825;    0.000
267.344;  861.150;  172.825;    0.000
267.410;  935.150;  172.825;    0.000
267.477;  888.150;  160.825;    0.000
267.544;  812.150;  175.825;    0.000
267.611;  923.150;  189.825;    0.000
267.678;  828.150;  162.825;    0.000
267.745;  863.150;  206.825;    0.000
267.811;  888.150;  146.825;    0.000
267.878;  858.150;  147.825;    0.000
267.945;  807.150;  170.825;    0.000
268.012;  864.150;  153.825;    0.000
268.079;  885.150;  185.825;    0.000
268.145;  888.150;  197.825;    0.000
268.212;  923.150;  167.825;    0.000
268.279;  877.150;  145.825;    0.000
268.346;  858.150;  182.825;    0.000
268.412;  872.150;  144.825;    0.000
268.479;  864.150;  186.825;    0.000
268.546;  833.150;  147.825;    0.000
268.613;  874.150;  188.825;    0.000
268.679;  929.150;  173.825;    0.000
268.746;  894.150;  204.825;    0.000
268.813;  894.150;  199.825;    0.000
268.879;  844.150;  157.825;    0.000
268.946;  881.150;  192.825;    0.000
269.013;  846.150;  136.825;    0.000
269.079;  895.150;  166.825;    0.000
269.146;  815.150;  129.825;    0.000
269.213;  860.150;  178.825;    0.000
269.280;  888.150;  148.825;    0.000
269.346;  869.150;  194.825;    0.000
269.413;  867.150;  135.825;    0.000
269.479;  851.150;  180.825;    0.000
269.546;  856.150;  169.825;    0.000
269.613;  844.150;  160.825;    0.000
269.679;  920.150;  161.825;    0.000
269.746;  859.150;  143.825;    0.000
269.813;  857.150;  172.825;    0.000
269.879;  876.150;  152.825;    0.000
269.946;  894.150;  156.825;    0.000
270.012;  920.150;  190.825;    0.000
270.079;  797.150;  143.825;    0.000
270.145;  798.150;  148.825;    0.000
270.212;  884.150;  176.825;    0.000
270.279;  871.150;  168.825;    0.000
270.345;  866.150;  143.825;    0.000
270.412;  892.150;  155.825;    0.000
270.478;  903.150;  176.825;    0.000
270.545;  876.150;  112.825;    0.000
270.611;  889.150;  186.825;    0.000
270.678;  821.150;  141.825;    0.000
270.744;  872.150;  145.825;    0.000
270.811;  845.150;  120.825;    0.000
270.877;  772.150;  118.825;    0.000
270.944;  840.150;  135.825;    0.000
271.010;  882.150;  128.825;    0.000
271.077;  892.150;  176.825;    0.000
271.143;  824.150;  162.825;    0.000
271.210;  856.150;  133.825;    0.000
271.276;  806.150;  107.825;    0.000
271.342;  855.150;  202.825;    0.000
271.409;  830.150;  160.825;    0.000
271.475;  866.150;  165.825;    0.000
271.542;  834.150;  152.825;    0.000
271.608;  887.150;  163.825;    0.000
271.675;  875.150;  149.825;    0.000
271.741;  897.150;  164.825;    0.000
271.807;  855.150;  128.825;    0.000
271.874;  915.150;  148.825;    0.000
271.940;  823.150;  179.825;    0.000
272.007;  873.150;  148.825;    0.000
272.073;  830.150;  146.825;    0.000
272.139;  877.150;  166.825;    0.000
272.206;  835.150;  198.825;    0.000
272.272;  867.150;  201.825;    0.000
272.338;  902.150;  208.825;    0.000
272.405;  863.150;  181.825;    0.000
272.471;  816.150;  167.825;    0.000
272.537;  855.150;  189.825;    0.000
272.604;  891.150;  162.825;    0.000
272.670;  829.150;  194.825;    0.000
272.736;  845.150;  176.825;    0.000
272.802;  860.150;  163.825;    0.000
272.869;  901.150;  170.825;    0.000
272.935;  895.150;  145.825;    0.000
273.001;  926.150;  149.825;    0.000
273.068;  886.150;  172.825;    0.000
273.134;  914.150;  155.825;    0.000
273.200;  952.150;  183.825;    0.000
273.266;  883.150;  160.825;    0.000
273.333;  883.150;  190.825;    0.000
273.399;  813.150;  132.825;    0.000
273.465;  865.150;  179.825;    0.000
273.531;  942.150;  161.825;    0.000
273.597;  905.150;  194.825;    0.000
273.664;  925.150;  193.825;    0.000
273.730;  854.150;  180.825;    0.000
273.796;  936.150;  145.825;    0.000
273.862;  951.150;  176.825;    0.000
273.928; 1008.150;  169.825;    0.000
273.995;  950.150;  202.825;    0.000
274.061;  987.150;  176.825;    0.000
274.127;  946.150;  178.825;    0.000
274.193;  877.150;  106.825;    0.000
274.259;  964.150;  186.825;    0.000
274.325;  939.150;  163.825;    0.000
274.391;  917.150;  162.825;    0.000
274.457;  933.150;  145.825;    0.000
274.524;  944.150;  189.825;    0.000
274.590;  954.150;  161.825;    0.000
274.656;  953.150;  157.825;    0.000
274.722;  946.150;  143.825;    0.000
274.788;  974.150;  166.825;    0.000
274.854;  990.150;  200.825;    0.000
274.920;  925.150;  132.825;    0.000
274.986;  982.150;  184.825;    0.000
275.052;  999.150;  169.825;    0.000
275.118;  975.150;  153.825;    0.000
275.184;  991.150;  182.825;    0.000
275.250;  998.150;  124.825;    0.000
275.316; 1041.150;  154.825;    0.000
275.382;  933.150;  150.825;    0.000
275.448; 1037.150;  180.825;    0.000
275.514; 1039.150;  143.825;    0.000
275.580; 1017.150;  120.825;    0.000
275.646; 1024.150;  127.825;    0.000
275.712; 1100.150;  109.825;    0.000
275.778; 1014.150;  126.825;    0.000
275.844; 1083.150;  155.825;    0.000
275.910; 1046.150;  164.825;    0.000
275.976; 1120.150;  161.825;    0.000
276.042; 1124.150;  152.825;    0.000
276.108; 1091.150;  159.825;    0.000
276.174; 1133.150;  149.825;    0.000
276.240; 1147.150;  112.825;    0.000
276.306; 1168.150;  142.825;    0.000
276.372; 1156.150;  136.825;    0.000
276.437; 1167.150;  141.825;    0.000
276.503; 1234.150;  150.825;    0.000
276.569; 1281.150;  178.825;    0.000
276.635; 1250.150;  117.825;    0.000
276.701; 1222.150;  174.825;    0.000
276.767; 1297.150;  136.825;    0.000
276.833; 1269.150;  119.825;    0.000
276.899; 1364.150;  171.825;    0.000
276.964; 1333.150;  146.825;    0.000
277.030; 1371.150;  157.825;    0.000
277.096; 1430.150;  124.825;    0.000
277.162; 1512.150;  185.825;    0.000
277.228; 1428.150;  125.825;    0.000
277.293; 1528.150;  159.825;    0.000
277.359; 1621.150;  186.825;    0.000
277.425; 1749.150;  176.825;    0.000
277.491; 1832.150;  140.825;    0.000
277.557; 2094.150;  172.825;    0.000
277.622; 2742.150;  187.825;    0.000
277.688; 2872.150;  203.825;    0.000
277.754; 2876.150;  170.825;    0.000
277.820; 3182.150;  142.825;    0.000
277.885; 3655.150;  182.825;    0.000
277.951; 4601.150;  171.825;    0.000
278.017; 4022.150;  173.825;    0.000
278.083; 3470.150;  151.825;    0.000
278.148; 3315.150;  159.825;    0.000
278.214; 3391.150;  173.825;    0.000
278.280; 3736.150;  137.825;    0.000
278.345; 3321.150;  190.825;    0.000
278.411; 3103.150;  149.825;    0.000
278.477; 3209.150;  157.825;    0.000
278.542; 3445.150;  136.825;    0.000
278.608; 3610.150;  144.825;    0.000
278.674; 3956.150;  215.825;    0.000
278.739; 4469.150;  148.825;    0.000
278.805; 4934.150;  152.825;    0.000
278.871; 5586.150;  170.825;    0.000
278.936; 7047.150;  180.825;    0.000
279.002; 9604.150;  177.825;    0.000
279.067;12200.150;  172.825;    0.000
279.133;12187.150;  160.825;    0.000
279.199;11441.150;  165.825;    0.000
279.264;12111.150;  130.825;    0.000
279.330;13808.150;  154.825;    0.000
279.395;17146.150;  170.825;    0.000
279.461;19895.150;  136.825;    0.000
279.527;21722.150;  174.825;    0.000
279.592;21165.150;  179.825;    0.000
279.658;18874.150;  187.825;    0.000
279.723;18201.150;  201.825;    0.000
279.789;18661.150;  194.825;    0.000
279.854;16795.150;  171.825;    0.000
279.920;14510.150;  183.825;    0.000
279.985;13855.150;  173.825;    0.000
280.051;13942.150;  194.825;    0.000
280.116;16098.150;  197.825;    0.000
280.182;19283.150;  171.825;    0.000
280.247;20979.150;  131.825;    0.000
280.313;19077.150;  166.825;    0.000
280.378;15077.150;  159.825;    0.000
280.444;11801.150;  190.825;    0.000
280.509; 9621.150;  189.825;    0.000
280.574; 8155.150;  171.825;    0.000
280.640; 7206.150;  167.825;    0.000
280.705; 6436.150;  129.825;    0.000
280.771; 5848.150;  193.825;    0.000
280.836; 5268.150;  172.825;    0.000
280.902; 4907.150;  189.825;    0.000
280.967; 4529.150;  143.825;    0.000
281.032; 4392.150;  182.825;    0.000
281.098; 4042.150;  172.825;    0.000
281.163; 3804.150;  184.825;    0.000
281.229; 3679.150;  210.825;    0.000
281.294; 3542.150;  223.825;    0.000
281.359; 3264.150;  197.825;    0.000
281.425; 3205.150;  192.825;    0.000
281.490; 3090.150;  162.825;    0.000
281.555; 2979.150;  193.825;    0.000
281.621; 2855.150;  141.825;    0.000
281.686; 2694.150;  166.825;    0.000
281.751; 2628.150;  204.825;    0.000
281.816; 2517.150;  159.825;    0.000
281.882; 2489.150;  146.825;    0.000
281.947; 2347.150;  176.825;    0.000
282.012; 2361.150;  139.825;    0.000
282.078; 2308.150;  186.825;    0.000
282.143; 2202.150;  151.825;    0.000
282.208; 2192.150;  213.825;    0.000
282.273; 2137.150;  160.825;    0.000
282.339; 2088.150;  175.825;    0.000
282.404; 2098.150;  157.825;    0.000
282.469; 1939.150;  185.825;    0.000
282.534; 2050.150;  166.825;    0.000
282.600; 1926.150;  168.825;    0.000
282.665; 1956.150;  167.825;    0.000
282.730; 1859.150;  148.825;    0.000
282.795; 1899.150;  186.825;    0.000
282.860; 1849.150;  161.825;    0.000
282.926; 1787.150;  178.825;    0.000
282.991; 1796.150;  139.825;    0.000
283.056; 1821.150;  158.825;    0.000
283.121; 1747.150;  191.825;    0.000
283.186; 1792.150;  182.825;    0.000
283.251; 1725.150;  181.825;    0.000
283.316; 1704.150;  187.825;    0.000
283.382; 1748.150;  175.825;    0.000
283.447; 1723.150;  183.825;    0.000
283.512; 1594.150;  175.825;    0.000
283.577; 1726.150;  180.825;    0.000
283.642; 1618.150;  193.825;    0.000
283.707; 1638.150;  145.825;    0.000
283.772; 1589.150;  143.825;    0.000
283.837; 1589.150;  143.825;    0.000
283.902; 1593.150;  150.825;    0.000
283.967; 1581.150;  166.825;    0.000
284.032; 1687.150;  126.825;    0.000
284.097; 1612.150;  201.825;    0.000
284.163; 1614.150;  133.825;    0.000
284.228; 1594.150;  193.825;    0.000
284.293; 1622.150;  157.825;    0.000
284.358; 1611.150;  185.825;    0.000
284.423; 1600.150;  142.825;    0.000
284.488; 1671.150;  192.825;    0.000
284.553; 1647.150;  146.825;    0.000
284.618; 1711.150;  154.825;    0.000
284.683; 1711.150;  172.825;    0.000
284.748; 1836.150;  195.825;    0.000
284.812; 1955.150;  190.825;    0.000
284.877; 2089.150;  169.825;    0.000
284.942; 2389.150;  195.825;    0.000
285.007; 2889.150;  204.825;    0.000
285.072; 4150.150;  189.825;    0.000
285.137; 6159.150;  149.825;    0.000
285.202; 8160.150;  164.825;    0.000
285.267; 7200.150;  161.825;    0.000
285.332; 5040.150;  140.825;    0.000
285.397; 3599.150;  142.825;    0.000
285.462; 2929.150;  146.825;    0.000
285.527; 2650.150;  132.825;    0.000
285.591; 2292.150;  160.825;    0.000
285.656; 2098.150;  136.825;    0.000
285.721; 1913.150;  135.825;    0.000
285.786; 1962.150;  171.825;    0.000
285.851; 1813.150;  168.825;    0.000
285.916; 1766.150;  178.825;    0.000
285.981; 1683.150;  152.825;    0.000
286.045; 1696.150;  167.825;    0.000
286.110; 1595.150;  187.825;    0.000
286.175; 1616.150;  162.825;    0.000
286.240; 1571.150;  163.825;    0.000
286.305; 1569.150;  190.825;    0.000
286.369; 1510.150;  143.825;    0.000
286.434; 1521.150;  185.825;    0.000
286.499; 1444.150;  195.825;    0.000
286.564; 1389.150;  173.825;    0.000
286.628; 1422.150;  159.825;    0.000
286.693; 1445.150;  175.825;    0.000
286.758; 1444.150;  170.825;    0.000
286.823; 1404.150;  129.825;    0.000
286.887; 1326.150;  172.825;    0.000
286.952; 1409.150;  163.825;    0.000
287.017; 1400.150;  217.825;    0.000
287.082; 1404.150;  165.825;    0.000
287.146; 1372.150;  176.825;    0.000
287.211; 1345.150;  192.825;    0.000
287.276; 1376.150;  147.825;    0.000
287.340; 1348.150;  162.825;    0.000
287.405; 1294.150;  196.825;    0.000
287.470; 1342.150;  148.825;    0.000
287.534; 1310.150;  166.825;    0.000
287.599; 1296.150;  193.825;    0.000
287.663; 1344.150;  191.825;    0.000
287.728; 1377.150;  146.825;    0.000
287.793; 1361.150;  234.825;    0.000
287.857; 1361.150;  177.825;    0.000
287.922; 1354.150;  166.825;    0.000
287.987; 1412.150;  169.825;    0.000
288.051; 1328.150;  169.825;    0.000
288.116; 1350.150;  187.825;    0.000
288.180; 1382.150;  200.825;    0.000
288.245; 1297.150;  201.825;    0.000
288.309; 1344.150;  176.825;    0.000
288.374; 1334.150;  162.825;    0.000
288.439; 1311.150;  195.825;    0.000
288.503; 1209.150;  162.825;    0.000
288.568; 1390.150;  228.825;    0.000
288.632; 1350.150;  194.825;    0.000
288.697; 1347.150;  173.825;    0.000
288.761; 1267.150;  153.825;    0.000
288.826; 1248.150;  151.825;    0.000
288.890; 1261.150;  208.825;    0.000
288.955; 1341.150;  159.825;    0.000
289.019; 1305.150;  198.825;    0.000
289.084; 1373.150;  152.825;    0.000
289.148; 1380.150;  171.825;    0.000
289.212; 1258.150;  184.825;    0.000
289.277; 1270.150;  165.825;    0.000
289.341; 1264.150;  207.825;    0.000
289.406; 1294.150;  156.825;    0.000
289.470; 1278.150;  191.825;    0.000
289.535; 1371.150;  222.825;    0.000
289.599; 1285.150;  214.825;    0.000
289.663; 1242.150;  183.825;    0.000
289.728; 1297.150;  192.825;    0.000
289.792; 1275.150;  197.825;    0.000
289.857; 1297.150;  221.825;    0.000
289.921; 1274.150;  177.825;    0.000
289.985; 1287.150;  177.825;    0.000
290.050; 1250.150;  178.825;    0.000
290.114; 1241.150;  112.825;    0.000
290.178; 1342.150;  170.825;    0.000
290.243; 1265.150;  162.825;    0.000
290.307; 1277.150;  178.825;    0.000
290.371; 1277.150;  141.825;    0.000
290.436; 1322.150;  178.825;    0.000
290.500; 1223.150;  135.825;    0.000
290.564; 1226.150;  199.825;    0.000
290.629; 1280.150;  165.825;    0.000
290.693; 1308.150;  154.825;    0.000
290.757; 1359.150;  159.825;    0.000
290.821; 1351.150;  179.825;    0.000
290.886; 1295.150;  141.825;    0.000
290.950; 1292.150;  166.825;    0.000
291.014; 1288.150;  169.825;    0.000
291.078; 1351.150;  191.825;    0.000
291.143; 1317.150;  169.825;    0.000
291.207; 1297.150;  164.825;    0.000
291.271; 1300.150;  193.825;    0.000
291.335; 1348.150;  150.825;    0.000
291.399; 1351.150;  175.825;    0.000
291.464; 1500.150;  128.825;    0.000
291.528; 1624.150;  162.825;    0.000
291.592; 1490.150;  152.825;    0.000
291.656; 1432.150;  175.825;    0.000
291.720; 1403.150;  173.825;    0.000
291.784; 1388.150;  192.825;    0.000
291.849; 1392.150;  159.825;    0.000
291.913; 1373.150;  174.825;    0.000
291.977; 1416.150;  177.825;    0.000
292.041; 1373.150;  188.825;    0.000
292.105; 1376.150;  174.825;    0.000
292.169; 1314.150;  143.825;    0.000
292.233; 1416.150;  149.825;    0.000
292.297; 1424.150;  176.825;    0.000
292.361; 1452.150;  178.825;    0.000
292.425; 1516.150;  153.825;    0.000
292.490; 1527.150;  185.825;    0.000
292.554; 1598.150;  144.825;    0.000
292.618; 1618.150;  166.825;    0.000
292.682; 1736.150;  181.825;    0.000
292.746; 1950.150;  152.825;    0.000
292.810; 2577.150;  208.825;    0.000
292.874; 3147.150;  142.825;    0.000
292.938; 3195.150;  195.825;    0.000
293.002; 2774.150;  156.825;    0.000
293.066; 2559.150;  108.825;    0.000
293.130; 2496.150;  136.825;    0.000
293.194; 2333.150;  135.825;    0.000
293.258; 2315.150;  187.825;    0.000
293.322; 2293.150;  148.825;    0.000
293.386; 2359.150;  186.825;    0.000
293.450; 2478.150;  196.825;    0.000
293.514; 2642.150;  175.825;    0.000
293.577; 3433.150;  137.825;    0.000
293.641; 4502.150;  142.825;    0.000
293.705; 4775.150;  201.825;    0.000
293.769; 4277.150;  150.825;    0.000
293.833; 3827.150;  147.825;    0.000
293.897; 3440.150;  170.825;    0.000
293.961; 3065.150;  121.825;    0.000
294.025; 2821.150;  172.825;    0.000
294.089; 2600.150;  167.825;    0.000
294.152; 2455.150;  167.825;    0.000
294.216; 2376.150;  165.825;    0.000
294.280; 2304.150;  168.825;    0.000
294.344; 2114.150;  160.825;    0.000
294.408; 1980.150;  187.825;    0.000
294.472; 1963.150;  141.825;    0.000
294.536; 1952.150;  184.825;    0.000
294.599; 1852.150;  176.825;    0.000
294.663; 1839.150;  120.825;    0.000
294.727; 1706.150;  159.825;    0.000
294.791; 1681.150;  190.825;    0.000
294.855; 1622.150;  148.825;    0.000
294.918; 1556.150;  160.825;    0.000
294.982; 1553.150;  156.825;    0.000
295.046; 1571.150;  177.825;    0.000
295.110; 1546.150;  149.825;    0.000
295.173; 1443.150;  156.825;    0.000
295.237; 1410.150;  174.825;    0.000
295.301; 1492.150;  152.825;    0.000
295.364; 1459.150;  204.825;    0.000
295.428; 1413.150;  196.825;    0.000
295.492; 1391.150;  178.825;    0.000
295.556; 1489.150;  161.825;    0.000
295.619; 1450.150;  178.825;    0.000
295.683; 1431.150;  152.825;    0.000
295.747; 1354.150;  148.825;    0.000
295.810; 1311.150;  177.825;    0.000
295.874; 1352.150;  146.825;    0.000
295.938; 1329.150;  115.825;    0.000
296.001; 1323.150;  172.825;    0.000
296.065; 1295.150;  146.825;    0.000
296.128; 1253.150;  164.825;    0.000
296.192; 1302.150;  137.825;    0.000
296.256; 1254.150;  143.825;    0.000
296.319; 1313.150;  156.825;    0.000
296.383; 1215.150;  165.825;    0.000
296.447; 1266.150;  170.825;    0.000
296.510; 1277.150;  174.825;    0.000
296.574; 1205.150;  127.825;    0.000
296.637; 1302.150;  132.825;    0.000
296.701; 1249.150;  206.825;    0.000
296.764; 1203.150;  179.825;    0.000
296.828; 1236.150;  213.825;    0.000
296.891; 1268.150;  149.825;    0.000
296.955; 1233.150;  170.825;    0.000
297.018; 1280.150;  185.825;    0.000
297.082; 1283.150;  205.825;    0.000
297.145; 1192.150;  154.825;    0.000
297.209; 1230.150;  200.825;    0.000
297.272; 1240.150;  157.825;    0.000
297.336; 1184.150;  164.825;    0.000
297.399; 1251.150;  166.825;    0.000
297.463; 1164.150;  195.825;    0.000
297.526; 1219.150;  176.825;    0.000
297.590; 1206.150;  198.825;    0.000
297.653; 1210.150;  146.825;    0.000
297.717; 1167.150;  175.825;    0.000
297.780; 1178.150;  139.825;    0.000
297.843; 1207.150;  174.825;    0.000
297.907; 1183.150;  149.825;    0.000
297.970; 1181.150;  161.825;    0.000
298.034; 1159.150;  185.825;    0.000
298.097; 1167.150;  167.825;    0.000
298.160; 1221.150;  195.825;    0.000
298.224; 1185.150;  178.825;    0.000
298.287; 1126.150;  164.825;    0.000
298.350; 1129.150;  194.825;    0.000
298.414; 1127.150;  191.825;    0.000
298.477; 1072.150;  155.825;    0.000
298.540; 1154.150;  139.825;    0.000
298.604; 1141.150;  198.825;    0.000
298.667; 1156.150;  183.825;    0.000
298.730; 1123.150;  185.825;    0.000
298.794; 1110.150;  153.825;    0.000
298.857; 1199.150;  169.825;    0.000
298.920; 1128.150;  159.825;    0.000
298.984; 1146.150;  179.825;    0.000
299.047; 1165.150;  174.825;    0.000
299.110; 1091.150;  144.825;    0.000
299.173; 1139.150;  190.825;    0.000
299.237; 1098.150;  163.825;    0.000
299.300; 1099.150;  153.825;    0.000
299.363; 1084.150;  145.825;    0.000
299.426; 1055.150;  160.825;    0.000
299.489; 1039.150;  173.825;    0.000
299.553; 1127.150;  209.825;    0.000
299.616; 1117.150;  172.825;    0.000
299.679; 1134.150;  204.825;    0.000
299.742; 1087.150;  162.825;    0.000
299.805; 1089.150;  198.825;    0.000
299.868; 1077.150;  176.825;    0.000
299.932; 1108.150;  166.825;    0.000
299.995; 1149.150;  162.825;    0.000
300.058; 1119.150;  175.825;    0.000
300.121; 1122.150;  197.825;    0.000
300.184; 1116.150;  188.825;    0.000
300.247; 1104.150;  181.825;    0.000
300.310; 1124.150;  161.825;    0.000
300.374; 1083.150;  201.825;    0.000
300.437; 1057.150;  156.825;    0.000
300.500; 1056.150;  180.825;    0.000
300.563; 1086.150;  174.825;    0.000
300.626; 1112.150;  206.825;    0.000
300.689; 1095.150;  218.825;    0.000
300.752; 1016.150;  192.825;    0.000
300.815; 1078.150;  172.825;    0.000
300.878; 1135.150;  207.825;    0.000
300.941; 1120.150;  163.825;    0.000
301.004; 1053.150;  171.825;    0.000
301.067; 1090.150;  198.825;    0.000
301.130; 1071.150;  156.825;    0.000
301.193; 1031.150;  173.825;    0.000
301.256; 1048.150;  167.825;    0.000
301.319; 1044.150;  211.825;    0.000
301.382; 1115.150;  167.825;    0.000
301.445; 1073.150;  224.825;    0.000
301.508; 1005.150;  168.825;    0.000
301.571; 1050.150;  161.825;    0.000
301.634; 1068.150;  177.825;    0.000
301.697; 1021.150;  203.825;    0.000
301.760; 1048.150;  190.825;    0.000
301.823; 1094.150;  182.825;    0.000
301.885; 1075.150;  202.825;    0.000
301.948; 1014.150;  200.825;    0.000
302.011; 1062.150;  157.825;    0.000
302.074; 1056.150;  205.825;    0.000
302.137; 1017.150;  149.825;    0.000
302.200; 1109.150;  201.825;    0.000
302.263; 1067.150;  178.825;    0.000
302.326; 1103.150;  184.825;    0.000
302.388; 1084.150;  176.825;    0.000
302.451; 1046.150;  146.825;    0.000
302.514; 1136.150;  192.825;    0.000
302.577; 1061.150;  181.825;    0.000
302.640; 1045.150;  186.825;    0.000
302.703; 1020.150;  164.825;    0.000
302.765; 1075.150;  197.825;    0.000
302.828; 1134.150;  208.825;    0.000
302.891; 1058.150;  168.825;    0.000
302.954; 1038.150;  177.825;    0.000
303.016; 1078.150;  190.825;    0.000
303.079; 1039.150;  216.825;    0.000
303.142; 1085.150;  228.825;    0.000
303.205; 1065.150;  192.825;    0.000
303.267; 1057.150;  182.825;    0.000
303.330; 1049.150;  201.825;    0.000
303.393; 1019.150;  196.825;    0.000
303.456; 1084.150;  184.825;    0.000
303.518; 1072.150;  194.825;    0.000
303.581; 1060.150;  195.825;    0.000
303.644; 1060.150;  184.825;    0.000
303.706; 1061.150;  150.825;    0.000
303.769; 1054.150;  182.825;    0.000
303.832; 1066.150;  143.825;    0.000
303.894; 1024.150;  207.825;    0.000
303.957; 1050.150;  178.825;    0.000
304.020; 1040.150;  203.825;    0.000
304.082; 1023.150;  175.825;    0.000
304.145; 1081.150;  171.825;    0.000
304.207; 1064.150;  157.825;    0.000
304.270; 1089.150;  195.825;    0.000
304.333; 1078.150;  195.825;    0.000
304.395; 1051.150;  197.825;    0.000
304.458; 1042.150;  231.825;    0.000
304.520; 1116.150;  218.825;    0.000
304.583; 1100.150;  177.825;    0.000
304.646; 1093.150;  177.825;    0.000
304.708; 1091.150;  178.825;    0.000
304.771; 1069.150;  143.825;    0.000
304.833; 1058.150;  241.825;    0.000
304.896; 1098.150;  200.825;    0.000
304.958; 1104.150;  176.825;    0.000
305.021; 1111.150;  159.825;    0.000
305.083; 1062.150;  159.825;    0.000
305.146; 1077.150;  190.825;    0.000
305.208; 1029.150;  152.825;    0.000
305.271; 1062.150;  162.825;    0.000
305.333; 1087.150;  219.825;    0.000
305.396; 1041.150;  163.825;    0.000
305.458; 1048.150;  215.825;    0.000
305.520; 1032.150;  174.825;    0.000
305.583; 1039.150;  161.825;    0.000
305.645; 1045.150;  203.825;    0.000
305.708; 1052.150;  163.825;    0.000
305.770; 1128.150;  215.825;    0.000
305.833;  996.150;  207.825;    0.000
305.895; 1069.150;  166.825;    0.000
305.957; 1076.150;  175.825;    0.000
306.020; 1076.150;  169.825;    0.000
306.082; 1084.150;  203.825;    0.000
306.144; 1086.150;  181.825;    0.000
306.207; 1020.150;  199.825;    0.000
306.269; 1114.150;  177.825;    0.000
306.331; 1102.150;  160.825;    0.000
306.394; 1070.150;  193.825;    0.000
306.456; 1059.150;  136.825;    0.000
306.518; 1086.150;  189.825;    0.000
306.581; 1037.150;  156.825;    0.000
306.643; 1047.150;  190.825;    0.000
306.705; 1105.150;  190.825;    0.000
306.768; 1091.150;  172.825;    0.000
306.830; 1081.150;  214.825;    0.000
306.892; 1136.150;  198.825;    0.000
306.954; 1085.150;  177.825;    0.000
307.017; 1074.150;  183.825;    0.000
307.079; 1087.150;  170.825;    0.000
307.141; 1112.150;  173.825;    0.000
307.203; 1038.150;  171.825;    0.000
307.266; 1070.150;  166.825;    0.000
307.328; 1119.150;  207.825;    0.000
307.390; 1167.150;  201.825;    0.000
307.452; 1134.150;  182.825;    0.000
307.514; 1121.150;  213.825;    0.000
307.577; 1119.150;  213.825;    0.000
307.639; 1105.150;  197.825;    0.000
307.701; 1151.150;  174.825;    0.000
307.763; 1137.150;  181.825;    0.000
307.825; 1126.150;  186.825;    0.000
307.887; 1191.150;  198.825;    0.000
307.949; 1144.150;  158.825;    0.000
308.012; 1079.150;  209.825;    0.000
308.074; 1116.150;  176.825;    0.000
308.136; 1149.150;  227.825;    0.000
308.198; 1137.150;  187.825;    0.000
308.260; 1198.150;  211.825;    0.000
308.322; 1189.150;  206.825;    0.000
308.384; 1176.150;  186.825;    0.000
308.446; 1120.150;  175.825;    0.000
308.508; 1230.150;  211.825;    0.000
308.570; 1127.150;  191.825;    0.000
308.632; 1218.150;  195.825;    0.000
308.694; 1200.150;  173.825;    0.000
308.756; 1194.150;  185.825;    0.000
308.818; 1159.150;  195.825;    0.000
308.880; 1193.150;  189.825;    0.000
308.942; 1323.150;  231.825;    0.000
309.004; 1220.150;  188.825;    0.000
309.066; 1293.150;  196.825;    0.000
309.128; 1277.150;  155.825;    0.000
309.190; 1304.150;  176.825;    0.000
309.252; 1439.150;  191.825;    0.000
309.314; 1338.150;  236.825;    0.000
309.376; 1378.150;  212.825;    0.000
309.438; 1332.150;  201.825;    0.000
309.500; 1358.150;  206.825;    0.000
309.562; 1329.150;  213.825;    0.000
309.624; 1433.150;  196.825;    0.000
309.686; 1395.150;  198.825;    0.000
309.747; 1482.150;  186.825;    0.000
309.809; 1301.150;  215.825;    0.000
309.871; 1356.150;  242.825;    0.000
309.933; 1276.150;  162.825;    0.000
309.995; 1297.150;  163.825;    0.000
310.057; 1289.150;  145.825;    0.000
310.119; 1306.150;  205.825;    0.000
310.180; 1234.150;  195.825;    0.000
310.242; 1274.150;  167.825;    0.000
310.304; 1270.150;  213.825;    0.000
310.366; 1312.150;  224.825;    0.000
310.428; 1207.150;  170.825;    0.000
310.489; 1249.150;  195.825;    0.000
310.551; 1215.150;  207.825;    0.000
310.613; 1265.150;  168.825;    0.000
310.675; 1216.150;  188.825;    0.000
310.737; 1213.150;  211.825;    0.000
310.798; 1220.150;  221.825;    0.000
310.860; 1255.150;  201.825;    0.000
310.922; 1256.150;  206.825;    0.000
310.983; 1198.150;  222.825;    0.000
311.045; 1254.150;  235.825;    0.000
311.107; 1244.150;  184.825;    0.000
311.169; 1195.150;  148.825;    0.000
311.230; 1264.150;  211.825;    0.000
311.292; 1185.150;  235.825;    0.000
311.354; 1239.150;  183.825;    0.000
311.415; 1206.150;  196.825;    0.000
311.477; 1217.150;  200.825;    0.000
311.539; 1220.150;  171.825;    0.000
311.600; 1196.150;  169.825;    0.000
311.662; 1235.150;  231.825;    0.000
311.724; 1237.150;  204.825;    0.000
311.785; 1230.150;  214.825;    0.000
311.847; 1184.150;  193.825;    0.000
311.908; 1228.150;  180.825;    0.000
311.970; 1253.150;  233.825;    0.000
312.032; 1206.150;  192.825;    0.000
312.093; 1241.150;  195.825;    0.000
312.155; 1214.150;  194.825;    0.000
312.216; 1228.150;  238.825;    0.000
312.278; 1198.150;  146.825;    0.000
312.339; 1193.150;  184.825;    0.000
312.401; 1238.150;  201.825;    0.000
312.462; 1183.150;  173.825;    0.000
312.524; 1178.150;  205.825;    0.000
312.585; 1141.150;  199.825;    0.000
312.647; 1170.150;  168.825;    0.000
312.708; 1187.150;  180.825;    0.000
312.770; 1145.150;  180.825;    0.000
312.831; 1203.150;  176.825;    0.000
312.893; 1168.150;  211.825;    0.000
312.954; 1241.150;  178.825;    0.000
313.016; 1261.150;  204.825;    0.000
313.077; 1222.150;  216.825;    0.000
313.139; 1173.150;  172.825;    0.000
313.200; 1272.150;  197.825;    0.000
313.261; 1230.150;  227.825;    0.000
313.323; 1272.150;  204.825;    0.000
313.384; 1185.150;  182.825;    0.000
313.446; 1234.150;  204.825;    0.000
313.507; 1140.150;  164.825;    0.000
313.568; 1241.150;  197.825;    0.000
313.630; 1232.150;  190.825;    0.000
313.691; 1208.150;  185.825;    0.000
313.752; 1213.150;  192.825;    0.000
313.814; 1242.150;  176.825;    0.000
313.875; 1260.150;  210.825;    0.000
313.936; 1220.150;  165.825;    0.000
313.998; 1238.150;  162.825;    0.000
314.059; 1310.150;  178.825;    0.000
314.120; 1175.150;  176.825;    0.000
314.182; 1234.150;  167.825;    0.000
314.243; 1200.150;  204.825;    0.000
314.304; 1267.150;  197.825;    0.000
314.365; 1237.150;  183.825;    0.000
314.427; 1201.150;  176.825;    0.000
314.488; 1211.150;  149.825;    0.000
314.549; 1234.150;  218.825;    0.000
314.610; 1279.150;  160.825;    0.000
314.672; 1206.150;  187.825;    0.000
314.733; 1138.150;  184.825;    0.000
314.794; 1227.150;  164.825;    0.000
314.855; 1171.150;  191.825;    0.000
314.917; 1195.150;  172.825;    0.000
314.978; 1209.150;  185.825;    0.000
315.039; 1239.150;  194.825;    0.000
315.100; 1243.150;  190.825;    0.000
315.161; 1181.150;  185.825;    0.000
315.222; 1179.150;  204.825;    0.000
315.283; 1230.150;  166.825;    0.000
315.345; 1219.150;  133.825;    0.000
315.406; 1281.150;  191.825;    0.000
315.467; 1272.150;  166.825;    0.000
315.528; 1267.150;  194.825;    0.000
315.589; 1217.150;  193.825;    0.000
315.650; 1223.150;  190.825;    0.000
315.711; 1236.150;  219.825;    0.000
315.772; 1242.150;  159.825;    0.000
315.833; 1207.150;  191.825;    0.000
315.894; 1184.150;  202.825;    0.000
315.955; 1269.150;  167.825;    0.000
316.016; 1282.150;  177.825;    0.000
316.078; 1271.150;  185.825;    0.000
316.139; 1203.150;  219.825;    0.000
316.200; 1246.150;  163.825;    0.000
316.261; 1262.150;  183.825;    0.000
316.322; 1325.150;  230.825;    0.000
316.383; 1187.150;  198.825;    0.000
316.444; 1311.150;  209.825;    0.000
316.504; 1199.150;  179.825;    0.000
316.565; 1231.150;  185.825;    0.000
316.626; 1226.150;  155.825;    0.000
316.687; 1245.150;  211.825;    0.000
316.748; 1309.150;  192.825;    0.000
316.809; 1217.150;  183.825;    0.000
316.870; 1275.150;  196.825;    0.000
316.931; 1267.150;  173.825;    0.000
316.992; 1360.150;  179.825;    0.000
317.053; 1284.150;  186.825;    0.000
317.114; 1260.150;  189.825;    0.000
317.175; 1331.150;  226.825;    0.000
317.235; 1235.150;  206.825;    0.000
317.296; 1256.150;  191.825;    0.000
317.357; 1214.150;  173.825;    0.000
317.418; 1320.150;  212.825;    0.000
317.479; 1249.150;  247.825;    0.000
317.540; 1179.150;  205.825;    0.000
317.601; 1254.150;  205.825;    0.000
317.661; 1241.150;  150.825;    0.000
317.722; 1282.150;  198.825;    0.000
317.783; 1206.150;  153.825;    0.000
317.844; 1277.150;  202.825;    0.000
317.904; 1223.150;  180.825;    0.000
317.965; 1226.150;  205.825;    0.000
318.026; 1265.150;  223.825;    0.000
318.087; 1305.150;  218.825;    0.000
318.148; 1216.150;  207.825;    0.000
318.208; 1273.150;  212.825;    0.000
318.269; 1261.150;  174.825;    0.000
318.330; 1234.150;  191.825;    0.000
318.390; 1260.150;  197.825;    0.000
318.451; 1216.150;  167.825;    0.000
318.512; 1232.150;  174.825;    0.000
318.572; 1256.150;  199.825;    0.000
318.633; 1271.150;  233.825;    0.000
318.694; 1230.150;  232.825;    0.000
318.754; 1208.150;  181.825;    0.000
318.815; 1222.150;  199.825;    0.000
318.876; 1226.150;  207.825;    0.000
318.936; 1237.150;  202.825;    0.000
318.997; 1203.150;  182.825;    0.000
319.058; 1294.150;  180.825;    0.000
319.118; 1235.150;  199.825;    0.000
319.179; 1307.150;  199.825;    0.000
319.239; 1258.150;  229.825;    0.000
319.300; 1215.150;  223.825;    0.000
319.361; 1339.150;  210.825;    0.000
319.421; 1177.150;  205.825;    0.000
319.482; 1281.150;  205.825;    0.000
319.542; 1271.150;  176.825;    0.000
319.603; 1215.150;  191.825;    0.000
319.663; 1269.150;  183.825;    0.000
319.724; 1286.150;  174.825;    0.000
319.784; 1242.150;  198.825;    0.000
319.845; 1281.150;  218.825;    0.000
319.905; 1175.150;  217.825;    0.000
319.966; 1236.150;  197.825;    0.000
320.026; 1233.150;  209.825;    0.000
320.087; 1219.150;  225.825;    0.000
320.147; 1210.150;  201.825;    0.000
320.208; 1255.150;  176.825;    0.000
320.268; 1238.150;  168.825;    0.000
320.329; 1270.150;  238.825;    0.000
320.389; 1247.150;  220.825;    0.000
320.449; 1325.150;  230.825;    0.000
320.510; 1227.150;  234.825;    0.000
320.570; 1203.150;  210.825;    0.000
320.631; 1243.150;  207.825;    0.000
320.691; 1215.150;  222.825;    0.000
320.751; 1276.150;  195.825;    0.000
320.812; 1253.150;  193.825;    0.000
320.872; 1335.150;  237.825;    0.000
320.932; 1253.150;  213.825;    0.000
320.993; 1263.150;  185.825;    0.000
321.053; 1286.150;  245.825;    0.000
321.113; 1246.150;  206.825;    0.000
321.174; 1267.150;  202.825;    0.000
321.234; 1310.150;  244.825;    0.000
321.294; 1233.150;  228.825;    0.000
321.355; 1255.150;  208.825;    0.000
321.415; 1219.150;  223.825;    0.000
321.475; 1241.150;  203.825;    0.000
321.535; 1305.150;  230.825;    0.000
321.596; 1206.150;  186.825;    0.000
321.656; 1271.150;  216.825;    0.000
321.716; 1315.150;  207.825;    0.000
321.776; 1252.150;  181.825;    0.000
321.837; 1294.150;  207.825;    0.000
321.897; 1331.150;  225.825;    0.000
321.957; 1257.150;  222.825;    0.000
322.017; 1247.150;  215.825;    0.000
322.077; 1272.150;  250.825;    0.000
322.138; 1289.150;  189.825;    0.000
322.198; 1295.150;  200.825;    0.000
322.258; 1338.150;  217.825;    0.000
322.318; 1193.150;  183.825;    0.000
322.378; 1318.150;  231.825;    0.000
322.438; 1284.150;  228.825;    0.000
322.499; 1407.150;  248.825;    0.000
322.559; 1251.150;  198.825;    0.000
322.619; 1268.150;  221.825;    0.000
322.679; 1295.150;  217.825;    0.000
322.739; 1262.150;  204.825;    0.000
322.799; 1263.150;  236.825;    0.000
322.859; 1245.150;  213.825;    0.000
322.919; 1278.150;  210.825;    0.000
322.979; 1301.150;  244.825;    0.000
323.039; 1237.150;  218.825;    0.000
323.099; 1189.150;  232.825;    0.000
323.159; 1282.150;  216.825;    0.000
323.219; 1275.150;  169.825;    0.000
323.279; 1250.150;  236.825;    0.000
323.339; 1318.150;  243.825;    0.000
323.399; 1364.150;  208.825;    0.000
323.459; 1363.150;  220.825;    0.000
323.519; 1375.150;  228.825;    0.000
323.579; 1301.150;  164.825;    0.000
323.639; 1295.150;  209.825;    0.000
323.699; 1306.150;  188.825;    0.000
323.759; 1285.150;  206.825;    0.000
323.819; 1297.150;  204.825;    0.000
323.879; 1330.150;  222.825;    0.000
323.939; 1283.150;  206.825;    0.000
323.999; 1247.150;  202.825;    0.000
324.059; 1238.150;  245.825;    0.000
324.119; 1252.150;  214.825;    0.000
324.178; 1273.150;  183.825;    0.000
324.238; 1251.150;  193.825;    0.000
324.298; 1289.150;  207.825;    0.000
324.358; 1287.150;  196.825;    0.000
324.418; 1316.150;  193.825;    0.000
324.478; 1292.150;  191.825;    0.000
324.538; 1253.150;  224.825;    0.000
324.597; 1356.150;  187.825;    0.000
324.657; 1247.150;  208.825;    0.000
324.717; 1304.150;  198.825;    0.000
324.777; 1250.150;  159.825;    0.000
324.837; 1222.150;  180.825;    0.000
324.896; 1266.150;  215.825;    0.000
324.956; 1291.150;  210.825;    0.000
325.016; 1278.150;  187.825;    0.000
325.076; 1339.150;  197.825;    0.000
325.135; 1313.150;  226.825;    0.000
325.195; 1239.150;  201.825;    0.000
325.255; 1257.150;  167.825;    0.000
325.315; 1281.150;  217.825;    0.000
325.374; 1251.150;  196.825;    0.000
325.434; 1332.150;  167.825;    0.000
325.494; 1273.150;  214.825;    0.000
325.553; 1278.150;  203.825;    0.000
325.613; 1290.150;  206.825;    0.000
325.673; 1209.150;  148.825;    0.000
325.732; 1272.150;  207.825;    0.000
325.792; 1262.150;  151.825;    0.000
325.852; 1305.150;  195.825;    0.000
325.911; 1239.150;  201.825;    0.000
325.971; 1328.150;  224.825;    0.000
326.031; 1226.150;  201.825;    0.000
326.090; 1273.150;  203.825;    0.000
326.150; 1266.150;  183.825;    0.000
326.209; 1293.150;  226.825;    0.000
326.269; 1206.150;  194.825;    0.000
326.328; 1287.150;  200.825;    0.000
326.388; 1278.150;  177.825;    0.000
326.448; 1301.150;  239.825;    0.000
326.507; 1294.150;  197.825;    0.000
326.567; 1293.150;  161.825;    0.000
326.626; 1275.150;  220.825;    0.000
326.686; 1287.150;  178.825;    0.000
326.745; 1274.150;  167.825;    0.000
326.805; 1287.150;  176.825;    0.000
326.864; 1206.150;  204.825;    0.000
326.924; 1277.150;  218.825;    0.000
326.983; 1251.150;  201.825;    0.000
327.043; 1321.150;  219.825;    0.000
327.102; 1215.150;  202.825;    0.000
327.161; 1263.150;  228.825;    0.000
327.221; 1172.150;  217.825;    0.000
327.280; 1217.150;  188.825;    0.000
327.340; 1292.150;  209.825;    0.000
327.399; 1265.150;  189.825;    0.000
327.459; 1293.150;  216.825;    0.000
327.518; 1256.150;  200.825;    0.000
327.577; 1268.150;  194.825;    0.000
327.637; 1222.150;  180.825;    0.000
327.696; 1240.150;  208.825;    0.000
327.755; 1264.150;  218.825;    0.000
327.815; 1246.150;  234.825;    0.000
327.874; 1304.150;  259.825;    0.000
327.933; 1273.150;  192.825;    0.000
327.993; 1282.150;  208.825;    0.000
328.052; 1236.150;  221.825;    0.000
328.111; 1283.150;  203.825;    0.000
328.171; 1242.150;  221.825;    0.000
328.230; 1284.150;  222.825;    0.000
328.289; 1255.150;  254.825;    0.000
328.349; 1236.150;  232.825;    0.000
328.408; 1213.150;  223.825;    0.000
328.467; 1251.150;  198.825;    0.000
328.526; 1274.150;  217.825;    0.000
328.586; 1217.150;  185.825;    0.000
328.645; 1260.150;  210.825;    0.000
328.704; 1250.150;  211.825;    0.000
328.763; 1307.150;  231.825;    0.000
328.822; 1203.150;  254.825;    0.000
328.882; 1278.150;  216.825;    0.000
328.941; 1260.150;  239.825;    0.000
329.000; 1239.150;  251.825;    0.000
329.059; 1291.150;  227.825;    0.000
329.118; 1275.150;  233.825;    0.000
329.177; 1279.150;  188.825;    0.000
329.237; 1278.150;  257.825;    0.000
329.296; 1247.150;  265.825;    0.000
329.355; 1323.150;  245.825;    0.000
329.414; 1309.150;  236.825;    0.000
329.473; 1271.150;  242.825;    0.000
329.532; 1283.150;  228.825;    0.000
329.591; 1271.150;  206.825;    0.000
329.650; 1269.150;  250.825;    0.000
329.709; 1278.150;  278.825;    0.000
329.768; 1231.150;  219.825;    0.000
329.827; 1333.150;  254.825;    0.000
329.886; 1271.150;  221.825;    0.000
329.945; 1292.150;  239.825;    0.000
330.004; 1263.150;  245.825;    0.000
330.063; 1313.150;  201.825;    0.000
330.122; 1264.150;  227.825;    0.000
330.181; 1299.150;  196.825;    0.000
330.240; 1280.150;  203.825;    0.000
330.299; 1251.150;  214.825;    0.000
330.358; 1206.150;  196.825;    0.000
330.417; 1252.150;  201.825;    0.000
330.476; 1251.150;  248.825;    0.000
330.535; 1274.150;  253.825;    0.000
330.594; 1323.150;  231.825;    0.000
330.653; 1159.150;  210.825;    0.000
330.712; 1348.150;  242.825;    0.000
330.771; 1295.150;  240.825;    0.000
330.830; 1263.150;  230.825;    0.000
330.889; 1241.150;  217.825;    0.000
330.948; 1269.150;  211.825;    0.000
331.006; 1250.150;  217.825;    0.000
331.065; 1219.150;  170.825;    0.000
331.124; 1311.150;  211.825;    0.000
331.183; 1238.150;  192.825;    0.000
331.242; 1216.150;  227.825;    0.000
331.301; 1245.150;  240.825;    0.000
331.359; 1249.150;  223.825;    0.000
331.418; 1207.150;  215.825;    0.000
331.477; 1247.150;  230.825;    0.000
331.536; 1290.150;  221.825;    0.000
331.595; 1236.150;  198.825;    0.000
331.653; 1230.150;  207.825;    0.000
331.712; 1203.150;  217.825;    0.000
331.771; 1207.150;  221.825;    0.000
331.830; 1203.150;  222.825;    0.000
331.888; 1148.150;  213.825;    0.000
331.947; 1179.150;  233.825;    0.000
332.006; 1253.150;  212.825;    0.000
332.065; 1247.150;  200.825;    0.000
332.123; 1231.150;  223.825;    0.000
332.182; 1222.150;  180.825;    0.000
332.241; 1173.150;  192.825;    0.000
332.299; 1218.150;  172.825;    0.000
332.358; 1225.150;  216.825;    0.000
332.417; 1257.150;  211.825;    0.000
332.475; 1235.150;  222.825;    0.000
332.534; 1260.150;  238.825;    0.000
332.592; 1261.150;  216.825;    0.000
332.651; 1244.150;  196.825;    0.000
332.710; 1256.150;  215.825;    0.000
332.768; 1245.150;  193.825;    0.000
332.827; 1264.150;  201.825;    0.000
332.885; 1244.150;  226.825;    0.000
332.944; 1222.150;  174.825;    0.000
333.003; 1250.150;  187.825;    0.000
333.061; 1248.150;  208.825;    0.000
333.120; 1342.150;  202.825;    0.000
333.178; 1392.150;  227.825;    0.000
333.237; 1359.150;  215.825;    0.000
333.295; 1361.150;  245.825;    0.000
333.354; 1308.150;  194.825;    0.000
333.412; 1267.150;  165.825;    0.000
333.471; 1276.150;  219.825;    0.000
333.529; 1325.150;  255.825;    0.000
333.588; 1398.150;  264.825;    0.000
333.646; 1424.150;  231.825;    0.000
333.705; 1447.150;  232.825;    0.000
333.763; 1406.150;  233.825;    0.000
333.822; 1394.150;  221.825;    0.000
333.880; 1343.150;  180.825;    0.000
333.938; 1360.150;  229.825;    0.000
333.997; 1331.150;  194.825;    0.000
334.055; 1367.150;  230.825;    0.000
334.114; 1363.150;  230.825;    0.000
334.172; 1339.150;  170.825;    0.000
334.230; 1332.150;  192.825;    0.000
334.289; 1385.150;  225.825;    0.000
334.347; 1355.150;  233.825;    0.000
334.405; 1363.150;  207.825;    0.000
334.464; 1245.150;  175.825;    0.000
334.522; 1296.150;  180.825;    0.000
334.580; 1312.150;  172.825;    0.000
334.639; 1347.150;  230.825;    0.000
334.697; 1307.150;  217.825;    0.000
334.755; 1298.150;  217.825;    0.000
334.814; 1286.150;  210.825;    0.000
334.872; 1326.150;  170.825;    0.000
334.930; 1271.150;  167.825;    0.000
334.988; 1317.150;  244.825;    0.000
335.047; 1323.150;  202.825;    0.000
335.105; 1329.150;  181.825;    0.000
335.163; 1359.150;  195.825;    0.000
335.221; 1381.150;  203.825;    0.000
335.280; 1286.150;  216.825;    0.000
335.338; 1331.150;  197.825;    0.000
335.396; 1316.150;  232.825;    0.000
335.454; 1219.150;  211.825;    0.000
335.512; 1296.150;  221.825;    0.000
335.570; 1297.150;  216.825;    0.000
335.629; 1351.150;  244.825;    0.000
335.687; 1380.150;  244.825;    0.000
335.745; 1391.150;  189.825;    0.000
335.803; 1424.150;  198.825;    0.000
335.861; 1404.150;  236.825;    0.000
335.919; 1433.150;  234.825;    0.000
335.977; 1396.150;  214.825;    0.000
336.035; 1341.150;  242.825;    0.000
336.094; 1414.150;  219.825;    0.000
336.152; 1302.150;  196.825;    0.000
336.210; 1458.150;  221.825;    0.000
336.268; 1340.150;  257.825;    0.000
336.326; 1310.150;  211.825;    0.000
336.384; 1353.150;  217.825;    0.000
336.442; 1369.150;  176.825;    0.000
336.500; 1345.150;  242.825;    0.000
336.558; 1320.150;  238.825;    0.000
336.616; 1407.150;  261.825;    0.000
336.674; 1342.150;  200.825;    0.000
336.732; 1358.150;  208.825;    0.000
336.790; 1320.150;  183.825;    0.000
336.848; 1398.150;  199.825;    0.000
336.906; 1367.150;  240.825;    0.000
336.964; 1399.150;  234.825;    0.000
337.022; 1393.150;  282.825;    0.000
337.080; 1388.150;  265.825;    0.000
337.138; 1403.150;  255.825;    0.000
337.195; 1381.150;  200.825;    0.000
337.253; 1311.150;  199.825;    0.000
337.311; 1378.150;  233.825;    0.000
337.369; 1304.150;  250.825;    0.000
337.427; 1269.150;  201.825;    0.000
337.485; 1360.150;  228.825;    0.000
337.543; 1337.150;  221.825;    0.000
337.601; 1379.150;  232.825;    0.000
337.658; 1276.150;  215.825;    0.000
337.716; 1290.150;  198.825;    0.000
337.774; 1368.150;  262.825;    0.000
337.832; 1290.150;  220.825;    0.000
337.890; 1257.150;  194.825;    0.000
337.947; 1248.150;  205.825;    0.000
338.005; 1285.150;  229.825;    0.000
338.063; 1268.150;  237.825;    0.000
338.121; 1371.150;  220.825;    0.000
338.178; 1346.150;  227.825;    0.000
338.236; 1348.150;  238.825;    0.000
338.294; 1332.150;  242.825;    0.000
338.352; 1312.150;  230.825;    0.000
338.409; 1343.150;  222.825;    0.000
338.467; 1311.150;  233.825;    0.000
338.525; 1300.150;  253.825;    0.000
338.583; 1278.150;  221.825;    0.000
338.640; 1290.150;  225.825;    0.000
338.698; 1265.150;  229.825;    0.000
338.756; 1333.150;  238.825;    0.000
338.813; 1334.150;  260.825;    0.000
338.871; 1361.150;  246.825;    0.000
338.928; 1403.150;  240.825;    0.000
338.986; 1360.150;  228.825;    0.000
339.044; 1344.150;  265.825;    0.000
339.101; 1289.150;  224.825;    0.000
339.159; 1244.150;  235.825;    0.000
339.216; 1287.150;  244.825;    0.000
339.274; 1320.150;  266.825;    0.000
339.332; 1306.150;  248.825;    0.000
339.389; 1264.150;  246.825;    0.000
339.447; 1348.150;  237.825;    0.000
339.504; 1291.150;  244.825;    0.000
339.562; 1312.150;  249.825;    0.000
339.619; 1353.150;  266.825;    0.000
339.677; 1300.150;  263.825;    0.000
339.734; 1280.150;  216.825;    0.000
339.792; 1323.150;  276.825;    0.000
339.849; 1294.150;  240.825;    0.000
339.907; 1310.150;  275.825;    0.000
339.964; 1358.150;  243.825;    0.000
340.022; 1364.150;  224.825;    0.000
340.079; 1343.150;  230.825;    0.000
340.137; 1403.150;  232.825;    0.000
340.194; 1341.150;  261.825;    0.000
340.252; 1317.150;  219.825;    0.000
340.309; 1314.150;  212.825;    0.000
340.366; 1257.150;  231.825;    0.000
340.424; 1299.150;  244.825;    0.000
340.481; 1348.150;  238.825;    0.000
340.538; 1362.150;  217.825;    0.000
340.596; 1293.150;  224.825;    0.000
340.653; 1340.150;  225.825;    0.000
340.711; 1415.150;  276.825;    0.000
340.768; 1402.150;  239.825;    0.000
340.825; 1315.150;  216.825;    0.000
340.883; 1346.150;  264.825;    0.000
340.940; 1340.150;  256.825;    0.000
340.997; 1271.150;  230.825;    0.000
341.054; 1301.150;  229.825;    0.000
341.112; 1313.150;  220.825;    0.000
341.169; 1393.150;  276.825;    0.000
341.226; 1350.150;  224.825;    0.000
341.284; 1357.150;  235.825;    0.000
341.341; 1402.150;  226.825;    0.000
341.398; 1374.150;  200.825;    0.000
341.455; 1350.150;  242.825;    0.000
341.512; 1361.150;  226.825;    0.000
341.570; 1374.150;  299.825;    0.000
341.627; 1367.150;  221.825;    0.000
341.684; 1309.150;  204.825;    0.000
341.741; 1445.150;  285.825;    0.000
341.798; 1348.150;  237.825;    0.000
341.856; 1361.150;  223.825;    0.000
341.913; 1395.150;  232.825;    0.000
341.970; 1362.150;  250.825;    0.000
342.027; 1416.150;  272.825;    0.000
342.084; 1348.150;  242.825;    0.000
342.141; 1294.150;  207.825;    0.000
342.198; 1453.150;  252.825;    0.000
342.255; 1355.150;  189.825;    0.000
342.313; 1412.150;  222.825;    0.000
342.370; 1338.150;  203.825;    0.000
342.427; 1353.150;  261.825;    0.000
342.484; 1316.150;  230.825;    0.000
342.541; 1331.150;  224.825;    0.000
342.598; 1372.150;  245.825;    0.000
342.655; 1383.150;  235.825;    0.000
342.712; 1324.150;  238.825;    0.000
342.769; 1368.150;  235.825;    0.000
342.826; 1299.150;  232.825;    0.000
342.883; 1374.150;  212.825;    0.000
342.940; 1235.150;  189.825;    0.000
342.997; 1292.150;  241.825;    0.000
343.054; 1332.150;  235.825;    0.000
343.111; 1287.150;  216.825;    0.000
343.168; 1317.150;  202.825;    0.000
343.225; 1405.150;  228.825;    0.000
343.282; 1322.150;  208.825;    0.000
343.339; 1416.150;  241.825;    0.000
343.395; 1347.150;  206.825;    0.000
343.452; 1462.150;  227.825;    0.000
343.509; 1356.150;  212.825;    0.000
343.566; 1389.150;  266.825;    0.000
343.623; 1396.150;  240.825;    0.000
343.680; 1357.150;  215.825;    0.000
343.737; 1327.150;  231.825;    0.000
343.794; 1330.150;  256.825;    0.000
343.850; 1298.150;  235.825;    0.000
343.907; 1360.150;  246.825;    0.000
343.964; 1332.150;  241.825;    0.000
344.021; 1359.150;  237.825;    0.000
344.078; 1407.150;  248.825;    0.000
344.134; 1421.150;  225.825;    0.000
344.191; 1368.150;  209.825;    0.000
344.248; 1352.150;  234.825;    0.000
344.305; 1453.150;  224.825;    0.000
344.361; 1359.150;  194.825;    0.000
344.418; 1398.150;  240.825;    0.000
344.475; 1370.150;  252.825;    0.000
344.532; 1398.150;  251.825;    0.000
344.588; 1334.150;  240.825;    0.000
344.645; 1385.150;  253.825;    0.000
344.702; 1347.150;  216.825;    0.000
344.758; 1415.150;  258.825;    0.000
344.815; 1353.150;  239.825;    0.000
344.872; 1405.150;  216.825;    0.000
344.928; 1374.150;  236.825;    0.000
344.985; 1369.150;  238.825;    0.000
345.042; 1397.150;  211.825;    0.000
345.098; 1396.150;  223.825;    0.000
345.155; 1360.150;  266.825;    0.000
345.212; 1349.150;  266.825;    0.000
345.268; 1374.150;  245.825;    0.000
345.325; 1452.150;  225.825;    0.000
345.381; 1342.150;  223.825;    0.000
345.438; 1524.150;  259.825;    0.000
345.495; 1436.150;  233.825;    0.000
345.551; 1415.150;  254.825;    0.000
345.608; 1356.150;  212.825;    0.000
345.664; 1421.150;  225.825;    0.000
345.721; 1412.150;  223.825;    0.000
345.777; 1314.150;  226.825;    0.000
345.834; 1323.150;  215.825;    0.000
345.890; 1400.150;  230.825;    0.000
345.947; 1390.150;  232.825;    0.000
346.003; 1382.150;  241.825;    0.000
346.060; 1403.150;  241.825;    0.000
346.116; 1401.150;  231.825;    0.000
346.173; 1414.150;  229.825;    0.000
346.229; 1371.150;  262.825;    0.000
346.285; 1407.150;  232.825;    0.000
346.342; 1369.150;  228.825;    0.000
346.398; 1374.150;  203.825;    0.000
346.455; 1463.150;  214.825;    0.000
346.511; 1405.150;  245.825;    0.000
346.567; 1451.150;  192.825;    0.000
346.624; 1416.150;  206.825;    0.000
346.680; 1485.150;  209.825;    0.000
346.737; 1387.150;  239.825;    0.000
346.793; 1374.150;  234.825;    0.000
346.849; 1455.150;  252.825;    0.000
346.906; 1482.150;  247.825;    0.000
346.962; 1472.150;  274.825;    0.000
347.018; 1437.150;  225.825;    0.000
347.074; 1473.150;  261.825;    0.000
347.131; 1451.150;  230.825;    0.000
347.187; 1427.150;  269.825;    0.000
347.243; 1446.150;  261.825;    0.000
347.300; 1464.150;  236.825;    0.000
347.356; 1424.150;  284.825;    0.000
347.412; 1451.150;  243.825;    0.000
347.468; 1487.150;  276.825;    0.000
347.524; 1405.150;  232.825;    0.000
347.581; 1424.150;  242.825;    0.000
347.637; 1422.150;  270.825;    0.000
347.693; 1423.150;  269.825;    0.000
347.749; 1387.150;  278.825;    0.000
347.805; 1366.150;  224.825;    0.000
347.862; 1344.150;  207.825;    0.000
347.918; 1351.150;  259.825;    0.000
347.974; 1451.150;  244.825;    0.000
348.030; 1373.150;  219.825;    0.000
348.086; 1361.150;  250.825;    0.000
348.142; 1434.150;  251.825;    0.000
348.198; 1401.150;  267.825;    0.000
348.254; 1457.150;  230.825;    0.000
348.311; 1388.150;  261.825;    0.000
348.367; 1448.150;  259.825;    0.000
348.423; 1325.150;  251.825;    0.000
348.479; 1392.150;  251.825;    0.000
348.535; 1348.150;  269.825;    0.000
348.591; 1388.150;  238.825;    0.000
348.647; 1358.150;  273.825;    0.000
348.703; 1264.150;  291.825;    0.000
348.759; 1354.150;  231.825;    0.000
348.815; 1356.150;  286.825;    0.000
348.871; 1338.150;  265.825;    0.000
348.927; 1321.150;  234.825;    0.000
348.983; 1376.150;  267.825;    0.000
349.039; 1339.150;  233.825;    0.000
349.095; 1364.150;  225.825;    0.000
349.151; 1383.150;  242.825;    0.000
349.207; 1346.150;  223.825;    0.000
349.263; 1330.150;  219.825;    0.000
349.319; 1453.150;  226.825;    0.000
349.374; 1438.150;  232.825;    0.000
349.430; 1391.150;  235.825;    0.000
349.486; 1463.150;  227.825;    0.000
349.542; 1457.150;  253.825;    0.000
349.598; 1454.150;  227.825;    0.000
349.654; 1407.150;  270.825;    0.000
349.710; 1375.150;  233.825;    0.000
349.766; 1467.150;  245.825;    0.000
349.821; 1382.150;  242.825;    0.000
349.877; 1469.150;  229.825;    0.000
349.933; 1491.150;  229.825;    0.000
349.989; 1465.150;  230.825;    0.000
350.045; 1337.150;  236.825;    0.000
350.100; 1381.150;  237.825;    0.000
350.156; 1384.150;  230.825;    0.000
350.212; 1351.150;  254.825;    0.000
350.268; 1390.150;  239.825;    0.000
350.323; 1322.150;  204.825;    0.000
350.379; 1420.150;  246.825;    0.000
350.435; 1414.150;  249.825;    0.000
350.491; 1381.150;  217.825;    0.000
350.546; 1401.150;  231.825;    0.000
350.602; 1375.150;  240.825;    0.000
350.658; 1322.150;  235.825;    0.000
350.713; 1417.150;  234.825;    0.000
350.769; 1368.150;  218.825;    0.000
350.825; 1342.150;  227.825;    0.000
350.880; 1407.150;  226.825;    0.000
350.936; 1385.150;  247.825;    0.000
350.992; 1378.150;  213.825;    0.000
351.047; 1418.150;  207.825;    0.000
351.103; 1413.150;  271.825;    0.000
351.158; 1395.150;  251.825;    0.000
351.214; 1344.150;  199.825;    0.000
351.270; 1339.150;  214.825;    0.000
351.325; 1365.150;  235.825;    0.000
351.381; 1422.150;  223.825;    0.000
351.436; 1445.150;  237.825;    0.000
351.492; 1372.150;  221.825;    0.000
351.547; 1473.150;  237.825;    0.000
351.603; 1560.150;  239.825;    0.000
351.658; 1455.150;  209.825;    0.000
351.714; 1348.150;  226.825;    0.000
351.769; 1402.150;  238.825;    0.000
351.825; 1446.150;  226.825;    0.000
351.880; 1400.150;  217.825;    0.000
351.936; 1483.150;  246.825;    0.000
351.991; 1424.150;  233.825;    0.000
352.047; 1467.150;  215.825;    0.000
352.102; 1365.150;  243.825;    0.000
352.158; 1390.150;  234.825;    0.000
352.213; 1379.150;  201.825;    0.000
352.268; 1406.150;  234.825;    0.000
352.324; 1439.150;  211.825;    0.000
352.379; 1414.150;  221.825;    0.000
352.434; 1437.150;  259.825;    0.000
352.490; 1421.150;  250.825;    0.000
352.545; 1365.150;  251.825;    0.000
352.601; 1425.150;  283.825;    0.000
352.656; 1413.150;  236.825;    0.000
352.711; 1366.150;  237.825;    0.000
352.767; 1352.150;  201.825;    0.000
352.822; 1358.150;  209.825;    0.000
352.877; 1372.150;  239.825;    0.000
352.932; 1318.150;  228.825;    0.000
352.988; 1349.150;  202.825;    0.000
353.043; 1410.150;  268.825;    0.000
353.098; 1407.150;  208.825;    0.000
353.153; 1430.150;  219.825;    0.000
353.209; 1397.150;  252.825;    0.000
353.264; 1344.150;  225.825;    0.000
353.319; 1333.150;  234.825;    0.000
353.374; 1389.150;  236.825;    0.000
353.430; 1327.150;  245.825;    0.000
353.485; 1364.150;  238.825;    0.000
353.540; 1334.150;  238.825;    0.000
353.595; 1318.150;  215.825;    0.000
353.650; 1388.150;  238.825;    0.000
353.705; 1373.150;  274.825;    0.000
353.761; 1356.150;  229.825;    0.000
353.816; 1375.150;  275.825;    0.000
353.871; 1359.150;  245.825;    0.000
353.926; 1336.150;  253.825;    0.000
353.981; 1346.150;  269.825;    0.000
354.036; 1372.150;  246.825;    0.000
354.091; 1373.150;  257.825;    0.000
354.146; 1297.150;  278.825;    0.000
354.201; 1400.150;  276.825;    0.000
354.256; 1457.150;  224.825;    0.000
354.311; 1450.150;  287.825;    0.000
354.367; 1432.150;  210.825;    0.000
354.422; 1444.150;  231.825;    0.000
354.477; 1392.150;  226.825;    0.000
354.532; 1432.150;  262.825;    0.000
354.587; 1427.150;  275.825;    0.000
354.642; 1372.150;  247.825;    0.000
354.697; 1386.150;  251.825;    0.000
354.751; 1408.150;  249.825;    0.000
354.806; 1350.150;  217.825;    0.000
354.861; 1407.150;  247.825;    0.000
354.916; 1392.150;  259.825;    0.000
354.971; 1361.150;  241.825;    0.000
355.026; 1432.150;  250.825;    0.000
355.081; 1373.150;  244.825;    0.000
355.136; 1363.150;  203.825;    0.000
355.191; 1446.150;  241.825;    0.000
355.246; 1444.150;  248.825;    0.000
355.301; 1362.150;  259.825;    0.000
355.355; 1432.150;  236.825;    0.000
355.410; 1395.150;  221.825;    0.000
355.465; 1423.150;  206.825;    0.000
355.520; 1412.150;  258.825;    0.000
355.575; 1387.150;  273.825;    0.000
355.630; 1394.150;  252.825;    0.000
355.684; 1385.150;  246.825;    0.000
355.739; 1359.150;  251.825;    0.000
355.794; 1412.150;  247.825;    0.000
355.849; 1331.150;  246.825;    0.000
355.904; 1329.150;  262.825;    0.000
355.958; 1352.150;  249.825;    0.000
356.013; 1341.150;  213.825;    0.000
356.068; 1370.150;  255.825;    0.000
356.123; 1375.150;  205.825;    0.000
356.177; 1348.150;  239.825;    0.000
356.232; 1432.150;  258.825;    0.000
356.287; 1410.150;  248.825;    0.000
356.341; 1393.150;  221.825;    0.000
356.396; 1317.150;  220.825;    0.000
356.451; 1386.150;  231.825;    0.000
356.505; 1386.150;  231.825;    0.000
356.560; 1409.150;  254.825;    0.000
356.615; 1328.150;  234.825;    0.000
356.669; 1362.150;  250.825;    0.000
356.724; 1367.150;  261.825;    0.000
356.778; 1387.150;  207.825;    0.000
356.833; 1322.150;  205.825;    0.000
356.888; 1386.150;  235.825;    0.000
356.942; 1383.150;  205.825;    0.000
356.997; 1341.150;  276.825;    0.000
357.051; 1317.150;  243.825;    0.000
357.106; 1401.150;  242.825;    0.000
357.160; 1355.150;  241.825;    0.000
357.215; 1301.150;  212.825;    0.000
357.269; 1328.150;  238.825;    0.000
357.324; 1344.150;  223.825;    0.000
357.378; 1382.150;  221.825;    0.000
357.433; 1357.150;  262.825;    0.000
357.487; 1354.150;  246.825;    0.000
357.542; 1370.150;  221.825;    0.000
357.596; 1338.150;  225.825;    0.000
357.651; 1423.150;  244.825;    0.000
357.705; 1288.150;  269.825;    0.000
357.760; 1371.150;  209.825;    0.000
357.814; 1373.150;  250.825;    0.000
357.868; 1363.150;  266.825;    0.000
357.923; 1397.150;  248.825;    0.000
357.977; 1348.150;  262.825;    0.000
358.032; 1387.150;  228.825;    0.000
358.086; 1402.150;  257.825;    0.000
358.140; 1403.150;  217.825;    0.000
358.195; 1376.150;  246.825;    0.000
358.249; 1400.150;  255.825;    0.000
358.303; 1425.150;  252.825;    0.000
358.358; 1377.150;  278.825;    0.000
358.412; 1391.150;  276.825;    0.000
358.466; 1338.150;  275.825;    0.000
358.521; 1336.150;  229.825;    0.000
358.575; 1364.150;  270.825;    0.000
358.629; 1354.150;  239.825;    0.000
358.683; 1325.150;  254.825;    0.000
358.738; 1295.150;  239.825;    0.000
358.792; 1300.150;  272.825;    0.000
358.846; 1354.150;  289.825;    0.000
358.900; 1325.150;  299.825;    0.000
358.954; 1262.150;  247.825;    0.000
359.009; 1397.150;  245.825;    0.000
359.063; 1340.150;  272.825;    0.000
359.117; 1385.150;  242.825;    0.000
359.171; 1326.150;  279.825;    0.000
359.225; 1323.150;  221.825;    0.000
359.280; 1352.150;  238.825;    0.000
359.334; 1332.150;  264.825;    0.000
359.388; 1368.150;  273.825;    0.000
359.442; 1369.150;  233.825;    0.000
359.496; 1273.150;  226.825;    0.000
359.550; 1338.150;  271.825;    0.000
359.604; 1348.150;  296.825;    0.000
359.658; 1324.150;  252.825;    0.000
359.712; 1394.150;  256.825;    0.000
359.766; 1328.150;  257.825;    0.000
359.820; 1363.150;  239.825;    0.000
359.875; 1298.150;  252.825;    0.000
359.929; 1340.150;  258.825;    0.000
359.983; 1353.150;  232.825;    0.000
360.037; 1380.150;  268.825;    0.000
360.091; 1381.150;  303.825;    0.000
360.145; 1321.150;  232.825;    0.000
360.199; 1284.150;  255.825;    0.000
360.253; 1322.150;  252.825;    0.000
360.306; 1284.150;  278.825;    0.000
360.360; 1280.150;  249.825;    0.000
360.414; 1276.150;  274.825;    0.000
360.468; 1338.150;  247.825;    0.000
360.522; 1277.150;  268.825;    0.000
360.576; 1308.150;  263.825;    0.000
360.630; 1350.150;  296.825;    0.000
360.684; 1326.150;  253.825;    0.000
360.738; 1313.150;  301.825;    0.000
360.792; 1318.150;  282.825;    0.000
360.846; 1338.150;  277.825;    0.000
360.899; 1347.150;  292.825;    0.000
360.953; 1311.150;  266.825;    0.000
361.007; 1384.150;  240.825;    0.000
361.061; 1323.150;  247.825;    0.000
361.115; 1331.150;  276.825;    0.000
361.168; 1365.150;  288.825;    0.000
361.222; 1305.150;  271.825;    0.000
361.276; 1286.150;  270.825;    0.000
361.330; 1315.150;  295.825;    0.000
361.384; 1259.150;  276.825;    0.000
361.437; 1332.150;  280.825;    0.000
361.491; 1298.150;  261.825;    0.000
361.545; 1379.150;  273.825;    0.000
361.599; 1329.150;  269.825;    0.000
361.652; 1345.150;  258.825;    0.000
361.706; 1318.150;  270.825;    0.000
361.760; 1307.150;  294.825;    0.000
361.813; 1311.150;  244.825;    0.000
361.867; 1328.150;  294.825;    0.000
361.921; 1318.150;  285.825;    0.000
361.974; 1291.150;  269.825;    0.000
362.028; 1295.150;  275.825;    0.000
362.082; 1317.150;  270.825;    0.000
362.135; 1286.150;  259.825;    0.000
362.189; 1293.150;  302.825;    0.000
362.242; 1343.150;  296.825;    0.000
362.296; 1355.150;  285.825;    0.000
362.350; 1306.150;  303.825;    0.000
362.403; 1401.150;  271.825;    0.000
362.457; 1358.150;  285.825;    0.000
362.510; 1345.150;  288.825;    0.000
362.564; 1297.150;  268.825;    0.000
362.617; 1297.150;  285.825;    0.000
362.671; 1334.150;  277.825;    0.000
362.724; 1251.150;  242.825;    0.000
362.778; 1270.150;  274.825;    0.000
362.831; 1316.150;  280.825;    0.000
362.885; 1306.150;  284.825;    0.000
362.938; 1253.150;  276.825;    0.000
362.992;  309.150;  289.825;    0.000
363.045;  277.150;  247.825;    0.000
363.099;  294.150;  260.825;    0.000
363.152;  275.150;  258.825;    0.000
363.205;  268.150;  286.825;    0.000
363.259;  236.150;  236.825;    0.000
363.312;  318.150;  297.825;    0.000
363.366;  297.150;  266.825;    0.000
363.419;  309.150;  309.825;    0.000
363.472;  282.150;  293.825;    0.000
363.526;  268.150;  270.825;    0.000
363.579;  285.150;  276.825;    0.000
363.632;  282.150;  279.825;    0.000
363.686;  264.150;  292.825;    0.000
363.739;  255.150;  248.825;    0.000
363.792;  272.150;  287.825;    0.000

