
Integration time [ms]:   1.000
Averaging Nr. [scans]: 1
Smoothing Nr. [pixels]: 0
Data measured with spectrometer [name]: UV1
Wave   ;Sample   ;Dark     ;Reference
[nm]   ;[counts] ;[counts] ;[counts] 

236.381;  138.725;  175.825;    0.000
236.451;  200.725;  220.825;    0.000
236.520;  168.725;  178.825;    0.000
236.590;  199.725;  182.825;    0.000
236.660;  185.725;  180.825;    0.000
236.730;  162.725;  201.825;    0.000
236.799;  185.725;  168.825;    0.000
236.869;  193.725;  205.825;    0.000
236.939;  197.725;  175.825;    0.000
237.009;  184.725;  186.825;    0.000
237.078;  182.725;  200.825;    0.000
237.148;  148.725;  156.825;    0.000
237.218;  182.725;  190.825;    0.000
237.287;  166.725;  167.825;    0.000
237.357;  199.725;  213.825;    0.000
237.427;  174.725;  164.825;    0.000
237.496;  485.725;  210.825;    0.000
237.566;  460.725;  193.825;    0.000
237.636;  450.725;  179.825;    0.000
237.705;  447.725;  218.825;    0.000
237.775;  432.725;  160.825;    0.000
237.845;  468.725;  207.825;    0.000
237.914;  461.725;  180.825;    0.000
237.984;  478.725;  207.825;    0.000
238.054;  445.725;  149.825;    0.000
238.123;  467.725;  190.825;    0.000
238.193;  427.725;  167.825;    0.000
238.263;  480.725;  172.825;    0.000
238.332;  404.725;  173.825;    0.000
238.402;  422.725;  214.825;    0.000
238.471;  425.725;  181.825;    0.000
238.541;  471.725;  177.825;    0.000
238.611;  437.725;  138.825;    0.000
238.680;  415.725;  168.825;    0.000
238.750;  476.725;  171.825;    0.000
238.819;  498.725;  156.825;    0.000
238.889;  413.725;  194.825;    0.000
238.958;  410.725;  185.825;    0.000
239.028;  453.725;  170.825;    0.000
239.097;  429.725;  159.825;    0.000
239.167;  486.725;  208.825;    0.000
239.237;  476.725;  167.825;    0.000
239.306;  370.725;  154.825;    0.000
239.376;  496.725;  183.825;    0.000
239.445;  428.725;  221.825;    0.000
239.515;  396.725;  208.825;    0.000
239.584;  443.725;  177.825;    0.000
239.654;  420.725;  133.825;    0.000
239.723;  443.725;  167.825;    0.000
239.793;  423.725;  190.825;    0.000
239.862;  397.725;  192.825;    0.000
239.932;  411.725;  174.825;    0.000
240.001;  435.725;  166.825;    0.000
240.070;  429.725;  179.825;    0.000
240.140;  465.725;  191.825;    0.000
240.209;  436.725;  134.825;    0.000
240.279;  433.725;  185.825;    0.000
240.348;  457.725;  193.825;    0.000
240.418;  456.725;  149.825;    0.000
240.487;  432.725;  197.825;    0.000
240.556;  441.725;  193.825;    0.000
240.626;  470.725;  178.825;    0.000
240.695;  446.725;  194.825;    0.000
240.765;  411.725;  178.825;    0.000
240.834;  437.725;  190.825;    0.000
240.903;  440.725;  212.825;    0.000
240.973;  442.725;  153.825;    0.000
241.042;  404.725;  177.825;    0.000
241.112;  465.725;  193.825;    0.000
241.181;  430.725;  171.825;    0.000
241.250;  385.725;  152.825;    0.000
241.320;  414.725;  176.825;    0.000
241.389;  423.725;  186.825;    0.000
241.458;  422.725;  182.825;    0.000
241.528;  478.725;  175.825;    0.000
241.597;  462.725;  180.825;    0.000
241.666;  384.725;  162.825;    0.000
241.736;  461.725;  187.825;    0.000
241.805;  406.725;  173.825;    0.000
241.874;  430.725;  177.825;    0.000
241.943;  418.725;  208.825;    0.000
242.013;  475.725;  183.825;    0.000
242.082;  450.725;  171.825;    0.000
242.151;  380.725;  208.825;    0.000
242.221;  392.725;  160.825;    0.000
242.290;  444.725;  200.825;    0.000
242.359;  369.725;  167.825;    0.000
242.428;  456.725;  213.825;    0.000
242.498;  395.725;  156.825;    0.000
242.567;  447.725;  200.825;    0.000
242.636;  403.725;  178.825;    0.000
242.705;  402.725;  185.825;    0.000
242.774;  439.725;  190.825;    0.000
242.844;  397.725;  194.825;    0.000
242.913;  423.725;  162.825;    0.000
242.982;  377.725;  189.825;    0.000
243.051;  410.725;  176.825;    0.000
243.120;  431.725;  213.825;    0.000
243.190;  432.725;  155.825;    0.000
243.259;  457.725;  183.825;    0.000
243.328;  418.725;  170.825;    0.000
243.397;  412.725;  224.825;    0.000
243.466;  405.725;  172.825;    0.000
243.535;  463.725;  145.825;    0.000
243.605;  414.725;  157.825;    0.000
243.674;  444.725;  199.825;    0.000
243.743;  445.725;  196.825;    0.000
243.812;  384.725;  152.825;    0.000
243.881;  427.725;  188.825;    0.000
243.950;  394.725;  154.825;    0.000
244.019;  409.725;  195.825;    0.000
244.088;  452.725;  164.825;    0.000
244.158;  453.725;  220.825;    0.000
244.227;  439.725;  150.825;    0.000
244.296;  398.725;  153.825;    0.000
244.365;  432.725;  195.825;    0.000
244.434;  411.725;  136.825;    0.000
244.503;  360.725;  172.825;    0.000
244.572;  389.725;  129.825;    0.000
244.641;  398.725;  132.825;    0.000
244.710;  411.725;  185.825;    0.000
244.779;  381.725;  164.825;    0.000
244.848;  423.725;  132.825;    0.000
244.917;  430.725;  196.825;    0.000
244.986;  382.725;  148.825;    0.000
245.055;  419.725;  192.825;    0.000
245.124;  380.725;  170.825;    0.000
245.193;  423.725;  172.825;    0.000
245.262;  404.725;  146.825;    0.000
245.331;  400.725;  178.825;    0.000
245.400;  345.725;  108.825;    0.000
245.469;  433.725;  173.825;    0.000
245.538;  399.725;  180.825;    0.000
245.607;  441.725;  171.825;    0.000
245.676;  353.725;  149.825;    0.000
245.745;  408.725;  194.825;    0.000
245.814;  396.725;  186.825;    0.000
245.883;  379.725;  192.825;    0.000
245.952;  418.725;  169.825;    0.000
246.021;  408.725;  190.825;    0.000
246.090;  363.725;  181.825;    0.000
246.159;  395.725;  179.825;    0.000
246.227;  361.725;  182.825;    0.000
246.296;  430.725;  182.825;    0.000
246.365;  363.725;  171.825;    0.000
246.434;  431.725;  218.825;    0.000
246.503;  373.725;  147.825;    0.000
246.572;  410.725;  227.825;    0.000
246.641;  388.725;  193.825;    0.000
246.710;  379.725;  207.825;    0.000
246.779;  405.725;  181.825;    0.000
246.847;  382.725;  179.825;    0.000
246.916;  368.725;  155.825;    0.000
246.985;  367.725;  168.825;    0.000
247.054;  349.725;  137.825;    0.000
247.123;  370.725;  128.825;    0.000
247.192;  354.725;  163.825;    0.000
247.260;  353.725;  173.825;    0.000
247.329;  439.725;  174.825;    0.000
247.398;  404.725;  238.825;    0.000
247.467;  380.725;  168.825;    0.000
247.536;  446.725;  203.825;    0.000
247.604;  422.725;  194.825;    0.000
247.673;  371.725;  145.825;    0.000
247.742;  343.725;  167.825;    0.000
247.811;  403.725;  180.825;    0.000
247.879;  382.725;  187.825;    0.000
247.948;  376.725;  187.825;    0.000
248.017;  381.725;  170.825;    0.000
248.086;  419.725;  223.825;    0.000
248.154;  397.725;  160.825;    0.000
248.223;  388.725;  163.825;    0.000
248.292;  337.725;  201.825;    0.000
248.361;  412.725;  205.825;    0.000
248.429;  337.725;  191.825;    0.000
248.498;  380.725;  194.825;    0.000
248.567;  369.725;  217.825;    0.000
248.635;  440.725;  224.825;    0.000
248.704;  411.725;  204.825;    0.000
248.773;  358.725;  175.825;    0.000
248.841;  383.725;  157.825;    0.000
248.910;  392.725;  206.825;    0.000
248.979;  355.725;  170.825;    0.000
249.047;  351.725;  178.825;    0.000
249.116;  372.725;  183.825;    0.000
249.185;  397.725;  202.825;    0.000
249.253;  327.725;  159.825;    0.000
249.322;  415.725;  177.825;    0.000
249.390;  347.725;  157.825;    0.000
249.459;  377.725;  211.825;    0.000
249.528;  336.725;  181.825;    0.000
249.596;  351.725;  179.825;    0.000
249.665;  351.725;  176.825;    0.000
249.733;  399.725;  186.825;    0.000
249.802;  404.725;  185.825;    0.000
249.871;  379.725;  166.825;    0.000
249.939;  347.725;  163.825;    0.000
250.008;  387.725;  212.825;    0.000
250.076;  343.725;  227.825;    0.000
250.145;  371.725;  172.825;    0.000
250.213;  349.725;  173.825;    0.000
250.282;  353.725;  189.825;    0.000
250.350;  317.725;  166.825;    0.000
250.419;  381.725;  161.825;    0.000
250.487;  375.725;  178.825;    0.000
250.556;  386.725;  208.825;    0.000
250.624;  394.725;  190.825;    0.000
250.693;  336.725;  163.825;    0.000
250.761;  398.725;  194.825;    0.000
250.830;  393.725;  225.825;    0.000
250.898;  340.725;  140.825;    0.000
250.967;  316.725;  167.825;    0.000
251.035;  329.725;  155.825;    0.000
251.104;  358.725;  189.825;    0.000
251.172;  348.725;  136.825;    0.000
251.241;  345.725;  148.825;    0.000
251.309;  337.725;  201.825;    0.000
251.378;  362.725;  169.825;    0.000
251.446;  302.725;  178.825;    0.000
251.514;  361.725;  206.825;    0.000
251.583;  346.725;  178.825;    0.000
251.651;  362.725;  168.825;    0.000
251.720;  352.725;  190.825;    0.000
251.788;  376.725;  209.825;    0.000
251.856;  276.725;  173.825;    0.000
251.925;  342.725;  171.825;    0.000
251.993;  376.725;  188.825;    0.000
252.062;  405.725;  169.825;    0.000
252.130;  361.725;  196.825;    0.000
252.198;  365.725;  210.825;    0.000
252.267;  346.725;  181.825;    0.000
252.335;  341.725;  164.825;    0.000
252.403;  366.725;  152.825;    0.000
252.472;  356.725;  166.825;    0.000
252.540;  334.725;  189.825;    0.000
252.608;  332.725;  198.825;    0.000
252.677;  302.725;  156.825;    0.000
252.745;  366.725;  184.825;    0.000
252.813;  365.725;  163.825;    0.000
252.881;  264.725;  130.825;    0.000
252.950;  333.725;  189.825;    0.000
253.018;  322.725;  164.825;    0.000
253.086;  298.725;  172.825;    0.000
253.155;  322.725;  205.825;    0.000
253.223;  331.725;  175.825;    0.000
253.291;  328.725;  176.825;    0.000
253.359;  304.725;  182.825;    0.000
253.428;  328.725;  222.825;    0.000
253.496;  286.725;  166.825;    0.000
253.564;  275.725;  135.825;    0.000
253.632;  273.725;  184.825;    0.000
253.700;  303.725;  173.825;    0.000
253.769;  277.725;  163.825;    0.000
253.837;  278.725;  179.825;    0.000
253.905;  301.725;  157.825;    0.000
253.973;  284.725;  164.825;    0.000
254.041;  321.725;  170.825;    0.000
254.110;  288.725;  169.825;    0.000
254.178;  304.725;  165.825;    0.000
254.246;  270.725;  126.825;    0.000
254.314;  263.725;  166.825;    0.000
254.382;  300.725;  169.825;    0.000
254.450;  301.725;  170.825;    0.000
254.518;  289.725;  196.825;    0.000
254.587;  276.725;  161.825;    0.000
254.655;  309.725;  187.825;    0.000
254.723;  299.725;  144.825;    0.000
254.791;  304.725;  175.825;    0.000
254.859;  316.725;  168.825;    0.000
254.927;  321.725;  198.825;    0.000
254.995;  260.725;  165.825;    0.000
255.063;  293.725;  150.825;    0.000
255.131;  263.725;  181.825;    0.000
255.199;  299.725;  160.825;    0.000
255.267;  228.725;  131.825;    0.000
255.336;  317.725;  188.825;    0.000
255.404;  272.725;  163.825;    0.000
255.472;  323.725;  192.825;    0.000
255.540;  253.725;  158.825;    0.000
255.608;  315.725;  147.825;    0.000
255.676;  302.725;  166.825;    0.000
255.744;  329.725;  159.825;    0.000
255.812;  293.725;  164.825;    0.000
255.880;  326.725;  195.825;    0.000
255.948;  293.725;  167.825;    0.000
256.016;  288.725;  185.825;    0.000
256.084;  286.725;  191.825;    0.000
256.152;  298.725;  214.825;    0.000
256.220;  296.725;  195.825;    0.000
256.288;  306.725;  185.825;    0.000
256.356;  315.725;  168.825;    0.000
256.424;  340.725;  161.825;    0.000
256.491;  326.725;  161.825;    0.000
256.559;  299.725;  157.825;    0.000
256.627;  348.725;  164.825;    0.000
256.695;  289.725;  146.825;    0.000
256.763;  339.725;  194.825;    0.000
256.831;  340.725;  182.825;    0.000
256.899;  333.725;  192.825;    0.000
256.967;  273.725;  172.825;    0.000
257.035;  306.725;  169.825;    0.000
257.103;  333.725;  223.825;    0.000
257.171;  335.725;  141.825;    0.000
257.238;  318.725;  146.825;    0.000
257.306;  324.725;  180.825;    0.000
257.374;  346.725;  138.825;    0.000
257.442;  322.725;  135.825;    0.000
257.510;  351.725;  130.825;    0.000
257.578;  310.725;  123.825;    0.000
257.646;  365.725;  162.825;    0.000
257.713;  318.725;  149.825;    0.000
257.781;  370.725;  125.825;    0.000
257.849;  379.725;  149.825;    0.000
257.917;  334.725;  177.825;    0.000
257.985;  330.725;  143.825;    0.000
258.052;  350.725;  154.825;    0.000
258.120;  366.725;  162.825;    0.000
258.188;  353.725;  172.825;    0.000
258.256;  350.725;  160.825;    0.000
258.324;  394.725;  209.825;    0.000
258.391;  382.725;  153.825;    0.000
258.459;  404.725;  133.825;    0.000
258.527;  356.725;  160.825;    0.000
258.595;  362.725;  128.825;    0.000
258.662;  348.725;  114.825;    0.000
258.730;  398.725;  192.825;    0.000
258.798;  379.725;  144.825;    0.000
258.865;  399.725;  140.825;    0.000
258.933;  382.725;  150.825;    0.000
259.001;  397.725;  149.825;    0.000
259.069;  366.725;  110.825;    0.000
259.136;  397.725;  150.825;    0.000
259.204;  399.725;  156.825;    0.000
259.272;  414.725;  185.825;    0.000
259.339;  404.725;  148.825;    0.000
259.407;  434.725;  163.825;    0.000
259.475;  402.725;  129.825;    0.000
259.542;  423.725;  144.825;    0.000
259.610;  402.725;  164.825;    0.000
259.677;  453.725;  188.825;    0.000
259.745;  402.725;  113.825;    0.000
259.813;  454.725;  188.825;    0.000
259.880;  445.725;  174.825;    0.000
259.948;  464.725;  166.825;    0.000
260.016;  468.725;  150.825;    0.000
260.083;  478.725;  178.825;    0.000
260.151;  434.725;  120.825;    0.000
260.218;  456.725;  175.825;    0.000
260.286;  487.725;  155.825;    0.000
260.353;  469.725;  165.825;    0.000
260.421;  490.725;  169.825;    0.000
260.489;  480.725;  194.825;    0.000
260.556;  479.725;  161.825;    0.000
260.624;  465.725;  179.825;    0.000
260.691;  480.725;  174.825;    0.000
260.759;  518.725;  164.825;    0.000
260.826;  471.725;  125.825;    0.000
260.894;  495.725;  164.825;    0.000
260.961;  518.725;  147.825;    0.000
261.029;  489.725;  167.825;    0.000
261.096;  542.725;  136.825;    0.000
261.164;  501.725;  146.825;    0.000
261.231;  547.725;  190.825;    0.000
261.299;  510.725;  171.825;    0.000
261.366;  538.725;  165.825;    0.000
261.434;  560.725;  160.825;    0.000
261.501;  528.725;  149.825;    0.000
261.568;  525.725;  155.825;    0.000
261.636;  524.725;  137.825;    0.000
261.703;  530.725;  186.825;    0.000
261.771;  531.725;  162.825;    0.000
261.838;  585.725;  190.825;    0.000
261.906;  492.725;  133.825;    0.000
261.973;  545.725;  202.825;    0.000
262.040;  572.725;  179.825;    0.000
262.108;  505.725;  161.825;    0.000
262.175;  546.725;  155.825;    0.000
262.243;  595.725;  158.825;    0.000
262.310;  648.725;  129.825;    0.000
262.377;  553.725;  157.825;    0.000
262.445;  558.725;  132.825;    0.000
262.512;  560.725;  161.825;    0.000
262.579;  543.725;  151.825;    0.000
262.647;  569.725;  174.825;    0.000
262.714;  620.725;  174.825;    0.000
262.781;  558.725;  164.825;    0.000
262.849;  557.725;  168.825;    0.000
262.916;  581.725;  153.825;    0.000
262.983;  596.725;  201.825;    0.000
263.051;  565.725;  117.825;    0.000
263.118;  622.725;  150.825;    0.000
263.185;  612.725;  172.825;    0.000
263.252;  604.725;  154.825;    0.000
263.320;  595.725;  152.825;    0.000
263.387;  580.725;  136.825;    0.000
263.454;  604.725;  167.825;    0.000
263.522;  599.725;  122.825;    0.000
263.589;  663.725;  147.825;    0.000
263.656;  685.725;  130.825;    0.000
263.723;  613.725;  182.825;    0.000
263.790;  647.725;  163.825;    0.000
263.858;  677.725;  161.825;    0.000
263.925;  643.725;  153.825;    0.000
263.992;  650.725;  139.825;    0.000
264.059;  676.725;  141.825;    0.000
264.126;  693.725;  153.825;    0.000
264.194;  646.725;  144.825;    0.000
264.261;  655.725;  188.825;    0.000
264.328;  662.725;  161.825;    0.000
264.395;  655.725;  184.825;    0.000
264.462;  632.725;  162.825;    0.000
264.529;  662.725;  178.825;    0.000
264.597;  665.725;  160.825;    0.000
264.664;  630.725;  158.825;    0.000
264.731;  711.725;  176.825;    0.000
264.798;  663.725;  137.825;    0.000
264.865;  666.725;  175.825;    0.000
264.932;  658.725;  162.825;    0.000
264.999;  710.725;  153.825;    0.000
265.066;  685.725;  168.825;    0.000
265.133;  675.725;  142.825;    0.000
265.201;  708.725;  163.825;    0.000
265.268;  722.725;  143.825;    0.000
265.335;  674.725;  156.825;    0.000
265.402;  680.725;  136.825;    0.000
265.469;  703.725;  127.825;    0.000
265.536;  715.725;  159.825;    0.000
265.603;  764.725;  191.825;    0.000
265.670;  726.725;  136.825;    0.000
265.737;  685.725;  186.825;    0.000
265.804;  737.725;  147.825;    0.000
265.871;  763.725;  147.825;    0.000
265.938;  773.725;  153.825;    0.000
266.005;  746.725;  172.825;    0.000
266.072;  712.725;  151.825;    0.000
266.139;  760.725;  175.825;    0.000
266.206;  727.725;  165.825;    0.000
266.273;  776.725;  162.825;    0.000
266.340;  726.725;  150.825;    0.000
266.407;  763.725;  169.825;    0.000
266.474;  735.725;  151.825;    0.000
266.541;  765.725;  164.825;    0.000
266.608;  743.725;  111.825;    0.000
266.675;  816.725;  173.825;    0.000
266.742;  737.725;  148.825;    0.000
266.808;  779.725;  185.825;    0.000
266.875;  822.725;  188.825;    0.000
266.942;  779.725;  131.825;    0.000
267.009;  787.725;  184.825;    0.000
267.076;  794.725;  200.825;    0.000
267.143;  731.725;  216.825;    0.000
267.210;  764.725;  138.825;    0.000
267.277;  759.725;  143.825;    0.000
267.344;  799.725;  172.825;    0.000
267.410;  798.725;  172.825;    0.000
267.477;  821.725;  160.825;    0.000
267.544;  825.725;  175.825;    0.000
267.611;  807.725;  189.825;    0.000
267.678;  767.725;  162.825;    0.000
267.745;  862.725;  206.825;    0.000
267.811;  820.725;  146.825;    0.000
267.878;  802.725;  147.825;    0.000
267.945;  769.725;  170.825;    0.000
268.012;  793.725;  153.825;    0.000
268.079;  810.725;  185.825;    0.000
268.145;  881.725;  197.825;    0.000
268.212;  710.725;  167.825;    0.000
268.279;  814.725;  145.825;    0.000
268.346;  824.725;  182.825;    0.000
268.412;  820.725;  144.825;    0.000
268.479;  794.725;  186.825;    0.000
268.546;  850.725;  147.825;    0.000
268.613;  814.725;  188.825;    0.000
268.679;  821.725;  173.825;    0.000
268.746;  827.725;  204.825;    0.000
268.813;  798.725;  199.825;    0.000
268.879;  736.725;  157.825;    0.000
268.946;  844.725;  192.825;    0.000
269.013;  804.725;  136.825;    0.000
269.079;  795.725;  166.825;    0.000
269.146;  788.725;  129.825;    0.000
269.213;  785.725;  178.825;    0.000
269.280;  849.725;  148.825;    0.000
269.346;  827.725;  194.825;    0.000
269.413;  733.725;  135.825;    0.000
269.479;  787.725;  180.825;    0.000
269.546;  862.725;  169.825;    0.000
269.613;  798.725;  160.825;    0.000
269.679;  861.725;  161.825;    0.000
269.746;  738.725;  143.825;    0.000
269.813;  783.725;  172.825;    0.000
269.879;  788.725;  152.825;    0.000
269.946;  798.725;  156.825;    0.000
270.012;  828.725;  190.825;    0.000
270.079;  788.725;  143.825;    0.000
270.145;  753.725;  148.825;    0.000
270.212;  811.725;  176.825;    0.000
270.279;  846.725;  168.825;    0.000
270.345;  819.725;  143.825;    0.000
270.412;  821.725;  155.825;    0.000
270.478;  788.725;  176.825;    0.000
270.545;  817.725;  112.825;    0.000
270.611;  750.725;  186.825;    0.000
270.678;  747.725;  141.825;    0.000
270.744;  752.725;  145.825;    0.000
270.811;  769.725;  120.825;    0.000
270.877;  818.725;  118.825;    0.000
270.944;  808.725;  135.825;    0.000
271.010;  831.725;  128.825;    0.000
271.077;  813.725;  176.825;    0.000
271.143;  820.725;  162.825;    0.000
271.210;  818.725;  133.825;    0.000
271.276;  799.725;  107.825;    0.000
271.342;  831.725;  202.825;    0.000
271.409;  794.725;  160.825;    0.000
271.475;  753.725;  165.825;    0.000
271.542;  778.725;  152.825;    0.000
271.608;  833.725;  163.825;    0.000
271.675;  741.725;  149.825;    0.000
271.741;  876.725;  164.825;    0.000
271.807;  732.725;  128.825;    0.000
271.874;  792.725;  148.825;    0.000
271.940;  764.725;  179.825;    0.000
272.007;  792.725;  148.825;    0.000
272.073;  773.725;  146.825;    0.000
272.139;  785.725;  166.825;    0.000
272.206;  779.725;  198.825;    0.000
272.272;  865.725;  201.825;    0.000
272.338;  811.725;  208.825;    0.000
272.405;  790.725;  181.825;    0.000
272.471;  756.725;  167.825;    0.000
272.537;  857.725;  189.825;    0.000
272.604;  758.725;  162.825;    0.000
272.670;  859.725;  194.825;    0.000
272.736;  760.725;  176.825;    0.000
272.802;  845.725;  163.825;    0.000
272.869;  798.725;  170.825;    0.000
272.935;  800.725;  145.825;    0.000
273.001;  835.725;  149.825;    0.000
273.068;  829.725;  172.825;    0.000
273.134;  822.725;  155.825;    0.000
273.200;  848.725;  183.825;    0.000
273.266;  843.725;  160.825;    0.000
273.333;  835.725;  190.825;    0.000
273.399;  750.725;  132.825;    0.000
273.465;  830.725;  179.825;    0.000
273.531;  755.725;  161.825;    0.000
273.597;  863.725;  194.825;    0.000
273.664;  833.725;  193.825;    0.000
273.730;  846.725;  180.825;    0.000
273.796;  840.725;  145.825;    0.000
273.862;  843.725;  176.825;    0.000
273.928;  823.725;  169.825;    0.000
273.995;  864.725;  202.825;    0.000
274.061;  874.725;  176.825;    0.000
274.127;  833.725;  178.825;    0.000
274.193;  759.725;  106.825;    0.000
274.259;  849.725;  186.825;    0.000
274.325;  843.725;  163.825;    0.000
274.391;  834.725;  162.825;    0.000
274.457;  884.725;  145.825;    0.000
274.524;  901.725;  189.825;    0.000
274.590;  872.725;  161.825;    0.000
274.656;  857.725;  157.825;    0.000
274.722;  884.725;  143.825;    0.000
274.788;  843.725;  166.825;    0.000
274.854;  892.725;  200.825;    0.000
274.920;  891.725;  132.825;    0.000
274.986;  902.725;  184.825;    0.000
275.052;  915.725;  169.825;    0.000
275.118;  825.725;  153.825;    0.000
275.184;  991.725;  182.825;    0.000
275.250;  925.725;  124.825;    0.000
275.316;  948.725;  154.825;    0.000
275.382;  919.725;  150.825;    0.000
275.448;  922.725;  180.825;    0.000
275.514;  947.725;  143.825;    0.000
275.580;  920.725;  120.825;    0.000
275.646;  909.725;  127.825;    0.000
275.712;  977.725;  109.825;    0.000
275.778;  972.725;  126.825;    0.000
275.844;  947.725;  155.825;    0.000
275.910;  959.725;  164.825;    0.000
275.976; 1108.725;  161.825;    0.000
276.042;  980.725;  152.825;    0.000
276.108; 1047.725;  159.825;    0.000
276.174; 1075.725;  149.825;    0.000
276.240; 1093.725;  112.825;    0.000
276.306; 1135.725;  142.825;    0.000
276.372; 1125.725;  136.825;    0.000
276.437; 1063.725;  141.825;    0.000
276.503; 1097.725;  150.825;    0.000
276.569; 1208.725;  178.825;    0.000
276.635; 1123.725;  117.825;    0.000
276.701; 1148.725;  174.825;    0.000
276.767; 1155.725;  136.825;    0.000
276.833; 1178.725;  119.825;    0.000
276.899; 1253.725;  171.825;    0.000
276.964; 1313.725;  146.825;    0.000
277.030; 1329.725;  157.825;    0.000
277.096; 1341.725;  124.825;    0.000
277.162; 1388.725;  185.825;    0.000
277.228; 1390.725;  125.825;    0.000
277.293; 1440.725;  159.825;    0.000
277.359; 1604.725;  186.825;    0.000
277.425; 1670.725;  176.825;    0.000
277.491; 1633.725;  140.825;    0.000
277.557; 1910.725;  172.825;    0.000
277.622; 2445.725;  187.825;    0.000
277.688; 2391.725;  203.825;    0.000
277.754; 2522.725;  170.825;    0.000
277.820; 2724.725;  142.825;    0.000
277.885; 3204.725;  182.825;    0.000
277.951; 3784.725;  171.825;    0.000
278.017; 3411.725;  173.825;    0.000
278.083; 3078.725;  151.825;    0.000
278.148; 2951.725;  159.825;    0.000
278.214; 3021.725;  173.825;    0.000
278.280; 3063.725;  137.825;    0.000
278.345; 3083.725;  190.825;    0.000
278.411; 2840.725;  149.825;    0.000
278.477; 2901.725;  157.825;    0.000
278.542; 3070.725;  136.825;    0.000
278.608; 3351.725;  144.825;    0.000
278.674; 3641.725;  215.825;    0.000
278.739; 3947.725;  148.825;    0.000
278.805; 4462.725;  152.825;    0.000
278.871; 5210.725;  170.825;    0.000
278.936; 6171.725;  180.825;    0.000
279.002; 8244.725;  177.825;    0.000
279.067;10393.725;  172.825;    0.000
279.133;10708.725;  160.825;    0.000
279.199;10338.725;  165.825;    0.000
279.264;11007.725;  130.825;    0.000
279.330;12409.725;  154.825;    0.000
279.395;15316.725;  170.825;    0.000
279.461;17581.725;  136.825;    0.000
279.527;18744.725;  174.825;    0.000
279.592;18485.725;  179.825;    0.000
279.658;16980.725;  187.825;    0.000
279.723;16287.725;  201.825;    0.000
279.789;16390.725;  194.825;    0.000
279.854;15419.725;  171.825;    0.000
279.920;13380.725;  183.825;    0.000
279.985;12375.725;  173.825;    0.000
280.051;12733.725;  194.825;    0.000
280.116;14354.725;  197.825;    0.000
280.182;17027.725;  171.825;    0.000
280.247;18243.725;  131.825;    0.000
280.313;16965.725;  166.825;    0.000
280.378;13490.725;  159.825;    0.000
280.444;10764.725;  190.825;    0.000
280.509; 8729.725;  189.825;    0.000
280.574; 7341.725;  171.825;    0.000
280.640; 6272.725;  167.825;    0.000
280.705; 5696.725;  129.825;    0.000
280.771; 5035.725;  193.825;    0.000
280.836; 4592.725;  172.825;    0.000
280.902; 4500.725;  189.825;    0.000
280.967; 3983.725;  143.825;    0.000
281.032; 3807.725;  182.825;    0.000
281.098; 3647.725;  172.825;    0.000
281.163; 3505.725;  184.825;    0.000
281.229; 3233.725;  210.825;    0.000
281.294; 3073.725;  223.825;    0.000
281.359; 2957.725;  197.825;    0.000
281.425; 2843.725;  192.825;    0.000
281.490; 2712.725;  162.825;    0.000
281.555; 2664.725;  193.825;    0.000
281.621; 2478.725;  141.825;    0.000
281.686; 2476.725;  166.825;    0.000
281.751; 2421.725;  204.825;    0.000
281.816; 2291.725;  159.825;    0.000
281.882; 2281.725;  146.825;    0.000
281.947; 2210.725;  176.825;    0.000
282.012; 2129.725;  139.825;    0.000
282.078; 2058.725;  186.825;    0.000
282.143; 2007.725;  151.825;    0.000
282.208; 1968.725;  213.825;    0.000
282.273; 1998.725;  160.825;    0.000
282.339; 1962.725;  175.825;    0.000
282.404; 1982.725;  157.825;    0.000
282.469; 1869.725;  185.825;    0.000
282.534; 1833.725;  166.825;    0.000
282.600; 1800.725;  168.825;    0.000
282.665; 1720.725;  167.825;    0.000
282.730; 1700.725;  148.825;    0.000
282.795; 1750.725;  186.825;    0.000
282.860; 1644.725;  161.825;    0.000
282.926; 1735.725;  178.825;    0.000
282.991; 1615.725;  139.825;    0.000
283.056; 1659.725;  158.825;    0.000
283.121; 1594.725;  191.825;    0.000
283.186; 1531.725;  182.825;    0.000
283.251; 1523.725;  181.825;    0.000
283.316; 1599.725;  187.825;    0.000
283.382; 1581.725;  175.825;    0.000
283.447; 1568.725;  183.825;    0.000
283.512; 1529.725;  175.825;    0.000
283.577; 1559.725;  180.825;    0.000
283.642; 1499.725;  193.825;    0.000
283.707; 1466.725;  145.825;    0.000
283.772; 1483.725;  143.825;    0.000
283.837; 1492.725;  143.825;    0.000
283.902; 1497.725;  150.825;    0.000
283.967; 1489.725;  166.825;    0.000
284.032; 1408.725;  126.825;    0.000
284.097; 1491.725;  201.825;    0.000
284.163; 1391.725;  133.825;    0.000
284.228; 1424.725;  193.825;    0.000
284.293; 1478.725;  157.825;    0.000
284.358; 1413.725;  185.825;    0.000
284.423; 1471.725;  142.825;    0.000
284.488; 1505.725;  192.825;    0.000
284.553; 1443.725;  146.825;    0.000
284.618; 1534.725;  154.825;    0.000
284.683; 1590.725;  172.825;    0.000
284.748; 1563.725;  195.825;    0.000
284.812; 1692.725;  190.825;    0.000
284.877; 1893.725;  169.825;    0.000
284.942; 2076.725;  195.825;    0.000
285.007; 2456.725;  204.825;    0.000
285.072; 3133.725;  189.825;    0.000
285.137; 4897.725;  149.825;    0.000
285.202; 6374.725;  164.825;    0.000
285.267; 5985.725;  161.825;    0.000
285.332; 4213.725;  140.825;    0.000
285.397; 3164.725;  142.825;    0.000
285.462; 2558.725;  146.825;    0.000
285.527; 2228.725;  132.825;    0.000
285.591; 2020.725;  160.825;    0.000
285.656; 1750.725;  136.825;    0.000
285.721; 1683.725;  135.825;    0.000
285.786; 1672.725;  171.825;    0.000
285.851; 1629.725;  168.825;    0.000
285.916; 1601.725;  178.825;    0.000
285.981; 1464.725;  152.825;    0.000
286.045; 1451.725;  167.825;    0.000
286.110; 1465.725;  187.825;    0.000
286.175; 1422.725;  162.825;    0.000
286.240; 1340.725;  163.825;    0.000
286.305; 1449.725;  190.825;    0.000
286.369; 1329.725;  143.825;    0.000
286.434; 1378.725;  185.825;    0.000
286.499; 1346.725;  195.825;    0.000
286.564; 1327.725;  173.825;    0.000
286.628; 1276.725;  159.825;    0.000
286.693; 1342.725;  175.825;    0.000
286.758; 1294.725;  170.825;    0.000
286.823; 1244.725;  129.825;    0.000
286.887; 1253.725;  172.825;    0.000
286.952; 1287.725;  163.825;    0.000
287.017; 1322.725;  217.825;    0.000
287.082; 1242.725;  165.825;    0.000
287.146; 1225.725;  176.825;    0.000
287.211; 1250.725;  192.825;    0.000
287.276; 1245.725;  147.825;    0.000
287.340; 1216.725;  162.825;    0.000
287.405; 1214.725;  196.825;    0.000
287.470; 1212.725;  148.825;    0.000
287.534; 1266.725;  166.825;    0.000
287.599; 1204.725;  193.825;    0.000
287.663; 1233.725;  191.825;    0.000
287.728; 1274.725;  146.825;    0.000
287.793; 1277.725;  234.825;    0.000
287.857; 1272.725;  177.825;    0.000
287.922; 1245.725;  166.825;    0.000
287.987; 1264.725;  169.825;    0.000
288.051; 1228.725;  169.825;    0.000
288.116; 1214.725;  187.825;    0.000
288.180; 1191.725;  200.825;    0.000
288.245; 1170.725;  201.825;    0.000
288.309; 1185.725;  176.825;    0.000
288.374; 1255.725;  162.825;    0.000
288.439; 1256.725;  195.825;    0.000
288.503; 1205.725;  162.825;    0.000
288.568; 1236.725;  228.825;    0.000
288.632; 1202.725;  194.825;    0.000
288.697; 1265.725;  173.825;    0.000
288.761; 1179.725;  153.825;    0.000
288.826; 1222.725;  151.825;    0.000
288.890; 1187.725;  208.825;    0.000
288.955; 1136.725;  159.825;    0.000
289.019; 1296.725;  198.825;    0.000
289.084; 1191.725;  152.825;    0.000
289.148; 1174.725;  171.825;    0.000
289.212; 1215.725;  184.825;    0.000
289.277; 1247.725;  165.825;    0.000
289.341; 1213.725;  207.825;    0.000
289.406; 1143.725;  156.825;    0.000
289.470; 1198.725;  191.825;    0.000
289.535; 1229.725;  222.825;    0.000
289.599; 1245.725;  214.825;    0.000
289.663; 1176.725;  183.825;    0.000
289.728; 1213.725;  192.825;    0.000
289.792; 1150.725;  197.825;    0.000
289.857; 1288.725;  221.825;    0.000
289.921; 1242.725;  177.825;    0.000
289.985; 1173.725;  177.825;    0.000
290.050; 1152.725;  178.825;    0.000
290.114; 1246.725;  112.825;    0.000
290.178; 1153.725;  170.825;    0.000
290.243; 1182.725;  162.825;    0.000
290.307; 1188.725;  178.825;    0.000
290.371; 1193.725;  141.825;    0.000
290.436; 1128.725;  178.825;    0.000
290.500; 1162.725;  135.825;    0.000
290.564; 1256.725;  199.825;    0.000
290.629; 1181.725;  165.825;    0.000
290.693; 1206.725;  154.825;    0.000
290.757; 1113.725;  159.825;    0.000
290.821; 1146.725;  179.825;    0.000
290.886; 1131.725;  141.825;    0.000
290.950; 1210.725;  166.825;    0.000
291.014; 1172.725;  169.825;    0.000
291.078; 1204.725;  191.825;    0.000
291.143; 1186.725;  169.825;    0.000
291.207; 1257.725;  164.825;    0.000
291.271; 1278.725;  193.825;    0.000
291.335; 1233.725;  150.825;    0.000
291.399; 1265.725;  175.825;    0.000
291.464; 1274.725;  128.825;    0.000
291.528; 1398.725;  162.825;    0.000
291.592; 1326.725;  152.825;    0.000
291.656; 1296.725;  175.825;    0.000
291.720; 1328.725;  173.825;    0.000
291.784; 1250.725;  192.825;    0.000
291.849; 1304.725;  159.825;    0.000
291.913; 1236.725;  174.825;    0.000
291.977; 1319.725;  177.825;    0.000
292.041; 1299.725;  188.825;    0.000
292.105; 1342.725;  174.825;    0.000
292.169; 1291.725;  143.825;    0.000
292.233; 1381.725;  149.825;    0.000
292.297; 1299.725;  176.825;    0.000
292.361; 1361.725;  178.825;    0.000
292.425; 1420.725;  153.825;    0.000
292.490; 1493.725;  185.825;    0.000
292.554; 1518.725;  144.825;    0.000
292.618; 1531.725;  166.825;    0.000
292.682; 1656.725;  181.825;    0.000
292.746; 1801.725;  152.825;    0.000
292.810; 2178.725;  208.825;    0.000
292.874; 2606.725;  142.825;    0.000
292.938; 2769.725;  195.825;    0.000
293.002; 2649.725;  156.825;    0.000
293.066; 2468.725;  108.825;    0.000
293.130; 2296.725;  136.825;    0.000
293.194; 2250.725;  135.825;    0.000
293.258; 2106.725;  187.825;    0.000
293.322; 2170.725;  148.825;    0.000
293.386; 2191.725;  186.825;    0.000
293.450; 2253.725;  196.825;    0.000
293.514; 2484.725;  175.825;    0.000
293.577; 2894.725;  137.825;    0.000
293.641; 3668.725;  142.825;    0.000
293.705; 3999.725;  201.825;    0.000
293.769; 3880.725;  150.825;    0.000
293.833; 3507.725;  147.825;    0.000
293.897; 3224.725;  170.825;    0.000
293.961; 2885.725;  121.825;    0.000
294.025; 2665.725;  172.825;    0.000
294.089; 2519.725;  167.825;    0.000
294.152; 2341.725;  167.825;    0.000
294.216; 2187.725;  165.825;    0.000
294.280; 2036.725;  168.825;    0.000
294.344; 1874.725;  160.825;    0.000
294.408; 1953.725;  187.825;    0.000
294.472; 1776.725;  141.825;    0.000
294.536; 1763.725;  184.825;    0.000
294.599; 1681.725;  176.825;    0.000
294.663; 1676.725;  120.825;    0.000
294.727; 1676.725;  159.825;    0.000
294.791; 1515.725;  190.825;    0.000
294.855; 1573.725;  148.825;    0.000
294.918; 1500.725;  160.825;    0.000
294.982; 1407.725;  156.825;    0.000
295.046; 1463.725;  177.825;    0.000
295.110; 1465.725;  149.825;    0.000
295.173; 1396.725;  156.825;    0.000
295.237; 1421.725;  174.825;    0.000
295.301; 1337.725;  152.825;    0.000
295.364; 1403.725;  204.825;    0.000
295.428; 1344.725;  196.825;    0.000
295.492; 1349.725;  178.825;    0.000
295.556; 1290.725;  161.825;    0.000
295.619; 1372.725;  178.825;    0.000
295.683; 1309.725;  152.825;    0.000
295.747; 1241.725;  148.825;    0.000
295.810; 1248.725;  177.825;    0.000
295.874; 1246.725;  146.825;    0.000
295.938; 1247.725;  115.825;    0.000
296.001; 1286.725;  172.825;    0.000
296.065; 1190.725;  146.825;    0.000
296.128; 1185.725;  164.825;    0.000
296.192; 1256.725;  137.825;    0.000
296.256; 1211.725;  143.825;    0.000
296.319; 1186.725;  156.825;    0.000
296.383; 1182.725;  165.825;    0.000
296.447; 1136.725;  170.825;    0.000
296.510; 1135.725;  174.825;    0.000
296.574; 1173.725;  127.825;    0.000
296.637; 1132.725;  132.825;    0.000
296.701; 1150.725;  206.825;    0.000
296.764; 1157.725;  179.825;    0.000
296.828; 1211.725;  213.825;    0.000
296.891; 1218.725;  149.825;    0.000
296.955; 1183.725;  170.825;    0.000
297.018; 1210.725;  185.825;    0.000
297.082; 1138.725;  205.825;    0.000
297.145; 1089.725;  154.825;    0.000
297.209; 1150.725;  200.825;    0.000
297.272; 1129.725;  157.825;    0.000
297.336; 1112.725;  164.825;    0.000
297.399; 1152.725;  166.825;    0.000
297.463; 1122.725;  195.825;    0.000
297.526; 1088.725;  176.825;    0.000
297.590; 1128.725;  198.825;    0.000
297.653; 1099.725;  146.825;    0.000
297.717; 1081.725;  175.825;    0.000
297.780; 1092.725;  139.825;    0.000
297.843; 1121.725;  174.825;    0.000
297.907; 1079.725;  149.825;    0.000
297.970; 1049.725;  161.825;    0.000
298.034; 1086.725;  185.825;    0.000
298.097; 1171.725;  167.825;    0.000
298.160; 1126.725;  195.825;    0.000
298.224; 1077.725;  178.825;    0.000
298.287; 1070.725;  164.825;    0.000
298.350; 1056.725;  194.825;    0.000
298.414; 1079.725;  191.825;    0.000
298.477; 1042.725;  155.825;    0.000
298.540; 1036.725;  139.825;    0.000
298.604; 1086.725;  198.825;    0.000
298.667; 1141.725;  183.825;    0.000
298.730; 1111.725;  185.825;    0.000
298.794; 1048.725;  153.825;    0.000
298.857; 1089.725;  169.825;    0.000
298.920; 1062.725;  159.825;    0.000
298.984; 1070.725;  179.825;    0.000
299.047; 1051.725;  174.825;    0.000
299.110; 1039.725;  144.825;    0.000
299.173; 1094.725;  190.825;    0.000
299.237; 1032.725;  163.825;    0.000
299.300; 1004.725;  153.825;    0.000
299.363;  995.725;  145.825;    0.000
299.426; 1005.725;  160.825;    0.000
299.489; 1042.725;  173.825;    0.000
299.553; 1029.725;  209.825;    0.000
299.616; 1073.725;  172.825;    0.000
299.679; 1027.725;  204.825;    0.000
299.742; 1016.725;  162.825;    0.000
299.805;  992.725;  198.825;    0.000
299.868; 1070.725;  176.825;    0.000
299.932;  974.725;  166.825;    0.000
299.995; 1027.725;  162.825;    0.000
300.058;  977.725;  175.825;    0.000
300.121;  977.725;  197.825;    0.000
300.184; 1084.725;  188.825;    0.000
300.247; 1022.725;  181.825;    0.000
300.310;  975.725;  161.825;    0.000
300.374; 1056.725;  201.825;    0.000
300.437; 1008.725;  156.825;    0.000
300.500;  971.725;  180.825;    0.000
300.563;  998.725;  174.825;    0.000
300.626; 1045.725;  206.825;    0.000
300.689; 1041.725;  218.825;    0.000
300.752;  971.725;  192.825;    0.000
300.815;  979.725;  172.825;    0.000
300.878;  996.725;  207.825;    0.000
300.941;  960.725;  163.825;    0.000
301.004; 1042.725;  171.825;    0.000
301.067;  979.725;  198.825;    0.000
301.130;  975.725;  156.825;    0.000
301.193; 1019.725;  173.825;    0.000
301.256;  971.725;  167.825;    0.000
301.319;  984.725;  211.825;    0.000
301.382;  969.725;  167.825;    0.000
301.445; 1005.725;  224.825;    0.000
301.508;  949.725;  168.825;    0.000
301.571; 1001.725;  161.825;    0.000
301.634;  969.725;  177.825;    0.000
301.697;  932.725;  203.825;    0.000
301.760; 1018.725;  190.825;    0.000
301.823;  932.725;  182.825;    0.000
301.885;  994.725;  202.825;    0.000
301.948;  952.725;  200.825;    0.000
302.011;  987.725;  157.825;    0.000
302.074; 1044.725;  205.825;    0.000
302.137;  983.725;  149.825;    0.000
302.200; 1036.725;  201.825;    0.000
302.263; 1019.725;  178.825;    0.000
302.326; 1045.725;  184.825;    0.000
302.388; 1019.725;  176.825;    0.000
302.451;  981.725;  146.825;    0.000
302.514; 1017.725;  192.825;    0.000
302.577; 1019.725;  181.825;    0.000
302.640;  946.725;  186.825;    0.000
302.703;  993.725;  164.825;    0.000
302.765;  944.725;  197.825;    0.000
302.828;  964.725;  208.825;    0.000
302.891; 1023.725;  168.825;    0.000
302.954;  950.725;  177.825;    0.000
303.016;  990.725;  190.825;    0.000
303.079; 1015.725;  216.825;    0.000
303.142; 1001.725;  228.825;    0.000
303.205;  971.725;  192.825;    0.000
303.267;  996.725;  182.825;    0.000
303.330; 1040.725;  201.825;    0.000
303.393;  925.725;  196.825;    0.000
303.456;  976.725;  184.825;    0.000
303.518;  985.725;  194.825;    0.000
303.581;  949.725;  195.825;    0.000
303.644;  969.725;  184.825;    0.000
303.706;  980.725;  150.825;    0.000
303.769; 1021.725;  182.825;    0.000
303.832;  996.725;  143.825;    0.000
303.894;  986.725;  207.825;    0.000
303.957;  966.725;  178.825;    0.000
304.020; 1005.725;  203.825;    0.000
304.082;  982.725;  175.825;    0.000
304.145; 1049.725;  171.825;    0.000
304.207;  972.725;  157.825;    0.000
304.270;  976.725;  195.825;    0.000
304.333; 1020.725;  195.825;    0.000
304.395; 1040.725;  197.825;    0.000
304.458; 1038.725;  231.825;    0.000
304.520; 1021.725;  218.825;    0.000
304.583;  987.725;  177.825;    0.000
304.646;  997.725;  177.825;    0.000
304.708; 1011.725;  178.825;    0.000
304.771;  984.725;  143.825;    0.000
304.833; 1010.725;  241.825;    0.000
304.896; 1015.725;  200.825;    0.000
304.958; 1006.725;  176.825;    0.000
305.021;  987.725;  159.825;    0.000
305.083; 1011.725;  159.825;    0.000
305.146;  950.725;  190.825;    0.000
305.208; 1003.725;  152.825;    0.000
305.271;  992.725;  162.825;    0.000
305.333; 1041.725;  219.825;    0.000
305.396;  979.725;  163.825;    0.000
305.458;  986.725;  215.825;    0.000
305.520;  989.725;  174.825;    0.000
305.583;  955.725;  161.825;    0.000
305.645; 1008.725;  203.825;    0.000
305.708;  995.725;  163.825;    0.000
305.770; 1054.725;  215.825;    0.000
305.833; 1012.725;  207.825;    0.000
305.895;  955.725;  166.825;    0.000
305.957; 1001.725;  175.825;    0.000
306.020;  989.725;  169.825;    0.000
306.082;  948.725;  203.825;    0.000
306.144; 1021.725;  181.825;    0.000
306.207;  961.725;  199.825;    0.000
306.269;  998.725;  177.825;    0.000
306.331;  980.725;  160.825;    0.000
306.394;  975.725;  193.825;    0.000
306.456; 1010.725;  136.825;    0.000
306.518; 1042.725;  189.825;    0.000
306.581;  986.725;  156.825;    0.000
306.643;  989.725;  190.825;    0.000
306.705; 1045.725;  190.825;    0.000
306.768; 1026.725;  172.825;    0.000
306.830; 1056.725;  214.825;    0.000
306.892; 1054.725;  198.825;    0.000
306.954; 1074.725;  177.825;    0.000
307.017; 1024.725;  183.825;    0.000
307.079; 1012.725;  170.825;    0.000
307.141; 1079.725;  173.825;    0.000
307.203; 1070.725;  171.825;    0.000
307.266; 1010.725;  166.825;    0.000
307.328; 1133.725;  207.825;    0.000
307.390; 1083.725;  201.825;    0.000
307.452; 1013.725;  182.825;    0.000
307.514; 1094.725;  213.825;    0.000
307.577; 1066.725;  213.825;    0.000
307.639; 1040.725;  197.825;    0.000
307.701; 1079.725;  174.825;    0.000
307.763; 1048.725;  181.825;    0.000
307.825; 1094.725;  186.825;    0.000
307.887; 1068.725;  198.825;    0.000
307.949; 1027.725;  158.825;    0.000
308.012; 1041.725;  209.825;    0.000
308.074; 1065.725;  176.825;    0.000
308.136; 1070.725;  227.825;    0.000
308.198; 1063.725;  187.825;    0.000
308.260; 1057.725;  211.825;    0.000
308.322; 1054.725;  206.825;    0.000
308.384; 1058.725;  186.825;    0.000
308.446; 1088.725;  175.825;    0.000
308.508; 1019.725;  211.825;    0.000
308.570; 1128.725;  191.825;    0.000
308.632; 1076.725;  195.825;    0.000
308.694; 1020.725;  173.825;    0.000
308.756; 1059.725;  185.825;    0.000
308.818; 1137.725;  195.825;    0.000
308.880; 1113.725;  189.825;    0.000
308.942; 1135.725;  231.825;    0.000
309.004; 1155.725;  188.825;    0.000
309.066; 1107.725;  196.825;    0.000
309.128; 1120.725;  155.825;    0.000
309.190; 1192.725;  176.825;    0.000
309.252; 1157.725;  191.825;    0.000
309.314; 1245.725;  236.825;    0.000
309.376; 1269.725;  212.825;    0.000
309.438; 1171.725;  201.825;    0.000
309.500; 1171.725;  206.825;    0.000
309.562; 1148.725;  213.825;    0.000
309.624; 1234.725;  196.825;    0.000
309.686; 1270.725;  198.825;    0.000
309.747; 1267.725;  186.825;    0.000
309.809; 1263.725;  215.825;    0.000
309.871; 1187.725;  242.825;    0.000
309.933; 1220.725;  162.825;    0.000
309.995; 1206.725;  163.825;    0.000
310.057; 1185.725;  145.825;    0.000
310.119; 1165.725;  205.825;    0.000
310.180; 1171.725;  195.825;    0.000
310.242; 1171.725;  167.825;    0.000
310.304; 1166.725;  213.825;    0.000
310.366; 1176.725;  224.825;    0.000
310.428; 1116.725;  170.825;    0.000
310.489; 1133.725;  195.825;    0.000
310.551; 1169.725;  207.825;    0.000
310.613; 1140.725;  168.825;    0.000
310.675; 1155.725;  188.825;    0.000
310.737; 1143.725;  211.825;    0.000
310.798; 1108.725;  221.825;    0.000
310.860; 1176.725;  201.825;    0.000
310.922; 1099.725;  206.825;    0.000
310.983; 1143.725;  222.825;    0.000
311.045; 1139.725;  235.825;    0.000
311.107; 1173.725;  184.825;    0.000
311.169; 1127.725;  148.825;    0.000
311.230; 1139.725;  211.825;    0.000
311.292; 1129.725;  235.825;    0.000
311.354; 1099.725;  183.825;    0.000
311.415; 1152.725;  196.825;    0.000
311.477; 1191.725;  200.825;    0.000
311.539; 1087.725;  171.825;    0.000
311.600; 1148.725;  169.825;    0.000
311.662; 1213.725;  231.825;    0.000
311.724; 1153.725;  204.825;    0.000
311.785; 1109.725;  214.825;    0.000
311.847; 1129.725;  193.825;    0.000
311.908; 1115.725;  180.825;    0.000
311.970; 1114.725;  233.825;    0.000
312.032; 1136.725;  192.825;    0.000
312.093; 1088.725;  195.825;    0.000
312.155; 1134.725;  194.825;    0.000
312.216; 1149.725;  238.825;    0.000
312.278; 1130.725;  146.825;    0.000
312.339; 1101.725;  184.825;    0.000
312.401; 1109.725;  201.825;    0.000
312.462; 1104.725;  173.825;    0.000
312.524; 1190.725;  205.825;    0.000
312.585; 1138.725;  199.825;    0.000
312.647; 1122.725;  168.825;    0.000
312.708; 1078.725;  180.825;    0.000
312.770; 1133.725;  180.825;    0.000
312.831; 1108.725;  176.825;    0.000
312.893; 1090.725;  211.825;    0.000
312.954; 1094.725;  178.825;    0.000
313.016; 1176.725;  204.825;    0.000
313.077; 1188.725;  216.825;    0.000
313.139; 1175.725;  172.825;    0.000
313.200; 1118.725;  197.825;    0.000
313.261; 1176.725;  227.825;    0.000
313.323; 1157.725;  204.825;    0.000
313.384; 1147.725;  182.825;    0.000
313.446; 1209.725;  204.825;    0.000
313.507; 1122.725;  164.825;    0.000
313.568; 1191.725;  197.825;    0.000
313.630; 1116.725;  190.825;    0.000
313.691; 1121.725;  185.825;    0.000
313.752; 1158.725;  192.825;    0.000
313.814; 1112.725;  176.825;    0.000
313.875; 1141.725;  210.825;    0.000
313.936; 1133.725;  165.825;    0.000
313.998; 1092.725;  162.825;    0.000
314.059; 1162.725;  178.825;    0.000
314.120; 1177.725;  176.825;    0.000
314.182; 1224.725;  167.825;    0.000
314.243; 1122.725;  204.825;    0.000
314.304; 1185.725;  197.825;    0.000
314.365; 1142.725;  183.825;    0.000
314.427; 1160.725;  176.825;    0.000
314.488; 1099.725;  149.825;    0.000
314.549; 1196.725;  218.825;    0.000
314.610; 1146.725;  160.825;    0.000
314.672; 1152.725;  187.825;    0.000
314.733; 1147.725;  184.825;    0.000
314.794; 1159.725;  164.825;    0.000
314.855; 1153.725;  191.825;    0.000
314.917; 1134.725;  172.825;    0.000
314.978; 1159.725;  185.825;    0.000
315.039; 1109.725;  194.825;    0.000
315.100; 1143.725;  190.825;    0.000
315.161; 1138.725;  185.825;    0.000
315.222; 1182.725;  204.825;    0.000
315.283; 1113.725;  166.825;    0.000
315.345; 1190.725;  133.825;    0.000
315.406; 1177.725;  191.825;    0.000
315.467; 1110.725;  166.825;    0.000
315.528; 1134.725;  194.825;    0.000
315.589; 1090.725;  193.825;    0.000
315.650; 1154.725;  190.825;    0.000
315.711; 1168.725;  219.825;    0.000
315.772; 1164.725;  159.825;    0.000
315.833; 1120.725;  191.825;    0.000
315.894; 1116.725;  202.825;    0.000
315.955; 1164.725;  167.825;    0.000
316.016; 1157.725;  177.825;    0.000
316.078; 1117.725;  185.825;    0.000
316.139; 1187.725;  219.825;    0.000
316.200; 1143.725;  163.825;    0.000
316.261; 1075.725;  183.825;    0.000
316.322; 1158.725;  230.825;    0.000
316.383; 1174.725;  198.825;    0.000
316.444; 1199.725;  209.825;    0.000
316.504; 1143.725;  179.825;    0.000
316.565; 1185.725;  185.825;    0.000
316.626; 1164.725;  155.825;    0.000
316.687; 1146.725;  211.825;    0.000
316.748; 1149.725;  192.825;    0.000
316.809; 1189.725;  183.825;    0.000
316.870; 1178.725;  196.825;    0.000
316.931; 1157.725;  173.825;    0.000
316.992; 1194.725;  179.825;    0.000
317.053; 1180.725;  186.825;    0.000
317.114; 1120.725;  189.825;    0.000
317.175; 1144.725;  226.825;    0.000
317.235; 1190.725;  206.825;    0.000
317.296; 1146.725;  191.825;    0.000
317.357; 1143.725;  173.825;    0.000
317.418; 1183.725;  212.825;    0.000
317.479; 1173.725;  247.825;    0.000
317.540; 1152.725;  205.825;    0.000
317.601; 1100.725;  205.825;    0.000
317.661; 1127.725;  150.825;    0.000
317.722; 1227.725;  198.825;    0.000
317.783; 1094.725;  153.825;    0.000
317.844; 1255.725;  202.825;    0.000
317.904; 1165.725;  180.825;    0.000
317.965; 1173.725;  205.825;    0.000
318.026; 1163.725;  223.825;    0.000
318.087; 1158.725;  218.825;    0.000
318.148; 1191.725;  207.825;    0.000
318.208; 1238.725;  212.825;    0.000
318.269; 1142.725;  174.825;    0.000
318.330; 1153.725;  191.825;    0.000
318.390; 1156.725;  197.825;    0.000
318.451; 1175.725;  167.825;    0.000
318.512; 1240.725;  174.825;    0.000
318.572; 1196.725;  199.825;    0.000
318.633; 1148.725;  233.825;    0.000
318.694; 1177.725;  232.825;    0.000
318.754; 1147.725;  181.825;    0.000
318.815; 1161.725;  199.825;    0.000
318.876; 1129.725;  207.825;    0.000
318.936; 1229.725;  202.825;    0.000
318.997; 1108.725;  182.825;    0.000
319.058; 1209.725;  180.825;    0.000
319.118; 1244.725;  199.825;    0.000
319.179; 1190.725;  199.825;    0.000
319.239; 1228.725;  229.825;    0.000
319.300; 1225.725;  223.825;    0.000
319.361; 1158.725;  210.825;    0.000
319.421; 1225.725;  205.825;    0.000
319.482; 1144.725;  205.825;    0.000
319.542; 1143.725;  176.825;    0.000
319.603; 1138.725;  191.825;    0.000
319.663; 1192.725;  183.825;    0.000
319.724; 1160.725;  174.825;    0.000
319.784; 1155.725;  198.825;    0.000
319.845; 1127.725;  218.825;    0.000
319.905; 1178.725;  217.825;    0.000
319.966; 1129.725;  197.825;    0.000
320.026; 1167.725;  209.825;    0.000
320.087; 1137.725;  225.825;    0.000
320.147; 1147.725;  201.825;    0.000
320.208; 1150.725;  176.825;    0.000
320.268; 1108.725;  168.825;    0.000
320.329; 1175.725;  238.825;    0.000
320.389; 1142.725;  220.825;    0.000
320.449; 1223.725;  230.825;    0.000
320.510; 1184.725;  234.825;    0.000
320.570; 1151.725;  210.825;    0.000
320.631; 1135.725;  207.825;    0.000
320.691; 1174.725;  222.825;    0.000
320.751; 1223.725;  195.825;    0.000
320.812; 1167.725;  193.825;    0.000
320.872; 1171.725;  237.825;    0.000
320.932; 1173.725;  213.825;    0.000
320.993; 1166.725;  185.825;    0.000
321.053; 1213.725;  245.825;    0.000
321.113; 1123.725;  206.825;    0.000
321.174; 1109.725;  202.825;    0.000
321.234; 1224.725;  244.825;    0.000
321.294; 1180.725;  228.825;    0.000
321.355; 1218.725;  208.825;    0.000
321.415; 1173.725;  223.825;    0.000
321.475; 1196.725;  203.825;    0.000
321.535; 1211.725;  230.825;    0.000
321.596; 1199.725;  186.825;    0.000
321.656; 1218.725;  216.825;    0.000
321.716; 1170.725;  207.825;    0.000
321.776; 1189.725;  181.825;    0.000
321.837; 1213.725;  207.825;    0.000
321.897; 1135.725;  225.825;    0.000
321.957; 1218.725;  222.825;    0.000
322.017; 1192.725;  215.825;    0.000
322.077; 1222.725;  250.825;    0.000
322.138; 1178.725;  189.825;    0.000
322.198; 1155.725;  200.825;    0.000
322.258; 1216.725;  217.825;    0.000
322.318; 1107.725;  183.825;    0.000
322.378; 1196.725;  231.825;    0.000
322.438; 1128.725;  228.825;    0.000
322.499; 1105.725;  248.825;    0.000
322.559; 1179.725;  198.825;    0.000
322.619; 1197.725;  221.825;    0.000
322.679; 1157.725;  217.825;    0.000
322.739; 1199.725;  204.825;    0.000
322.799; 1182.725;  236.825;    0.000
322.859; 1223.725;  213.825;    0.000
322.919; 1188.725;  210.825;    0.000
322.979; 1192.725;  244.825;    0.000
323.039; 1195.725;  218.825;    0.000
323.099; 1168.725;  232.825;    0.000
323.159; 1165.725;  216.825;    0.000
323.219; 1163.725;  169.825;    0.000
323.279; 1173.725;  236.825;    0.000
323.339; 1223.725;  243.825;    0.000
323.399; 1219.725;  208.825;    0.000
323.459; 1238.725;  220.825;    0.000
323.519; 1213.725;  228.825;    0.000
323.579; 1180.725;  164.825;    0.000
323.639; 1263.725;  209.825;    0.000
323.699; 1205.725;  188.825;    0.000
323.759; 1250.725;  206.825;    0.000
323.819; 1240.725;  204.825;    0.000
323.879; 1165.725;  222.825;    0.000
323.939; 1163.725;  206.825;    0.000
323.999; 1214.725;  202.825;    0.000
324.059; 1238.725;  245.825;    0.000
324.119; 1201.725;  214.825;    0.000
324.178; 1188.725;  183.825;    0.000
324.238; 1205.725;  193.825;    0.000
324.298; 1184.725;  207.825;    0.000
324.358; 1242.725;  196.825;    0.000
324.418; 1198.725;  193.825;    0.000
324.478; 1139.725;  191.825;    0.000
324.538; 1202.725;  224.825;    0.000
324.597; 1207.725;  187.825;    0.000
324.657; 1128.725;  208.825;    0.000
324.717; 1246.725;  198.825;    0.000
324.777; 1137.725;  159.825;    0.000
324.837; 1156.725;  180.825;    0.000
324.896; 1189.725;  215.825;    0.000
324.956; 1195.725;  210.825;    0.000
325.016; 1202.725;  187.825;    0.000
325.076; 1216.725;  197.825;    0.000
325.135; 1269.725;  226.825;    0.000
325.195; 1198.725;  201.825;    0.000
325.255; 1203.725;  167.825;    0.000
325.315; 1188.725;  217.825;    0.000
325.374; 1241.725;  196.825;    0.000
325.434; 1200.725;  167.825;    0.000
325.494; 1208.725;  214.825;    0.000
325.553; 1201.725;  203.825;    0.000
325.613; 1187.725;  206.825;    0.000
325.673; 1164.725;  148.825;    0.000
325.732; 1233.725;  207.825;    0.000
325.792; 1153.725;  151.825;    0.000
325.852; 1162.725;  195.825;    0.000
325.911; 1203.725;  201.825;    0.000
325.971; 1213.725;  224.825;    0.000
326.031; 1214.725;  201.825;    0.000
326.090; 1192.725;  203.825;    0.000
326.150; 1170.725;  183.825;    0.000
326.209; 1197.725;  226.825;    0.000
326.269; 1132.725;  194.825;    0.000
326.328; 1136.725;  200.825;    0.000
326.388; 1183.725;  177.825;    0.000
326.448; 1196.725;  239.825;    0.000
326.507; 1198.725;  197.825;    0.000
326.567; 1181.725;  161.825;    0.000
326.626; 1159.725;  220.825;    0.000
326.686; 1161.725;  178.825;    0.000
326.745; 1149.725;  167.825;    0.000
326.805; 1170.725;  176.825;    0.000
326.864; 1142.725;  204.825;    0.000
326.924; 1165.725;  218.825;    0.000
326.983; 1162.725;  201.825;    0.000
327.043; 1206.725;  219.825;    0.000
327.102; 1212.725;  202.825;    0.000
327.161; 1176.725;  228.825;    0.000
327.221; 1216.725;  217.825;    0.000
327.280; 1166.725;  188.825;    0.000
327.340; 1134.725;  209.825;    0.000
327.399; 1201.725;  189.825;    0.000
327.459; 1133.725;  216.825;    0.000
327.518; 1173.725;  200.825;    0.000
327.577; 1102.725;  194.825;    0.000
327.637; 1188.725;  180.825;    0.000
327.696; 1136.725;  208.825;    0.000
327.755; 1238.725;  218.825;    0.000
327.815; 1228.725;  234.825;    0.000
327.874; 1208.725;  259.825;    0.000
327.933; 1181.725;  192.825;    0.000
327.993; 1233.725;  208.825;    0.000
328.052; 1194.725;  221.825;    0.000
328.111; 1199.725;  203.825;    0.000
328.171; 1149.725;  221.825;    0.000
328.230; 1210.725;  222.825;    0.000
328.289; 1134.725;  254.825;    0.000
328.349; 1214.725;  232.825;    0.000
328.408; 1191.725;  223.825;    0.000
328.467; 1172.725;  198.825;    0.000
328.526; 1160.725;  217.825;    0.000
328.586; 1196.725;  185.825;    0.000
328.645; 1196.725;  210.825;    0.000
328.704; 1139.725;  211.825;    0.000
328.763; 1181.725;  231.825;    0.000
328.822; 1101.725;  254.825;    0.000
328.882; 1197.725;  216.825;    0.000
328.941; 1183.725;  239.825;    0.000
329.000; 1175.725;  251.825;    0.000
329.059; 1198.725;  227.825;    0.000
329.118; 1166.725;  233.825;    0.000
329.177; 1202.725;  188.825;    0.000
329.237; 1213.725;  257.825;    0.000
329.296; 1199.725;  265.825;    0.000
329.355; 1196.725;  245.825;    0.000
329.414; 1164.725;  236.825;    0.000
329.473; 1146.725;  242.825;    0.000
329.532; 1194.725;  228.825;    0.000
329.591; 1223.725;  206.825;    0.000
329.650; 1221.725;  250.825;    0.000
329.709; 1227.725;  278.825;    0.000
329.768; 1216.725;  219.825;    0.000
329.827; 1268.725;  254.825;    0.000
329.886; 1285.725;  221.825;    0.000
329.945; 1242.725;  239.825;    0.000
330.004; 1281.725;  245.825;    0.000
330.063; 1247.725;  201.825;    0.000
330.122; 1283.725;  227.825;    0.000
330.181; 1188.725;  196.825;    0.000
330.240; 1232.725;  203.825;    0.000
330.299; 1204.725;  214.825;    0.000
330.358; 1177.725;  196.825;    0.000
330.417; 1207.725;  201.825;    0.000
330.476; 1179.725;  248.825;    0.000
330.535; 1181.725;  253.825;    0.000
330.594; 1263.725;  231.825;    0.000
330.653; 1148.725;  210.825;    0.000
330.712; 1163.725;  242.825;    0.000
330.771; 1219.725;  240.825;    0.000
330.830; 1180.725;  230.825;    0.000
330.889; 1193.725;  217.825;    0.000
330.948; 1217.725;  211.825;    0.000
331.006; 1239.725;  217.825;    0.000
331.065; 1145.725;  170.825;    0.000
331.124; 1203.725;  211.825;    0.000
331.183; 1184.725;  192.825;    0.000
331.242; 1252.725;  227.825;    0.000
331.301; 1111.725;  240.825;    0.000
331.359; 1208.725;  223.825;    0.000
331.418; 1167.725;  215.825;    0.000
331.477; 1179.725;  230.825;    0.000
331.536; 1161.725;  221.825;    0.000
331.595; 1181.725;  198.825;    0.000
331.653; 1147.725;  207.825;    0.000
331.712; 1217.725;  217.825;    0.000
331.771; 1157.725;  221.825;    0.000
331.830; 1130.725;  222.825;    0.000
331.888; 1110.725;  213.825;    0.000
331.947; 1165.725;  233.825;    0.000
332.006; 1224.725;  212.825;    0.000
332.065; 1190.725;  200.825;    0.000
332.123; 1162.725;  223.825;    0.000
332.182; 1208.725;  180.825;    0.000
332.241; 1152.725;  192.825;    0.000
332.299; 1173.725;  172.825;    0.000
332.358; 1218.725;  216.825;    0.000
332.417; 1172.725;  211.825;    0.000
332.475; 1197.725;  222.825;    0.000
332.534; 1211.725;  238.825;    0.000
332.592; 1142.725;  216.825;    0.000
332.651; 1118.725;  196.825;    0.000
332.710; 1221.725;  215.825;    0.000
332.768; 1214.725;  193.825;    0.000
332.827; 1175.725;  201.825;    0.000
332.885; 1200.725;  226.825;    0.000
332.944; 1190.725;  174.825;    0.000
333.003; 1130.725;  187.825;    0.000
333.061; 1194.725;  208.825;    0.000
333.120; 1243.725;  202.825;    0.000
333.178; 1217.725;  227.825;    0.000
333.237; 1206.725;  215.825;    0.000
333.295; 1272.725;  245.825;    0.000
333.354; 1214.725;  194.825;    0.000
333.412; 1177.725;  165.825;    0.000
333.471; 1206.725;  219.825;    0.000
333.529; 1324.725;  255.825;    0.000
333.588; 1309.725;  264.825;    0.000
333.646; 1356.725;  231.825;    0.000
333.705; 1322.725;  232.825;    0.000
333.763; 1402.725;  233.825;    0.000
333.822; 1291.725;  221.825;    0.000
333.880; 1280.725;  180.825;    0.000
333.938; 1261.725;  229.825;    0.000
333.997; 1224.725;  194.825;    0.000
334.055; 1290.725;  230.825;    0.000
334.114; 1307.725;  230.825;    0.000
334.172; 1171.725;  170.825;    0.000
334.230; 1230.725;  192.825;    0.000
334.289; 1227.725;  225.825;    0.000
334.347; 1240.725;  233.825;    0.000
334.405; 1271.725;  207.825;    0.000
334.464; 1281.725;  175.825;    0.000
334.522; 1178.725;  180.825;    0.000
334.580; 1229.725;  172.825;    0.000
334.639; 1165.725;  230.825;    0.000
334.697; 1173.725;  217.825;    0.000
334.755; 1236.725;  217.825;    0.000
334.814; 1244.725;  210.825;    0.000
334.872; 1258.725;  170.825;    0.000
334.930; 1184.725;  167.825;    0.000
334.988; 1256.725;  244.825;    0.000
335.047; 1225.725;  202.825;    0.000
335.105; 1281.725;  181.825;    0.000
335.163; 1268.725;  195.825;    0.000
335.221; 1285.725;  203.825;    0.000
335.280; 1205.725;  216.825;    0.000
335.338; 1244.725;  197.825;    0.000
335.396; 1244.725;  232.825;    0.000
335.454; 1205.725;  211.825;    0.000
335.512; 1290.725;  221.825;    0.000
335.570; 1282.725;  216.825;    0.000
335.629; 1293.725;  244.825;    0.000
335.687; 1279.725;  244.825;    0.000
335.745; 1312.725;  189.825;    0.000
335.803; 1364.725;  198.825;    0.000
335.861; 1336.725;  236.825;    0.000
335.919; 1306.725;  234.825;    0.000
335.977; 1269.725;  214.825;    0.000
336.035; 1251.725;  242.825;    0.000
336.094; 1295.725;  219.825;    0.000
336.152; 1225.725;  196.825;    0.000
336.210; 1262.725;  221.825;    0.000
336.268; 1234.725;  257.825;    0.000
336.326; 1349.725;  211.825;    0.000
336.384; 1355.725;  217.825;    0.000
336.442; 1278.725;  176.825;    0.000
336.500; 1314.725;  242.825;    0.000
336.558; 1294.725;  238.825;    0.000
336.616; 1282.725;  261.825;    0.000
336.674; 1247.725;  200.825;    0.000
336.732; 1254.725;  208.825;    0.000
336.790; 1284.725;  183.825;    0.000
336.848; 1332.725;  199.825;    0.000
336.906; 1310.725;  240.825;    0.000
336.964; 1299.725;  234.825;    0.000
337.022; 1368.725;  282.825;    0.000
337.080; 1363.725;  265.825;    0.000
337.138; 1353.725;  255.825;    0.000
337.195; 1216.725;  200.825;    0.000
337.253; 1263.725;  199.825;    0.000
337.311; 1245.725;  233.825;    0.000
337.369; 1235.725;  250.825;    0.000
337.427; 1306.725;  201.825;    0.000
337.485; 1219.725;  228.825;    0.000
337.543; 1263.725;  221.825;    0.000
337.601; 1238.725;  232.825;    0.000
337.658; 1271.725;  215.825;    0.000
337.716; 1278.725;  198.825;    0.000
337.774; 1201.725;  262.825;    0.000
337.832; 1231.725;  220.825;    0.000
337.890; 1178.725;  194.825;    0.000
337.947; 1207.725;  205.825;    0.000
338.005; 1198.725;  229.825;    0.000
338.063; 1204.725;  237.825;    0.000
338.121; 1285.725;  220.825;    0.000
338.178; 1262.725;  227.825;    0.000
338.236; 1237.725;  238.825;    0.000
338.294; 1246.725;  242.825;    0.000
338.352; 1239.725;  230.825;    0.000
338.409; 1272.725;  222.825;    0.000
338.467; 1214.725;  233.825;    0.000
338.525; 1270.725;  253.825;    0.000
338.583; 1230.725;  221.825;    0.000
338.640; 1177.725;  225.825;    0.000
338.698; 1183.725;  229.825;    0.000
338.756; 1272.725;  238.825;    0.000
338.813; 1230.725;  260.825;    0.000
338.871; 1346.725;  246.825;    0.000
338.928; 1274.725;  240.825;    0.000
338.986; 1259.725;  228.825;    0.000
339.044; 1229.725;  265.825;    0.000
339.101; 1234.725;  224.825;    0.000
339.159; 1214.725;  235.825;    0.000
339.216; 1236.725;  244.825;    0.000
339.274; 1243.725;  266.825;    0.000
339.332; 1272.725;  248.825;    0.000
339.389; 1276.725;  246.825;    0.000
339.447; 1302.725;  237.825;    0.000
339.504; 1243.725;  244.825;    0.000
339.562; 1257.725;  249.825;    0.000
339.619; 1263.725;  266.825;    0.000
339.677; 1227.725;  263.825;    0.000
339.734; 1206.725;  216.825;    0.000
339.792; 1259.725;  276.825;    0.000
339.849; 1228.725;  240.825;    0.000
339.907; 1197.725;  275.825;    0.000
339.964; 1215.725;  243.825;    0.000
340.022; 1248.725;  224.825;    0.000
340.079; 1257.725;  230.825;    0.000
340.137; 1311.725;  232.825;    0.000
340.194; 1328.725;  261.825;    0.000
340.252; 1243.725;  219.825;    0.000
340.309; 1245.725;  212.825;    0.000
340.366; 1234.725;  231.825;    0.000
340.424; 1207.725;  244.825;    0.000
340.481; 1271.725;  238.825;    0.000
340.538; 1179.725;  217.825;    0.000
340.596; 1324.725;  224.825;    0.000
340.653; 1338.725;  225.825;    0.000
340.711; 1327.725;  276.825;    0.000
340.768; 1297.725;  239.825;    0.000
340.825; 1335.725;  216.825;    0.000
340.883; 1211.725;  264.825;    0.000
340.940; 1270.725;  256.825;    0.000
340.997; 1289.725;  230.825;    0.000
341.054; 1262.725;  229.825;    0.000
341.112; 1297.725;  220.825;    0.000
341.169; 1285.725;  276.825;    0.000
341.226; 1218.725;  224.825;    0.000
341.284; 1338.725;  235.825;    0.000
341.341; 1354.725;  226.825;    0.000
341.398; 1286.725;  200.825;    0.000
341.455; 1270.725;  242.825;    0.000
341.512; 1272.725;  226.825;    0.000
341.570; 1268.725;  299.825;    0.000
341.627; 1252.725;  221.825;    0.000
341.684; 1238.725;  204.825;    0.000
341.741; 1388.725;  285.825;    0.000
341.798; 1331.725;  237.825;    0.000
341.856; 1305.725;  223.825;    0.000
341.913; 1319.725;  232.825;    0.000
341.970; 1310.725;  250.825;    0.000
342.027; 1327.725;  272.825;    0.000
342.084; 1271.725;  242.825;    0.000
342.141; 1238.725;  207.825;    0.000
342.198; 1329.725;  252.825;    0.000
342.255; 1312.725;  189.825;    0.000
342.313; 1267.725;  222.825;    0.000
342.370; 1201.725;  203.825;    0.000
342.427; 1262.725;  261.825;    0.000
342.484; 1286.725;  230.825;    0.000
342.541; 1249.725;  224.825;    0.000
342.598; 1257.725;  245.825;    0.000
342.655; 1258.725;  235.825;    0.000
342.712; 1258.725;  238.825;    0.000
342.769; 1224.725;  235.825;    0.000
342.826; 1228.725;  232.825;    0.000
342.883; 1172.725;  212.825;    0.000
342.940; 1148.725;  189.825;    0.000
342.997; 1142.725;  241.825;    0.000
343.054; 1229.725;  235.825;    0.000
343.111; 1149.725;  216.825;    0.000
343.168; 1237.725;  202.825;    0.000
343.225; 1227.725;  228.825;    0.000
343.282; 1332.725;  208.825;    0.000
343.339; 1342.725;  241.825;    0.000
343.395; 1290.725;  206.825;    0.000
343.452; 1288.725;  227.825;    0.000
343.509; 1169.725;  212.825;    0.000
343.566; 1311.725;  266.825;    0.000
343.623; 1222.725;  240.825;    0.000
343.680; 1240.725;  215.825;    0.000
343.737; 1195.725;  231.825;    0.000
343.794; 1378.725;  256.825;    0.000
343.850; 1341.725;  235.825;    0.000
343.907; 1282.725;  246.825;    0.000
343.964; 1317.725;  241.825;    0.000
344.021; 1335.725;  237.825;    0.000
344.078; 1308.725;  248.825;    0.000
344.134; 1316.725;  225.825;    0.000
344.191; 1318.725;  209.825;    0.000
344.248; 1368.725;  234.825;    0.000
344.305; 1307.725;  224.825;    0.000
344.361; 1351.725;  194.825;    0.000
344.418; 1305.725;  240.825;    0.000
344.475; 1364.725;  252.825;    0.000
344.532; 1311.725;  251.825;    0.000
344.588; 1313.725;  240.825;    0.000
344.645; 1311.725;  253.825;    0.000
344.702; 1318.725;  216.825;    0.000
344.758; 1349.725;  258.825;    0.000
344.815; 1287.725;  239.825;    0.000
344.872; 1288.725;  216.825;    0.000
344.928; 1307.725;  236.825;    0.000
344.985; 1370.725;  238.825;    0.000
345.042; 1310.725;  211.825;    0.000
345.098; 1327.725;  223.825;    0.000
345.155; 1267.725;  266.825;    0.000
345.212; 1265.725;  266.825;    0.000
345.268; 1360.725;  245.825;    0.000
345.325; 1272.725;  225.825;    0.000
345.381; 1311.725;  223.825;    0.000
345.438; 1327.725;  259.825;    0.000
345.495; 1406.725;  233.825;    0.000
345.551; 1389.725;  254.825;    0.000
345.608; 1299.725;  212.825;    0.000
345.664; 1339.725;  225.825;    0.000
345.721; 1293.725;  223.825;    0.000
345.777; 1230.725;  226.825;    0.000
345.834; 1186.725;  215.825;    0.000
345.890; 1285.725;  230.825;    0.000
345.947; 1311.725;  232.825;    0.000
346.003; 1266.725;  241.825;    0.000
346.060; 1302.725;  241.825;    0.000
346.116; 1336.725;  231.825;    0.000
346.173; 1328.725;  229.825;    0.000
346.229; 1255.725;  262.825;    0.000
346.285; 1300.725;  232.825;    0.000
346.342; 1278.725;  228.825;    0.000
346.398; 1307.725;  203.825;    0.000
346.455; 1357.725;  214.825;    0.000
346.511; 1373.725;  245.825;    0.000
346.567; 1369.725;  192.825;    0.000
346.624; 1312.725;  206.825;    0.000
346.680; 1349.725;  209.825;    0.000
346.737; 1368.725;  239.825;    0.000
346.793; 1364.725;  234.825;    0.000
346.849; 1374.725;  252.825;    0.000
346.906; 1363.725;  247.825;    0.000
346.962; 1494.725;  274.825;    0.000
347.018; 1435.725;  225.825;    0.000
347.074; 1375.725;  261.825;    0.000
347.131; 1358.725;  230.825;    0.000
347.187; 1371.725;  269.825;    0.000
347.243; 1362.725;  261.825;    0.000
347.300; 1381.725;  236.825;    0.000
347.356; 1365.725;  284.825;    0.000
347.412; 1416.725;  243.825;    0.000
347.468; 1287.725;  276.825;    0.000
347.524; 1326.725;  232.825;    0.000
347.581; 1356.725;  242.825;    0.000
347.637; 1346.725;  270.825;    0.000
347.693; 1351.725;  269.825;    0.000
347.749; 1345.725;  278.825;    0.000
347.805; 1308.725;  224.825;    0.000
347.862; 1307.725;  207.825;    0.000
347.918; 1310.725;  259.825;    0.000
347.974; 1299.725;  244.825;    0.000
348.030; 1262.725;  219.825;    0.000
348.086; 1317.725;  250.825;    0.000
348.142; 1297.725;  251.825;    0.000
348.198; 1324.725;  267.825;    0.000
348.254; 1219.725;  230.825;    0.000
348.311; 1282.725;  261.825;    0.000
348.367; 1314.725;  259.825;    0.000
348.423; 1282.725;  251.825;    0.000
348.479; 1319.725;  251.825;    0.000
348.535; 1289.725;  269.825;    0.000
348.591; 1356.725;  238.825;    0.000
348.647; 1328.725;  273.825;    0.000
348.703; 1320.725;  291.825;    0.000
348.759; 1313.725;  231.825;    0.000
348.815; 1242.725;  286.825;    0.000
348.871; 1259.725;  265.825;    0.000
348.927; 1235.725;  234.825;    0.000
348.983; 1371.725;  267.825;    0.000
349.039; 1324.725;  233.825;    0.000
349.095; 1338.725;  225.825;    0.000
349.151; 1365.725;  242.825;    0.000
349.207; 1221.725;  223.825;    0.000
349.263; 1331.725;  219.825;    0.000
349.319; 1305.725;  226.825;    0.000
349.374; 1312.725;  232.825;    0.000
349.430; 1336.725;  235.825;    0.000
349.486; 1360.725;  227.825;    0.000
349.542; 1337.725;  253.825;    0.000
349.598; 1332.725;  227.825;    0.000
349.654; 1355.725;  270.825;    0.000
349.710; 1283.725;  233.825;    0.000
349.766; 1321.725;  245.825;    0.000
349.821; 1280.725;  242.825;    0.000
349.877; 1329.725;  229.825;    0.000
349.933; 1327.725;  229.825;    0.000
349.989; 1295.725;  230.825;    0.000
350.045; 1240.725;  236.825;    0.000
350.100; 1329.725;  237.825;    0.000
350.156; 1304.725;  230.825;    0.000
350.212; 1307.725;  254.825;    0.000
350.268; 1225.725;  239.825;    0.000
350.323; 1263.725;  204.825;    0.000
350.379; 1300.725;  246.825;    0.000
350.435; 1327.725;  249.825;    0.000
350.491; 1319.725;  217.825;    0.000
350.546; 1342.725;  231.825;    0.000
350.602; 1275.725;  240.825;    0.000
350.658; 1341.725;  235.825;    0.000
350.713; 1275.725;  234.825;    0.000
350.769; 1251.725;  218.825;    0.000
350.825; 1310.725;  227.825;    0.000
350.880; 1301.725;  226.825;    0.000
350.936; 1372.725;  247.825;    0.000
350.992; 1347.725;  213.825;    0.000
351.047; 1349.725;  207.825;    0.000
351.103; 1260.725;  271.825;    0.000
351.158; 1316.725;  251.825;    0.000
351.214; 1301.725;  199.825;    0.000
351.270; 1255.725;  214.825;    0.000
351.325; 1348.725;  235.825;    0.000
351.381; 1337.725;  223.825;    0.000
351.436; 1357.725;  237.825;    0.000
351.492; 1314.725;  221.825;    0.000
351.547; 1341.725;  237.825;    0.000
351.603; 1333.725;  239.825;    0.000
351.658; 1328.725;  209.825;    0.000
351.714; 1378.725;  226.825;    0.000
351.769; 1356.725;  238.825;    0.000
351.825; 1418.725;  226.825;    0.000
351.880; 1396.725;  217.825;    0.000
351.936; 1379.725;  246.825;    0.000
351.991; 1354.725;  233.825;    0.000
352.047; 1301.725;  215.825;    0.000
352.102; 1264.725;  243.825;    0.000
352.158; 1285.725;  234.825;    0.000
352.213; 1295.725;  201.825;    0.000
352.268; 1270.725;  234.825;    0.000
352.324; 1326.725;  211.825;    0.000
352.379; 1329.725;  221.825;    0.000
352.434; 1310.725;  259.825;    0.000
352.490; 1313.725;  250.825;    0.000
352.545; 1326.725;  251.825;    0.000
352.601; 1334.725;  283.825;    0.000
352.656; 1344.725;  236.825;    0.000
352.711; 1280.725;  237.825;    0.000
352.767; 1250.725;  201.825;    0.000
352.822; 1326.725;  209.825;    0.000
352.877; 1280.725;  239.825;    0.000
352.932; 1321.725;  228.825;    0.000
352.988; 1227.725;  202.825;    0.000
353.043; 1312.725;  268.825;    0.000
353.098; 1300.725;  208.825;    0.000
353.153; 1357.725;  219.825;    0.000
353.209; 1298.725;  252.825;    0.000
353.264; 1255.725;  225.825;    0.000
353.319; 1277.725;  234.825;    0.000
353.374; 1269.725;  236.825;    0.000
353.430; 1244.725;  245.825;    0.000
353.485; 1304.725;  238.825;    0.000
353.540; 1269.725;  238.825;    0.000
353.595; 1332.725;  215.825;    0.000
353.650; 1286.725;  238.825;    0.000
353.705; 1281.725;  274.825;    0.000
353.761; 1233.725;  229.825;    0.000
353.816; 1230.725;  275.825;    0.000
353.871; 1279.725;  245.825;    0.000
353.926; 1236.725;  253.825;    0.000
353.981; 1294.725;  269.825;    0.000
354.036; 1300.725;  246.825;    0.000
354.091; 1234.725;  257.825;    0.000
354.146; 1317.725;  278.825;    0.000
354.201; 1299.725;  276.825;    0.000
354.256; 1330.725;  224.825;    0.000
354.311; 1335.725;  287.825;    0.000
354.367; 1316.725;  210.825;    0.000
354.422; 1280.725;  231.825;    0.000
354.477; 1325.725;  226.825;    0.000
354.532; 1318.725;  262.825;    0.000
354.587; 1273.725;  275.825;    0.000
354.642; 1281.725;  247.825;    0.000
354.697; 1323.725;  251.825;    0.000
354.751; 1338.725;  249.825;    0.000
354.806; 1306.725;  217.825;    0.000
354.861; 1296.725;  247.825;    0.000
354.916; 1314.725;  259.825;    0.000
354.971; 1315.725;  241.825;    0.000
355.026; 1302.725;  250.825;    0.000
355.081; 1296.725;  244.825;    0.000
355.136; 1239.725;  203.825;    0.000
355.191; 1242.725;  241.825;    0.000
355.246; 1309.725;  248.825;    0.000
355.301; 1292.725;  259.825;    0.000
355.355; 1309.725;  236.825;    0.000
355.410; 1297.725;  221.825;    0.000
355.465; 1306.725;  206.825;    0.000
355.520; 1244.725;  258.825;    0.000
355.575; 1321.725;  273.825;    0.000
355.630; 1308.725;  252.825;    0.000
355.684; 1380.725;  246.825;    0.000
355.739; 1296.725;  251.825;    0.000
355.794; 1279.725;  247.825;    0.000
355.849; 1246.725;  246.825;    0.000
355.904; 1319.725;  262.825;    0.000
355.958; 1281.725;  249.825;    0.000
356.013; 1265.725;  213.825;    0.000
356.068; 1261.725;  255.825;    0.000
356.123; 1282.725;  205.825;    0.000
356.177; 1295.725;  239.825;    0.000
356.232; 1308.725;  258.825;    0.000
356.287; 1296.725;  248.825;    0.000
356.341; 1274.725;  221.825;    0.000
356.396; 1262.725;  220.825;    0.000
356.451; 1291.725;  231.825;    0.000
356.505; 1249.725;  231.825;    0.000
356.560; 1309.725;  254.825;    0.000
356.615; 1274.725;  234.825;    0.000
356.669; 1324.725;  250.825;    0.000
356.724; 1307.725;  261.825;    0.000
356.778; 1290.725;  207.825;    0.000
356.833; 1228.725;  205.825;    0.000
356.888; 1294.725;  235.825;    0.000
356.942; 1303.725;  205.825;    0.000
356.997; 1297.725;  276.825;    0.000
357.051; 1268.725;  243.825;    0.000
357.106; 1285.725;  242.825;    0.000
357.160; 1244.725;  241.825;    0.000
357.215; 1249.725;  212.825;    0.000
357.269; 1292.725;  238.825;    0.000
357.324; 1313.725;  223.825;    0.000
357.378; 1252.725;  221.825;    0.000
357.433; 1255.725;  262.825;    0.000
357.487; 1172.725;  246.825;    0.000
357.542; 1231.725;  221.825;    0.000
357.596; 1316.725;  225.825;    0.000
357.651; 1273.725;  244.825;    0.000
357.705; 1257.725;  269.825;    0.000
357.760; 1365.725;  209.825;    0.000
357.814; 1299.725;  250.825;    0.000
357.868; 1227.725;  266.825;    0.000
357.923; 1240.725;  248.825;    0.000
357.977; 1194.725;  262.825;    0.000
358.032; 1290.725;  228.825;    0.000
358.086; 1215.725;  257.825;    0.000
358.140; 1295.725;  217.825;    0.000
358.195; 1263.725;  246.825;    0.000
358.249; 1332.725;  255.825;    0.000
358.303; 1280.725;  252.825;    0.000
358.358; 1259.725;  278.825;    0.000
358.412; 1243.725;  276.825;    0.000
358.466; 1191.725;  275.825;    0.000
358.521; 1243.725;  229.825;    0.000
358.575; 1303.725;  270.825;    0.000
358.629; 1225.725;  239.825;    0.000
358.683; 1267.725;  254.825;    0.000
358.738; 1289.725;  239.825;    0.000
358.792; 1213.725;  272.825;    0.000
358.846; 1275.725;  289.825;    0.000
358.900; 1284.725;  299.825;    0.000
358.954; 1219.725;  247.825;    0.000
359.009; 1256.725;  245.825;    0.000
359.063; 1220.725;  272.825;    0.000
359.117; 1211.725;  242.825;    0.000
359.171; 1251.725;  279.825;    0.000
359.225; 1219.725;  221.825;    0.000
359.280; 1229.725;  238.825;    0.000
359.334; 1219.725;  264.825;    0.000
359.388; 1295.725;  273.825;    0.000
359.442; 1241.725;  233.825;    0.000
359.496; 1277.725;  226.825;    0.000
359.550; 1266.725;  271.825;    0.000
359.604; 1241.725;  296.825;    0.000
359.658; 1201.725;  252.825;    0.000
359.712; 1234.725;  256.825;    0.000
359.766; 1254.725;  257.825;    0.000
359.820; 1212.725;  239.825;    0.000
359.875; 1238.725;  252.825;    0.000
359.929; 1192.725;  258.825;    0.000
359.983; 1170.725;  232.825;    0.000
360.037; 1230.725;  268.825;    0.000
360.091; 1255.725;  303.825;    0.000
360.145; 1208.725;  232.825;    0.000
360.199; 1261.725;  255.825;    0.000
360.253; 1242.725;  252.825;    0.000
360.306; 1246.725;  278.825;    0.000
360.360; 1269.725;  249.825;    0.000
360.414; 1281.725;  274.825;    0.000
360.468; 1260.725;  247.825;    0.000
360.522; 1206.725;  268.825;    0.000
360.576; 1290.725;  263.825;    0.000
360.630; 1262.725;  296.825;    0.000
360.684; 1212.725;  253.825;    0.000
360.738; 1287.725;  301.825;    0.000
360.792; 1314.725;  282.825;    0.000
360.846; 1178.725;  277.825;    0.000
360.899; 1290.725;  292.825;    0.000
360.953; 1265.725;  266.825;    0.000
361.007; 1295.725;  240.825;    0.000
361.061; 1258.725;  247.825;    0.000
361.115; 1224.725;  276.825;    0.000
361.168; 1256.725;  288.825;    0.000
361.222; 1250.725;  271.825;    0.000
361.276; 1229.725;  270.825;    0.000
361.330; 1236.725;  295.825;    0.000
361.384; 1241.725;  276.825;    0.000
361.437; 1255.725;  280.825;    0.000
361.491; 1252.725;  261.825;    0.000
361.545; 1222.725;  273.825;    0.000
361.599; 1249.725;  269.825;    0.000
361.652; 1280.725;  258.825;    0.000
361.706; 1217.725;  270.825;    0.000
361.760; 1261.725;  294.825;    0.000
361.813; 1264.725;  244.825;    0.000
361.867; 1328.725;  294.825;    0.000
361.921; 1215.725;  285.825;    0.000
361.974; 1230.725;  269.825;    0.000
362.028; 1208.725;  275.825;    0.000
362.082; 1247.725;  270.825;    0.000
362.135; 1221.725;  259.825;    0.000
362.189; 1215.725;  302.825;    0.000
362.242; 1262.725;  296.825;    0.000
362.296; 1231.725;  285.825;    0.000
362.350; 1261.725;  303.825;    0.000
362.403; 1198.725;  271.825;    0.000
362.457; 1259.725;  285.825;    0.000
362.510; 1186.725;  288.825;    0.000
362.564; 1165.725;  268.825;    0.000
362.617; 1212.725;  285.825;    0.000
362.671; 1218.725;  277.825;    0.000
362.724; 1189.725;  242.825;    0.000
362.778; 1232.725;  274.825;    0.000
362.831; 1190.725;  280.825;    0.000
362.885; 1253.725;  284.825;    0.000
362.938; 1202.725;  276.825;    0.000
362.992;  318.725;  289.825;    0.000
363.045;  271.725;  247.825;    0.000
363.099;  276.725;  260.825;    0.000
363.152;  284.725;  258.825;    0.000
363.205;  290.725;  286.825;    0.000
363.259;  250.725;  236.825;    0.000
363.312;  297.725;  297.825;    0.000
363.366;  281.725;  266.825;    0.000
363.419;  315.725;  309.825;    0.000
363.472;  324.725;  293.825;    0.000
363.526;  300.725;  270.825;    0.000
363.579;  282.725;  276.825;    0.000
363.632;  266.725;  279.825;    0.000
363.686;  273.725;  292.825;    0.000
363.739;  273.725;  248.825;    0.000
363.792;  289.725;  287.825;    0.000

