
Integration time [ms]:   1.000
Averaging Nr. [scans]: 1
Smoothing Nr. [pixels]: 0
Data measured with spectrometer [name]: VIS
Wave   ;Sample   ;Dark     ;Reference
[nm]   ;[counts] ;[counts] ;[counts] 

450.961;  180.850;  200.375;    0.000
451.100;  196.850;  241.375;    0.000
451.239;  229.850;  201.375;    0.000
451.377;  265.850;  262.375;    0.000
451.516;  184.850;  229.375;    0.000
451.655;  210.850;  211.375;    0.000
451.794;  222.850;  225.375;    0.000
451.932;  235.850;  247.375;    0.000
452.071;  235.850;  260.375;    0.000
452.210;  234.850;  235.375;    0.000
452.348;  199.850;  276.375;    0.000
452.487;  229.850;  259.375;    0.000
452.626;  228.850;  254.375;    0.000
452.764;  198.850;  233.375;    0.000
452.903;  189.850;  202.375;    0.000
453.042;  268.850;  211.375;    0.000
453.180; 2973.850;  240.375;    0.000
453.319; 3058.850;  238.375;    0.000
453.458; 3093.850;  215.375;    0.000
453.596; 3093.850;  252.375;    0.000
453.735; 3138.850;  240.375;    0.000
453.873; 3159.850;  257.375;    0.000
454.012; 3189.850;  228.375;    0.000
454.150; 3153.850;  270.375;    0.000
454.289; 3117.850;  233.375;    0.000
454.427; 3193.850;  243.375;    0.000
454.566; 3272.850;  257.375;    0.000
454.704; 3255.850;  243.375;    0.000
454.843; 3339.850;  190.375;    0.000
454.981; 3383.850;  271.375;    0.000
455.120; 3385.850;  210.375;    0.000
455.258; 3440.850;  235.375;    0.000
455.397; 3432.850;  214.375;    0.000
455.535; 3422.850;  214.375;    0.000
455.674; 3546.850;  184.375;    0.000
455.812; 3533.850;  228.375;    0.000
455.951; 3588.850;  204.375;    0.000
456.089; 3648.850;  220.375;    0.000
456.227; 3691.850;  196.375;    0.000
456.366; 3779.850;  261.375;    0.000
456.504; 3653.850;  249.375;    0.000
456.642; 3804.850;  245.375;    0.000
456.781; 3800.850;  183.375;    0.000
456.919; 3738.850;  203.375;    0.000
457.057; 3872.850;  177.375;    0.000
457.196; 3959.850;  191.375;    0.000
457.334; 4018.850;  233.375;    0.000
457.472; 4008.850;  214.375;    0.000
457.610; 4117.850;  230.375;    0.000
457.749; 4146.850;  247.375;    0.000
457.887; 4218.850;  220.375;    0.000
458.025; 4195.850;  195.375;    0.000
458.163; 4210.850;  224.375;    0.000
458.301; 4319.850;  228.375;    0.000
458.440; 4351.850;  200.375;    0.000
458.578; 4519.850;  233.375;    0.000
458.716; 4510.850;  182.375;    0.000
458.854; 4641.850;  251.375;    0.000
458.992; 4742.850;  187.375;    0.000
459.130; 4742.850;  229.375;    0.000
459.269; 4874.850;  237.375;    0.000
459.407; 4887.850;  228.375;    0.000
459.545; 5029.850;  216.375;    0.000
459.683; 5095.850;  204.375;    0.000
459.821; 5139.850;  191.375;    0.000
459.959; 5175.850;  227.375;    0.000
460.097; 5248.850;  221.375;    0.000
460.235; 5191.850;  241.375;    0.000
460.373; 5364.850;  231.375;    0.000
460.511; 5324.850;  214.375;    0.000
460.649; 5422.850;  172.375;    0.000
460.787; 5412.850;  275.375;    0.000
460.925; 5466.850;  175.375;    0.000
461.063; 5462.850;  252.375;    0.000
461.201; 5476.850;  210.375;    0.000
461.339; 5553.850;  237.375;    0.000
461.477; 5412.850;  210.375;    0.000
461.615; 5697.850;  236.375;    0.000
461.753; 5641.850;  215.375;    0.000
461.891; 5826.850;  222.375;    0.000
462.029; 5981.850;  227.375;    0.000
462.166; 6092.850;  202.375;    0.000
462.304; 5991.850;  191.375;    0.000
462.442; 6137.850;  210.375;    0.000
462.580; 6335.850;  184.375;    0.000
462.718; 6193.850;  220.375;    0.000
462.856; 6216.850;  226.375;    0.000
462.993; 6470.850;  254.375;    0.000
463.131; 6475.850;  200.375;    0.000
463.269; 6276.850;  215.375;    0.000
463.407; 6075.850;  213.375;    0.000
463.545; 5900.850;  242.375;    0.000
463.682; 6085.850;  212.375;    0.000
463.820; 6280.850;  185.375;    0.000
463.958; 6646.850;  212.375;    0.000
464.095; 6688.850;  181.375;    0.000
464.233; 6684.850;  192.375;    0.000
464.371; 6575.850;  247.375;    0.000
464.509; 6482.850;  151.375;    0.000
464.646; 6605.850;  207.375;    0.000
464.784; 6372.850;  199.375;    0.000
464.921; 6530.850;  253.375;    0.000
465.059; 6244.850;  214.375;    0.000
465.197; 6097.850;  200.375;    0.000
465.334; 5953.850;  180.375;    0.000
465.472; 5852.850;  204.375;    0.000
465.609; 5787.850;  203.375;    0.000
465.747; 5682.850;  214.375;    0.000
465.885; 5633.850;  233.375;    0.000
466.022; 5641.850;  215.375;    0.000
466.160; 5622.850;  201.375;    0.000
466.297; 5628.850;  196.375;    0.000
466.435; 5493.850;  230.375;    0.000
466.572; 5711.850;  227.375;    0.000
466.710; 5529.850;  218.375;    0.000
466.847; 5535.850;  245.375;    0.000
466.985; 5514.850;  223.375;    0.000
467.122; 5557.850;  168.375;    0.000
467.260; 5428.850;  196.375;    0.000
467.397; 5433.850;  198.375;    0.000
467.534; 5518.850;  219.375;    0.000
467.672; 5557.850;  214.375;    0.000
467.809; 5523.850;  185.375;    0.000
467.947; 5416.850;  247.375;    0.000
468.084; 5477.850;  196.375;    0.000
468.221; 5521.850;  238.375;    0.000
468.359; 5515.850;  236.375;    0.000
468.496; 5468.850;  235.375;    0.000
468.633; 5382.850;  218.375;    0.000
468.771; 5471.850;  223.375;    0.000
468.908; 5477.850;  208.375;    0.000
469.045; 5558.850;  249.375;    0.000
469.183; 5572.850;  222.375;    0.000
469.320; 5657.850;  216.375;    0.000
469.457; 5716.850;  224.375;    0.000
469.594; 5669.850;  259.375;    0.000
469.732; 5809.850;  223.375;    0.000
469.869; 5782.850;  234.375;    0.000
470.006; 5829.850;  225.375;    0.000
470.143; 5908.850;  243.375;    0.000
470.280; 5967.850;  208.375;    0.000
470.417; 5899.850;  232.375;    0.000
470.555; 5991.850;  218.375;    0.000
470.692; 5897.850;  223.375;    0.000
470.829; 6018.850;  238.375;    0.000
470.966; 6022.850;  205.375;    0.000
471.103; 5852.850;  259.375;    0.000
471.240; 5794.850;  214.375;    0.000
471.377; 5767.850;  226.375;    0.000
471.514; 5873.850;  250.375;    0.000
471.651; 5799.850;  221.375;    0.000
471.789; 5776.850;  242.375;    0.000
471.926; 5737.850;  190.375;    0.000
472.063; 5804.850;  234.375;    0.000
472.200; 5679.850;  252.375;    0.000
472.337; 5608.850;  241.375;    0.000
472.474; 5626.850;  244.375;    0.000
472.611; 5709.850;  268.375;    0.000
472.748; 5512.850;  222.375;    0.000
472.884; 5682.850;  271.375;    0.000
473.021; 5624.850;  195.375;    0.000
473.158; 5629.850;  205.375;    0.000
473.295; 5593.850;  223.375;    0.000
473.432; 5554.850;  216.375;    0.000
473.569; 5727.850;  196.375;    0.000
473.706; 5550.850;  190.375;    0.000
473.843; 5517.850;  211.375;    0.000
473.980; 5529.850;  254.375;    0.000
474.117; 5517.850;  185.375;    0.000
474.253; 5664.850;  229.375;    0.000
474.390; 5505.850;  238.375;    0.000
474.527; 5561.850;  220.375;    0.000
474.664; 5641.850;  242.375;    0.000
474.801; 5643.850;  229.375;    0.000
474.937; 5616.850;  229.375;    0.000
475.074; 5659.850;  210.375;    0.000
475.211; 5779.850;  219.375;    0.000
475.348; 5665.850;  226.375;    0.000
475.484; 5810.850;  207.375;    0.000
475.621; 5658.850;  233.375;    0.000
475.758; 5696.850;  230.375;    0.000
475.894; 5736.850;  234.375;    0.000
476.031; 5693.850;  202.375;    0.000
476.168; 5805.850;  222.375;    0.000
476.304; 5799.850;  237.375;    0.000
476.441; 5930.850;  238.375;    0.000
476.578; 5850.850;  216.375;    0.000
476.714; 5931.850;  212.375;    0.000
476.851; 5775.850;  210.375;    0.000
476.987; 6050.850;  239.375;    0.000
477.124; 6067.850;  250.375;    0.000
477.261; 5989.850;  227.375;    0.000
477.397; 6020.850;  189.375;    0.000
477.534; 6120.850;  204.375;    0.000
477.670; 6181.850;  190.375;    0.000
477.807; 6226.850;  198.375;    0.000
477.943; 6253.850;  216.375;    0.000
478.080; 6266.850;  213.375;    0.000
478.216; 6360.850;  239.375;    0.000
478.353; 6377.850;  218.375;    0.000
478.489; 6497.850;  184.375;    0.000
478.626; 6469.850;  223.375;    0.000
478.762; 6585.850;  213.375;    0.000
478.898; 6694.850;  216.375;    0.000
479.035; 6675.850;  250.375;    0.000
479.171; 6629.850;  201.375;    0.000
479.308; 6511.850;  242.375;    0.000
479.444; 6431.850;  205.375;    0.000
479.580; 6523.850;  203.375;    0.000
479.717; 6564.850;  260.375;    0.000
479.853; 6721.850;  225.375;    0.000
479.989; 6820.850;  226.375;    0.000
480.126; 6728.850;  211.375;    0.000
480.262; 6818.850;  220.375;    0.000
480.398; 6830.850;  207.375;    0.000
480.535; 6755.850;  179.375;    0.000
480.671; 6816.850;  200.375;    0.000
480.807; 6730.850;  190.375;    0.000
480.943; 6685.850;  165.375;    0.000
481.080; 6643.850;  210.375;    0.000
481.216; 6566.850;  232.375;    0.000
481.352; 6596.850;  235.375;    0.000
481.488; 6567.850;  208.375;    0.000
481.624; 6545.850;  245.375;    0.000
481.760; 6492.850;  210.375;    0.000
481.897; 6539.850;  189.375;    0.000
482.033; 6654.850;  256.375;    0.000
482.169; 6580.850;  257.375;    0.000
482.305; 6481.850;  199.375;    0.000
482.441; 6488.850;  182.375;    0.000
482.577; 6534.850;  223.375;    0.000
482.713; 6403.850;  243.375;    0.000
482.849; 6562.850;  197.375;    0.000
482.985; 6567.850;  240.375;    0.000
483.121; 6456.850;  210.375;    0.000
483.258; 6667.850;  248.375;    0.000
483.394; 6442.850;  224.375;    0.000
483.530; 6619.850;  209.375;    0.000
483.665; 6630.850;  225.375;    0.000
483.801; 6484.850;  216.375;    0.000
483.937; 6606.850;  211.375;    0.000
484.073; 6607.850;  259.375;    0.000
484.209; 6744.850;  191.375;    0.000
484.345; 6841.850;  239.375;    0.000
484.481; 6760.850;  231.375;    0.000
484.617; 6775.850;  216.375;    0.000
484.753; 6688.850;  180.375;    0.000
484.889; 6816.850;  252.375;    0.000
485.025; 6783.850;  244.375;    0.000
485.161; 6828.850;  242.375;    0.000
485.296; 6906.850;  235.375;    0.000
485.432; 6854.850;  247.375;    0.000
485.568; 6882.850;  203.375;    0.000
485.704; 6786.850;  229.375;    0.000
485.840; 6934.850;  230.375;    0.000
485.975; 6929.850;  266.375;    0.000
486.111; 6795.850;  220.375;    0.000
486.247; 6901.850;  264.375;    0.000
486.383; 6841.850;  213.375;    0.000
486.518; 6931.850;  222.375;    0.000
486.654; 6865.850;  244.375;    0.000
486.790; 6854.850;  273.375;    0.000
486.926; 6725.850;  203.375;    0.000
487.061; 6925.850;  227.375;    0.000
487.197; 6988.850;  210.375;    0.000
487.333; 6731.850;  209.375;    0.000
487.468; 6751.850;  197.375;    0.000
487.604; 6675.850;  230.375;    0.000
487.740; 6837.850;  254.375;    0.000
487.875; 6964.850;  286.375;    0.000
488.011; 6940.850;  225.375;    0.000
488.146; 6792.850;  251.375;    0.000
488.282; 6758.850;  242.375;    0.000
488.417; 6769.850;  230.375;    0.000
488.553; 6818.850;  260.375;    0.000
488.688; 6724.850;  207.375;    0.000
488.824; 6772.850;  204.375;    0.000
488.960; 6811.850;  248.375;    0.000
489.095; 6737.850;  204.375;    0.000
489.230; 6795.850;  227.375;    0.000
489.366; 6828.850;  226.375;    0.000
489.501; 6708.850;  199.375;    0.000
489.637; 6928.850;  233.375;    0.000
489.772; 6615.850;  249.375;    0.000
489.908; 6706.850;  200.375;    0.000
490.043; 6884.850;  246.375;    0.000
490.178; 6774.850;  222.375;    0.000
490.314; 6710.850;  219.375;    0.000
490.449; 6658.850;  227.375;    0.000
490.585; 6651.850;  209.375;    0.000
490.720; 6606.850;  238.375;    0.000
490.855; 6675.850;  222.375;    0.000
490.991; 6639.850;  202.375;    0.000
491.126; 6665.850;  272.375;    0.000
491.261; 6666.850;  261.375;    0.000
491.396; 6665.850;  190.375;    0.000
491.532; 6542.850;  202.375;    0.000
491.667; 6574.850;  208.375;    0.000
491.802; 6577.850;  203.375;    0.000
491.937; 6797.850;  253.375;    0.000
492.073; 6765.850;  242.375;    0.000
492.208; 6563.850;  230.375;    0.000
492.343; 6715.850;  183.375;    0.000
492.478; 6861.850;  246.375;    0.000
492.613; 6679.850;  223.375;    0.000
492.749; 6695.850;  230.375;    0.000
492.884; 6534.850;  190.375;    0.000
493.019; 6736.850;  234.375;    0.000
493.154; 6725.850;  218.375;    0.000
493.289; 6664.850;  222.375;    0.000
493.424; 6790.850;  196.375;    0.000
493.559; 6909.850;  202.375;    0.000
493.694; 6656.850;  180.375;    0.000
493.829; 6661.850;  224.375;    0.000
493.964; 6752.850;  218.375;    0.000
494.099; 6763.850;  275.375;    0.000
494.234; 6689.850;  226.375;    0.000
494.369; 6862.850;  225.375;    0.000
494.504; 6651.850;  219.375;    0.000
494.639; 6772.850;  296.375;    0.000
494.774; 6688.850;  228.375;    0.000
494.909; 6647.850;  222.375;    0.000
495.044; 6607.850;  215.375;    0.000
495.179; 6650.850;  200.375;    0.000
495.314; 6790.850;  235.375;    0.000
495.449; 6692.850;  249.375;    0.000
495.584; 6740.850;  228.375;    0.000
495.719; 6856.850;  212.375;    0.000
495.854; 6755.850;  201.375;    0.000
495.988; 6727.850;  248.375;    0.000
496.123; 6842.850;  209.375;    0.000
496.258; 6850.850;  249.375;    0.000
496.393; 6874.850;  223.375;    0.000
496.528; 6888.850;  209.375;    0.000
496.663; 6796.850;  207.375;    0.000
496.797; 6931.850;  229.375;    0.000
496.932; 6985.850;  225.375;    0.000
497.067; 7111.850;  218.375;    0.000
497.202; 6972.850;  163.375;    0.000
497.336; 7146.850;  246.375;    0.000
497.471; 7228.850;  229.375;    0.000
497.606; 7249.850;  251.375;    0.000
497.740; 7474.850;  220.375;    0.000
497.875; 7484.850;  216.375;    0.000
498.010; 7599.850;  226.375;    0.000
498.144; 7654.850;  237.375;    0.000
498.279; 7829.850;  196.375;    0.000
498.414; 8007.850;  219.375;    0.000
498.548; 8226.850;  205.375;    0.000
498.683; 8454.850;  206.375;    0.000
498.817; 8643.850;  225.375;    0.000
498.952; 8907.850;  221.375;    0.000
499.087; 9122.850;  220.375;    0.000
499.221; 9565.850;  233.375;    0.000
499.356; 9929.850;  230.375;    0.000
499.490;10174.850;  229.375;    0.000
499.625;10686.850;  231.375;    0.000
499.759;11065.850;  243.375;    0.000
499.894;11597.850;  241.375;    0.000
500.028;12107.850;  264.375;    0.000
500.162;12399.850;  287.375;    0.000
500.297;12703.850;  234.375;    0.000
500.431;12891.850;  230.375;    0.000
500.566;12709.850;  213.375;    0.000
500.700;12708.850;  243.375;    0.000
500.835;12204.850;  272.375;    0.000
500.969;11578.850;  188.375;    0.000
501.103;11184.850;  200.375;    0.000
501.238;10865.850;  257.375;    0.000
501.372;10272.850;  224.375;    0.000
501.506; 9788.850;  225.375;    0.000
501.641; 9683.850;  271.375;    0.000
501.775; 9224.850;  199.375;    0.000
501.909; 8885.850;  249.375;    0.000
502.043; 8600.850;  211.375;    0.000
502.178; 8458.850;  269.375;    0.000
502.312; 8254.850;  198.375;    0.000
502.446; 8012.850;  256.375;    0.000
502.580; 7967.850;  195.375;    0.000
502.715; 7752.850;  224.375;    0.000
502.849; 7615.850;  245.375;    0.000
502.983; 7541.850;  250.375;    0.000
503.117; 7358.850;  193.375;    0.000
503.251; 7222.850;  242.375;    0.000
503.385; 7140.850;  227.375;    0.000
503.520; 7058.850;  235.375;    0.000
503.654; 7043.850;  220.375;    0.000
503.788; 6863.850;  267.375;    0.000
503.922; 6939.850;  220.375;    0.000
504.056; 6900.850;  238.375;    0.000
504.190; 6869.850;  212.375;    0.000
504.324; 6894.850;  265.375;    0.000
504.458; 6940.850;  228.375;    0.000
504.592; 6842.850;  231.375;    0.000
504.726; 6508.850;  218.375;    0.000
504.860; 6393.850;  253.375;    0.000
504.994; 6359.850;  217.375;    0.000
505.128; 6458.850;  243.375;    0.000
505.262; 6039.850;  194.375;    0.000
505.396; 6104.850;  210.375;    0.000
505.530; 5997.850;  211.375;    0.000
505.664; 5922.850;  219.375;    0.000
505.798; 5835.850;  240.375;    0.000
505.932; 5822.850;  240.375;    0.000
506.066; 5766.850;  252.375;    0.000
506.199; 5713.850;  242.375;    0.000
506.333; 5617.850;  244.375;    0.000
506.467; 5676.850;  223.375;    0.000
506.601; 5541.850;  183.375;    0.000
506.735; 5479.850;  249.375;    0.000
506.869; 5605.850;  270.375;    0.000
507.002; 5511.850;  207.375;    0.000
507.136; 5530.850;  242.375;    0.000
507.270; 5441.850;  232.375;    0.000
507.404; 5360.850;  195.375;    0.000
507.537; 5459.850;  218.375;    0.000
507.671; 5422.850;  246.375;    0.000
507.805; 5369.850;  244.375;    0.000
507.939; 5213.850;  251.375;    0.000
508.072; 5262.850;  212.375;    0.000
508.206; 5166.850;  198.375;    0.000
508.340; 5251.850;  234.375;    0.000
508.473; 5095.850;  217.375;    0.000
508.607; 5213.850;  224.375;    0.000
508.740; 5063.850;  207.375;    0.000
508.874; 5103.850;  230.375;    0.000
509.008; 5184.850;  246.375;    0.000
509.141; 5026.850;  239.375;    0.000
509.275; 5015.850;  229.375;    0.000
509.408; 5002.850;  234.375;    0.000
509.542; 4952.850;  212.375;    0.000
509.675; 5090.850;  256.375;    0.000
509.809; 4953.850;  232.375;    0.000
509.942; 5058.850;  237.375;    0.000
510.076; 4933.850;  226.375;    0.000
510.209; 4848.850;  251.375;    0.000
510.343; 4947.850;  229.375;    0.000
510.476; 4937.850;  285.375;    0.000
510.610; 4859.850;  211.375;    0.000
510.743; 4833.850;  258.375;    0.000
510.877; 4790.850;  244.375;    0.000
511.010; 4868.850;  235.375;    0.000
511.143; 4823.850;  251.375;    0.000
511.277; 4786.850;  228.375;    0.000
511.410; 4809.850;  216.375;    0.000
511.543; 4779.850;  231.375;    0.000
511.677; 4724.850;  244.375;    0.000
511.810; 4688.850;  186.375;    0.000
511.943; 4797.850;  211.375;    0.000
512.077; 4853.850;  201.375;    0.000
512.210; 4720.850;  194.375;    0.000
512.343; 4926.850;  233.375;    0.000
512.476; 4734.850;  234.375;    0.000
512.610; 4893.850;  224.375;    0.000
512.743; 4711.850;  255.375;    0.000
512.876; 4826.850;  264.375;    0.000
513.009; 4839.850;  283.375;    0.000
513.142; 4789.850;  246.375;    0.000
513.276; 4761.850;  217.375;    0.000
513.409; 4776.850;  222.375;    0.000
513.542; 4619.850;  237.375;    0.000
513.675; 4682.850;  238.375;    0.000
513.808; 4831.850;  220.375;    0.000
513.941; 4735.850;  233.375;    0.000
514.074; 4926.850;  248.375;    0.000
514.207; 4784.850;  233.375;    0.000
514.340; 4733.850;  190.375;    0.000
514.474; 4792.850;  221.375;    0.000
514.607; 4706.850;  213.375;    0.000
514.740; 4897.850;  251.375;    0.000
514.873; 4794.850;  257.375;    0.000
515.006; 4881.850;  268.375;    0.000
515.139; 4728.850;  257.375;    0.000
515.272; 4839.850;  227.375;    0.000
515.404; 4843.850;  238.375;    0.000
515.537; 5033.850;  275.375;    0.000
515.670; 4873.850;  239.375;    0.000
515.803; 4904.850;  223.375;    0.000
515.936; 4994.850;  202.375;    0.000
516.069; 5038.850;  188.375;    0.000
516.202; 5187.850;  240.375;    0.000
516.335; 5255.850;  252.375;    0.000
516.468; 5398.850;  254.375;    0.000
516.600; 6319.850;  254.375;    0.000
516.733; 7559.850;  255.375;    0.000
516.866; 7300.850;  265.375;    0.000
516.999; 6556.850;  251.375;    0.000
517.132; 7883.850;  256.375;    0.000
517.264;10774.850;  202.375;    0.000
517.397;10242.850;  248.375;    0.000
517.530; 7682.850;  221.375;    0.000
517.663; 6624.850;  244.375;    0.000
517.795; 6238.850;  245.375;    0.000
517.928; 6103.850;  236.375;    0.000
518.061; 6149.850;  219.375;    0.000
518.193; 7981.850;  251.375;    0.000
518.326;12366.850;  271.375;    0.000
518.459;12393.850;  207.375;    0.000
518.591; 9066.850;  217.375;    0.000
518.724; 6823.850;  200.375;    0.000
518.857; 6111.850;  204.375;    0.000
518.989; 5767.850;  242.375;    0.000
519.122; 5511.850;  254.375;    0.000
519.254; 5541.850;  239.375;    0.000
519.387; 5264.850;  235.375;    0.000
519.519; 5128.850;  227.375;    0.000
519.652; 5004.850;  178.375;    0.000
519.784; 4898.850;  226.375;    0.000
519.917; 4847.850;  256.375;    0.000
520.049; 4780.850;  234.375;    0.000
520.182; 4722.850;  258.375;    0.000
520.314; 4750.850;  298.375;    0.000
520.447; 4869.850;  204.375;    0.000
520.579; 4862.850;  235.375;    0.000
520.712; 4840.850;  208.375;    0.000
520.844; 4829.850;  272.375;    0.000
520.976; 4609.850;  234.375;    0.000
521.109; 4475.850;  235.375;    0.000
521.241; 4501.850;  250.375;    0.000
521.373; 4440.850;  233.375;    0.000
521.506; 4455.850;  231.375;    0.000
521.638; 4477.850;  258.375;    0.000
521.770; 4310.850;  226.375;    0.000
521.903; 4297.850;  258.375;    0.000
522.035; 4324.850;  263.375;    0.000
522.167; 4282.850;  214.375;    0.000
522.300; 4295.850;  212.375;    0.000
522.432; 4299.850;  220.375;    0.000
522.564; 4205.850;  228.375;    0.000
522.696; 4182.850;  272.375;    0.000
522.828; 4155.850;  222.375;    0.000
522.961; 4192.850;  205.375;    0.000
523.093; 4204.850;  253.375;    0.000
523.225; 4169.850;  239.375;    0.000
523.357; 4173.850;  263.375;    0.000
523.489; 4172.850;  264.375;    0.000
523.621; 4134.850;  259.375;    0.000
523.753; 4208.850;  233.375;    0.000
523.885; 4087.850;  232.375;    0.000
524.018; 4027.850;  214.375;    0.000
524.150; 4180.850;  235.375;    0.000
524.282; 4017.850;  242.375;    0.000
524.414; 4160.850;  261.375;    0.000
524.546; 4056.850;  233.375;    0.000
524.678; 4074.850;  242.375;    0.000
524.810; 4046.850;  216.375;    0.000
524.942; 3901.850;  220.375;    0.000
525.074; 3804.850;  249.375;    0.000
525.206; 3950.850;  227.375;    0.000
525.338; 3951.850;  250.375;    0.000
525.469; 3963.850;  231.375;    0.000
525.601; 3877.850;  245.375;    0.000
525.733; 3880.850;  187.375;    0.000
525.865; 3929.850;  280.375;    0.000
525.997; 3926.850;  216.375;    0.000
526.129; 3918.850;  228.375;    0.000
526.261; 3893.850;  187.375;    0.000
526.393; 3920.850;  228.375;    0.000
526.524; 3915.850;  201.375;    0.000
526.656; 3829.850;  199.375;    0.000
526.788; 3899.850;  233.375;    0.000
526.920; 3845.850;  256.375;    0.000
527.052; 3892.850;  219.375;    0.000
527.183; 3946.850;  227.375;    0.000
527.315; 3759.850;  266.375;    0.000
527.447; 3808.850;  239.375;    0.000
527.578; 3891.850;  213.375;    0.000
527.710; 3770.850;  216.375;    0.000
527.842; 3821.850;  240.375;    0.000
527.973; 3802.850;  286.375;    0.000
528.105; 3700.850;  222.375;    0.000
528.237; 3754.850;  223.375;    0.000
528.368; 3799.850;  211.375;    0.000
528.500; 3815.850;  215.375;    0.000
528.632; 3747.850;  216.375;    0.000
528.763; 3734.850;  234.375;    0.000
528.895; 3855.850;  196.375;    0.000
529.026; 3722.850;  202.375;    0.000
529.158; 3700.850;  226.375;    0.000
529.289; 3830.850;  229.375;    0.000
529.421; 3885.850;  264.375;    0.000
529.552; 3824.850;  265.375;    0.000
529.684; 3827.850;  260.375;    0.000
529.815; 3874.850;  284.375;    0.000
529.947; 3693.850;  237.375;    0.000
530.078; 3809.850;  223.375;    0.000
530.210; 3766.850;  223.375;    0.000
530.341; 3772.850;  209.375;    0.000
530.472; 3697.850;  203.375;    0.000
530.604; 3785.850;  223.375;    0.000
530.735; 3793.850;  218.375;    0.000
530.867; 3773.850;  222.375;    0.000
530.998; 3766.850;  239.375;    0.000
531.129; 3687.850;  250.375;    0.000
531.260; 3781.850;  224.375;    0.000
531.392; 3787.850;  216.375;    0.000
531.523; 3829.850;  234.375;    0.000
531.654; 3749.850;  256.375;    0.000
531.786; 3820.850;  226.375;    0.000
531.917; 3877.850;  239.375;    0.000
532.048; 3866.850;  205.375;    0.000
532.179; 3801.850;  244.375;    0.000
532.311; 3883.850;  235.375;    0.000
532.442; 3896.850;  258.375;    0.000
532.573; 3849.850;  220.375;    0.000
532.704; 3815.850;  213.375;    0.000
532.835; 3845.850;  249.375;    0.000
532.966; 3798.850;  226.375;    0.000
533.097; 3788.850;  246.375;    0.000
533.229; 3849.850;  237.375;    0.000
533.360; 3816.850;  225.375;    0.000
533.491; 3671.850;  241.375;    0.000
533.622; 3805.850;  242.375;    0.000
533.753; 3744.850;  264.375;    0.000
533.884; 3675.850;  245.375;    0.000
534.015; 3806.850;  269.375;    0.000
534.146; 3732.850;  267.375;    0.000
534.277; 3885.850;  282.375;    0.000
534.408; 3810.850;  229.375;    0.000
534.539; 3792.850;  269.375;    0.000
534.670; 3783.850;  231.375;    0.000
534.801; 3660.850;  260.375;    0.000
534.932; 3639.850;  232.375;    0.000
535.063; 3709.850;  227.375;    0.000
535.194; 3810.850;  281.375;    0.000
535.324; 3734.850;  206.375;    0.000
535.455; 3684.850;  257.375;    0.000
535.586; 3768.850;  275.375;    0.000
535.717; 3697.850;  206.375;    0.000
535.848; 3667.850;  271.375;    0.000
535.979; 3655.850;  250.375;    0.000
536.109; 3680.850;  253.375;    0.000
536.240; 3614.850;  234.375;    0.000
536.371; 3735.850;  230.375;    0.000
536.502; 3704.850;  270.375;    0.000
536.632; 3704.850;  228.375;    0.000
536.763; 3596.850;  249.375;    0.000
536.894; 3631.850;  262.375;    0.000
537.025; 3576.850;  258.375;    0.000
537.155; 3626.850;  278.375;    0.000
537.286; 3592.850;  209.375;    0.000
537.417; 3652.850;  255.375;    0.000
537.547; 3586.850;  208.375;    0.000
537.678; 3558.850;  224.375;    0.000
537.808; 3607.850;  224.375;    0.000
537.939; 3510.850;  257.375;    0.000
538.070; 3554.850;  240.375;    0.000
538.200; 3605.850;  259.375;    0.000
538.331; 3585.850;  235.375;    0.000
538.461; 3566.850;  251.375;    0.000
538.592; 3707.850;  245.375;    0.000
538.722; 3575.850;  239.375;    0.000
538.853; 3651.850;  216.375;    0.000
538.983; 3565.850;  226.375;    0.000
539.114; 3661.850;  240.375;    0.000
539.244; 3540.850;  237.375;    0.000
539.375; 3536.850;  198.375;    0.000
539.505; 3582.850;  263.375;    0.000
539.636; 3535.850;  226.375;    0.000
539.766; 3607.850;  229.375;    0.000
539.896; 3540.850;  219.375;    0.000
540.027; 3570.850;  246.375;    0.000
540.157; 3563.850;  218.375;    0.000
540.287; 3560.850;  216.375;    0.000
540.418; 3652.850;  267.375;    0.000
540.548; 3550.850;  260.375;    0.000
540.678; 3567.850;  242.375;    0.000
540.809; 3552.850;  260.375;    0.000
540.939; 3592.850;  257.375;    0.000
541.069; 3574.850;  226.375;    0.000
541.200; 3595.850;  227.375;    0.000
541.330; 3512.850;  218.375;    0.000
541.460; 3582.850;  223.375;    0.000
541.590; 3578.850;  237.375;    0.000
541.720; 3437.850;  222.375;    0.000
541.851; 3626.850;  250.375;    0.000
541.981; 3566.850;  222.375;    0.000
542.111; 3687.850;  212.375;    0.000
542.241; 3597.850;  205.375;    0.000
542.371; 3667.850;  202.375;    0.000
542.501; 3611.850;  218.375;    0.000
542.631; 3687.850;  222.375;    0.000
542.761; 3722.850;  249.375;    0.000
542.891; 3705.850;  173.375;    0.000
543.021; 3628.850;  218.375;    0.000
543.151; 3800.850;  222.375;    0.000
543.281; 3614.850;  188.375;    0.000
543.411; 3653.850;  239.375;    0.000
543.542; 3691.850;  215.375;    0.000
543.671; 3616.850;  250.375;    0.000
543.801; 3686.850;  212.375;    0.000
543.931; 3697.850;  233.375;    0.000
544.061; 3695.850;  194.375;    0.000
544.191; 3684.850;  218.375;    0.000
544.321; 3652.850;  220.375;    0.000
544.451; 3669.850;  183.375;    0.000
544.581; 3713.850;  221.375;    0.000
544.711; 3780.850;  224.375;    0.000
544.841; 3712.850;  214.375;    0.000
544.970; 3806.850;  227.375;    0.000
545.100; 3895.850;  186.375;    0.000
545.230; 3853.850;  205.375;    0.000
545.360; 3844.850;  211.375;    0.000
545.490; 3894.850;  202.375;    0.000
545.619; 3845.850;  182.375;    0.000
545.749; 3778.850;  174.375;    0.000
545.879; 3607.850;  169.375;    0.000
546.009; 3826.850;  182.375;    0.000
546.138; 3735.850;  200.375;    0.000
546.268; 3657.850;  204.375;    0.000
546.398; 3695.850;  200.375;    0.000
546.527; 3774.850;  179.375;    0.000
546.657; 3691.850;  162.375;    0.000
546.786; 3754.850;  179.375;    0.000
546.916; 3735.850;  221.375;    0.000
547.046; 3762.850;  179.375;    0.000
547.175; 3785.850;  168.375;    0.000
547.305; 3734.850;  200.375;    0.000
547.434; 3809.850;  166.375;    0.000
547.564; 3744.850;  177.375;    0.000
547.693; 3681.850;  152.375;    0.000
547.823; 3759.850;  171.375;    0.000
547.953; 3823.850;  195.375;    0.000
548.082; 3765.850;  214.375;    0.000
548.211; 3754.850;  177.375;    0.000
548.341; 3785.850;  189.375;    0.000
548.470; 3804.850;  194.375;    0.000
548.600; 3858.850;  172.375;    0.000
548.729; 3793.850;  158.375;    0.000
548.859; 3731.850;  193.375;    0.000
548.988; 3821.850;  131.375;    0.000
549.117; 3826.850;  204.375;    0.000
549.247; 3881.850;  191.375;    0.000
549.376; 3873.850;  202.375;    0.000
549.505; 3806.850;  187.375;    0.000
549.635; 3861.850;  198.375;    0.000
549.764; 3833.850;  155.375;    0.000
549.893; 3861.850;  176.375;    0.000
550.023; 3891.850;  202.375;    0.000
550.152; 3933.850;  168.375;    0.000
550.281; 3839.850;  180.375;    0.000
550.410; 3825.850;  180.375;    0.000
550.539; 3819.850;  181.375;    0.000
550.669; 3894.850;  168.375;    0.000
550.798; 3951.850;  223.375;    0.000
550.927; 3932.850;  179.375;    0.000
551.056; 3765.850;  159.375;    0.000
551.185; 3858.850;  199.375;    0.000
551.314; 3805.850;  185.375;    0.000
551.443; 3812.850;  172.375;    0.000
551.573; 3892.850;  158.375;    0.000
551.702; 3983.850;  210.375;    0.000
551.831; 3951.850;  238.375;    0.000
551.960; 3891.850;  191.375;    0.000
552.089; 4054.850;  195.375;    0.000
552.218; 4040.850;  196.375;    0.000
552.347; 4120.850;  194.375;    0.000
552.476; 4084.850;  192.375;    0.000
552.605; 4092.850;  172.375;    0.000
552.734; 4175.850;  214.375;    0.000
552.863; 4318.850;  177.375;    0.000
552.992; 4324.850;  190.375;    0.000
553.121; 4186.850;  185.375;    0.000
553.249; 4246.850;  175.375;    0.000
553.378; 4302.850;  192.375;    0.000
553.507; 4229.850;  193.375;    0.000
553.636; 4234.850;  182.375;    0.000
553.765; 4127.850;  187.375;    0.000
553.894; 4079.850;  214.375;    0.000
554.023; 4033.850;  217.375;    0.000
554.151; 4077.850;  223.375;    0.000
554.280; 4081.850;  170.375;    0.000
554.409; 4018.850;  172.375;    0.000
554.538; 3918.850;  182.375;    0.000
554.666; 4123.850;  195.375;    0.000
554.795; 3895.850;  176.375;    0.000
554.924; 4049.850;  164.375;    0.000
555.052; 3923.850;  171.375;    0.000
555.181; 3879.850;  208.375;    0.000
555.310; 3910.850;  214.375;    0.000
555.439; 3860.850;  193.375;    0.000
555.567; 3939.850;  189.375;    0.000
555.696; 3754.850;  196.375;    0.000
555.824; 3848.850;  183.375;    0.000
555.953; 3765.850;  234.375;    0.000
556.082; 3792.850;  183.375;    0.000
556.210; 3794.850;  199.375;    0.000
556.339; 3763.850;  201.375;    0.000
556.467; 3736.850;  208.375;    0.000
556.596; 3861.850;  194.375;    0.000
556.724; 3782.850;  170.375;    0.000
556.853; 3763.850;  166.375;    0.000
556.981; 3774.850;  185.375;    0.000
557.110; 3778.850;  213.375;    0.000
557.238; 3747.850;  188.375;    0.000
557.367; 3807.850;  176.375;    0.000
557.495; 3670.850;  180.375;    0.000
557.623; 3761.850;  193.375;    0.000
557.752; 3763.850;  207.375;    0.000
557.880; 3708.850;  189.375;    0.000
558.008; 3668.850;  169.375;    0.000
558.137; 3747.850;  203.375;    0.000
558.265; 3883.850;  167.375;    0.000
558.393; 3804.850;  204.375;    0.000
558.522; 3728.850;  203.375;    0.000
558.650; 3820.850;  215.375;    0.000
558.778; 3762.850;  190.375;    0.000
558.906; 3798.850;  186.375;    0.000
559.035; 3830.850;  193.375;    0.000
559.163; 3678.850;  198.375;    0.000
559.291; 3764.850;  222.375;    0.000
559.419; 3839.850;  192.375;    0.000
559.548; 3729.850;  186.375;    0.000
559.676; 3815.850;  199.375;    0.000
559.804; 3807.850;  186.375;    0.000
559.932; 3704.850;  202.375;    0.000
560.060; 3736.850;  183.375;    0.000
560.188; 3845.850;  212.375;    0.000
560.316; 3728.850;  192.375;    0.000
560.444; 3778.850;  180.375;    0.000
560.572; 3780.850;  206.375;    0.000
560.700; 3842.850;  184.375;    0.000
560.828; 3853.850;  177.375;    0.000
560.956; 3860.850;  221.375;    0.000
561.085; 3863.850;  227.375;    0.000
561.212; 3792.850;  208.375;    0.000
561.340; 3799.850;  189.375;    0.000
561.468; 3891.850;  189.375;    0.000
561.596; 3810.850;  183.375;    0.000
561.724; 3806.850;  188.375;    0.000
561.852; 3842.850;  183.375;    0.000
561.980; 3936.850;  209.375;    0.000
562.108; 3874.850;  165.375;    0.000
562.236; 3821.850;  188.375;    0.000
562.364; 3911.850;  177.375;    0.000
562.492; 3939.850;  192.375;    0.000
562.619; 3944.850;  187.375;    0.000
562.747; 3889.850;  217.375;    0.000
562.875; 4039.850;  221.375;    0.000
563.003; 4002.850;  199.375;    0.000
563.130; 3940.850;  191.375;    0.000
563.258; 4038.850;  186.375;    0.000
563.386; 4085.850;  191.375;    0.000
563.514; 4126.850;  217.375;    0.000
563.641; 4143.850;  220.375;    0.000
563.769; 4136.850;  186.375;    0.000
563.897; 4193.850;  158.375;    0.000
564.024; 4193.850;  192.375;    0.000
564.152; 4283.850;  217.375;    0.000
564.280; 4136.850;  203.375;    0.000
564.407; 4322.850;  190.375;    0.000
564.535; 4261.850;  188.375;    0.000
564.662; 4349.850;  199.375;    0.000
564.790; 4386.850;  227.375;    0.000
564.917; 4404.850;  160.375;    0.000
565.045; 4391.850;  222.375;    0.000
565.173; 4491.850;  169.375;    0.000
565.300; 4501.850;  208.375;    0.000
565.428; 4625.850;  174.375;    0.000
565.555; 4718.850;  201.375;    0.000
565.682; 4792.850;  180.375;    0.000
565.810; 4866.850;  165.375;    0.000
565.937; 4945.850;  167.375;    0.000
566.065; 5101.850;  190.375;    0.000
566.192; 5131.850;  169.375;    0.000
566.320; 5418.850;  167.375;    0.000
566.447; 5373.850;  151.375;    0.000
566.574; 5561.850;  176.375;    0.000
566.702; 5599.850;  198.375;    0.000
566.829; 5670.850;  209.375;    0.000
566.956; 5719.850;  186.375;    0.000
567.083; 5785.850;  188.375;    0.000
567.211; 5779.850;  159.375;    0.000
567.338; 5974.850;  204.375;    0.000
567.465; 6065.850;  141.375;    0.000
567.593; 6140.850;  168.375;    0.000
567.720; 6229.850;  177.375;    0.000
567.847; 6290.850;  160.375;    0.000
567.974; 6117.850;  139.375;    0.000
568.101; 5933.850;  153.375;    0.000
568.228; 5862.850;  173.375;    0.000
568.356; 5597.850;  149.375;    0.000
568.483; 5457.850;  185.375;    0.000
568.610; 5367.850;  170.375;    0.000
568.737; 5231.850;  223.375;    0.000
568.864; 4985.850;  167.375;    0.000
568.991; 4937.850;  177.375;    0.000
569.118; 4807.850;  169.375;    0.000
569.245; 4688.850;  128.375;    0.000
569.372; 4718.850;  160.375;    0.000
569.499; 4573.850;  156.375;    0.000
569.626; 4563.850;  191.375;    0.000
569.753; 4422.850;  163.375;    0.000
569.880; 4466.850;  167.375;    0.000
570.007; 4425.850;  143.375;    0.000
570.134; 4337.850;  191.375;    0.000
570.261; 4392.850;  164.375;    0.000
570.388; 4311.850;  162.375;    0.000
570.515; 4427.850;  220.375;    0.000
570.642; 4391.850;  184.375;    0.000
570.768; 4365.850;  174.375;    0.000
570.895; 4452.850;  177.375;    0.000
571.022; 4412.850;  152.375;    0.000
571.149; 4228.850;  183.375;    0.000
571.276; 4176.850;  153.375;    0.000
571.402; 4185.850;  190.375;    0.000
571.529; 4110.850;  187.375;    0.000
571.656; 4104.850;  167.375;    0.000
571.783; 4038.850;  186.375;    0.000
571.909; 4120.850;  183.375;    0.000
572.036; 4025.850;  162.375;    0.000
572.163; 4027.850;  196.375;    0.000
572.289; 3962.850;  180.375;    0.000
572.416; 3951.850;  190.375;    0.000
572.543; 3952.850;  174.375;    0.000
572.669; 3935.850;  186.375;    0.000
572.796; 3854.850;  205.375;    0.000
572.922; 3903.850;  185.375;    0.000
573.049; 3970.850;  178.375;    0.000
573.176; 3826.850;  196.375;    0.000
573.302; 3870.850;  202.375;    0.000
573.429; 3899.850;  189.375;    0.000
573.555; 3802.850;  145.375;    0.000
573.682; 3819.850;  228.375;    0.000
573.808; 3879.850;  197.375;    0.000
573.935; 3829.850;  216.375;    0.000
574.061; 3816.850;  173.375;    0.000
574.188; 3805.850;  151.375;    0.000
574.314; 3902.850;  181.375;    0.000
574.440; 3864.850;  167.375;    0.000
574.567; 3883.850;  185.375;    0.000
574.693; 3850.850;  173.375;    0.000
574.820; 3845.850;  164.375;    0.000
574.946; 3813.850;  199.375;    0.000
575.072; 3750.850;  162.375;    0.000
575.198; 3786.850;  225.375;    0.000
575.325; 3823.850;  171.375;    0.000
575.451; 3829.850;  183.375;    0.000
575.577; 3689.850;  190.375;    0.000
575.704; 3855.850;  210.375;    0.000
575.830; 3813.850;  185.375;    0.000
575.956; 3696.850;  168.375;    0.000
576.082; 3785.850;  158.375;    0.000
576.208; 3769.850;  158.375;    0.000
576.335; 3716.850;  196.375;    0.000
576.461; 3753.850;  187.375;    0.000
576.587; 3736.850;  157.375;    0.000
576.713; 3679.850;  156.375;    0.000
576.839; 3691.850;  196.375;    0.000
576.965; 3694.850;  187.375;    0.000
577.091; 3687.850;  204.375;    0.000
577.217; 3808.850;  207.375;    0.000
577.343; 3694.850;  175.375;    0.000
577.469; 3788.850;  197.375;    0.000
577.596; 3685.850;  182.375;    0.000
577.722; 3742.850;  159.375;    0.000
577.848; 3760.850;  162.375;    0.000
577.974; 3731.850;  180.375;    0.000
578.099; 3646.850;  161.375;    0.000
578.225; 3771.850;  180.375;    0.000
578.351; 3635.850;  190.375;    0.000
578.477; 3816.850;  212.375;    0.000
578.603; 3676.850;  179.375;    0.000
578.729; 3613.850;  195.375;    0.000
578.855; 3558.850;  153.375;    0.000
578.981; 3744.850;  162.375;    0.000
579.107; 3608.850;  149.375;    0.000
579.232; 3724.850;  164.375;    0.000
579.358; 3753.850;  162.375;    0.000
579.484; 3671.850;  181.375;    0.000
579.610; 3654.850;  190.375;    0.000
579.735; 3642.850;  191.375;    0.000
579.861; 3612.850;  189.375;    0.000
579.987; 3639.850;  202.375;    0.000
580.113; 3708.850;  197.375;    0.000
580.238; 3695.850;  228.375;    0.000
580.364; 3681.850;  212.375;    0.000
580.490; 3748.850;  225.375;    0.000
580.615; 3628.850;  218.375;    0.000
580.741; 3670.850;  167.375;    0.000
580.867; 3684.850;  215.375;    0.000
580.992; 3635.850;  191.375;    0.000
581.118; 3664.850;  171.375;    0.000
581.243; 3686.850;  204.375;    0.000
581.369; 3635.850;  186.375;    0.000
581.494; 3654.850;  184.375;    0.000
581.620; 3610.850;  212.375;    0.000
581.745; 3660.850;  192.375;    0.000
581.871; 3617.850;  195.375;    0.000
581.996; 3718.850;  160.375;    0.000
582.122; 3581.850;  217.375;    0.000
582.247; 3591.850;  213.375;    0.000
582.373; 3558.850;  187.375;    0.000
582.498; 3599.850;  208.375;    0.000
582.624; 3631.850;  189.375;    0.000
582.749; 3769.850;  185.375;    0.000
582.874; 3762.850;  195.375;    0.000
583.000; 3719.850;  208.375;    0.000
583.125; 3598.850;  147.375;    0.000
583.250; 3532.850;  201.375;    0.000
583.376; 3679.850;  191.375;    0.000
583.501; 3647.850;  206.375;    0.000
583.626; 3684.850;  167.375;    0.000
583.751; 3599.850;  180.375;    0.000
583.877; 3630.850;  185.375;    0.000
584.002; 3650.850;  186.375;    0.000
584.127; 3552.850;  176.375;    0.000
584.252; 3654.850;  214.375;    0.000
584.377; 3680.850;  225.375;    0.000
584.503; 3687.850;  195.375;    0.000
584.628; 3587.850;  206.375;    0.000
584.753; 3728.850;  181.375;    0.000
584.878; 3633.850;  136.375;    0.000
585.003; 3626.850;  215.375;    0.000
585.128; 3656.850;  206.375;    0.000
585.253; 3734.850;  200.375;    0.000
585.378; 3716.850;  169.375;    0.000
585.503; 3695.850;  191.375;    0.000
585.628; 3637.850;  182.375;    0.000
585.753; 3680.850;  164.375;    0.000
585.878; 3671.850;  123.375;    0.000
586.003; 3646.850;  187.375;    0.000
586.128; 3704.850;  198.375;    0.000
586.253; 3633.850;  172.375;    0.000
586.378; 3700.850;  191.375;    0.000
586.503; 3700.850;  190.375;    0.000
586.628; 3649.850;  178.375;    0.000
586.753; 3694.850;  184.375;    0.000
586.878; 3691.850;  169.375;    0.000
587.003; 3704.850;  186.375;    0.000
587.127; 3654.850;  170.375;    0.000
587.252; 3575.850;  170.375;    0.000
587.377; 3733.850;  181.375;    0.000
587.502; 3780.850;  209.375;    0.000
587.627; 3630.850;  210.375;    0.000
587.751; 3713.850;  212.375;    0.000
587.876; 3760.850;  198.375;    0.000
588.001; 3703.850;  161.375;    0.000
588.125; 3718.850;  191.375;    0.000
588.250; 3779.850;  132.375;    0.000
588.375; 3891.850;  183.375;    0.000
588.499; 3732.850;  176.375;    0.000
588.624; 3784.850;  173.375;    0.000
588.749; 4147.850;  204.375;    0.000
588.873; 6288.850;  179.375;    0.000
588.998; 9318.850;  182.375;    0.000
589.122; 7538.850;  165.375;    0.000
589.247; 4832.850;  185.375;    0.000
589.372; 4364.850;  199.375;    0.000
589.496; 6330.850;  182.375;    0.000
589.621; 7551.850;  158.375;    0.000
589.745; 5761.850;  213.375;    0.000
589.870; 4232.850;  175.375;    0.000
589.994; 4068.850;  194.375;    0.000
590.118; 3925.850;  218.375;    0.000
590.243; 3922.850;  170.375;    0.000
590.367; 3805.850;  189.375;    0.000
590.492; 3916.850;  196.375;    0.000
590.616; 3928.850;  182.375;    0.000
590.740; 3869.850;  210.375;    0.000
590.865; 3919.850;  242.375;    0.000
590.989; 3899.850;  191.375;    0.000
591.114; 3960.850;  167.375;    0.000
591.238; 3898.850;  194.375;    0.000
591.362; 4075.850;  236.375;    0.000
591.486; 3980.850;  194.375;    0.000
591.611; 4020.850;  154.375;    0.000
591.735; 4074.850;  186.375;    0.000
591.859; 4073.850;  148.375;    0.000
591.983; 4212.850;  211.375;    0.000
592.107; 4126.850;  204.375;    0.000
592.232; 4228.850;  194.375;    0.000
592.356; 4223.850;  238.375;    0.000
592.480; 4365.850;  179.375;    0.000
592.604; 4278.850;  192.375;    0.000
592.728; 4299.850;  201.375;    0.000
592.852; 4428.850;  158.375;    0.000
592.976; 4382.850;  152.375;    0.000
593.100; 4493.850;  194.375;    0.000
593.224; 4485.850;  235.375;    0.000
593.349; 4446.850;  233.375;    0.000
593.473; 4492.850;  194.375;    0.000
593.597; 4579.850;  215.375;    0.000
593.721; 4535.850;  212.375;    0.000
593.844; 4569.850;  220.375;    0.000
593.968; 4625.850;  221.375;    0.000
594.092; 4480.850;  150.375;    0.000
594.216; 4536.850;  212.375;    0.000
594.340; 4534.850;  209.375;    0.000
594.464; 4465.850;  207.375;    0.000
594.588; 4385.850;  195.375;    0.000
594.712; 4344.850;  176.375;    0.000
594.836; 4272.850;  219.375;    0.000
594.959; 4229.850;  215.375;    0.000
595.083; 4199.850;  200.375;    0.000
595.207; 4155.850;  206.375;    0.000
595.331; 4122.850;  207.375;    0.000
595.455; 4056.850;  206.375;    0.000
595.578; 4045.850;  204.375;    0.000
595.702; 3988.850;  225.375;    0.000
595.826; 3942.850;  186.375;    0.000
595.949; 3921.850;  196.375;    0.000
596.073; 3936.850;  188.375;    0.000
596.197; 3889.850;  217.375;    0.000
596.320; 3954.850;  225.375;    0.000
596.444; 3865.850;  220.375;    0.000
596.568; 3861.850;  155.375;    0.000
596.691; 3826.850;  195.375;    0.000
596.815; 3759.850;  163.375;    0.000
596.938; 3745.850;  181.375;    0.000
597.062; 3771.850;  201.375;    0.000
597.186; 3709.850;  200.375;    0.000
597.309; 3693.850;  214.375;    0.000
597.433; 3750.850;  176.375;    0.000
597.556; 3769.850;  193.375;    0.000
597.680; 3760.850;  241.375;    0.000
597.803; 3747.850;  185.375;    0.000
597.926; 3679.850;  200.375;    0.000
598.050; 3623.850;  193.375;    0.000
598.173; 3555.850;  219.375;    0.000
598.297; 3642.850;  223.375;    0.000
598.420; 3574.850;  187.375;    0.000
598.543; 3606.850;  205.375;    0.000
598.667; 3528.850;  177.375;    0.000
598.790; 3636.850;  208.375;    0.000
598.913; 3599.850;  170.375;    0.000
599.037; 3571.850;  212.375;    0.000
599.160; 3537.850;  165.375;    0.000
599.283; 3608.850;  211.375;    0.000
599.406; 3524.850;  207.375;    0.000
599.530; 3566.850;  182.375;    0.000
599.653; 3624.850;  215.375;    0.000
599.776; 3617.850;  167.375;    0.000
599.899; 3386.850;  190.375;    0.000
600.022; 3516.850;  182.375;    0.000
600.145; 3445.850;  180.375;    0.000
600.269; 3584.850;  208.375;    0.000
600.392; 3489.850;  214.375;    0.000
600.515; 3485.850;  196.375;    0.000
600.638; 3486.850;  204.375;    0.000
600.761; 3467.850;  209.375;    0.000
600.884; 3480.850;  207.375;    0.000
601.007; 3537.850;  234.375;    0.000
601.130; 3469.850;  183.375;    0.000
601.253; 3533.850;  211.375;    0.000
601.376; 3510.850;  199.375;    0.000
601.499; 3426.850;  190.375;    0.000
601.622; 3497.850;  210.375;    0.000
601.745; 3435.850;  180.375;    0.000
601.868; 3489.850;  204.375;    0.000
601.991; 3419.850;  188.375;    0.000
602.113; 3479.850;  210.375;    0.000
602.236; 3439.850;  194.375;    0.000
602.359; 3512.850;  213.375;    0.000
602.482; 3421.850;  169.375;    0.000
602.605; 3452.850;  189.375;    0.000
602.728; 3412.850;  236.375;    0.000
602.850; 3440.850;  230.375;    0.000
602.973; 3374.850;  187.375;    0.000
603.096; 3421.850;  201.375;    0.000
603.219; 3440.850;  209.375;    0.000
603.341; 3486.850;  209.375;    0.000
603.464; 3414.850;  194.375;    0.000
603.587; 3445.850;  166.375;    0.000
603.709; 3415.850;  175.375;    0.000
603.832; 3474.850;  239.375;    0.000
603.955; 3401.850;  205.375;    0.000
604.077; 3359.850;  196.375;    0.000
604.200; 3487.850;  188.375;    0.000
604.323; 3384.850;  224.375;    0.000
604.445; 3349.850;  182.375;    0.000
604.568; 3327.850;  199.375;    0.000
604.690; 3398.850;  175.375;    0.000
604.813; 3408.850;  211.375;    0.000
604.935; 3366.850;  171.375;    0.000
605.058; 3307.850;  196.375;    0.000
605.180; 3474.850;  194.375;    0.000
605.303; 3419.850;  198.375;    0.000
605.425; 3468.850;  212.375;    0.000
605.547; 3385.850;  238.375;    0.000
605.670; 3374.850;  207.375;    0.000
605.792; 3377.850;  204.375;    0.000
605.915; 3412.850;  198.375;    0.000
606.037; 3336.850;  215.375;    0.000
606.159; 3363.850;  170.375;    0.000
606.282; 3369.850;  194.375;    0.000
606.404; 3305.850;  207.375;    0.000
606.526; 3380.850;  208.375;    0.000
606.648; 3380.850;  174.375;    0.000
606.771; 3232.850;  170.375;    0.000
606.893; 3297.850;  182.375;    0.000
607.015; 3281.850;  180.375;    0.000
607.137; 3330.850;  187.375;    0.000
607.260; 3256.850;  202.375;    0.000
607.382; 3290.850;  226.375;    0.000
607.504; 3277.850;  208.375;    0.000
607.626; 3345.850;  229.375;    0.000
607.748; 3421.850;  170.375;    0.000
607.870; 3278.850;  208.375;    0.000
607.992; 3301.850;  184.375;    0.000
608.114; 3391.850;  213.375;    0.000
608.237; 3339.850;  237.375;    0.000
608.359; 3289.850;  176.375;    0.000
608.481; 3357.850;  173.375;    0.000
608.603; 3337.850;  189.375;    0.000
608.725; 3338.850;  185.375;    0.000
608.847; 3370.850;  239.375;    0.000
608.969; 3445.850;  237.375;    0.000
609.090; 3293.850;  189.375;    0.000
609.212; 3323.850;  147.375;    0.000
609.334; 3269.850;  177.375;    0.000
609.456; 3305.850;  196.375;    0.000
609.578; 3313.850;  199.375;    0.000
609.700; 3237.850;  167.375;    0.000
609.822; 3318.850;  140.375;    0.000
609.944; 3265.850;  225.375;    0.000
610.065; 3259.850;  183.375;    0.000
610.187; 3315.850;  170.375;    0.000
610.309; 3329.850;  210.375;    0.000
610.431; 3335.850;  185.375;    0.000
610.552; 3227.850;  197.375;    0.000
610.674; 3268.850;  188.375;    0.000
610.796; 3258.850;  162.375;    0.000
610.918; 3293.850;  200.375;    0.000
611.039; 3320.850;  209.375;    0.000
611.161; 3270.850;  201.375;    0.000
611.282; 3250.850;  197.375;    0.000
611.404; 3231.850;  220.375;    0.000
611.526; 3315.850;  159.375;    0.000
611.647; 3276.850;  205.375;    0.000
611.769; 3195.850;  161.375;    0.000
611.890; 3293.850;  173.375;    0.000
612.012; 3288.850;  225.375;    0.000
612.133; 3300.850;  188.375;    0.000
612.255; 3378.850;  217.375;    0.000
612.377; 3344.850;  219.375;    0.000
612.498; 3239.850;  177.375;    0.000
612.619; 3312.850;  211.375;    0.000
612.741; 3314.850;  185.375;    0.000
612.862; 3253.850;  191.375;    0.000
612.984; 3292.850;  190.375;    0.000
613.105; 3176.850;  211.375;    0.000
613.226; 3296.850;  174.375;    0.000
613.348; 3197.850;  235.375;    0.000
613.469; 3185.850;  230.375;    0.000
613.590; 3138.850;  208.375;    0.000
613.712; 3324.850;  244.375;    0.000
613.833; 3228.850;  202.375;    0.000
613.954; 3283.850;  228.375;    0.000
614.076; 3227.850;  220.375;    0.000
614.197; 3221.850;  191.375;    0.000
614.318; 3158.850;  201.375;    0.000
614.439; 3208.850;  212.375;    0.000
614.560; 3258.850;  219.375;    0.000
614.682; 3216.850;  189.375;    0.000
614.803; 3199.850;  188.375;    0.000
614.924; 3239.850;  225.375;    0.000
615.045; 3200.850;  227.375;    0.000
615.166; 3279.850;  200.375;    0.000
615.287; 3274.850;  195.375;    0.000
615.408; 3158.850;  199.375;    0.000
615.529; 3230.850;  227.375;    0.000
615.650; 3264.850;  176.375;    0.000
615.771; 3246.850;  211.375;    0.000
615.892; 3221.850;  212.375;    0.000
616.013; 3225.850;  172.375;    0.000
616.134; 3441.850;  220.375;    0.000
616.255; 3390.850;  251.375;    0.000
616.376; 3365.850;  186.375;    0.000
616.497; 3249.850;  201.375;    0.000
616.618; 3253.850;  149.375;    0.000
616.739; 3339.850;  213.375;    0.000
616.860; 3241.850;  224.375;    0.000
616.981; 3341.850;  224.375;    0.000
617.102; 3223.850;  217.375;    0.000
617.222; 3203.850;  237.375;    0.000
617.343; 3246.850;  205.375;    0.000
617.464; 3175.850;  229.375;    0.000
617.585; 3289.850;  227.375;    0.000
617.705; 3252.850;  191.375;    0.000
617.826; 3260.850;  237.375;    0.000
617.947; 3265.850;  223.375;    0.000
618.068; 3198.850;  189.375;    0.000
618.188; 3245.850;  194.375;    0.000
618.309; 3210.850;  206.375;    0.000
618.430; 3200.850;  229.375;    0.000
618.550; 3203.850;  250.375;    0.000
618.671; 3205.850;  201.375;    0.000
618.791; 3171.850;  226.375;    0.000
618.912; 3179.850;  246.375;    0.000
619.033; 3244.850;  243.375;    0.000
619.153; 3256.850;  208.375;    0.000
619.274; 3235.850;  223.375;    0.000
619.394; 3194.850;  226.375;    0.000
619.515; 3164.850;  188.375;    0.000
619.635; 3208.850;  216.375;    0.000
619.756; 3272.850;  229.375;    0.000
619.876; 3158.850;  216.375;    0.000
619.996; 3227.850;  244.375;    0.000
620.117; 3112.850;  225.375;    0.000
620.237; 3198.850;  207.375;    0.000
620.358; 3230.850;  239.375;    0.000
620.478; 3147.850;  237.375;    0.000
620.598; 3212.850;  237.375;    0.000
620.719; 3150.850;  223.375;    0.000
620.839; 3257.850;  254.375;    0.000
620.959; 3247.850;  244.375;    0.000
621.079; 3210.850;  193.375;    0.000
621.200; 3130.850;  233.375;    0.000
621.320; 3171.850;  270.375;    0.000
621.440; 3007.850;  206.375;    0.000
621.560; 3168.850;  241.375;    0.000
621.681; 3101.850;  231.375;    0.000
621.801; 3199.850;  235.375;    0.000
621.921; 3068.850;  240.375;    0.000
622.041; 3170.850;  244.375;    0.000
622.161; 3192.850;  225.375;    0.000
622.281; 3179.850;  222.375;    0.000
622.401; 3166.850;  238.375;    0.000
622.521; 3106.850;  233.375;    0.000
622.641; 3007.850;  241.375;    0.000
622.761; 3148.850;  233.375;    0.000
622.882; 3144.850;  230.375;    0.000
623.002; 3129.850;  206.375;    0.000
623.121; 3163.850;  217.375;    0.000
623.241; 3114.850;  263.375;    0.000
623.361; 3020.850;  245.375;    0.000
623.481; 3034.850;  194.375;    0.000
623.601; 3095.850;  228.375;    0.000
623.721; 3084.850;  219.375;    0.000
623.841; 3187.850;  234.375;    0.000
623.961; 3036.850;  235.375;    0.000
624.081; 3033.850;  166.375;    0.000
624.201; 3094.850;  229.375;    0.000
624.320; 3078.850;  224.375;    0.000
624.440; 3068.850;  200.375;    0.000
624.560; 3104.850;  220.375;    0.000
624.680; 3015.850;  214.375;    0.000
624.799; 3071.850;  179.375;    0.000
624.919; 3135.850;  199.375;    0.000
625.039; 3052.850;  211.375;    0.000
625.159; 2994.850;  213.375;    0.000
625.278; 3000.850;  178.375;    0.000
625.398; 3030.850;  206.375;    0.000
625.518; 3022.850;  182.375;    0.000
625.637; 2994.850;  206.375;    0.000
625.757; 3087.850;  197.375;    0.000
625.876; 2994.850;  204.375;    0.000
625.996; 2929.850;  222.375;    0.000
626.115; 3017.850;  222.375;    0.000
626.235; 3041.850;  222.375;    0.000
626.354; 3064.850;  211.375;    0.000
626.474; 2997.850;  217.375;    0.000
626.594; 3011.850;  190.375;    0.000
626.713; 2937.850;  200.375;    0.000
626.832; 3037.850;  234.375;    0.000
626.952; 3042.850;  214.375;    0.000
627.071; 3029.850;  243.375;    0.000
627.191; 3022.850;  192.375;    0.000
627.310; 2937.850;  211.375;    0.000
627.429; 3007.850;  218.375;    0.000
627.549; 2995.850;  214.375;    0.000
627.668; 3027.850;  208.375;    0.000
627.787; 3013.850;  199.375;    0.000
627.907; 2951.850;  208.375;    0.000
628.026; 2986.850;  216.375;    0.000
628.145; 3044.850;  170.375;    0.000
628.264; 2946.850;  217.375;    0.000
628.384; 2961.850;  190.375;    0.000
628.503; 2984.850;  203.375;    0.000
628.622; 2951.850;  197.375;    0.000
628.741; 2946.850;  186.375;    0.000
628.860; 2967.850;  191.375;    0.000
628.980; 2985.850;  196.375;    0.000
629.099; 3048.850;  190.375;    0.000
629.218; 2942.850;  165.375;    0.000
629.337; 2933.850;  190.375;    0.000
629.456; 2940.850;  222.375;    0.000
629.575; 2897.850;  197.375;    0.000
629.694; 2916.850;  210.375;    0.000
629.813; 3051.850;  187.375;    0.000
629.932; 2951.850;  224.375;    0.000
630.051; 2978.850;  216.375;    0.000
630.170; 3057.850;  203.375;    0.000
630.289; 2902.850;  178.375;    0.000
630.408; 2870.850;  192.375;    0.000
630.527; 2944.850;  223.375;    0.000
630.646; 2905.850;  177.375;    0.000
630.764; 2945.850;  224.375;    0.000
630.883; 2993.850;  220.375;    0.000
631.002; 2899.850;  187.375;    0.000
631.121; 3004.850;  208.375;    0.000
631.240; 2961.850;  217.375;    0.000
631.359; 2927.850;  241.375;    0.000
631.477; 2875.850;  189.375;    0.000
631.596; 2950.850;  244.375;    0.000
631.715; 2950.850;  241.375;    0.000
631.834; 3001.850;  219.375;    0.000
631.952; 2820.850;  231.375;    0.000
632.071; 2980.850;  197.375;    0.000
632.190; 2927.850;  193.375;    0.000
632.308; 2981.850;  185.375;    0.000
632.427; 2883.850;  188.375;    0.000
632.546; 2922.850;  208.375;    0.000
632.664; 2898.850;  191.375;    0.000
632.783; 2978.850;  201.375;    0.000
632.901; 2917.850;  239.375;    0.000
633.020; 2892.850;  197.375;    0.000
633.138; 2845.850;  189.375;    0.000
633.257; 2891.850;  210.375;    0.000
633.375; 2995.850;  213.375;    0.000
633.494; 2897.850;  206.375;    0.000
633.612; 2902.850;  231.375;    0.000
633.731; 2933.850;  213.375;    0.000
633.849; 2952.850;  244.375;    0.000
633.968; 2948.850;  251.375;    0.000
634.086; 2951.850;  224.375;    0.000
634.204; 2923.850;  212.375;    0.000
634.323; 2933.850;  213.375;    0.000
634.441; 2974.850;  219.375;    0.000
634.559; 2934.850;  198.375;    0.000
634.678; 2942.850;  201.375;    0.000
634.796; 2910.850;  179.375;    0.000
634.914; 2933.850;  255.375;    0.000
635.032; 2959.850;  264.375;    0.000
635.151; 2925.850;  228.375;    0.000
635.269; 2895.850;  223.375;    0.000
635.387; 2929.850;  228.375;    0.000
635.505; 2827.850;  214.375;    0.000
635.623; 2934.850;  279.375;    0.000
635.742; 2927.850;  237.375;    0.000
635.860; 3022.850;  244.375;    0.000
635.978; 2895.850;  213.375;    0.000
636.096; 2868.850;  230.375;    0.000
636.214; 2905.850;  252.375;    0.000
636.332; 2962.850;  221.375;    0.000
636.450; 2937.850;  227.375;    0.000
636.568; 2946.850;  193.375;    0.000
636.686; 2906.850;  208.375;    0.000
636.804; 2935.850;  213.375;    0.000
636.922; 2853.850;  199.375;    0.000
637.040; 2985.850;  202.375;    0.000
637.158; 2861.850;  239.375;    0.000
637.276; 2975.850;  225.375;    0.000
637.394; 2852.850;  217.375;    0.000
637.512; 2943.850;  192.375;    0.000
637.629; 3005.850;  216.375;    0.000
637.747; 2879.850;  198.375;    0.000
637.865; 2910.850;  265.375;    0.000
637.983; 2894.850;  245.375;    0.000
638.101; 2954.850;  199.375;    0.000
638.218; 2837.850;  197.375;    0.000
638.336; 2918.850;  212.375;    0.000
638.454; 2845.850;  227.375;    0.000
638.572; 2949.850;  215.375;    0.000
638.689; 2971.850;  214.375;    0.000
638.807; 2883.850;  233.375;    0.000
638.925; 2885.850;  217.375;    0.000
639.042; 2889.850;  180.375;    0.000
639.160; 2923.850;  220.375;    0.000
639.278; 2820.850;  180.375;    0.000
639.395; 2814.850;  243.375;    0.000
639.513; 2847.850;  207.375;    0.000
639.630; 2915.850;  183.375;    0.000
639.748; 2858.850;  231.375;    0.000
639.865; 2858.850;  215.375;    0.000
639.983; 2901.850;  182.375;    0.000
640.100; 2926.850;  190.375;    0.000
640.218; 2938.850;  224.375;    0.000
640.335; 2791.850;  214.375;    0.000
640.453; 2825.850;  212.375;    0.000
640.570; 2903.850;  224.375;    0.000
640.688; 2825.850;  220.375;    0.000
640.805; 2767.850;  189.375;    0.000
640.922; 2868.850;  256.375;    0.000
641.040; 2863.850;  209.375;    0.000
641.157; 2936.850;  195.375;    0.000
641.274; 2961.850;  195.375;    0.000
641.391; 2950.850;  231.375;    0.000
641.509; 2816.850;  207.375;    0.000
641.626; 2870.850;  227.375;    0.000
641.743; 2820.850;  188.375;    0.000
641.860; 2929.850;  208.375;    0.000
641.978; 2871.850;  222.375;    0.000
642.095; 2928.850;  194.375;    0.000
642.212; 2891.850;  202.375;    0.000
642.329; 2904.850;  241.375;    0.000
642.446; 2933.850;  261.375;    0.000
642.563; 2882.850;  236.375;    0.000
642.681; 2844.850;  228.375;    0.000
642.798; 2904.850;  242.375;    0.000
642.915; 2954.850;  197.375;    0.000
643.032; 2919.850;  239.375;    0.000
643.149; 3025.850;  241.375;    0.000
643.266; 2974.850;  199.375;    0.000
643.383; 2970.850;  200.375;    0.000
643.500; 2939.850;  221.375;    0.000
643.617; 2906.850;  196.375;    0.000
643.734; 2907.850;  207.375;    0.000
643.850; 3057.850;  222.375;    0.000
643.967; 3117.850;  235.375;    0.000
644.084; 3096.850;  233.375;    0.000
644.201; 2927.850;  229.375;    0.000
644.318; 3030.850;  210.375;    0.000
644.435; 2985.850;  234.375;    0.000
644.552; 2937.850;  220.375;    0.000
644.668; 3088.850;  231.375;    0.000
644.785; 3066.850;  231.375;    0.000
644.902; 3107.850;  238.375;    0.000
645.019; 2965.850;  226.375;    0.000
645.135; 3053.850;  179.375;    0.000
645.252; 3064.850;  224.375;    0.000
645.369; 2989.850;  206.375;    0.000
645.485; 3004.850;  200.375;    0.000
645.602; 3023.850;  210.375;    0.000
645.719; 3041.850;  206.375;    0.000
645.835; 3216.850;  247.375;    0.000
645.952; 3133.850;  222.375;    0.000
646.068; 3190.850;  205.375;    0.000
646.185; 3228.850;  230.375;    0.000
646.302; 3213.850;  254.375;    0.000
646.418; 3198.850;  230.375;    0.000
646.535; 3071.850;  214.375;    0.000
646.651; 3267.850;  179.375;    0.000
646.768; 3170.850;  190.375;    0.000
646.884; 3227.850;  208.375;    0.000
647.000; 3357.850;  262.375;    0.000
647.117; 3230.850;  212.375;    0.000
647.233; 3246.850;  228.375;    0.000
647.350; 3311.850;  208.375;    0.000
647.466; 3342.850;  211.375;    0.000
647.582; 3341.850;  196.375;    0.000
647.699; 3395.850;  217.375;    0.000
647.815; 3363.850;  203.375;    0.000
647.931; 3404.850;  201.375;    0.000
648.047; 3405.850;  182.375;    0.000
648.164; 3455.850;  219.375;    0.000
648.280; 3528.850;  213.375;    0.000
648.396; 3500.850;  202.375;    0.000
648.512; 3638.850;  233.375;    0.000
648.629; 3443.850;  206.375;    0.000
648.745; 3500.850;  188.375;    0.000
648.861; 3496.850;  209.375;    0.000
648.977; 3472.850;  218.375;    0.000
649.093; 3475.850;  225.375;    0.000
649.209; 3626.850;  240.375;    0.000
649.325; 3616.850;  253.375;    0.000
649.441; 3568.850;  263.375;    0.000
649.557; 3582.850;  256.375;    0.000
649.673; 3588.850;  211.375;    0.000
649.789; 3593.850;  237.375;    0.000
649.905; 3570.850;  183.375;    0.000
650.021; 3648.850;  238.375;    0.000
650.137; 3615.850;  241.375;    0.000
650.253; 3692.850;  228.375;    0.000
650.369; 3589.850;  221.375;    0.000
650.485; 3605.850;  240.375;    0.000
650.601; 3670.850;  254.375;    0.000
650.717; 3700.850;  201.375;    0.000
650.833; 3728.850;  257.375;    0.000
650.948; 3797.850;  213.375;    0.000
651.064; 3765.850;  223.375;    0.000
651.180; 3803.850;  230.375;    0.000
651.296; 3808.850;  235.375;    0.000
651.411; 3878.850;  221.375;    0.000
651.527; 3819.850;  233.375;    0.000
651.643; 3947.850;  236.375;    0.000
651.759; 4022.850;  268.375;    0.000
651.874; 3980.850;  214.375;    0.000
651.990; 4103.850;  251.375;    0.000
652.105; 4020.850;  217.375;    0.000
652.221; 4176.850;  243.375;    0.000
652.337; 4217.850;  231.375;    0.000
652.452; 4280.850;  238.375;    0.000
652.568; 4236.850;  188.375;    0.000
652.683; 4366.850;  197.375;    0.000
652.799; 4358.850;  194.375;    0.000
652.914; 4441.850;  222.375;    0.000
653.030; 4534.850;  200.375;    0.000
653.145; 4582.850;  235.375;    0.000
653.261; 4661.850;  261.375;    0.000
653.376; 4709.850;  228.375;    0.000
653.492; 4791.850;  222.375;    0.000
653.607; 4837.850;  227.375;    0.000
653.722; 4955.850;  250.375;    0.000
653.838; 5049.850;  255.375;    0.000
653.953; 5115.850;  235.375;    0.000
654.068; 5444.850;  266.375;    0.000
654.184; 5455.850;  210.375;    0.000
654.299; 5512.850;  240.375;    0.000
654.414; 5679.850;  222.375;    0.000
654.530; 5888.850;  222.375;    0.000
654.645; 5970.850;  256.375;    0.000
654.760; 6116.850;  244.375;    0.000
654.875; 6390.850;  229.375;    0.000
654.990; 6624.850;  226.375;    0.000
655.106; 6736.850;  254.375;    0.000
655.221; 6919.850;  251.375;    0.000
655.336; 7274.850;  245.375;    0.000
655.451; 7605.850;  199.375;    0.000
655.566; 8040.850;  228.375;    0.000
655.681; 8284.850;  208.375;    0.000
655.796; 8840.850;  218.375;    0.000
655.911; 9379.850;  233.375;    0.000
656.026; 9853.850;  232.375;    0.000
656.141;10580.850;  223.375;    0.000
656.256;11086.850;  247.375;    0.000
656.371;11302.850;  220.375;    0.000
656.486;11090.850;  225.375;    0.000
656.601;10731.850;  257.375;    0.000
656.716;10286.850;  248.375;    0.000
656.831; 9883.850;  262.375;    0.000
656.946; 9431.850;  249.375;    0.000
657.060; 9075.850;  245.375;    0.000
657.175; 8802.850;  245.375;    0.000
657.290; 8331.850;  219.375;    0.000
657.405; 8182.850;  286.375;    0.000
657.520; 7842.850;  259.375;    0.000
657.634; 7588.850;  239.375;    0.000
657.749; 7221.850;  227.375;    0.000
657.864; 7098.850;  210.375;    0.000
657.979; 7037.850;  236.375;    0.000
658.093; 6811.850;  210.375;    0.000
658.208; 6654.850;  248.375;    0.000
658.323; 6393.850;  216.375;    0.000
658.437; 6191.850;  248.375;    0.000
658.552; 6121.850;  249.375;    0.000
658.666; 6000.850;  256.375;    0.000
658.781; 5977.850;  247.375;    0.000
658.895; 5791.850;  209.375;    0.000
659.010; 5650.850;  219.375;    0.000
659.125; 5429.850;  215.375;    0.000
659.239; 5388.850;  205.375;    0.000
659.353; 5165.850;  246.375;    0.000
659.468; 5212.850;  245.375;    0.000
659.582; 5209.850;  244.375;    0.000
659.697; 5105.850;  242.375;    0.000
659.811; 5028.850;  239.375;    0.000
659.926; 5005.850;  226.375;    0.000
660.040; 4816.850;  255.375;    0.000
660.154; 4803.850;  225.375;    0.000
660.269; 4847.850;  200.375;    0.000
660.383; 4680.850;  192.375;    0.000
660.497; 4681.850;  218.375;    0.000
660.612; 4606.850;  236.375;    0.000
660.726; 4524.850;  263.375;    0.000
660.840; 4384.850;  205.375;    0.000
660.954; 4412.850;  219.375;    0.000
661.068; 4251.850;  240.375;    0.000
661.183; 4213.850;  221.375;    0.000
661.297; 4170.850;  194.375;    0.000
661.411; 4174.850;  253.375;    0.000
661.525; 4118.850;  246.375;    0.000
661.639; 3944.850;  217.375;    0.000
661.753; 3995.850;  241.375;    0.000
661.867; 3967.850;  276.375;    0.000
661.981; 3909.850;  203.375;    0.000
662.095; 3877.850;  224.375;    0.000
662.209; 3748.850;  217.375;    0.000
662.323; 3748.850;  251.375;    0.000
662.437; 3708.850;  243.375;    0.000
662.551; 3649.850;  244.375;    0.000
662.665; 3595.850;  247.375;    0.000
662.779; 3562.850;  251.375;    0.000
662.893; 3592.850;  254.375;    0.000
663.007; 3578.850;  222.375;    0.000
663.121; 3493.850;  253.375;    0.000
663.235; 3508.850;  270.375;    0.000
663.349; 3461.850;  242.375;    0.000
663.462; 3418.850;  230.375;    0.000
663.576; 3375.850;  230.375;    0.000
663.690; 3277.850;  249.375;    0.000
663.804; 3326.850;  200.375;    0.000
663.917; 3233.850;  204.375;    0.000
664.031; 3259.850;  206.375;    0.000
664.145; 3354.850;  202.375;    0.000
664.258; 3189.850;  221.375;    0.000
664.372; 3213.850;  215.375;    0.000
664.486; 3137.850;  179.375;    0.000
664.599; 3158.850;  208.375;    0.000
664.713; 3215.850;  268.375;    0.000
664.827; 3125.850;  225.375;    0.000
664.940; 3121.850;  222.375;    0.000
665.054; 3033.850;  208.375;    0.000
665.167; 2967.850;  253.375;    0.000
665.281; 3054.850;  237.375;    0.000
665.394; 3001.850;  227.375;    0.000
665.508; 3001.850;  192.375;    0.000
665.621; 3039.850;  175.375;    0.000
665.735; 3020.850;  249.375;    0.000
665.848; 2995.850;  197.375;    0.000
665.961; 2975.850;  206.375;    0.000
666.075; 2943.850;  245.375;    0.000
666.188; 2896.850;  230.375;    0.000
666.301; 2860.850;  219.375;    0.000
666.415; 2806.850;  231.375;    0.000
666.528; 2898.850;  258.375;    0.000
666.641; 2752.850;  243.375;    0.000
666.755; 2752.850;  208.375;    0.000
666.868; 2818.850;  228.375;    0.000
666.981; 2771.850;  244.375;    0.000
667.094; 2699.850;  244.375;    0.000
667.207; 2734.850;  226.375;    0.000
667.321; 2708.850;  175.375;    0.000
667.434; 2655.850;  211.375;    0.000
667.547; 2714.850;  249.375;    0.000
667.660; 2738.850;  225.375;    0.000
667.773; 2751.850;  242.375;    0.000
667.886; 2644.850;  246.375;    0.000
667.999; 2706.850;  244.375;    0.000
668.112; 2633.850;  227.375;    0.000
668.225; 2661.850;  231.375;    0.000
668.338; 2658.850;  256.375;    0.000
668.451; 2592.850;  216.375;    0.000
668.564; 2663.850;  261.375;    0.000
668.677; 2603.850;  230.375;    0.000
668.790; 2539.850;  192.375;    0.000
668.903; 2589.850;  243.375;    0.000
669.016; 2510.850;  201.375;    0.000
669.129; 2636.850;  249.375;    0.000
669.242; 2554.850;  190.375;    0.000
669.354; 2604.850;  219.375;    0.000
669.467; 2595.850;  242.375;    0.000
669.580; 2515.850;  237.375;    0.000
669.693; 2464.850;  243.375;    0.000
669.806; 2511.850;  234.375;    0.000
669.918; 2504.850;  206.375;    0.000
670.031; 2492.850;  258.375;    0.000
670.144; 2450.850;  231.375;    0.000
670.256; 2404.850;  244.375;    0.000
670.369; 2378.850;  262.375;    0.000
670.482; 2396.850;  264.375;    0.000
670.594; 2486.850;  256.375;    0.000
670.707; 2505.850;  224.375;    0.000
670.820; 2612.850;  261.375;    0.000
670.932; 2453.850;  226.375;    0.000
671.045; 2374.850;  243.375;    0.000
671.157; 2513.850;  235.375;    0.000
671.270; 2399.850;  217.375;    0.000
671.382; 2386.850;  267.375;    0.000
671.495; 2429.850;  258.375;    0.000
671.607; 2347.850;  236.375;    0.000
671.720; 2323.850;  200.375;    0.000
671.832; 2362.850;  219.375;    0.000
671.944; 2363.850;  234.375;    0.000
672.057; 2353.850;  226.375;    0.000
672.169; 2364.850;  225.375;    0.000
672.281; 2356.850;  253.375;    0.000
672.394; 2367.850;  238.375;    0.000
672.506; 2360.850;  244.375;    0.000
672.618; 2357.850;  272.375;    0.000
672.731; 2240.850;  247.375;    0.000
672.843; 2318.850;  261.375;    0.000
672.955; 2274.850;  262.375;    0.000
673.067; 2318.850;  253.375;    0.000
673.180; 2303.850;  239.375;    0.000
673.292; 2264.850;  240.375;    0.000
673.404; 2299.850;  243.375;    0.000
673.516; 2307.850;  258.375;    0.000
673.628; 2349.850;  263.375;    0.000
673.740; 2190.850;  250.375;    0.000
673.852; 2276.850;  285.375;    0.000
673.964; 2252.850;  264.375;    0.000
674.076; 2256.850;  260.375;    0.000
674.188; 2237.850;  226.375;    0.000
674.300; 2243.850;  272.375;    0.000
674.412; 2268.850;  259.375;    0.000
674.524; 2330.850;  283.375;    0.000
674.636; 2234.850;  259.375;    0.000
674.748; 2243.850;  238.375;    0.000
674.860; 2238.850;  277.375;    0.000
674.972; 2228.850;  272.375;    0.000
675.084; 2213.850;  244.375;    0.000
675.196; 2179.850;  272.375;    0.000
675.307; 2134.850;  244.375;    0.000
675.419; 2187.850;  219.375;    0.000
675.531; 2238.850;  275.375;    0.000
675.643; 2185.850;  215.375;    0.000
675.755; 2154.850;  243.375;    0.000
675.866; 2089.850;  223.375;    0.000
675.978; 2084.850;  216.375;    0.000
676.090; 2201.850;  242.375;    0.000
676.201; 2165.850;  276.375;    0.000
676.313; 2179.850;  226.375;    0.000
676.425; 2149.850;  234.375;    0.000
676.536; 2110.850;  231.375;    0.000
676.648; 2125.850;  254.375;    0.000
676.759; 2127.850;  273.375;    0.000
676.871; 2176.850;  250.375;    0.000
676.983; 2131.850;  256.375;    0.000
677.094; 2165.850;  210.375;    0.000
677.206; 2163.850;  248.375;    0.000
677.317; 2112.850;  263.375;    0.000
677.429; 2098.850;  238.375;    0.000
677.540; 2086.850;  247.375;    0.000
677.651; 2033.850;  224.375;    0.000
677.763; 2014.850;  217.375;    0.000
677.874; 2102.850;  234.375;    0.000
677.986; 2065.850;  238.375;    0.000
678.097; 2043.850;  226.375;    0.000
678.208; 2109.850;  253.375;    0.000
678.320; 2083.850;  217.375;    0.000
678.431; 2049.850;  238.375;    0.000
678.542; 2087.850;  236.375;    0.000
678.653; 2044.850;  218.375;    0.000
678.765; 1999.850;  275.375;    0.000
678.876; 2048.850;  213.375;    0.000
678.987; 2075.850;  182.375;    0.000
679.098; 2006.850;  221.375;    0.000
679.209; 2030.850;  238.375;    0.000
679.320; 2006.850;  212.375;    0.000
679.432; 2074.850;  231.375;    0.000
679.543; 1994.850;  198.375;    0.000
679.654; 2055.850;  191.375;    0.000
679.765; 1947.850;  214.375;    0.000
679.876; 2007.850;  221.375;    0.000
679.987; 1993.850;  162.375;    0.000
680.098; 1945.850;  230.375;    0.000
680.209; 1940.850;  206.375;    0.000
680.320; 1960.850;  196.375;    0.000
680.431; 1876.850;  191.375;    0.000
680.542; 1933.850;  214.375;    0.000
680.653; 2011.850;  238.375;    0.000
680.763; 1914.850;  182.375;    0.000
680.874; 2018.850;  213.375;    0.000
680.985; 1974.850;  224.375;    0.000
681.096; 1947.850;  222.375;    0.000
681.207; 2046.850;  220.375;    0.000
681.318; 1919.850;  216.375;    0.000
681.428; 1943.850;  229.375;    0.000
681.539; 1941.850;  183.375;    0.000
681.650; 1922.850;  202.375;    0.000
681.760; 1997.850;  223.375;    0.000
681.871; 1956.850;  211.375;    0.000
681.982; 1920.850;  189.375;    0.000
682.093; 1933.850;  222.375;    0.000
682.203; 1913.850;  220.375;    0.000
682.314; 1961.850;  214.375;    0.000
682.424; 1950.850;  208.375;    0.000
682.535; 1930.850;  213.375;    0.000
682.646; 2019.850;  302.375;    0.000
682.756; 1929.850;  255.375;    0.000
682.867; 1993.850;  244.375;    0.000
682.977; 1941.850;  221.375;    0.000
683.088; 1899.850;  259.375;    0.000
683.198; 1906.850;  212.375;    0.000
683.308; 1907.850;  202.375;    0.000
683.419; 1953.850;  255.375;    0.000
683.529; 1897.850;  217.375;    0.000
683.640; 1884.850;  240.375;    0.000
683.750; 1905.850;  181.375;    0.000
683.860; 1948.850;  246.375;    0.000
683.971; 1915.850;  254.375;    0.000
684.081; 1953.850;  235.375;    0.000
684.191; 2002.850;  251.375;    0.000
684.301; 1957.850;  233.375;    0.000
684.412; 1942.850;  202.375;    0.000
684.522; 1892.850;  232.375;    0.000
684.632; 1937.850;  202.375;    0.000
684.742; 1905.850;  254.375;    0.000
684.852; 1899.850;  219.375;    0.000
684.963; 1895.850;  256.375;    0.000
685.073; 1898.850;  253.375;    0.000
685.183; 1859.850;  254.375;    0.000
685.293; 1839.850;  232.375;    0.000
685.403; 1886.850;  242.375;    0.000
685.513; 1910.850;  261.375;    0.000
685.623; 1843.850;  245.375;    0.000
685.733; 1902.850;  254.375;    0.000
685.843; 1942.850;  249.375;    0.000
685.953; 1891.850;  252.375;    0.000
686.063; 1891.850;  227.375;    0.000
686.173; 1920.850;  223.375;    0.000
686.283; 1857.850;  234.375;    0.000
686.393; 1843.850;  239.375;    0.000
686.503; 1784.850;  231.375;    0.000
686.612; 1930.850;  232.375;    0.000
686.722; 1878.850;  258.375;    0.000
686.832; 1915.850;  256.375;    0.000
686.942; 1930.850;  230.375;    0.000
687.052; 1872.850;  274.375;    0.000
687.161; 1931.850;  269.375;    0.000
687.271; 1887.850;  218.375;    0.000
687.381; 1922.850;  235.375;    0.000
687.491; 1851.850;  262.375;    0.000
687.600; 1876.850;  256.375;    0.000
687.710; 1852.850;  225.375;    0.000
687.820; 1872.850;  230.375;    0.000
687.929; 1837.850;  226.375;    0.000
688.039; 1960.850;  228.375;    0.000
688.148; 1800.850;  249.375;    0.000
688.258; 1896.850;  237.375;    0.000
688.367; 1808.850;  260.375;    0.000
688.477; 1845.850;  200.375;    0.000
688.586; 1918.850;  223.375;    0.000
688.696; 1886.850;  223.375;    0.000
688.805; 1868.850;  257.375;    0.000
688.915; 1876.850;  185.375;    0.000
689.024; 1831.850;  227.375;    0.000
689.134; 1785.850;  224.375;    0.000
689.243; 1763.850;  206.375;    0.000
689.352; 1796.850;  275.375;    0.000
689.462; 1798.850;  233.375;    0.000
689.571; 1764.850;  244.375;    0.000
689.680; 1793.850;  261.375;    0.000
689.790; 1786.850;  192.375;    0.000
689.899; 1784.850;  214.375;    0.000
690.008; 1815.850;  255.375;    0.000
690.117; 1830.850;  219.375;    0.000
690.227; 1787.850;  241.375;    0.000
690.336; 1841.850;  231.375;    0.000
690.445; 1848.850;  212.375;    0.000
690.554; 1836.850;  234.375;    0.000
690.663; 1877.850;  210.375;    0.000
690.772; 1772.850;  221.375;    0.000
690.881; 1765.850;  244.375;    0.000
690.990; 1794.850;  247.375;    0.000
691.099; 1778.850;  222.375;    0.000
691.209; 1781.850;  240.375;    0.000
691.318; 1762.850;  223.375;    0.000
691.427; 1749.850;  217.375;    0.000
691.536; 1845.850;  216.375;    0.000
691.644; 1763.850;  194.375;    0.000
691.753; 1767.850;  221.375;    0.000
691.862; 1767.850;  224.375;    0.000
691.971; 1783.850;  191.375;    0.000
692.080; 1833.850;  247.375;    0.000
692.189; 1784.850;  208.375;    0.000
692.298; 1852.850;  203.375;    0.000
692.406; 1794.850;  239.375;    0.000
692.515; 1812.850;  250.375;    0.000
692.624; 1775.850;  226.375;    0.000
692.733; 1778.850;  229.375;    0.000
692.842; 1810.850;  254.375;    0.000
692.950; 1747.850;  242.375;    0.000
693.059; 1756.850;  204.375;    0.000
693.168; 1828.850;  252.375;    0.000
693.276; 1757.850;  195.375;    0.000
693.385; 1783.850;  228.375;    0.000
693.494; 1754.850;  282.375;    0.000
693.602; 1800.850;  221.375;    0.000
693.711; 1736.850;  225.375;    0.000
693.819; 1779.850;  234.375;    0.000
693.928; 1700.850;  229.375;    0.000
694.036; 1717.850;  192.375;    0.000
694.145; 1826.850;  233.375;    0.000
694.253; 1750.850;  277.375;    0.000
694.362; 1768.850;  188.375;    0.000
694.470; 1778.850;  263.375;    0.000
694.579; 1811.850;  253.375;    0.000
694.687; 1847.850;  281.375;    0.000
694.795; 1759.850;  233.375;    0.000
694.904; 1800.850;  223.375;    0.000
695.012; 1855.850;  296.375;    0.000
695.120; 1840.850;  227.375;    0.000
695.229; 1822.850;  269.375;    0.000
695.337; 1732.850;  229.375;    0.000
695.445; 1806.850;  244.375;    0.000
695.553; 1770.850;  259.375;    0.000
695.662; 1754.850;  208.375;    0.000
695.770; 1851.850;  241.375;    0.000
695.878; 1770.850;  239.375;    0.000
695.986; 1829.850;  247.375;    0.000
696.094; 1859.850;  224.375;    0.000
696.202; 1769.850;  205.375;    0.000
696.310; 1772.850;  217.375;    0.000
696.419; 1709.850;  228.375;    0.000
696.527; 1841.850;  246.375;    0.000
696.635; 1846.850;  245.375;    0.000
696.743; 1697.850;  233.375;    0.000
696.851; 1840.850;  251.375;    0.000
696.959; 1761.850;  257.375;    0.000
697.067; 1735.850;  260.375;    0.000
697.174; 1729.850;  223.375;    0.000
697.282; 1735.850;  239.375;    0.000
697.390; 1768.850;  264.375;    0.000
697.498; 1747.850;  227.375;    0.000
697.606; 1814.850;  243.375;    0.000
697.714; 1799.850;  256.375;    0.000
697.822; 1802.850;  278.375;    0.000
697.929; 1744.850;  227.375;    0.000
698.037; 1738.850;  232.375;    0.000
698.145; 1713.850;  256.375;    0.000
698.253; 1728.850;  245.375;    0.000
698.360; 1747.850;  282.375;    0.000
698.468; 1780.850;  244.375;    0.000
698.576; 1791.850;  279.375;    0.000
698.683; 1761.850;  259.375;    0.000
698.791; 1834.850;  265.375;    0.000
698.899; 1732.850;  250.375;    0.000
699.006; 1734.850;  245.375;    0.000
699.114; 1728.850;  280.375;    0.000
699.221; 1741.850;  240.375;    0.000
699.329; 1735.850;  293.375;    0.000
699.436; 1786.850;  216.375;    0.000
699.544; 1801.850;  269.375;    0.000
699.651; 1746.850;  219.375;    0.000
699.759; 1695.850;  245.375;    0.000
699.866; 1766.850;  261.375;    0.000
699.974; 1697.850;  245.375;    0.000
700.081; 1755.850;  257.375;    0.000
700.188; 1753.850;  268.375;    0.000
700.296; 1746.850;  225.375;    0.000
700.403; 1737.850;  257.375;    0.000
700.510; 1755.850;  267.375;    0.000
700.618; 1792.850;  299.375;    0.000
700.725; 1709.850;  223.375;    0.000
700.832; 1777.850;  233.375;    0.000
700.940; 1731.850;  255.375;    0.000
701.047; 1714.850;  244.375;    0.000
701.154; 1778.850;  248.375;    0.000
701.261; 1695.850;  264.375;    0.000
701.368; 1723.850;  299.375;    0.000
701.475; 1694.850;  264.375;    0.000
701.582; 1733.850;  275.375;    0.000
701.690; 1685.850;  261.375;    0.000
701.797; 1718.850;  273.375;    0.000
701.904; 1772.850;  320.375;    0.000
702.011; 1773.850;  299.375;    0.000
702.118; 1817.850;  292.375;    0.000
702.225; 1799.850;  317.375;    0.000
702.332; 1747.850;  307.375;    0.000
702.439; 1760.850;  313.375;    0.000
702.546; 1775.850;  312.375;    0.000
702.652; 1755.850;  297.375;    0.000
702.759; 1686.850;  345.375;    0.000
702.866; 1798.850;  330.375;    0.000
702.973; 1866.850;  303.375;    0.000
703.080; 1812.850;  303.375;    0.000
703.187; 1718.850;  327.375;    0.000
703.294; 1803.850;  325.375;    0.000
703.400; 1707.850;  302.375;    0.000
703.507;  459.850;  344.375;    0.000
703.614;  296.850;  294.375;    0.000
703.720;  289.850;  322.375;    0.000
703.827;  308.850;  329.375;    0.000
703.934;  310.850;  318.375;    0.000
704.040;  290.850;  299.375;    0.000
704.147;  304.850;  352.375;    0.000
704.254;  381.850;  350.375;    0.000
704.360;  308.850;  347.375;    0.000
704.467;  331.850;  336.375;    0.000
704.573;  335.850;  344.375;    0.000
704.680;  330.850;  365.375;    0.000
704.786;  337.850;  332.375;    0.000
704.893;  296.850;  304.375;    0.000
704.999;  320.850;  299.375;    0.000
705.106;  334.850;  365.375;    0.000

