
Integration time [ms]:   1.000
Averaging Nr. [scans]: 1
Smoothing Nr. [pixels]: 0
Data measured with spectrometer [name]: UV1
Wave   ;Sample   ;Dark     ;Reference
[nm]   ;[counts] ;[counts] ;[counts] 

236.381;  131.475;  175.825;    0.000
236.451;  175.475;  220.825;    0.000
236.520;  144.475;  178.825;    0.000
236.590;  197.475;  182.825;    0.000
236.660;  174.475;  180.825;    0.000
236.730;  175.475;  201.825;    0.000
236.799;  207.475;  168.825;    0.000
236.869;  173.475;  205.825;    0.000
236.939;  178.475;  175.825;    0.000
237.009;  186.475;  186.825;    0.000
237.078;  203.475;  200.825;    0.000
237.148;  183.475;  156.825;    0.000
237.218;  168.475;  190.825;    0.000
237.287;  200.475;  167.825;    0.000
237.357;  158.475;  213.825;    0.000
237.427;  189.475;  164.825;    0.000
237.496;  741.475;  210.825;    0.000
237.566;  769.475;  193.825;    0.000
237.636;  685.475;  179.825;    0.000
237.705;  724.475;  218.825;    0.000
237.775;  654.475;  160.825;    0.000
237.845;  748.475;  207.825;    0.000
237.914;  680.475;  180.825;    0.000
237.984;  750.475;  207.825;    0.000
238.054;  703.475;  149.825;    0.000
238.123;  728.475;  190.825;    0.000
238.193;  655.475;  167.825;    0.000
238.263;  725.475;  172.825;    0.000
238.332;  692.475;  173.825;    0.000
238.402;  757.475;  214.825;    0.000
238.471;  703.475;  181.825;    0.000
238.541;  711.475;  177.825;    0.000
238.611;  744.475;  138.825;    0.000
238.680;  715.475;  168.825;    0.000
238.750;  712.475;  171.825;    0.000
238.819;  785.475;  156.825;    0.000
238.889;  707.475;  194.825;    0.000
238.958;  683.475;  185.825;    0.000
239.028;  739.475;  170.825;    0.000
239.097;  673.475;  159.825;    0.000
239.167;  742.475;  208.825;    0.000
239.237;  703.475;  167.825;    0.000
239.306;  681.475;  154.825;    0.000
239.376;  687.475;  183.825;    0.000
239.445;  774.475;  221.825;    0.000
239.515;  694.475;  208.825;    0.000
239.584;  669.475;  177.825;    0.000
239.654;  750.475;  133.825;    0.000
239.723;  707.475;  167.825;    0.000
239.793;  672.475;  190.825;    0.000
239.862;  698.475;  192.825;    0.000
239.932;  692.475;  174.825;    0.000
240.001;  684.475;  166.825;    0.000
240.070;  713.475;  179.825;    0.000
240.140;  735.475;  191.825;    0.000
240.209;  670.475;  134.825;    0.000
240.279;  697.475;  185.825;    0.000
240.348;  747.475;  193.825;    0.000
240.418;  662.475;  149.825;    0.000
240.487;  713.475;  197.825;    0.000
240.556;  668.475;  193.825;    0.000
240.626;  704.475;  178.825;    0.000
240.695;  723.475;  194.825;    0.000
240.765;  666.475;  178.825;    0.000
240.834;  682.475;  190.825;    0.000
240.903;  707.475;  212.825;    0.000
240.973;  691.475;  153.825;    0.000
241.042;  669.475;  177.825;    0.000
241.112;  700.475;  193.825;    0.000
241.181;  750.475;  171.825;    0.000
241.250;  699.475;  152.825;    0.000
241.320;  735.475;  176.825;    0.000
241.389;  714.475;  186.825;    0.000
241.458;  749.475;  182.825;    0.000
241.528;  666.475;  175.825;    0.000
241.597;  713.475;  180.825;    0.000
241.666;  713.475;  162.825;    0.000
241.736;  708.475;  187.825;    0.000
241.805;  654.475;  173.825;    0.000
241.874;  646.475;  177.825;    0.000
241.943;  662.475;  208.825;    0.000
242.013;  734.475;  183.825;    0.000
242.082;  681.475;  171.825;    0.000
242.151;  728.475;  208.825;    0.000
242.221;  636.475;  160.825;    0.000
242.290;  700.475;  200.825;    0.000
242.359;  668.475;  167.825;    0.000
242.428;  730.475;  213.825;    0.000
242.498;  687.475;  156.825;    0.000
242.567;  741.475;  200.825;    0.000
242.636;  653.475;  178.825;    0.000
242.705;  655.475;  185.825;    0.000
242.774;  692.475;  190.825;    0.000
242.844;  693.475;  194.825;    0.000
242.913;  642.475;  162.825;    0.000
242.982;  696.475;  189.825;    0.000
243.051;  691.475;  176.825;    0.000
243.120;  645.475;  213.825;    0.000
243.190;  638.475;  155.825;    0.000
243.259;  716.475;  183.825;    0.000
243.328;  701.475;  170.825;    0.000
243.397;  629.475;  224.825;    0.000
243.466;  672.475;  172.825;    0.000
243.535;  642.475;  145.825;    0.000
243.605;  669.475;  157.825;    0.000
243.674;  692.475;  199.825;    0.000
243.743;  668.475;  196.825;    0.000
243.812;  619.475;  152.825;    0.000
243.881;  642.475;  188.825;    0.000
243.950;  680.475;  154.825;    0.000
244.019;  681.475;  195.825;    0.000
244.088;  675.475;  164.825;    0.000
244.158;  705.475;  220.825;    0.000
244.227;  658.475;  150.825;    0.000
244.296;  663.475;  153.825;    0.000
244.365;  678.475;  195.825;    0.000
244.434;  611.475;  136.825;    0.000
244.503;  642.475;  172.825;    0.000
244.572;  660.475;  129.825;    0.000
244.641;  633.475;  132.825;    0.000
244.710;  684.475;  185.825;    0.000
244.779;  713.475;  164.825;    0.000
244.848;  586.475;  132.825;    0.000
244.917;  665.475;  196.825;    0.000
244.986;  654.475;  148.825;    0.000
245.055;  705.475;  192.825;    0.000
245.124;  662.475;  170.825;    0.000
245.193;  694.475;  172.825;    0.000
245.262;  652.475;  146.825;    0.000
245.331;  672.475;  178.825;    0.000
245.400;  660.475;  108.825;    0.000
245.469;  638.475;  173.825;    0.000
245.538;  576.475;  180.825;    0.000
245.607;  671.475;  171.825;    0.000
245.676;  611.475;  149.825;    0.000
245.745;  621.475;  194.825;    0.000
245.814;  570.475;  186.825;    0.000
245.883;  597.475;  192.825;    0.000
245.952;  603.475;  169.825;    0.000
246.021;  563.475;  190.825;    0.000
246.090;  612.475;  181.825;    0.000
246.159;  620.475;  179.825;    0.000
246.227;  560.475;  182.825;    0.000
246.296;  587.475;  182.825;    0.000
246.365;  589.475;  171.825;    0.000
246.434;  639.475;  218.825;    0.000
246.503;  629.475;  147.825;    0.000
246.572;  653.475;  227.825;    0.000
246.641;  581.475;  193.825;    0.000
246.710;  586.475;  207.825;    0.000
246.779;  583.475;  181.825;    0.000
246.847;  592.475;  179.825;    0.000
246.916;  620.475;  155.825;    0.000
246.985;  592.475;  168.825;    0.000
247.054;  582.475;  137.825;    0.000
247.123;  565.475;  128.825;    0.000
247.192;  579.475;  163.825;    0.000
247.260;  547.475;  173.825;    0.000
247.329;  559.475;  174.825;    0.000
247.398;  576.475;  238.825;    0.000
247.467;  560.475;  168.825;    0.000
247.536;  615.475;  203.825;    0.000
247.604;  595.475;  194.825;    0.000
247.673;  557.475;  145.825;    0.000
247.742;  609.475;  167.825;    0.000
247.811;  601.475;  180.825;    0.000
247.879;  555.475;  187.825;    0.000
247.948;  589.475;  187.825;    0.000
248.017;  544.475;  170.825;    0.000
248.086;  606.475;  223.825;    0.000
248.154;  600.475;  160.825;    0.000
248.223;  533.475;  163.825;    0.000
248.292;  528.475;  201.825;    0.000
248.361;  603.475;  205.825;    0.000
248.429;  600.475;  191.825;    0.000
248.498;  557.475;  194.825;    0.000
248.567;  580.475;  217.825;    0.000
248.635;  627.475;  224.825;    0.000
248.704;  597.475;  204.825;    0.000
248.773;  615.475;  175.825;    0.000
248.841;  604.475;  157.825;    0.000
248.910;  601.475;  206.825;    0.000
248.979;  569.475;  170.825;    0.000
249.047;  570.475;  178.825;    0.000
249.116;  569.475;  183.825;    0.000
249.185;  619.475;  202.825;    0.000
249.253;  536.475;  159.825;    0.000
249.322;  588.475;  177.825;    0.000
249.390;  608.475;  157.825;    0.000
249.459;  618.475;  211.825;    0.000
249.528;  587.475;  181.825;    0.000
249.596;  599.475;  179.825;    0.000
249.665;  539.475;  176.825;    0.000
249.733;  567.475;  186.825;    0.000
249.802;  544.475;  185.825;    0.000
249.871;  601.475;  166.825;    0.000
249.939;  547.475;  163.825;    0.000
250.008;  635.475;  212.825;    0.000
250.076;  565.475;  227.825;    0.000
250.145;  569.475;  172.825;    0.000
250.213;  566.475;  173.825;    0.000
250.282;  569.475;  189.825;    0.000
250.350;  537.475;  166.825;    0.000
250.419;  534.475;  161.825;    0.000
250.487;  584.475;  178.825;    0.000
250.556;  540.475;  208.825;    0.000
250.624;  554.475;  190.825;    0.000
250.693;  552.475;  163.825;    0.000
250.761;  560.475;  194.825;    0.000
250.830;  631.475;  225.825;    0.000
250.898;  541.475;  140.825;    0.000
250.967;  544.475;  167.825;    0.000
251.035;  589.475;  155.825;    0.000
251.104;  569.475;  189.825;    0.000
251.172;  487.475;  136.825;    0.000
251.241;  530.475;  148.825;    0.000
251.309;  561.475;  201.825;    0.000
251.378;  556.475;  169.825;    0.000
251.446;  542.475;  178.825;    0.000
251.514;  525.475;  206.825;    0.000
251.583;  538.475;  178.825;    0.000
251.651;  552.475;  168.825;    0.000
251.720;  527.475;  190.825;    0.000
251.788;  550.475;  209.825;    0.000
251.856;  510.475;  173.825;    0.000
251.925;  502.475;  171.825;    0.000
251.993;  567.475;  188.825;    0.000
252.062;  531.475;  169.825;    0.000
252.130;  522.475;  196.825;    0.000
252.198;  558.475;  210.825;    0.000
252.267;  498.475;  181.825;    0.000
252.335;  543.475;  164.825;    0.000
252.403;  487.475;  152.825;    0.000
252.472;  542.475;  166.825;    0.000
252.540;  516.475;  189.825;    0.000
252.608;  494.475;  198.825;    0.000
252.677;  489.475;  156.825;    0.000
252.745;  525.475;  184.825;    0.000
252.813;  466.475;  163.825;    0.000
252.881;  477.475;  130.825;    0.000
252.950;  474.475;  189.825;    0.000
253.018;  470.475;  164.825;    0.000
253.086;  448.475;  172.825;    0.000
253.155;  480.475;  205.825;    0.000
253.223;  440.475;  175.825;    0.000
253.291;  442.475;  176.825;    0.000
253.359;  472.475;  182.825;    0.000
253.428;  451.475;  222.825;    0.000
253.496;  391.475;  166.825;    0.000
253.564;  455.475;  135.825;    0.000
253.632;  402.475;  184.825;    0.000
253.700;  367.475;  173.825;    0.000
253.769;  387.475;  163.825;    0.000
253.837;  435.475;  179.825;    0.000
253.905;  403.475;  157.825;    0.000
253.973;  422.475;  164.825;    0.000
254.041;  405.475;  170.825;    0.000
254.110;  415.475;  169.825;    0.000
254.178;  393.475;  165.825;    0.000
254.246;  395.475;  126.825;    0.000
254.314;  406.475;  166.825;    0.000
254.382;  418.475;  169.825;    0.000
254.450;  425.475;  170.825;    0.000
254.518;  430.475;  196.825;    0.000
254.587;  419.475;  161.825;    0.000
254.655;  408.475;  187.825;    0.000
254.723;  404.475;  144.825;    0.000
254.791;  448.475;  175.825;    0.000
254.859;  422.475;  168.825;    0.000
254.927;  461.475;  198.825;    0.000
254.995;  431.475;  165.825;    0.000
255.063;  449.475;  150.825;    0.000
255.131;  383.475;  181.825;    0.000
255.199;  434.475;  160.825;    0.000
255.267;  426.475;  131.825;    0.000
255.336;  451.475;  188.825;    0.000
255.404;  390.475;  163.825;    0.000
255.472;  439.475;  192.825;    0.000
255.540;  448.475;  158.825;    0.000
255.608;  434.475;  147.825;    0.000
255.676;  453.475;  166.825;    0.000
255.744;  348.475;  159.825;    0.000
255.812;  455.475;  164.825;    0.000
255.880;  457.475;  195.825;    0.000
255.948;  428.475;  167.825;    0.000
256.016;  450.475;  185.825;    0.000
256.084;  439.475;  191.825;    0.000
256.152;  475.475;  214.825;    0.000
256.220;  420.475;  195.825;    0.000
256.288;  449.475;  185.825;    0.000
256.356;  428.475;  168.825;    0.000
256.424;  447.475;  161.825;    0.000
256.491;  433.475;  161.825;    0.000
256.559;  425.475;  157.825;    0.000
256.627;  516.475;  164.825;    0.000
256.695;  447.475;  146.825;    0.000
256.763;  493.475;  194.825;    0.000
256.831;  442.475;  182.825;    0.000
256.899;  490.475;  192.825;    0.000
256.967;  459.475;  172.825;    0.000
257.035;  505.475;  169.825;    0.000
257.103;  566.475;  223.825;    0.000
257.171;  500.475;  141.825;    0.000
257.238;  498.475;  146.825;    0.000
257.306;  483.475;  180.825;    0.000
257.374;  478.475;  138.825;    0.000
257.442;  494.475;  135.825;    0.000
257.510;  511.475;  130.825;    0.000
257.578;  492.475;  123.825;    0.000
257.646;  533.475;  162.825;    0.000
257.713;  492.475;  149.825;    0.000
257.781;  516.475;  125.825;    0.000
257.849;  549.475;  149.825;    0.000
257.917;  493.475;  177.825;    0.000
257.985;  522.475;  143.825;    0.000
258.052;  503.475;  154.825;    0.000
258.120;  513.475;  162.825;    0.000
258.188;  548.475;  172.825;    0.000
258.256;  538.475;  160.825;    0.000
258.324;  616.475;  209.825;    0.000
258.391;  519.475;  153.825;    0.000
258.459;  624.475;  133.825;    0.000
258.527;  617.475;  160.825;    0.000
258.595;  538.475;  128.825;    0.000
258.662;  577.475;  114.825;    0.000
258.730;  625.475;  192.825;    0.000
258.798;  619.475;  144.825;    0.000
258.865;  568.475;  140.825;    0.000
258.933;  610.475;  150.825;    0.000
259.001;  674.475;  149.825;    0.000
259.069;  592.475;  110.825;    0.000
259.136;  629.475;  150.825;    0.000
259.204;  677.475;  156.825;    0.000
259.272;  618.475;  185.825;    0.000
259.339;  590.475;  148.825;    0.000
259.407;  683.475;  163.825;    0.000
259.475;  648.475;  129.825;    0.000
259.542;  644.475;  144.825;    0.000
259.610;  658.475;  164.825;    0.000
259.677;  640.475;  188.825;    0.000
259.745;  679.475;  113.825;    0.000
259.813;  763.475;  188.825;    0.000
259.880;  785.475;  174.825;    0.000
259.948;  724.475;  166.825;    0.000
260.016;  699.475;  150.825;    0.000
260.083;  783.475;  178.825;    0.000
260.151;  663.475;  120.825;    0.000
260.218;  674.475;  175.825;    0.000
260.286;  751.475;  155.825;    0.000
260.353;  719.475;  165.825;    0.000
260.421;  725.475;  169.825;    0.000
260.489;  739.475;  194.825;    0.000
260.556;  810.475;  161.825;    0.000
260.624;  841.475;  179.825;    0.000
260.691;  801.475;  174.825;    0.000
260.759;  812.475;  164.825;    0.000
260.826;  749.475;  125.825;    0.000
260.894;  764.475;  164.825;    0.000
260.961;  796.475;  147.825;    0.000
261.029;  784.475;  167.825;    0.000
261.096;  851.475;  136.825;    0.000
261.164;  858.475;  146.825;    0.000
261.231;  869.475;  190.825;    0.000
261.299;  851.475;  171.825;    0.000
261.366;  835.475;  165.825;    0.000
261.434;  873.475;  160.825;    0.000
261.501;  838.475;  149.825;    0.000
261.568;  912.475;  155.825;    0.000
261.636;  865.475;  137.825;    0.000
261.703;  911.475;  186.825;    0.000
261.771;  922.475;  162.825;    0.000
261.838;  898.475;  190.825;    0.000
261.906;  857.475;  133.825;    0.000
261.973;  942.475;  202.825;    0.000
262.040;  939.475;  179.825;    0.000
262.108;  886.475;  161.825;    0.000
262.175;  872.475;  155.825;    0.000
262.243;  952.475;  158.825;    0.000
262.310;  922.475;  129.825;    0.000
262.377;  931.475;  157.825;    0.000
262.445;  958.475;  132.825;    0.000
262.512;  975.475;  161.825;    0.000
262.579;  973.475;  151.825;    0.000
262.647; 1000.475;  174.825;    0.000
262.714;  983.475;  174.825;    0.000
262.781;  998.475;  164.825;    0.000
262.849;  991.475;  168.825;    0.000
262.916; 1026.475;  153.825;    0.000
262.983; 1043.475;  201.825;    0.000
263.051; 1009.475;  117.825;    0.000
263.118; 1050.475;  150.825;    0.000
263.185; 1075.475;  172.825;    0.000
263.252; 1016.475;  154.825;    0.000
263.320; 1025.475;  152.825;    0.000
263.387;  972.475;  136.825;    0.000
263.454; 1042.475;  167.825;    0.000
263.522; 1019.475;  122.825;    0.000
263.589; 1013.475;  147.825;    0.000
263.656; 1076.475;  130.825;    0.000
263.723; 1009.475;  182.825;    0.000
263.790; 1062.475;  163.825;    0.000
263.858; 1109.475;  161.825;    0.000
263.925; 1096.475;  153.825;    0.000
263.992; 1043.475;  139.825;    0.000
264.059; 1124.475;  141.825;    0.000
264.126; 1128.475;  153.825;    0.000
264.194; 1114.475;  144.825;    0.000
264.261; 1133.475;  188.825;    0.000
264.328; 1201.475;  161.825;    0.000
264.395; 1203.475;  184.825;    0.000
264.462; 1135.475;  162.825;    0.000
264.529; 1108.475;  178.825;    0.000
264.597; 1086.475;  160.825;    0.000
264.664; 1174.475;  158.825;    0.000
264.731; 1175.475;  176.825;    0.000
264.798; 1149.475;  137.825;    0.000
264.865; 1189.475;  175.825;    0.000
264.932; 1208.475;  162.825;    0.000
264.999; 1176.475;  153.825;    0.000
265.066; 1191.475;  168.825;    0.000
265.133; 1180.475;  142.825;    0.000
265.201; 1156.475;  163.825;    0.000
265.268; 1229.475;  143.825;    0.000
265.335; 1135.475;  156.825;    0.000
265.402; 1167.475;  136.825;    0.000
265.469; 1215.475;  127.825;    0.000
265.536; 1247.475;  159.825;    0.000
265.603; 1266.475;  191.825;    0.000
265.670; 1267.475;  136.825;    0.000
265.737; 1287.475;  186.825;    0.000
265.804; 1179.475;  147.825;    0.000
265.871; 1247.475;  147.825;    0.000
265.938; 1200.475;  153.825;    0.000
266.005; 1287.475;  172.825;    0.000
266.072; 1287.475;  151.825;    0.000
266.139; 1295.475;  175.825;    0.000
266.206; 1269.475;  165.825;    0.000
266.273; 1289.475;  162.825;    0.000
266.340; 1305.475;  150.825;    0.000
266.407; 1285.475;  169.825;    0.000
266.474; 1203.475;  151.825;    0.000
266.541; 1284.475;  164.825;    0.000
266.608; 1314.475;  111.825;    0.000
266.675; 1370.475;  173.825;    0.000
266.742; 1260.475;  148.825;    0.000
266.808; 1325.475;  185.825;    0.000
266.875; 1305.475;  188.825;    0.000
266.942; 1328.475;  131.825;    0.000
267.009; 1390.475;  184.825;    0.000
267.076; 1347.475;  200.825;    0.000
267.143; 1294.475;  216.825;    0.000
267.210; 1302.475;  138.825;    0.000
267.277; 1383.475;  143.825;    0.000
267.344; 1402.475;  172.825;    0.000
267.410; 1261.475;  172.825;    0.000
267.477; 1410.475;  160.825;    0.000
267.544; 1350.475;  175.825;    0.000
267.611; 1397.475;  189.825;    0.000
267.678; 1388.475;  162.825;    0.000
267.745; 1420.475;  206.825;    0.000
267.811; 1372.475;  146.825;    0.000
267.878; 1410.475;  147.825;    0.000
267.945; 1340.475;  170.825;    0.000
268.012; 1375.475;  153.825;    0.000
268.079; 1369.475;  185.825;    0.000
268.145; 1299.475;  197.825;    0.000
268.212; 1310.475;  167.825;    0.000
268.279; 1417.475;  145.825;    0.000
268.346; 1401.475;  182.825;    0.000
268.412; 1286.475;  144.825;    0.000
268.479; 1373.475;  186.825;    0.000
268.546; 1408.475;  147.825;    0.000
268.613; 1344.475;  188.825;    0.000
268.679; 1390.475;  173.825;    0.000
268.746; 1438.475;  204.825;    0.000
268.813; 1414.475;  199.825;    0.000
268.879; 1313.475;  157.825;    0.000
268.946; 1403.475;  192.825;    0.000
269.013; 1382.475;  136.825;    0.000
269.079; 1390.475;  166.825;    0.000
269.146; 1356.475;  129.825;    0.000
269.213; 1440.475;  178.825;    0.000
269.280; 1387.475;  148.825;    0.000
269.346; 1412.475;  194.825;    0.000
269.413; 1378.475;  135.825;    0.000
269.479; 1325.475;  180.825;    0.000
269.546; 1377.475;  169.825;    0.000
269.613; 1333.475;  160.825;    0.000
269.679; 1435.475;  161.825;    0.000
269.746; 1302.475;  143.825;    0.000
269.813; 1472.475;  172.825;    0.000
269.879; 1358.475;  152.825;    0.000
269.946; 1402.475;  156.825;    0.000
270.012; 1359.475;  190.825;    0.000
270.079; 1388.475;  143.825;    0.000
270.145; 1381.475;  148.825;    0.000
270.212; 1356.475;  176.825;    0.000
270.279; 1424.475;  168.825;    0.000
270.345; 1361.475;  143.825;    0.000
270.412; 1379.475;  155.825;    0.000
270.478; 1326.475;  176.825;    0.000
270.545; 1421.475;  112.825;    0.000
270.611; 1393.475;  186.825;    0.000
270.678; 1364.475;  141.825;    0.000
270.744; 1367.475;  145.825;    0.000
270.811; 1350.475;  120.825;    0.000
270.877; 1280.475;  118.825;    0.000
270.944; 1368.475;  135.825;    0.000
271.010; 1423.475;  128.825;    0.000
271.077; 1405.475;  176.825;    0.000
271.143; 1332.475;  162.825;    0.000
271.210; 1369.475;  133.825;    0.000
271.276; 1343.475;  107.825;    0.000
271.342; 1411.475;  202.825;    0.000
271.409; 1338.475;  160.825;    0.000
271.475; 1369.475;  165.825;    0.000
271.542; 1344.475;  152.825;    0.000
271.608; 1393.475;  163.825;    0.000
271.675; 1289.475;  149.825;    0.000
271.741; 1366.475;  164.825;    0.000
271.807; 1322.475;  128.825;    0.000
271.874; 1373.475;  148.825;    0.000
271.940; 1336.475;  179.825;    0.000
272.007; 1302.475;  148.825;    0.000
272.073; 1312.475;  146.825;    0.000
272.139; 1372.475;  166.825;    0.000
272.206; 1352.475;  198.825;    0.000
272.272; 1353.475;  201.825;    0.000
272.338; 1430.475;  208.825;    0.000
272.405; 1429.475;  181.825;    0.000
272.471; 1379.475;  167.825;    0.000
272.537; 1371.475;  189.825;    0.000
272.604; 1350.475;  162.825;    0.000
272.670; 1364.475;  194.825;    0.000
272.736; 1364.475;  176.825;    0.000
272.802; 1365.475;  163.825;    0.000
272.869; 1401.475;  170.825;    0.000
272.935; 1316.475;  145.825;    0.000
273.001; 1321.475;  149.825;    0.000
273.068; 1377.475;  172.825;    0.000
273.134; 1310.475;  155.825;    0.000
273.200; 1376.475;  183.825;    0.000
273.266; 1317.475;  160.825;    0.000
273.333; 1482.475;  190.825;    0.000
273.399; 1352.475;  132.825;    0.000
273.465; 1366.475;  179.825;    0.000
273.531; 1435.475;  161.825;    0.000
273.597; 1494.475;  194.825;    0.000
273.664; 1432.475;  193.825;    0.000
273.730; 1355.475;  180.825;    0.000
273.796; 1456.475;  145.825;    0.000
273.862; 1579.475;  176.825;    0.000
273.928; 1516.475;  169.825;    0.000
273.995; 1479.475;  202.825;    0.000
274.061; 1493.475;  176.825;    0.000
274.127; 1501.475;  178.825;    0.000
274.193; 1441.475;  106.825;    0.000
274.259; 1489.475;  186.825;    0.000
274.325; 1479.475;  163.825;    0.000
274.391; 1442.475;  162.825;    0.000
274.457; 1462.475;  145.825;    0.000
274.524; 1534.475;  189.825;    0.000
274.590; 1560.475;  161.825;    0.000
274.656; 1655.475;  157.825;    0.000
274.722; 1470.475;  143.825;    0.000
274.788; 1530.475;  166.825;    0.000
274.854; 1602.475;  200.825;    0.000
274.920; 1601.475;  132.825;    0.000
274.986; 1631.475;  184.825;    0.000
275.052; 1584.475;  169.825;    0.000
275.118; 1492.475;  153.825;    0.000
275.184; 1618.475;  182.825;    0.000
275.250; 1660.475;  124.825;    0.000
275.316; 1649.475;  154.825;    0.000
275.382; 1589.475;  150.825;    0.000
275.448; 1637.475;  180.825;    0.000
275.514; 1692.475;  143.825;    0.000
275.580; 1687.475;  120.825;    0.000
275.646; 1600.475;  127.825;    0.000
275.712; 1718.475;  109.825;    0.000
275.778; 1724.475;  126.825;    0.000
275.844; 1689.475;  155.825;    0.000
275.910; 1689.475;  164.825;    0.000
275.976; 1823.475;  161.825;    0.000
276.042; 1780.475;  152.825;    0.000
276.108; 1875.475;  159.825;    0.000
276.174; 1822.475;  149.825;    0.000
276.240; 1792.475;  112.825;    0.000
276.306; 1883.475;  142.825;    0.000
276.372; 1801.475;  136.825;    0.000
276.437; 1847.475;  141.825;    0.000
276.503; 1796.475;  150.825;    0.000
276.569; 2019.475;  178.825;    0.000
276.635; 2003.475;  117.825;    0.000
276.701; 2006.475;  174.825;    0.000
276.767; 2055.475;  136.825;    0.000
276.833; 2117.475;  119.825;    0.000
276.899; 2067.475;  171.825;    0.000
276.964; 2139.475;  146.825;    0.000
277.030; 2288.475;  157.825;    0.000
277.096; 2247.475;  124.825;    0.000
277.162; 2284.475;  185.825;    0.000
277.228; 2357.475;  125.825;    0.000
277.293; 2439.475;  159.825;    0.000
277.359; 2569.475;  186.825;    0.000
277.425; 2705.475;  176.825;    0.000
277.491; 2859.475;  140.825;    0.000
277.557; 3308.475;  172.825;    0.000
277.622; 4451.475;  187.825;    0.000
277.688; 4354.475;  203.825;    0.000
277.754; 4578.475;  170.825;    0.000
277.820; 4889.475;  142.825;    0.000
277.885; 5893.475;  182.825;    0.000
277.951; 7457.475;  171.825;    0.000
278.017; 6488.475;  173.825;    0.000
278.083; 5614.475;  151.825;    0.000
278.148; 5320.475;  159.825;    0.000
278.214; 5470.475;  173.825;    0.000
278.280; 5796.475;  137.825;    0.000
278.345; 5371.475;  190.825;    0.000
278.411; 4846.475;  149.825;    0.000
278.477; 5255.475;  157.825;    0.000
278.542; 5550.475;  136.825;    0.000
278.608; 6033.475;  144.825;    0.000
278.674; 6731.475;  215.825;    0.000
278.739; 7190.475;  148.825;    0.000
278.805; 8539.475;  152.825;    0.000
278.871;10006.475;  170.825;    0.000
278.936;12742.475;  180.825;    0.000
279.002;19263.475;  177.825;    0.000
279.067;25796.475;  172.825;    0.000
279.133;24743.475;  160.825;    0.000
279.199;22636.475;  165.825;    0.000
279.264;23232.475;  130.825;    0.000
279.330;26949.475;  154.825;    0.000
279.395;35625.477;  170.825;    0.000
279.461;46795.477;  136.825;    0.000
279.527;53777.477;  174.825;    0.000
279.592;49139.477;  179.825;    0.000
279.658;40484.477;  187.825;    0.000
279.723;39516.477;  201.825;    0.000
279.789;40937.477;  194.825;    0.000
279.854;35986.477;  171.825;    0.000
279.920;29893.475;  183.825;    0.000
279.985;26931.475;  173.825;    0.000
280.051;27169.475;  194.825;    0.000
280.116;32394.475;  197.825;    0.000
280.182;43890.477;  171.825;    0.000
280.247;50404.477;  131.825;    0.000
280.313;42391.477;  166.825;    0.000
280.378;29766.475;  159.825;    0.000
280.444;21642.475;  190.825;    0.000
280.509;17188.475;  189.825;    0.000
280.574;13899.475;  171.825;    0.000
280.640;11793.475;  167.825;    0.000
280.705;10558.475;  129.825;    0.000
280.771; 9500.475;  193.825;    0.000
280.836; 8607.475;  172.825;    0.000
280.902; 8069.475;  189.825;    0.000
280.967; 7282.475;  143.825;    0.000
281.032; 6832.475;  182.825;    0.000
281.098; 6637.475;  172.825;    0.000
281.163; 6171.475;  184.825;    0.000
281.229; 5704.475;  210.825;    0.000
281.294; 5456.475;  223.825;    0.000
281.359; 5283.475;  197.825;    0.000
281.425; 5056.475;  192.825;    0.000
281.490; 4677.475;  162.825;    0.000
281.555; 4633.475;  193.825;    0.000
281.621; 4407.475;  141.825;    0.000
281.686; 4347.475;  166.825;    0.000
281.751; 4215.475;  204.825;    0.000
281.816; 4042.475;  159.825;    0.000
281.882; 3800.475;  146.825;    0.000
281.947; 3733.475;  176.825;    0.000
282.012; 3815.475;  139.825;    0.000
282.078; 3641.475;  186.825;    0.000
282.143; 3544.475;  151.825;    0.000
282.208; 3357.475;  213.825;    0.000
282.273; 3400.475;  160.825;    0.000
282.339; 3249.475;  175.825;    0.000
282.404; 3188.475;  157.825;    0.000
282.469; 3193.475;  185.825;    0.000
282.534; 3130.475;  166.825;    0.000
282.600; 3079.475;  168.825;    0.000
282.665; 3002.475;  167.825;    0.000
282.730; 2991.475;  148.825;    0.000
282.795; 2910.475;  186.825;    0.000
282.860; 2922.475;  161.825;    0.000
282.926; 2863.475;  178.825;    0.000
282.991; 2796.475;  139.825;    0.000
283.056; 2841.475;  158.825;    0.000
283.121; 2732.475;  191.825;    0.000
283.186; 2772.475;  182.825;    0.000
283.251; 2815.475;  181.825;    0.000
283.316; 2681.475;  187.825;    0.000
283.382; 2656.475;  175.825;    0.000
283.447; 2695.475;  183.825;    0.000
283.512; 2711.475;  175.825;    0.000
283.577; 2639.475;  180.825;    0.000
283.642; 2668.475;  193.825;    0.000
283.707; 2535.475;  145.825;    0.000
283.772; 2539.475;  143.825;    0.000
283.837; 2519.475;  143.825;    0.000
283.902; 2555.475;  150.825;    0.000
283.967; 2553.475;  166.825;    0.000
284.032; 2613.475;  126.825;    0.000
284.097; 2549.475;  201.825;    0.000
284.163; 2459.475;  133.825;    0.000
284.228; 2499.475;  193.825;    0.000
284.293; 2534.475;  157.825;    0.000
284.358; 2430.475;  185.825;    0.000
284.423; 2456.475;  142.825;    0.000
284.488; 2457.475;  192.825;    0.000
284.553; 2565.475;  146.825;    0.000
284.618; 2630.475;  154.825;    0.000
284.683; 2652.475;  172.825;    0.000
284.748; 2775.475;  195.825;    0.000
284.812; 2862.475;  190.825;    0.000
284.877; 3122.475;  169.825;    0.000
284.942; 3656.475;  195.825;    0.000
285.007; 4321.475;  204.825;    0.000
285.072; 6197.475;  189.825;    0.000
285.137;11938.475;  149.825;    0.000
285.202;16166.475;  164.825;    0.000
285.267;12725.475;  161.825;    0.000
285.332; 7742.475;  140.825;    0.000
285.397; 5260.475;  142.825;    0.000
285.462; 4268.475;  146.825;    0.000
285.527; 3752.475;  132.825;    0.000
285.591; 3412.475;  160.825;    0.000
285.656; 3100.475;  136.825;    0.000
285.721; 2905.475;  135.825;    0.000
285.786; 2839.475;  171.825;    0.000
285.851; 2749.475;  168.825;    0.000
285.916; 2677.475;  178.825;    0.000
285.981; 2545.475;  152.825;    0.000
286.045; 2476.475;  167.825;    0.000
286.110; 2391.475;  187.825;    0.000
286.175; 2432.475;  162.825;    0.000
286.240; 2362.475;  163.825;    0.000
286.305; 2432.475;  190.825;    0.000
286.369; 2345.475;  143.825;    0.000
286.434; 2273.475;  185.825;    0.000
286.499; 2265.475;  195.825;    0.000
286.564; 2276.475;  173.825;    0.000
286.628; 2237.475;  159.825;    0.000
286.693; 2246.475;  175.825;    0.000
286.758; 2202.475;  170.825;    0.000
286.823; 2300.475;  129.825;    0.000
286.887; 2219.475;  172.825;    0.000
286.952; 2164.475;  163.825;    0.000
287.017; 2190.475;  217.825;    0.000
287.082; 2126.475;  165.825;    0.000
287.146; 2191.475;  176.825;    0.000
287.211; 2097.475;  192.825;    0.000
287.276; 2175.475;  147.825;    0.000
287.340; 2194.475;  162.825;    0.000
287.405; 2188.475;  196.825;    0.000
287.470; 2087.475;  148.825;    0.000
287.534; 2228.475;  166.825;    0.000
287.599; 2211.475;  193.825;    0.000
287.663; 2260.475;  191.825;    0.000
287.728; 2157.475;  146.825;    0.000
287.793; 2175.475;  234.825;    0.000
287.857; 2213.475;  177.825;    0.000
287.922; 2087.475;  166.825;    0.000
287.987; 2179.475;  169.825;    0.000
288.051; 2154.475;  169.825;    0.000
288.116; 2133.475;  187.825;    0.000
288.180; 2192.475;  200.825;    0.000
288.245; 2171.475;  201.825;    0.000
288.309; 2083.475;  176.825;    0.000
288.374; 2152.475;  162.825;    0.000
288.439; 2120.475;  195.825;    0.000
288.503; 2091.475;  162.825;    0.000
288.568; 2089.475;  228.825;    0.000
288.632; 2081.475;  194.825;    0.000
288.697; 2147.475;  173.825;    0.000
288.761; 2087.475;  153.825;    0.000
288.826; 1975.475;  151.825;    0.000
288.890; 2070.475;  208.825;    0.000
288.955; 2032.475;  159.825;    0.000
289.019; 2065.475;  198.825;    0.000
289.084; 2025.475;  152.825;    0.000
289.148; 2035.475;  171.825;    0.000
289.212; 2034.475;  184.825;    0.000
289.277; 2099.475;  165.825;    0.000
289.341; 2092.475;  207.825;    0.000
289.406; 2058.475;  156.825;    0.000
289.470; 2005.475;  191.825;    0.000
289.535; 2120.475;  222.825;    0.000
289.599; 2041.475;  214.825;    0.000
289.663; 2047.475;  183.825;    0.000
289.728; 2076.475;  192.825;    0.000
289.792; 2122.475;  197.825;    0.000
289.857; 2133.475;  221.825;    0.000
289.921; 1978.475;  177.825;    0.000
289.985; 2031.475;  177.825;    0.000
290.050; 2119.475;  178.825;    0.000
290.114; 2022.475;  112.825;    0.000
290.178; 2016.475;  170.825;    0.000
290.243; 2032.475;  162.825;    0.000
290.307; 2115.475;  178.825;    0.000
290.371; 2045.475;  141.825;    0.000
290.436; 2124.475;  178.825;    0.000
290.500; 2101.475;  135.825;    0.000
290.564; 2009.475;  199.825;    0.000
290.629; 2049.475;  165.825;    0.000
290.693; 2084.475;  154.825;    0.000
290.757; 2041.475;  159.825;    0.000
290.821; 2090.475;  179.825;    0.000
290.886; 2040.475;  141.825;    0.000
290.950; 2038.475;  166.825;    0.000
291.014; 2153.475;  169.825;    0.000
291.078; 2084.475;  191.825;    0.000
291.143; 2106.475;  169.825;    0.000
291.207; 2165.475;  164.825;    0.000
291.271; 2100.475;  193.825;    0.000
291.335; 2124.475;  150.825;    0.000
291.399; 2207.475;  175.825;    0.000
291.464; 2276.475;  128.825;    0.000
291.528; 2398.475;  162.825;    0.000
291.592; 2429.475;  152.825;    0.000
291.656; 2317.475;  175.825;    0.000
291.720; 2279.475;  173.825;    0.000
291.784; 2187.475;  192.825;    0.000
291.849; 2266.475;  159.825;    0.000
291.913; 2316.475;  174.825;    0.000
291.977; 2250.475;  177.825;    0.000
292.041; 2251.475;  188.825;    0.000
292.105; 2387.475;  174.825;    0.000
292.169; 2262.475;  143.825;    0.000
292.233; 2373.475;  149.825;    0.000
292.297; 2374.475;  176.825;    0.000
292.361; 2393.475;  178.825;    0.000
292.425; 2337.475;  153.825;    0.000
292.490; 2418.475;  185.825;    0.000
292.554; 2634.475;  144.825;    0.000
292.618; 2798.475;  166.825;    0.000
292.682; 3122.475;  181.825;    0.000
292.746; 3560.475;  152.825;    0.000
292.810; 4964.475;  208.825;    0.000
292.874; 6158.475;  142.825;    0.000
292.938; 6076.475;  195.825;    0.000
293.002; 5416.475;  156.825;    0.000
293.066; 4811.475;  108.825;    0.000
293.130; 4439.475;  136.825;    0.000
293.194; 4164.475;  135.825;    0.000
293.258; 4137.475;  187.825;    0.000
293.322; 3985.475;  148.825;    0.000
293.386; 4183.475;  186.825;    0.000
293.450; 4303.475;  196.825;    0.000
293.514; 5109.475;  175.825;    0.000
293.577; 6858.475;  137.825;    0.000
293.641; 9444.475;  142.825;    0.000
293.705;10107.475;  201.825;    0.000
293.769; 8769.475;  150.825;    0.000
293.833; 7518.475;  147.825;    0.000
293.897; 6330.475;  170.825;    0.000
293.961; 5701.475;  121.825;    0.000
294.025; 5065.475;  172.825;    0.000
294.089; 4646.475;  167.825;    0.000
294.152; 4344.475;  167.825;    0.000
294.216; 3988.475;  165.825;    0.000
294.280; 3718.475;  168.825;    0.000
294.344; 3486.475;  160.825;    0.000
294.408; 3466.475;  187.825;    0.000
294.472; 3179.475;  141.825;    0.000
294.536; 3129.475;  184.825;    0.000
294.599; 3018.475;  176.825;    0.000
294.663; 2896.475;  120.825;    0.000
294.727; 2888.475;  159.825;    0.000
294.791; 2777.475;  190.825;    0.000
294.855; 2660.475;  148.825;    0.000
294.918; 2562.475;  160.825;    0.000
294.982; 2635.475;  156.825;    0.000
295.046; 2557.475;  177.825;    0.000
295.110; 2476.475;  149.825;    0.000
295.173; 2453.475;  156.825;    0.000
295.237; 2412.475;  174.825;    0.000
295.301; 2355.475;  152.825;    0.000
295.364; 2346.475;  204.825;    0.000
295.428; 2233.475;  196.825;    0.000
295.492; 2322.475;  178.825;    0.000
295.556; 2351.475;  161.825;    0.000
295.619; 2279.475;  178.825;    0.000
295.683; 2186.475;  152.825;    0.000
295.747; 2152.475;  148.825;    0.000
295.810; 2192.475;  177.825;    0.000
295.874; 2147.475;  146.825;    0.000
295.938; 2137.475;  115.825;    0.000
296.001; 2114.475;  172.825;    0.000
296.065; 2077.475;  146.825;    0.000
296.128; 2027.475;  164.825;    0.000
296.192; 2097.475;  137.825;    0.000
296.256; 2150.475;  143.825;    0.000
296.319; 2092.475;  156.825;    0.000
296.383; 2132.475;  165.825;    0.000
296.447; 2003.475;  170.825;    0.000
296.510; 2008.475;  174.825;    0.000
296.574; 1940.475;  127.825;    0.000
296.637; 1947.475;  132.825;    0.000
296.701; 1949.475;  206.825;    0.000
296.764; 2049.475;  179.825;    0.000
296.828; 2015.475;  213.825;    0.000
296.891; 1995.475;  149.825;    0.000
296.955; 1987.475;  170.825;    0.000
297.018; 1920.475;  185.825;    0.000
297.082; 1922.475;  205.825;    0.000
297.145; 1973.475;  154.825;    0.000
297.209; 1973.475;  200.825;    0.000
297.272; 1939.475;  157.825;    0.000
297.336; 1923.475;  164.825;    0.000
297.399; 1804.475;  166.825;    0.000
297.463; 1984.475;  195.825;    0.000
297.526; 1832.475;  176.825;    0.000
297.590; 1897.475;  198.825;    0.000
297.653; 1761.475;  146.825;    0.000
297.717; 1897.475;  175.825;    0.000
297.780; 1851.475;  139.825;    0.000
297.843; 1903.475;  174.825;    0.000
297.907; 1850.475;  149.825;    0.000
297.970; 1862.475;  161.825;    0.000
298.034; 1894.475;  185.825;    0.000
298.097; 1903.475;  167.825;    0.000
298.160; 1815.475;  195.825;    0.000
298.224; 1810.475;  178.825;    0.000
298.287; 1868.475;  164.825;    0.000
298.350; 1880.475;  194.825;    0.000
298.414; 1845.475;  191.825;    0.000
298.477; 1819.475;  155.825;    0.000
298.540; 1852.475;  139.825;    0.000
298.604; 1887.475;  198.825;    0.000
298.667; 1791.475;  183.825;    0.000
298.730; 1808.475;  185.825;    0.000
298.794; 1835.475;  153.825;    0.000
298.857; 1849.475;  169.825;    0.000
298.920; 1793.475;  159.825;    0.000
298.984; 1783.475;  179.825;    0.000
299.047; 1759.475;  174.825;    0.000
299.110; 1747.475;  144.825;    0.000
299.173; 1796.475;  190.825;    0.000
299.237; 1744.475;  163.825;    0.000
299.300; 1777.475;  153.825;    0.000
299.363; 1683.475;  145.825;    0.000
299.426; 1703.475;  160.825;    0.000
299.489; 1743.475;  173.825;    0.000
299.553; 1719.475;  209.825;    0.000
299.616; 1790.475;  172.825;    0.000
299.679; 1725.475;  204.825;    0.000
299.742; 1729.475;  162.825;    0.000
299.805; 1737.475;  198.825;    0.000
299.868; 1725.475;  176.825;    0.000
299.932; 1694.475;  166.825;    0.000
299.995; 1684.475;  162.825;    0.000
300.058; 1742.475;  175.825;    0.000
300.121; 1714.475;  197.825;    0.000
300.184; 1658.475;  188.825;    0.000
300.247; 1628.475;  181.825;    0.000
300.310; 1759.475;  161.825;    0.000
300.374; 1734.475;  201.825;    0.000
300.437; 1740.475;  156.825;    0.000
300.500; 1740.475;  180.825;    0.000
300.563; 1673.475;  174.825;    0.000
300.626; 1781.475;  206.825;    0.000
300.689; 1736.475;  218.825;    0.000
300.752; 1561.475;  192.825;    0.000
300.815; 1653.475;  172.825;    0.000
300.878; 1684.475;  207.825;    0.000
300.941; 1698.475;  163.825;    0.000
301.004; 1727.475;  171.825;    0.000
301.067; 1648.475;  198.825;    0.000
301.130; 1732.475;  156.825;    0.000
301.193; 1569.475;  173.825;    0.000
301.256; 1758.475;  167.825;    0.000
301.319; 1669.475;  211.825;    0.000
301.382; 1611.475;  167.825;    0.000
301.445; 1669.475;  224.825;    0.000
301.508; 1638.475;  168.825;    0.000
301.571; 1716.475;  161.825;    0.000
301.634; 1704.475;  177.825;    0.000
301.697; 1671.475;  203.825;    0.000
301.760; 1690.475;  190.825;    0.000
301.823; 1642.475;  182.825;    0.000
301.885; 1605.475;  202.825;    0.000
301.948; 1669.475;  200.825;    0.000
302.011; 1667.475;  157.825;    0.000
302.074; 1702.475;  205.825;    0.000
302.137; 1678.475;  149.825;    0.000
302.200; 1666.475;  201.825;    0.000
302.263; 1658.475;  178.825;    0.000
302.326; 1621.475;  184.825;    0.000
302.388; 1664.475;  176.825;    0.000
302.451; 1558.475;  146.825;    0.000
302.514; 1584.475;  192.825;    0.000
302.577; 1660.475;  181.825;    0.000
302.640; 1664.475;  186.825;    0.000
302.703; 1667.475;  164.825;    0.000
302.765; 1648.475;  197.825;    0.000
302.828; 1709.475;  208.825;    0.000
302.891; 1669.475;  168.825;    0.000
302.954; 1645.475;  177.825;    0.000
303.016; 1615.475;  190.825;    0.000
303.079; 1683.475;  216.825;    0.000
303.142; 1672.475;  228.825;    0.000
303.205; 1572.475;  192.825;    0.000
303.267; 1612.475;  182.825;    0.000
303.330; 1561.475;  201.825;    0.000
303.393; 1651.475;  196.825;    0.000
303.456; 1677.475;  184.825;    0.000
303.518; 1665.475;  194.825;    0.000
303.581; 1635.475;  195.825;    0.000
303.644; 1562.475;  184.825;    0.000
303.706; 1609.475;  150.825;    0.000
303.769; 1664.475;  182.825;    0.000
303.832; 1642.475;  143.825;    0.000
303.894; 1679.475;  207.825;    0.000
303.957; 1626.475;  178.825;    0.000
304.020; 1676.475;  203.825;    0.000
304.082; 1653.475;  175.825;    0.000
304.145; 1602.475;  171.825;    0.000
304.207; 1587.475;  157.825;    0.000
304.270; 1560.475;  195.825;    0.000
304.333; 1591.475;  195.825;    0.000
304.395; 1656.475;  197.825;    0.000
304.458; 1636.475;  231.825;    0.000
304.520; 1703.475;  218.825;    0.000
304.583; 1649.475;  177.825;    0.000
304.646; 1657.475;  177.825;    0.000
304.708; 1611.475;  178.825;    0.000
304.771; 1573.475;  143.825;    0.000
304.833; 1671.475;  241.825;    0.000
304.896; 1630.475;  200.825;    0.000
304.958; 1566.475;  176.825;    0.000
305.021; 1661.475;  159.825;    0.000
305.083; 1590.475;  159.825;    0.000
305.146; 1713.475;  190.825;    0.000
305.208; 1578.475;  152.825;    0.000
305.271; 1648.475;  162.825;    0.000
305.333; 1652.475;  219.825;    0.000
305.396; 1692.475;  163.825;    0.000
305.458; 1668.475;  215.825;    0.000
305.520; 1622.475;  174.825;    0.000
305.583; 1649.475;  161.825;    0.000
305.645; 1711.475;  203.825;    0.000
305.708; 1655.475;  163.825;    0.000
305.770; 1657.475;  215.825;    0.000
305.833; 1618.475;  207.825;    0.000
305.895; 1566.475;  166.825;    0.000
305.957; 1615.475;  175.825;    0.000
306.020; 1707.475;  169.825;    0.000
306.082; 1666.475;  203.825;    0.000
306.144; 1638.475;  181.825;    0.000
306.207; 1616.475;  199.825;    0.000
306.269; 1635.475;  177.825;    0.000
306.331; 1581.475;  160.825;    0.000
306.394; 1604.475;  193.825;    0.000
306.456; 1598.475;  136.825;    0.000
306.518; 1609.475;  189.825;    0.000
306.581; 1577.475;  156.825;    0.000
306.643; 1624.475;  190.825;    0.000
306.705; 1615.475;  190.825;    0.000
306.768; 1660.475;  172.825;    0.000
306.830; 1638.475;  214.825;    0.000
306.892; 1656.475;  198.825;    0.000
306.954; 1711.475;  177.825;    0.000
307.017; 1713.475;  183.825;    0.000
307.079; 1731.475;  170.825;    0.000
307.141; 1682.475;  173.825;    0.000
307.203; 1663.475;  171.825;    0.000
307.266; 1679.475;  166.825;    0.000
307.328; 1704.475;  207.825;    0.000
307.390; 1727.475;  201.825;    0.000
307.452; 1674.475;  182.825;    0.000
307.514; 1747.475;  213.825;    0.000
307.577; 1685.475;  213.825;    0.000
307.639; 1687.475;  197.825;    0.000
307.701; 1725.475;  174.825;    0.000
307.763; 1694.475;  181.825;    0.000
307.825; 1799.475;  186.825;    0.000
307.887; 1730.475;  198.825;    0.000
307.949; 1671.475;  158.825;    0.000
308.012; 1684.475;  209.825;    0.000
308.074; 1684.475;  176.825;    0.000
308.136; 1703.475;  227.825;    0.000
308.198; 1700.475;  187.825;    0.000
308.260; 1701.475;  211.825;    0.000
308.322; 1801.475;  206.825;    0.000
308.384; 1765.475;  186.825;    0.000
308.446; 1713.475;  175.825;    0.000
308.508; 1759.475;  211.825;    0.000
308.570; 1888.475;  191.825;    0.000
308.632; 1746.475;  195.825;    0.000
308.694; 1824.475;  173.825;    0.000
308.756; 1798.475;  185.825;    0.000
308.818; 1875.475;  195.825;    0.000
308.880; 1801.475;  189.825;    0.000
308.942; 1868.475;  231.825;    0.000
309.004; 1799.475;  188.825;    0.000
309.066; 1928.475;  196.825;    0.000
309.128; 1821.475;  155.825;    0.000
309.190; 1930.475;  176.825;    0.000
309.252; 2025.475;  191.825;    0.000
309.314; 2071.475;  236.825;    0.000
309.376; 2013.475;  212.825;    0.000
309.438; 1964.475;  201.825;    0.000
309.500; 1958.475;  206.825;    0.000
309.562; 2010.475;  213.825;    0.000
309.624; 2047.475;  196.825;    0.000
309.686; 2256.475;  198.825;    0.000
309.747; 2087.475;  186.825;    0.000
309.809; 2030.475;  215.825;    0.000
309.871; 1916.475;  242.825;    0.000
309.933; 1907.475;  162.825;    0.000
309.995; 1953.475;  163.825;    0.000
310.057; 1917.475;  145.825;    0.000
310.119; 1960.475;  205.825;    0.000
310.180; 1847.475;  195.825;    0.000
310.242; 1971.475;  167.825;    0.000
310.304; 1912.475;  213.825;    0.000
310.366; 1946.475;  224.825;    0.000
310.428; 1763.475;  170.825;    0.000
310.489; 1879.475;  195.825;    0.000
310.551; 1827.475;  207.825;    0.000
310.613; 1783.475;  168.825;    0.000
310.675; 1876.475;  188.825;    0.000
310.737; 1801.475;  211.825;    0.000
310.798; 1855.475;  221.825;    0.000
310.860; 1907.475;  201.825;    0.000
310.922; 1873.475;  206.825;    0.000
310.983; 1905.475;  222.825;    0.000
311.045; 1908.475;  235.825;    0.000
311.107; 1907.475;  184.825;    0.000
311.169; 1847.475;  148.825;    0.000
311.230; 1846.475;  211.825;    0.000
311.292; 1870.475;  235.825;    0.000
311.354; 1825.475;  183.825;    0.000
311.415; 1907.475;  196.825;    0.000
311.477; 1849.475;  200.825;    0.000
311.539; 1880.475;  171.825;    0.000
311.600; 1828.475;  169.825;    0.000
311.662; 1882.475;  231.825;    0.000
311.724; 1887.475;  204.825;    0.000
311.785; 1782.475;  214.825;    0.000
311.847; 1817.475;  193.825;    0.000
311.908; 1847.475;  180.825;    0.000
311.970; 1850.475;  233.825;    0.000
312.032; 1841.475;  192.825;    0.000
312.093; 1944.475;  195.825;    0.000
312.155; 1790.475;  194.825;    0.000
312.216; 1869.475;  238.825;    0.000
312.278; 1806.475;  146.825;    0.000
312.339; 1924.475;  184.825;    0.000
312.401; 1793.475;  201.825;    0.000
312.462; 1788.475;  173.825;    0.000
312.524; 1816.475;  205.825;    0.000
312.585; 1860.475;  199.825;    0.000
312.647; 1815.475;  168.825;    0.000
312.708; 1836.475;  180.825;    0.000
312.770; 1883.475;  180.825;    0.000
312.831; 1825.475;  176.825;    0.000
312.893; 1799.475;  211.825;    0.000
312.954; 1877.475;  178.825;    0.000
313.016; 1865.475;  204.825;    0.000
313.077; 1841.475;  216.825;    0.000
313.139; 1860.475;  172.825;    0.000
313.200; 1805.475;  197.825;    0.000
313.261; 1874.475;  227.825;    0.000
313.323; 1854.475;  204.825;    0.000
313.384; 1806.475;  182.825;    0.000
313.446; 1945.475;  204.825;    0.000
313.507; 1858.475;  164.825;    0.000
313.568; 1870.475;  197.825;    0.000
313.630; 1912.475;  190.825;    0.000
313.691; 1816.475;  185.825;    0.000
313.752; 1886.475;  192.825;    0.000
313.814; 1912.475;  176.825;    0.000
313.875; 1830.475;  210.825;    0.000
313.936; 1895.475;  165.825;    0.000
313.998; 1865.475;  162.825;    0.000
314.059; 1846.475;  178.825;    0.000
314.120; 1841.475;  176.825;    0.000
314.182; 1848.475;  167.825;    0.000
314.243; 1853.475;  204.825;    0.000
314.304; 1800.475;  197.825;    0.000
314.365; 1886.475;  183.825;    0.000
314.427; 1864.475;  176.825;    0.000
314.488; 1851.475;  149.825;    0.000
314.549; 1882.475;  218.825;    0.000
314.610; 1825.475;  160.825;    0.000
314.672; 1812.475;  187.825;    0.000
314.733; 1833.475;  184.825;    0.000
314.794; 1873.475;  164.825;    0.000
314.855; 1862.475;  191.825;    0.000
314.917; 1830.475;  172.825;    0.000
314.978; 1831.475;  185.825;    0.000
315.039; 1852.475;  194.825;    0.000
315.100; 1898.475;  190.825;    0.000
315.161; 1898.475;  185.825;    0.000
315.222; 1828.475;  204.825;    0.000
315.283; 1927.475;  166.825;    0.000
315.345; 1815.475;  133.825;    0.000
315.406; 1818.475;  191.825;    0.000
315.467; 1860.475;  166.825;    0.000
315.528; 1835.475;  194.825;    0.000
315.589; 1885.475;  193.825;    0.000
315.650; 1811.475;  190.825;    0.000
315.711; 1884.475;  219.825;    0.000
315.772; 1883.475;  159.825;    0.000
315.833; 1885.475;  191.825;    0.000
315.894; 1886.475;  202.825;    0.000
315.955; 1839.475;  167.825;    0.000
316.016; 1877.475;  177.825;    0.000
316.078; 1769.475;  185.825;    0.000
316.139; 1810.475;  219.825;    0.000
316.200; 1828.475;  163.825;    0.000
316.261; 1805.475;  183.825;    0.000
316.322; 1884.475;  230.825;    0.000
316.383; 1812.475;  198.825;    0.000
316.444; 1918.475;  209.825;    0.000
316.504; 1751.475;  179.825;    0.000
316.565; 1870.475;  185.825;    0.000
316.626; 1839.475;  155.825;    0.000
316.687; 1851.475;  211.825;    0.000
316.748; 1896.475;  192.825;    0.000
316.809; 1817.475;  183.825;    0.000
316.870; 1810.475;  196.825;    0.000
316.931; 1829.475;  173.825;    0.000
316.992; 1853.475;  179.825;    0.000
317.053; 1749.475;  186.825;    0.000
317.114; 1860.475;  189.825;    0.000
317.175; 1880.475;  226.825;    0.000
317.235; 1808.475;  206.825;    0.000
317.296; 1802.475;  191.825;    0.000
317.357; 1814.475;  173.825;    0.000
317.418; 1813.475;  212.825;    0.000
317.479; 1799.475;  247.825;    0.000
317.540; 1819.475;  205.825;    0.000
317.601; 1810.475;  205.825;    0.000
317.661; 1812.475;  150.825;    0.000
317.722; 1814.475;  198.825;    0.000
317.783; 1773.475;  153.825;    0.000
317.844; 1881.475;  202.825;    0.000
317.904; 1900.475;  180.825;    0.000
317.965; 1911.475;  205.825;    0.000
318.026; 1854.475;  223.825;    0.000
318.087; 1924.475;  218.825;    0.000
318.148; 1836.475;  207.825;    0.000
318.208; 1911.475;  212.825;    0.000
318.269; 1875.475;  174.825;    0.000
318.330; 1886.475;  191.825;    0.000
318.390; 1829.475;  197.825;    0.000
318.451; 1803.475;  167.825;    0.000
318.512; 1855.475;  174.825;    0.000
318.572; 1855.475;  199.825;    0.000
318.633; 1836.475;  233.825;    0.000
318.694; 1916.475;  232.825;    0.000
318.754; 1823.475;  181.825;    0.000
318.815; 1879.475;  199.825;    0.000
318.876; 1863.475;  207.825;    0.000
318.936; 1869.475;  202.825;    0.000
318.997; 1889.475;  182.825;    0.000
319.058; 1791.475;  180.825;    0.000
319.118; 1809.475;  199.825;    0.000
319.179; 1887.475;  199.825;    0.000
319.239; 1916.475;  229.825;    0.000
319.300; 1848.475;  223.825;    0.000
319.361; 1781.475;  210.825;    0.000
319.421; 1806.475;  205.825;    0.000
319.482; 1781.475;  205.825;    0.000
319.542; 1779.475;  176.825;    0.000
319.603; 1833.475;  191.825;    0.000
319.663; 1828.475;  183.825;    0.000
319.724; 1768.475;  174.825;    0.000
319.784; 1834.475;  198.825;    0.000
319.845; 1855.475;  218.825;    0.000
319.905; 1836.475;  217.825;    0.000
319.966; 1789.475;  197.825;    0.000
320.026; 1817.475;  209.825;    0.000
320.087; 1850.475;  225.825;    0.000
320.147; 1753.475;  201.825;    0.000
320.208; 1817.475;  176.825;    0.000
320.268; 1808.475;  168.825;    0.000
320.329; 1796.475;  238.825;    0.000
320.389; 1858.475;  220.825;    0.000
320.449; 1826.475;  230.825;    0.000
320.510; 1824.475;  234.825;    0.000
320.570; 1793.475;  210.825;    0.000
320.631; 1859.475;  207.825;    0.000
320.691; 1812.475;  222.825;    0.000
320.751; 1788.475;  195.825;    0.000
320.812; 1819.475;  193.825;    0.000
320.872; 1804.475;  237.825;    0.000
320.932; 1889.475;  213.825;    0.000
320.993; 1855.475;  185.825;    0.000
321.053; 1877.475;  245.825;    0.000
321.113; 1817.475;  206.825;    0.000
321.174; 1861.475;  202.825;    0.000
321.234; 1898.475;  244.825;    0.000
321.294; 1829.475;  228.825;    0.000
321.355; 1848.475;  208.825;    0.000
321.415; 1792.475;  223.825;    0.000
321.475; 1822.475;  203.825;    0.000
321.535; 1842.475;  230.825;    0.000
321.596; 1800.475;  186.825;    0.000
321.656; 1815.475;  216.825;    0.000
321.716; 1873.475;  207.825;    0.000
321.776; 1916.475;  181.825;    0.000
321.837; 1770.475;  207.825;    0.000
321.897; 1865.475;  225.825;    0.000
321.957; 1863.475;  222.825;    0.000
322.017; 1798.475;  215.825;    0.000
322.077; 1855.475;  250.825;    0.000
322.138; 1874.475;  189.825;    0.000
322.198; 1758.475;  200.825;    0.000
322.258; 1791.475;  217.825;    0.000
322.318; 1762.475;  183.825;    0.000
322.378; 1783.475;  231.825;    0.000
322.438; 1786.475;  228.825;    0.000
322.499; 1884.475;  248.825;    0.000
322.559; 1769.475;  198.825;    0.000
322.619; 1906.475;  221.825;    0.000
322.679; 1787.475;  217.825;    0.000
322.739; 1760.475;  204.825;    0.000
322.799; 1821.475;  236.825;    0.000
322.859; 1872.475;  213.825;    0.000
322.919; 1854.475;  210.825;    0.000
322.979; 1811.475;  244.825;    0.000
323.039; 1849.475;  218.825;    0.000
323.099; 1858.475;  232.825;    0.000
323.159; 1807.475;  216.825;    0.000
323.219; 1690.475;  169.825;    0.000
323.279; 1813.475;  236.825;    0.000
323.339; 1786.475;  243.825;    0.000
323.399; 1852.475;  208.825;    0.000
323.459; 1827.475;  220.825;    0.000
323.519; 1810.475;  228.825;    0.000
323.579; 1862.475;  164.825;    0.000
323.639; 1862.475;  209.825;    0.000
323.699; 1867.475;  188.825;    0.000
323.759; 1907.475;  206.825;    0.000
323.819; 1800.475;  204.825;    0.000
323.879; 1872.475;  222.825;    0.000
323.939; 1834.475;  206.825;    0.000
323.999; 1853.475;  202.825;    0.000
324.059; 1859.475;  245.825;    0.000
324.119; 1969.475;  214.825;    0.000
324.178; 1873.475;  183.825;    0.000
324.238; 1792.475;  193.825;    0.000
324.298; 1792.475;  207.825;    0.000
324.358; 1815.475;  196.825;    0.000
324.418; 1854.475;  193.825;    0.000
324.478; 1802.475;  191.825;    0.000
324.538; 1853.475;  224.825;    0.000
324.597; 1825.475;  187.825;    0.000
324.657; 1771.475;  208.825;    0.000
324.717; 1852.475;  198.825;    0.000
324.777; 1740.475;  159.825;    0.000
324.837; 1814.475;  180.825;    0.000
324.896; 1864.475;  215.825;    0.000
324.956; 1879.475;  210.825;    0.000
325.016; 1795.475;  187.825;    0.000
325.076; 1875.475;  197.825;    0.000
325.135; 1820.475;  226.825;    0.000
325.195; 1805.475;  201.825;    0.000
325.255; 1819.475;  167.825;    0.000
325.315; 1815.475;  217.825;    0.000
325.374; 1773.475;  196.825;    0.000
325.434; 1797.475;  167.825;    0.000
325.494; 1862.475;  214.825;    0.000
325.553; 1797.475;  203.825;    0.000
325.613; 1871.475;  206.825;    0.000
325.673; 1796.475;  148.825;    0.000
325.732; 1828.475;  207.825;    0.000
325.792; 1836.475;  151.825;    0.000
325.852; 1756.475;  195.825;    0.000
325.911; 1785.475;  201.825;    0.000
325.971; 1847.475;  224.825;    0.000
326.031; 1883.475;  201.825;    0.000
326.090; 1847.475;  203.825;    0.000
326.150; 1843.475;  183.825;    0.000
326.209; 1838.475;  226.825;    0.000
326.269; 1781.475;  194.825;    0.000
326.328; 1803.475;  200.825;    0.000
326.388; 1725.475;  177.825;    0.000
326.448; 1797.475;  239.825;    0.000
326.507; 1780.475;  197.825;    0.000
326.567; 1838.475;  161.825;    0.000
326.626; 1841.475;  220.825;    0.000
326.686; 1794.475;  178.825;    0.000
326.745; 1764.475;  167.825;    0.000
326.805; 1819.475;  176.825;    0.000
326.864; 1770.475;  204.825;    0.000
326.924; 1772.475;  218.825;    0.000
326.983; 1756.475;  201.825;    0.000
327.043; 1739.475;  219.825;    0.000
327.102; 1717.475;  202.825;    0.000
327.161; 1762.475;  228.825;    0.000
327.221; 1803.475;  217.825;    0.000
327.280; 1737.475;  188.825;    0.000
327.340; 1789.475;  209.825;    0.000
327.399; 1896.475;  189.825;    0.000
327.459; 1754.475;  216.825;    0.000
327.518; 1727.475;  200.825;    0.000
327.577; 1708.475;  194.825;    0.000
327.637; 1722.475;  180.825;    0.000
327.696; 1781.475;  208.825;    0.000
327.755; 1858.475;  218.825;    0.000
327.815; 1749.475;  234.825;    0.000
327.874; 1785.475;  259.825;    0.000
327.933; 1754.475;  192.825;    0.000
327.993; 1680.475;  208.825;    0.000
328.052; 1788.475;  221.825;    0.000
328.111; 1728.475;  203.825;    0.000
328.171; 1738.475;  221.825;    0.000
328.230; 1718.475;  222.825;    0.000
328.289; 1821.475;  254.825;    0.000
328.349; 1747.475;  232.825;    0.000
328.408; 1759.475;  223.825;    0.000
328.467; 1776.475;  198.825;    0.000
328.526; 1746.475;  217.825;    0.000
328.586; 1726.475;  185.825;    0.000
328.645; 1753.475;  210.825;    0.000
328.704; 1693.475;  211.825;    0.000
328.763; 1689.475;  231.825;    0.000
328.822; 1724.475;  254.825;    0.000
328.882; 1754.475;  216.825;    0.000
328.941; 1650.475;  239.825;    0.000
329.000; 1740.475;  251.825;    0.000
329.059; 1724.475;  227.825;    0.000
329.118; 1669.475;  233.825;    0.000
329.177; 1706.475;  188.825;    0.000
329.237; 1718.475;  257.825;    0.000
329.296; 1771.475;  265.825;    0.000
329.355; 1743.475;  245.825;    0.000
329.414; 1764.475;  236.825;    0.000
329.473; 1748.475;  242.825;    0.000
329.532; 1680.475;  228.825;    0.000
329.591; 1759.475;  206.825;    0.000
329.650; 1767.475;  250.825;    0.000
329.709; 1835.475;  278.825;    0.000
329.768; 1767.475;  219.825;    0.000
329.827; 1775.475;  254.825;    0.000
329.886; 1747.475;  221.825;    0.000
329.945; 1819.475;  239.825;    0.000
330.004; 1829.475;  245.825;    0.000
330.063; 1761.475;  201.825;    0.000
330.122; 1723.475;  227.825;    0.000
330.181; 1777.475;  196.825;    0.000
330.240; 1765.475;  203.825;    0.000
330.299; 1694.475;  214.825;    0.000
330.358; 1628.475;  196.825;    0.000
330.417; 1657.475;  201.825;    0.000
330.476; 1788.475;  248.825;    0.000
330.535; 1720.475;  253.825;    0.000
330.594; 1744.475;  231.825;    0.000
330.653; 1727.475;  210.825;    0.000
330.712; 1732.475;  242.825;    0.000
330.771; 1721.475;  240.825;    0.000
330.830; 1721.475;  230.825;    0.000
330.889; 1753.475;  217.825;    0.000
330.948; 1741.475;  211.825;    0.000
331.006; 1797.475;  217.825;    0.000
331.065; 1750.475;  170.825;    0.000
331.124; 1766.475;  211.825;    0.000
331.183; 1790.475;  192.825;    0.000
331.242; 1734.475;  227.825;    0.000
331.301; 1708.475;  240.825;    0.000
331.359; 1736.475;  223.825;    0.000
331.418; 1710.475;  215.825;    0.000
331.477; 1742.475;  230.825;    0.000
331.536; 1654.475;  221.825;    0.000
331.595; 1711.475;  198.825;    0.000
331.653; 1647.475;  207.825;    0.000
331.712; 1694.475;  217.825;    0.000
331.771; 1652.475;  221.825;    0.000
331.830; 1682.475;  222.825;    0.000
331.888; 1703.475;  213.825;    0.000
331.947; 1633.475;  233.825;    0.000
332.006; 1686.475;  212.825;    0.000
332.065; 1687.475;  200.825;    0.000
332.123; 1740.475;  223.825;    0.000
332.182; 1755.475;  180.825;    0.000
332.241; 1674.475;  192.825;    0.000
332.299; 1694.475;  172.825;    0.000
332.358; 1745.475;  216.825;    0.000
332.417; 1725.475;  211.825;    0.000
332.475; 1721.475;  222.825;    0.000
332.534; 1698.475;  238.825;    0.000
332.592; 1720.475;  216.825;    0.000
332.651; 1716.475;  196.825;    0.000
332.710; 1722.475;  215.825;    0.000
332.768; 1720.475;  193.825;    0.000
332.827; 1732.475;  201.825;    0.000
332.885; 1839.475;  226.825;    0.000
332.944; 1711.475;  174.825;    0.000
333.003; 1802.475;  187.825;    0.000
333.061; 1757.475;  208.825;    0.000
333.120; 1843.475;  202.825;    0.000
333.178; 1771.475;  227.825;    0.000
333.237; 1887.475;  215.825;    0.000
333.295; 1886.475;  245.825;    0.000
333.354; 1770.475;  194.825;    0.000
333.412; 1803.475;  165.825;    0.000
333.471; 1795.475;  219.825;    0.000
333.529; 1883.475;  255.825;    0.000
333.588; 1908.475;  264.825;    0.000
333.646; 1936.475;  231.825;    0.000
333.705; 1905.475;  232.825;    0.000
333.763; 1889.475;  233.825;    0.000
333.822; 1881.475;  221.825;    0.000
333.880; 1847.475;  180.825;    0.000
333.938; 1779.475;  229.825;    0.000
333.997; 1890.475;  194.825;    0.000
334.055; 1878.475;  230.825;    0.000
334.114; 1814.475;  230.825;    0.000
334.172; 1743.475;  170.825;    0.000
334.230; 1785.475;  192.825;    0.000
334.289; 1796.475;  225.825;    0.000
334.347; 1840.475;  233.825;    0.000
334.405; 1746.475;  207.825;    0.000
334.464; 1835.475;  175.825;    0.000
334.522; 1780.475;  180.825;    0.000
334.580; 1779.475;  172.825;    0.000
334.639; 1787.475;  230.825;    0.000
334.697; 1814.475;  217.825;    0.000
334.755; 1727.475;  217.825;    0.000
334.814; 1707.475;  210.825;    0.000
334.872; 1797.475;  170.825;    0.000
334.930; 1741.475;  167.825;    0.000
334.988; 1772.475;  244.825;    0.000
335.047; 1783.475;  202.825;    0.000
335.105; 1787.475;  181.825;    0.000
335.163; 1820.475;  195.825;    0.000
335.221; 1872.475;  203.825;    0.000
335.280; 1857.475;  216.825;    0.000
335.338; 1779.475;  197.825;    0.000
335.396; 1811.475;  232.825;    0.000
335.454; 1783.475;  211.825;    0.000
335.512; 1797.475;  221.825;    0.000
335.570; 1776.475;  216.825;    0.000
335.629; 1793.475;  244.825;    0.000
335.687; 1793.475;  244.825;    0.000
335.745; 1905.475;  189.825;    0.000
335.803; 1814.475;  198.825;    0.000
335.861; 1875.475;  236.825;    0.000
335.919; 1770.475;  234.825;    0.000
335.977; 1812.475;  214.825;    0.000
336.035; 1790.475;  242.825;    0.000
336.094; 1802.475;  219.825;    0.000
336.152; 1785.475;  196.825;    0.000
336.210; 1808.475;  221.825;    0.000
336.268; 1949.475;  257.825;    0.000
336.326; 1828.475;  211.825;    0.000
336.384; 1832.475;  217.825;    0.000
336.442; 1802.475;  176.825;    0.000
336.500; 1817.475;  242.825;    0.000
336.558; 1832.475;  238.825;    0.000
336.616; 1909.475;  261.825;    0.000
336.674; 1833.475;  200.825;    0.000
336.732; 1792.475;  208.825;    0.000
336.790; 1792.475;  183.825;    0.000
336.848; 1769.475;  199.825;    0.000
336.906; 1828.475;  240.825;    0.000
336.964; 1778.475;  234.825;    0.000
337.022; 1859.475;  282.825;    0.000
337.080; 1849.475;  265.825;    0.000
337.138; 1784.475;  255.825;    0.000
337.195; 1745.475;  200.825;    0.000
337.253; 1808.475;  199.825;    0.000
337.311; 1747.475;  233.825;    0.000
337.369; 1774.475;  250.825;    0.000
337.427; 1763.475;  201.825;    0.000
337.485; 1812.475;  228.825;    0.000
337.543; 1769.475;  221.825;    0.000
337.601; 1715.475;  232.825;    0.000
337.658; 1770.475;  215.825;    0.000
337.716; 1709.475;  198.825;    0.000
337.774; 1715.475;  262.825;    0.000
337.832; 1782.475;  220.825;    0.000
337.890; 1729.475;  194.825;    0.000
337.947; 1682.475;  205.825;    0.000
338.005; 1794.475;  229.825;    0.000
338.063; 1759.475;  237.825;    0.000
338.121; 1670.475;  220.825;    0.000
338.178; 1706.475;  227.825;    0.000
338.236; 1728.475;  238.825;    0.000
338.294; 1852.475;  242.825;    0.000
338.352; 1727.475;  230.825;    0.000
338.409; 1696.475;  222.825;    0.000
338.467; 1680.475;  233.825;    0.000
338.525; 1715.475;  253.825;    0.000
338.583; 1733.475;  221.825;    0.000
338.640; 1725.475;  225.825;    0.000
338.698; 1605.475;  229.825;    0.000
338.756; 1621.475;  238.825;    0.000
338.813; 1785.475;  260.825;    0.000
338.871; 1718.475;  246.825;    0.000
338.928; 1732.475;  240.825;    0.000
338.986; 1778.475;  228.825;    0.000
339.044; 1722.475;  265.825;    0.000
339.101; 1730.475;  224.825;    0.000
339.159; 1702.475;  235.825;    0.000
339.216; 1695.475;  244.825;    0.000
339.274; 1746.475;  266.825;    0.000
339.332; 1780.475;  248.825;    0.000
339.389; 1790.475;  246.825;    0.000
339.447; 1778.475;  237.825;    0.000
339.504; 1741.475;  244.825;    0.000
339.562; 1660.475;  249.825;    0.000
339.619; 1783.475;  266.825;    0.000
339.677; 1726.475;  263.825;    0.000
339.734; 1750.475;  216.825;    0.000
339.792; 1782.475;  276.825;    0.000
339.849; 1735.475;  240.825;    0.000
339.907; 1775.475;  275.825;    0.000
339.964; 1676.475;  243.825;    0.000
340.022; 1738.475;  224.825;    0.000
340.079; 1710.475;  230.825;    0.000
340.137; 1797.475;  232.825;    0.000
340.194; 1751.475;  261.825;    0.000
340.252; 1737.475;  219.825;    0.000
340.309; 1786.475;  212.825;    0.000
340.366; 1728.475;  231.825;    0.000
340.424; 1706.475;  244.825;    0.000
340.481; 1715.475;  238.825;    0.000
340.538; 1690.475;  217.825;    0.000
340.596; 1772.475;  224.825;    0.000
340.653; 1739.475;  225.825;    0.000
340.711; 1810.475;  276.825;    0.000
340.768; 1699.475;  239.825;    0.000
340.825; 1816.475;  216.825;    0.000
340.883; 1743.475;  264.825;    0.000
340.940; 1713.475;  256.825;    0.000
340.997; 1732.475;  230.825;    0.000
341.054; 1691.475;  229.825;    0.000
341.112; 1715.475;  220.825;    0.000
341.169; 1651.475;  276.825;    0.000
341.226; 1740.475;  224.825;    0.000
341.284; 1803.475;  235.825;    0.000
341.341; 1703.475;  226.825;    0.000
341.398; 1795.475;  200.825;    0.000
341.455; 1695.475;  242.825;    0.000
341.512; 1733.475;  226.825;    0.000
341.570; 1693.475;  299.825;    0.000
341.627; 1733.475;  221.825;    0.000
341.684; 1665.475;  204.825;    0.000
341.741; 1771.475;  285.825;    0.000
341.798; 1824.475;  237.825;    0.000
341.856; 1744.475;  223.825;    0.000
341.913; 1730.475;  232.825;    0.000
341.970; 1734.475;  250.825;    0.000
342.027; 1701.475;  272.825;    0.000
342.084; 1837.475;  242.825;    0.000
342.141; 1731.475;  207.825;    0.000
342.198; 1752.475;  252.825;    0.000
342.255; 1746.475;  189.825;    0.000
342.313; 1738.475;  222.825;    0.000
342.370; 1748.475;  203.825;    0.000
342.427; 1765.475;  261.825;    0.000
342.484; 1801.475;  230.825;    0.000
342.541; 1734.475;  224.825;    0.000
342.598; 1778.475;  245.825;    0.000
342.655; 1801.475;  235.825;    0.000
342.712; 1818.475;  238.825;    0.000
342.769; 1748.475;  235.825;    0.000
342.826; 1736.475;  232.825;    0.000
342.883; 1668.475;  212.825;    0.000
342.940; 1674.475;  189.825;    0.000
342.997; 1676.475;  241.825;    0.000
343.054; 1687.475;  235.825;    0.000
343.111; 1675.475;  216.825;    0.000
343.168; 1739.475;  202.825;    0.000
343.225; 1780.475;  228.825;    0.000
343.282; 1783.475;  208.825;    0.000
343.339; 1813.475;  241.825;    0.000
343.395; 1787.475;  206.825;    0.000
343.452; 1755.475;  227.825;    0.000
343.509; 1785.475;  212.825;    0.000
343.566; 1851.475;  266.825;    0.000
343.623; 1810.475;  240.825;    0.000
343.680; 1793.475;  215.825;    0.000
343.737; 1773.475;  231.825;    0.000
343.794; 1908.475;  256.825;    0.000
343.850; 1837.475;  235.825;    0.000
343.907; 1814.475;  246.825;    0.000
343.964; 1874.475;  241.825;    0.000
344.021; 1892.475;  237.825;    0.000
344.078; 1907.475;  248.825;    0.000
344.134; 1808.475;  225.825;    0.000
344.191; 1864.475;  209.825;    0.000
344.248; 1918.475;  234.825;    0.000
344.305; 1913.475;  224.825;    0.000
344.361; 1895.475;  194.825;    0.000
344.418; 1833.475;  240.825;    0.000
344.475; 1785.475;  252.825;    0.000
344.532; 1894.475;  251.825;    0.000
344.588; 1880.475;  240.825;    0.000
344.645; 1885.475;  253.825;    0.000
344.702; 1842.475;  216.825;    0.000
344.758; 1914.475;  258.825;    0.000
344.815; 1838.475;  239.825;    0.000
344.872; 1883.475;  216.825;    0.000
344.928; 1866.475;  236.825;    0.000
344.985; 1856.475;  238.825;    0.000
345.042; 1788.475;  211.825;    0.000
345.098; 1798.475;  223.825;    0.000
345.155; 1825.475;  266.825;    0.000
345.212; 1776.475;  266.825;    0.000
345.268; 1755.475;  245.825;    0.000
345.325; 1807.475;  225.825;    0.000
345.381; 1828.475;  223.825;    0.000
345.438; 1878.475;  259.825;    0.000
345.495; 1871.475;  233.825;    0.000
345.551; 1907.475;  254.825;    0.000
345.608; 1857.475;  212.825;    0.000
345.664; 1805.475;  225.825;    0.000
345.721; 1838.475;  223.825;    0.000
345.777; 1683.475;  226.825;    0.000
345.834; 1755.475;  215.825;    0.000
345.890; 1850.475;  230.825;    0.000
345.947; 1782.475;  232.825;    0.000
346.003; 1816.475;  241.825;    0.000
346.060; 1825.475;  241.825;    0.000
346.116; 1867.475;  231.825;    0.000
346.173; 1814.475;  229.825;    0.000
346.229; 1832.475;  262.825;    0.000
346.285; 1865.475;  232.825;    0.000
346.342; 1786.475;  228.825;    0.000
346.398; 1843.475;  203.825;    0.000
346.455; 1962.475;  214.825;    0.000
346.511; 1847.475;  245.825;    0.000
346.567; 1904.475;  192.825;    0.000
346.624; 1866.475;  206.825;    0.000
346.680; 1915.475;  209.825;    0.000
346.737; 1798.475;  239.825;    0.000
346.793; 1809.475;  234.825;    0.000
346.849; 1845.475;  252.825;    0.000
346.906; 1884.475;  247.825;    0.000
346.962; 1875.475;  274.825;    0.000
347.018; 1888.475;  225.825;    0.000
347.074; 1860.475;  261.825;    0.000
347.131; 1846.475;  230.825;    0.000
347.187; 1867.475;  269.825;    0.000
347.243; 1917.475;  261.825;    0.000
347.300; 1837.475;  236.825;    0.000
347.356; 1883.475;  284.825;    0.000
347.412; 1892.475;  243.825;    0.000
347.468; 1923.475;  276.825;    0.000
347.524; 1788.475;  232.825;    0.000
347.581; 1854.475;  242.825;    0.000
347.637; 1881.475;  270.825;    0.000
347.693; 1841.475;  269.825;    0.000
347.749; 1871.475;  278.825;    0.000
347.805; 1797.475;  224.825;    0.000
347.862; 1882.475;  207.825;    0.000
347.918; 1822.475;  259.825;    0.000
347.974; 1908.475;  244.825;    0.000
348.030; 1877.475;  219.825;    0.000
348.086; 1864.475;  250.825;    0.000
348.142; 1856.475;  251.825;    0.000
348.198; 1876.475;  267.825;    0.000
348.254; 1931.475;  230.825;    0.000
348.311; 1746.475;  261.825;    0.000
348.367; 1875.475;  259.825;    0.000
348.423; 1861.475;  251.825;    0.000
348.479; 1871.475;  251.825;    0.000
348.535; 1865.475;  269.825;    0.000
348.591; 1930.475;  238.825;    0.000
348.647; 1823.475;  273.825;    0.000
348.703; 1860.475;  291.825;    0.000
348.759; 1801.475;  231.825;    0.000
348.815; 1848.475;  286.825;    0.000
348.871; 1900.475;  265.825;    0.000
348.927; 1867.475;  234.825;    0.000
348.983; 1875.475;  267.825;    0.000
349.039; 1854.475;  233.825;    0.000
349.095; 1857.475;  225.825;    0.000
349.151; 1875.475;  242.825;    0.000
349.207; 1819.475;  223.825;    0.000
349.263; 1865.475;  219.825;    0.000
349.319; 1860.475;  226.825;    0.000
349.374; 1830.475;  232.825;    0.000
349.430; 1907.475;  235.825;    0.000
349.486; 1821.475;  227.825;    0.000
349.542; 1908.475;  253.825;    0.000
349.598; 1925.475;  227.825;    0.000
349.654; 1832.475;  270.825;    0.000
349.710; 1875.475;  233.825;    0.000
349.766; 1880.475;  245.825;    0.000
349.821; 1941.475;  242.825;    0.000
349.877; 1950.475;  229.825;    0.000
349.933; 1811.475;  229.825;    0.000
349.989; 1849.475;  230.825;    0.000
350.045; 1837.475;  236.825;    0.000
350.100; 1902.475;  237.825;    0.000
350.156; 1828.475;  230.825;    0.000
350.212; 1849.475;  254.825;    0.000
350.268; 1884.475;  239.825;    0.000
350.323; 1884.475;  204.825;    0.000
350.379; 1938.475;  246.825;    0.000
350.435; 1879.475;  249.825;    0.000
350.491; 1842.475;  217.825;    0.000
350.546; 1893.475;  231.825;    0.000
350.602; 1855.475;  240.825;    0.000
350.658; 1908.475;  235.825;    0.000
350.713; 1883.475;  234.825;    0.000
350.769; 1820.475;  218.825;    0.000
350.825; 1824.475;  227.825;    0.000
350.880; 1875.475;  226.825;    0.000
350.936; 1973.475;  247.825;    0.000
350.992; 1919.475;  213.825;    0.000
351.047; 1875.475;  207.825;    0.000
351.103; 1811.475;  271.825;    0.000
351.158; 1897.475;  251.825;    0.000
351.214; 1822.475;  199.825;    0.000
351.270; 1913.475;  214.825;    0.000
351.325; 1923.475;  235.825;    0.000
351.381; 1895.475;  223.825;    0.000
351.436; 1934.475;  237.825;    0.000
351.492; 1992.475;  221.825;    0.000
351.547; 1954.475;  237.825;    0.000
351.603; 1877.475;  239.825;    0.000
351.658; 1961.475;  209.825;    0.000
351.714; 1876.475;  226.825;    0.000
351.769; 1913.475;  238.825;    0.000
351.825; 1938.475;  226.825;    0.000
351.880; 1868.475;  217.825;    0.000
351.936; 1956.475;  246.825;    0.000
351.991; 1909.475;  233.825;    0.000
352.047; 1942.475;  215.825;    0.000
352.102; 1822.475;  243.825;    0.000
352.158; 1895.475;  234.825;    0.000
352.213; 1917.475;  201.825;    0.000
352.268; 1838.475;  234.825;    0.000
352.324; 1900.475;  211.825;    0.000
352.379; 1960.475;  221.825;    0.000
352.434; 1999.475;  259.825;    0.000
352.490; 1904.475;  250.825;    0.000
352.545; 1904.475;  251.825;    0.000
352.601; 1879.475;  283.825;    0.000
352.656; 1837.475;  236.825;    0.000
352.711; 1857.475;  237.825;    0.000
352.767; 1819.475;  201.825;    0.000
352.822; 1873.475;  209.825;    0.000
352.877; 1835.475;  239.825;    0.000
352.932; 1880.475;  228.825;    0.000
352.988; 1938.475;  202.825;    0.000
353.043; 1901.475;  268.825;    0.000
353.098; 1918.475;  208.825;    0.000
353.153; 1879.475;  219.825;    0.000
353.209; 1909.475;  252.825;    0.000
353.264; 1876.475;  225.825;    0.000
353.319; 1864.475;  234.825;    0.000
353.374; 1880.475;  236.825;    0.000
353.430; 1865.475;  245.825;    0.000
353.485; 1890.475;  238.825;    0.000
353.540; 1817.475;  238.825;    0.000
353.595; 1835.475;  215.825;    0.000
353.650; 1883.475;  238.825;    0.000
353.705; 1858.475;  274.825;    0.000
353.761; 1878.475;  229.825;    0.000
353.816; 1906.475;  275.825;    0.000
353.871; 1919.475;  245.825;    0.000
353.926; 1943.475;  253.825;    0.000
353.981; 1886.475;  269.825;    0.000
354.036; 1894.475;  246.825;    0.000
354.091; 1908.475;  257.825;    0.000
354.146; 1893.475;  278.825;    0.000
354.201; 1953.475;  276.825;    0.000
354.256; 1900.475;  224.825;    0.000
354.311; 1968.475;  287.825;    0.000
354.367; 1867.475;  210.825;    0.000
354.422; 1922.475;  231.825;    0.000
354.477; 1868.475;  226.825;    0.000
354.532; 1921.475;  262.825;    0.000
354.587; 1919.475;  275.825;    0.000
354.642; 1903.475;  247.825;    0.000
354.697; 1952.475;  251.825;    0.000
354.751; 1871.475;  249.825;    0.000
354.806; 1924.475;  217.825;    0.000
354.861; 1927.475;  247.825;    0.000
354.916; 1869.475;  259.825;    0.000
354.971; 1983.475;  241.825;    0.000
355.026; 1963.475;  250.825;    0.000
355.081; 1967.475;  244.825;    0.000
355.136; 1911.475;  203.825;    0.000
355.191; 1918.475;  241.825;    0.000
355.246; 1899.475;  248.825;    0.000
355.301; 1957.475;  259.825;    0.000
355.355; 1965.475;  236.825;    0.000
355.410; 1901.475;  221.825;    0.000
355.465; 1934.475;  206.825;    0.000
355.520; 1931.475;  258.825;    0.000
355.575; 1928.475;  273.825;    0.000
355.630; 1960.475;  252.825;    0.000
355.684; 1974.475;  246.825;    0.000
355.739; 1944.475;  251.825;    0.000
355.794; 1983.475;  247.825;    0.000
355.849; 1937.475;  246.825;    0.000
355.904; 1919.475;  262.825;    0.000
355.958; 1902.475;  249.825;    0.000
356.013; 1885.475;  213.825;    0.000
356.068; 1881.475;  255.825;    0.000
356.123; 1892.475;  205.825;    0.000
356.177; 1881.475;  239.825;    0.000
356.232; 1978.475;  258.825;    0.000
356.287; 1888.475;  248.825;    0.000
356.341; 1954.475;  221.825;    0.000
356.396; 1915.475;  220.825;    0.000
356.451; 1954.475;  231.825;    0.000
356.505; 1904.475;  231.825;    0.000
356.560; 1937.475;  254.825;    0.000
356.615; 1908.475;  234.825;    0.000
356.669; 1905.475;  250.825;    0.000
356.724; 1904.475;  261.825;    0.000
356.778; 1911.475;  207.825;    0.000
356.833; 1820.475;  205.825;    0.000
356.888; 1903.475;  235.825;    0.000
356.942; 1942.475;  205.825;    0.000
356.997; 1961.475;  276.825;    0.000
357.051; 1897.475;  243.825;    0.000
357.106; 1917.475;  242.825;    0.000
357.160; 1911.475;  241.825;    0.000
357.215; 1830.475;  212.825;    0.000
357.269; 1920.475;  238.825;    0.000
357.324; 1920.475;  223.825;    0.000
357.378; 1898.475;  221.825;    0.000
357.433; 1885.475;  262.825;    0.000
357.487; 1878.475;  246.825;    0.000
357.542; 1873.475;  221.825;    0.000
357.596; 1939.475;  225.825;    0.000
357.651; 1896.475;  244.825;    0.000
357.705; 1848.475;  269.825;    0.000
357.760; 1956.475;  209.825;    0.000
357.814; 1896.475;  250.825;    0.000
357.868; 1903.475;  266.825;    0.000
357.923; 1903.475;  248.825;    0.000
357.977; 1889.475;  262.825;    0.000
358.032; 1943.475;  228.825;    0.000
358.086; 1909.475;  257.825;    0.000
358.140; 1935.475;  217.825;    0.000
358.195; 1907.475;  246.825;    0.000
358.249; 1912.475;  255.825;    0.000
358.303; 1957.475;  252.825;    0.000
358.358; 1932.475;  278.825;    0.000
358.412; 1905.475;  276.825;    0.000
358.466; 1851.475;  275.825;    0.000
358.521; 1897.475;  229.825;    0.000
358.575; 1822.475;  270.825;    0.000
358.629; 1943.475;  239.825;    0.000
358.683; 1896.475;  254.825;    0.000
358.738; 1837.475;  239.825;    0.000
358.792; 1848.475;  272.825;    0.000
358.846; 1856.475;  289.825;    0.000
358.900; 1887.475;  299.825;    0.000
358.954; 1889.475;  247.825;    0.000
359.009; 1894.475;  245.825;    0.000
359.063; 1893.475;  272.825;    0.000
359.117; 1933.475;  242.825;    0.000
359.171; 1955.475;  279.825;    0.000
359.225; 1902.475;  221.825;    0.000
359.280; 1916.475;  238.825;    0.000
359.334; 1900.475;  264.825;    0.000
359.388; 1958.475;  273.825;    0.000
359.442; 1835.475;  233.825;    0.000
359.496; 1820.475;  226.825;    0.000
359.550; 1877.475;  271.825;    0.000
359.604; 1843.475;  296.825;    0.000
359.658; 1828.475;  252.825;    0.000
359.712; 1843.475;  256.825;    0.000
359.766; 1797.475;  257.825;    0.000
359.820; 1950.475;  239.825;    0.000
359.875; 1847.475;  252.825;    0.000
359.929; 1921.475;  258.825;    0.000
359.983; 1877.475;  232.825;    0.000
360.037; 1918.475;  268.825;    0.000
360.091; 1848.475;  303.825;    0.000
360.145; 1839.475;  232.825;    0.000
360.199; 1868.475;  255.825;    0.000
360.253; 1880.475;  252.825;    0.000
360.306; 1882.475;  278.825;    0.000
360.360; 1875.475;  249.825;    0.000
360.414; 1805.475;  274.825;    0.000
360.468; 1947.475;  247.825;    0.000
360.522; 1889.475;  268.825;    0.000
360.576; 1838.475;  263.825;    0.000
360.630; 1969.475;  296.825;    0.000
360.684; 1866.475;  253.825;    0.000
360.738; 1933.475;  301.825;    0.000
360.792; 1846.475;  282.825;    0.000
360.846; 1882.475;  277.825;    0.000
360.899; 1908.475;  292.825;    0.000
360.953; 1856.475;  266.825;    0.000
361.007; 1908.475;  240.825;    0.000
361.061; 1838.475;  247.825;    0.000
361.115; 1874.475;  276.825;    0.000
361.168; 1897.475;  288.825;    0.000
361.222; 1779.475;  271.825;    0.000
361.276; 1903.475;  270.825;    0.000
361.330; 1880.475;  295.825;    0.000
361.384; 1920.475;  276.825;    0.000
361.437; 1858.475;  280.825;    0.000
361.491; 1887.475;  261.825;    0.000
361.545; 1857.475;  273.825;    0.000
361.599; 1887.475;  269.825;    0.000
361.652; 1919.475;  258.825;    0.000
361.706; 1908.475;  270.825;    0.000
361.760; 1889.475;  294.825;    0.000
361.813; 1848.475;  244.825;    0.000
361.867; 1913.475;  294.825;    0.000
361.921; 1921.475;  285.825;    0.000
361.974; 1785.475;  269.825;    0.000
362.028; 1862.475;  275.825;    0.000
362.082; 1839.475;  270.825;    0.000
362.135; 1864.475;  259.825;    0.000
362.189; 1884.475;  302.825;    0.000
362.242; 1864.475;  296.825;    0.000
362.296; 1908.475;  285.825;    0.000
362.350; 1935.475;  303.825;    0.000
362.403; 1959.475;  271.825;    0.000
362.457; 1843.475;  285.825;    0.000
362.510; 1831.475;  288.825;    0.000
362.564; 1837.475;  268.825;    0.000
362.617; 1815.475;  285.825;    0.000
362.671; 1877.475;  277.825;    0.000
362.724; 1811.475;  242.825;    0.000
362.778; 1803.475;  274.825;    0.000
362.831; 1898.475;  280.825;    0.000
362.885; 1883.475;  284.825;    0.000
362.938; 1852.475;  276.825;    0.000
362.992;  337.475;  289.825;    0.000
363.045;  271.475;  247.825;    0.000
363.099;  278.475;  260.825;    0.000
363.152;  299.475;  258.825;    0.000
363.205;  297.475;  286.825;    0.000
363.259;  252.475;  236.825;    0.000
363.312;  267.475;  297.825;    0.000
363.366;  312.475;  266.825;    0.000
363.419;  289.475;  309.825;    0.000
363.472;  298.475;  293.825;    0.000
363.526;  289.475;  270.825;    0.000
363.579;  285.475;  276.825;    0.000
363.632;  293.475;  279.825;    0.000
363.686;  298.475;  292.825;    0.000
363.739;  288.475;  248.825;    0.000
363.792;  282.475;  287.825;    0.000

