
Integration time [ms]:   0.300
Averaging Nr. [scans]: 1
Smoothing Nr. [pixels]: 0
Data measured with spectrometer [name]: NIR
Wave   ;Sample   ;Dark     ;Reference
[nm]   ;[counts] ;[counts] ;[counts] 

691.496;  -26.400;  102.875;    0.000
691.696;   -2.400;  181.875;    0.000
691.896;  -73.400;  138.875;    0.000
692.096;  -36.400;  182.875;    0.000
692.296;  -79.400;  145.875;    0.000
692.496;  -33.400;  154.875;    0.000
692.695;  -71.400;  108.875;    0.000
692.895;  -10.400;  176.875;    0.000
693.095;  -80.400;  138.875;    0.000
693.295;    2.600;  192.875;    0.000
693.495;  -54.400;  170.875;    0.000
693.695;  -57.400;  147.875;    0.000
693.894;   -1.400;  191.875;    0.000
694.094;  -50.400;  148.875;    0.000
694.294;  -50.400;  147.875;    0.000
694.494;  258.600;  140.875;    0.000
694.693; 2935.600;  137.875;    0.000
694.893; 3365.600;  141.875;    0.000
695.093; 3290.600;  105.875;    0.000
695.293; 3352.600;  115.875;    0.000
695.492; 3371.600;   81.875;    0.000
695.692; 3441.600;  162.875;    0.000
695.891; 3394.600;  162.875;    0.000
696.091; 3373.600;  166.875;    0.000
696.291; 3468.600;  143.875;    0.000
696.490; 3445.600;  170.875;    0.000
696.690; 3454.600;  142.875;    0.000
696.889; 3411.600;  186.875;    0.000
697.089; 3372.600;  120.875;    0.000
697.288; 3490.600;  215.875;    0.000
697.488; 3414.600;  178.875;    0.000
697.687; 3413.600;  170.875;    0.000
697.887; 3435.600;  140.875;    0.000
698.086; 3462.600;  131.875;    0.000
698.286; 3451.600;  117.875;    0.000
698.485; 3359.600;  136.875;    0.000
698.684; 3380.600;  126.875;    0.000
698.884; 3539.600;  161.875;    0.000
699.083; 3465.600;   95.875;    0.000
699.282; 3507.600;  120.875;    0.000
699.482; 3443.600;  131.875;    0.000
699.681; 3512.600;  168.875;    0.000
699.880; 3685.600;  154.875;    0.000
700.080; 3604.600;  149.875;    0.000
700.279; 3457.600;   99.875;    0.000
700.478; 3585.600;  157.875;    0.000
700.677; 3482.600;  111.875;    0.000
700.877; 3628.600;  126.875;    0.000
701.076; 3508.600;  142.875;    0.000
701.275; 3628.600;  107.875;    0.000
701.474; 3606.600;   72.875;    0.000
701.673; 3471.600;   87.875;    0.000
701.872; 3534.600;  170.875;    0.000
702.071; 3562.600;  136.875;    0.000
702.271; 3578.600;  121.875;    0.000
702.470; 3671.600;  139.875;    0.000
702.669; 3669.600;  121.875;    0.000
702.868; 3575.600;  146.875;    0.000
703.067; 3561.600;  159.875;    0.000
703.266; 3623.600;  122.875;    0.000
703.465; 3641.600;  121.875;    0.000
703.664; 3680.600;  144.875;    0.000
703.863; 3607.600;  140.875;    0.000
704.062; 3530.600;  109.875;    0.000
704.260; 3661.600;  164.875;    0.000
704.459; 3592.600;  124.875;    0.000
704.658; 3666.600;  109.875;    0.000
704.857; 3675.600;  149.875;    0.000
705.056; 3613.600;  112.875;    0.000
705.255; 3562.600;   95.875;    0.000
705.454; 3650.600;  105.875;    0.000
705.652; 3681.600;  134.875;    0.000
705.851; 3633.600;   92.875;    0.000
706.050; 3700.600;  127.875;    0.000
706.249; 3669.600;  111.875;    0.000
706.447; 3655.600;   98.875;    0.000
706.646; 3646.600;  108.875;    0.000
706.845; 3762.600;   95.875;    0.000
707.043; 3684.600;   95.875;    0.000
707.242; 3710.600;   97.875;    0.000
707.441; 3769.600;  142.875;    0.000
707.639; 3689.600;  121.875;    0.000
707.838; 3681.600;  141.875;    0.000
708.037; 3678.600;  125.875;    0.000
708.235; 3695.600;  100.875;    0.000
708.434; 3692.600;  106.875;    0.000
708.632; 3738.600;   86.875;    0.000
708.831; 3756.600;  138.875;    0.000
709.029; 3871.600;   86.875;    0.000
709.228; 3757.600;  103.875;    0.000
709.426; 3770.600;  146.875;    0.000
709.625; 3855.600;  136.875;    0.000
709.823; 3726.600;  114.875;    0.000
710.022; 3803.600;  144.875;    0.000
710.220; 3800.600;  109.875;    0.000
710.418; 3905.600;  116.875;    0.000
710.617; 3831.600;   67.875;    0.000
710.815; 3861.600;  104.875;    0.000
711.013; 3941.600;  109.875;    0.000
711.212; 3876.600;  106.875;    0.000
711.410; 3984.600;   95.875;    0.000
711.608; 3887.600;  155.875;    0.000
711.807; 3872.600;  103.875;    0.000
712.005; 3902.600;  104.875;    0.000
712.203; 3944.600;   94.875;    0.000
712.401; 3852.600;  125.875;    0.000
712.599; 3929.600;  127.875;    0.000
712.798; 3890.600;  141.875;    0.000
712.996; 3899.600;   85.875;    0.000
713.194; 3952.600;   96.875;    0.000
713.392; 3984.600;   54.875;    0.000
713.590; 4044.600;  123.875;    0.000
713.788; 4101.600;  130.875;    0.000
713.986; 4063.600;  104.875;    0.000
714.184; 4020.600;   91.875;    0.000
714.382; 4102.600;  120.875;    0.000
714.580; 4104.600;   71.875;    0.000
714.778; 4236.600;   92.875;    0.000
714.976; 4223.600;  129.875;    0.000
715.174; 4110.600;   99.875;    0.000
715.372; 4375.600;  119.875;    0.000
715.570; 4496.600;   95.875;    0.000
715.768; 4738.600;  113.875;    0.000
715.966; 4781.600;   64.875;    0.000
716.164; 4735.600;  135.875;    0.000
716.362; 4601.600;  125.875;    0.000
716.560; 4576.600;  135.875;    0.000
716.758; 4531.600;   84.875;    0.000
716.955; 4404.600;  109.875;    0.000
717.153; 4377.600;   73.875;    0.000
717.351; 4452.600;  110.875;    0.000
717.549; 4362.600;  149.875;    0.000
717.746; 4409.600;  121.875;    0.000
717.944; 4356.600;  128.875;    0.000
718.142; 4422.600;  124.875;    0.000
718.340; 4312.600;   96.875;    0.000
718.537; 4351.600;  138.875;    0.000
718.735; 4320.600;  144.875;    0.000
718.933; 4320.600;   97.875;    0.000
719.130; 4235.600;  109.875;    0.000
719.328; 4286.600;  123.875;    0.000
719.525; 4417.600;  118.875;    0.000
719.723; 4308.600;  117.875;    0.000
719.920; 4344.600;   72.875;    0.000
720.118; 4175.600;   92.875;    0.000
720.316; 4281.600;  141.875;    0.000
720.513; 4336.600;   98.875;    0.000
720.711; 4372.600;  146.875;    0.000
720.908; 4378.600;  113.875;    0.000
721.105; 4295.600;  157.875;    0.000
721.303; 4342.600;  106.875;    0.000
721.500; 4246.600;   88.875;    0.000
721.698; 4392.600;   88.875;    0.000
721.895; 4361.600;   94.875;    0.000
722.092; 4355.600;   82.875;    0.000
722.290; 4331.600;  136.875;    0.000
722.487; 4355.600;   67.875;    0.000
722.684; 4370.600;  115.875;    0.000
722.882; 4376.600;  104.875;    0.000
723.079; 4301.600;  122.875;    0.000
723.276; 4303.600;   91.875;    0.000
723.473; 4367.600;   89.875;    0.000
723.671; 4305.600;   97.875;    0.000
723.868; 4414.600;  117.875;    0.000
724.065; 4400.600;  102.875;    0.000
724.262; 4425.600;  137.875;    0.000
724.459; 4377.600;   48.875;    0.000
724.656; 4442.600;  122.875;    0.000
724.854; 4431.600;   96.875;    0.000
725.051; 4376.600;  120.875;    0.000
725.248; 4444.600;  146.875;    0.000
725.445; 4404.600;  117.875;    0.000
725.642; 4361.600;  106.875;    0.000
725.839; 4491.600;  143.875;    0.000
726.036; 4336.600;   79.875;    0.000
726.233; 4316.600;   90.875;    0.000
726.430; 4366.600;  124.875;    0.000
726.627; 4456.600;   98.875;    0.000
726.824; 4445.600;   91.875;    0.000
727.021; 4514.600;  131.875;    0.000
727.218; 4476.600;  110.875;    0.000
727.414; 4553.600;   83.875;    0.000
727.611; 4438.600;   86.875;    0.000
727.808; 4440.600;  131.875;    0.000
728.005; 4503.600;  105.875;    0.000
728.202; 4574.600;  128.875;    0.000
728.399; 4440.600;  113.875;    0.000
728.595; 4443.600;  102.875;    0.000
728.792; 4564.600;   91.875;    0.000
728.989; 4521.600;  122.875;    0.000
729.186; 4473.600;  103.875;    0.000
729.382; 4542.600;  106.875;    0.000
729.579; 4533.600;  114.875;    0.000
729.776; 4520.600;  115.875;    0.000
729.972; 4614.600;  108.875;    0.000
730.169; 4584.600;  111.875;    0.000
730.366; 4535.600;  100.875;    0.000
730.562; 4598.600;   86.875;    0.000
730.759; 4426.600;   93.875;    0.000
730.955; 4539.600;  127.875;    0.000
731.152; 4490.600;   99.875;    0.000
731.348; 4487.600;   97.875;    0.000
731.545; 4495.600;   98.875;    0.000
731.741; 4619.600;  130.875;    0.000
731.938; 4707.600;  115.875;    0.000
732.134; 4575.600;  107.875;    0.000
732.331; 4577.600;   80.875;    0.000
732.527; 4595.600;  108.875;    0.000
732.724; 4575.600;  104.875;    0.000
732.920; 4535.600;  109.875;    0.000
733.116; 4513.600;  117.875;    0.000
733.313; 4618.600;   81.875;    0.000
733.509; 4549.600;   87.875;    0.000
733.705; 4673.600;  143.875;    0.000
733.902; 4571.600;   74.875;    0.000
734.098; 4686.600;   90.875;    0.000
734.294; 4723.600;  104.875;    0.000
734.490; 4634.600;  139.875;    0.000
734.687; 4572.600;  113.875;    0.000
734.883; 4583.600;   72.875;    0.000
735.079; 4609.600;  100.875;    0.000
735.275; 4583.600;  113.875;    0.000
735.471; 4583.600;   55.875;    0.000
735.667; 4654.600;  106.875;    0.000
735.863; 4671.600;  131.875;    0.000
736.060; 4566.600;  127.875;    0.000
736.256; 4791.600;   76.875;    0.000
736.452; 4763.600;  127.875;    0.000
736.648; 4629.600;  136.875;    0.000
736.844; 4727.600;  113.875;    0.000
737.040; 4791.600;  125.875;    0.000
737.236; 4793.600;   99.875;    0.000
737.432; 4721.600;   75.875;    0.000
737.628; 4798.600;  155.875;    0.000
737.824; 4781.600;  116.875;    0.000
738.019; 4619.600;   92.875;    0.000
738.215; 4830.600;  113.875;    0.000
738.411; 4804.600;  135.875;    0.000
738.607; 4789.600;   53.875;    0.000
738.803; 4782.600;   79.875;    0.000
738.999; 4893.600;  117.875;    0.000
739.195; 4851.600;  106.875;    0.000
739.390; 4964.600;  125.875;    0.000
739.586; 4904.600;  102.875;    0.000
739.782; 4939.600;  125.875;    0.000
739.978; 4952.600;  124.875;    0.000
740.173; 4963.600;   96.875;    0.000
740.369; 4846.600;  118.875;    0.000
740.565; 4986.600;  128.875;    0.000
740.760; 5003.600;  118.875;    0.000
740.956; 4952.600;  109.875;    0.000
741.152; 4975.600;  151.875;    0.000
741.347; 4943.600;  112.875;    0.000
741.543; 5131.600;  113.875;    0.000
741.738; 5213.600;  128.875;    0.000
741.934; 5394.600;  144.875;    0.000
742.129; 5627.600;  105.875;    0.000
742.325; 6129.600;  137.875;    0.000
742.520; 6683.600;  128.875;    0.000
742.716; 6362.600;  121.875;    0.000
742.911; 6013.600;   75.875;    0.000
743.107; 6027.600;  100.875;    0.000
743.302; 5938.600;   72.875;    0.000
743.498; 5909.600;  137.875;    0.000
743.693; 5893.600;  124.875;    0.000
743.888; 6302.600;  121.875;    0.000
744.084; 6991.600;   93.875;    0.000
744.279; 8423.600;   75.875;    0.000
744.474; 8464.600;  136.875;    0.000
744.670; 7638.600;  109.875;    0.000
744.865; 7053.600;  142.875;    0.000
745.060; 6779.600;   84.875;    0.000
745.255; 6609.600;  149.875;    0.000
745.451; 6634.600;  101.875;    0.000
745.646; 6355.600;  132.875;    0.000
745.841; 6372.600;  126.875;    0.000
746.036; 6289.600;  125.875;    0.000
746.231; 6582.600;  150.875;    0.000
746.426; 6811.600;  118.875;    0.000
746.622; 7619.600;  135.875;    0.000
746.817; 9570.600;  122.875;    0.000
747.012;10762.600;  134.875;    0.000
747.207; 9879.600;  124.875;    0.000
747.402; 8863.600;  122.875;    0.000
747.597; 8347.600;   95.875;    0.000
747.792; 7907.600;  168.875;    0.000
747.987; 7549.600;  110.875;    0.000
748.182; 7323.600;  119.875;    0.000
748.377; 7085.600;   70.875;    0.000
748.572; 6817.600;  113.875;    0.000
748.767; 6585.600;  123.875;    0.000
748.961; 6550.600;  110.875;    0.000
749.156; 6361.600;  135.875;    0.000
749.351; 6284.600;   98.875;    0.000
749.546; 6068.600;  126.875;    0.000
749.741; 6024.600;  129.875;    0.000
749.936; 5867.600;   86.875;    0.000
750.130; 5862.600;   97.875;    0.000
750.325; 5800.600;  110.875;    0.000
750.520; 5938.600;  120.875;    0.000
750.715; 5720.600;  122.875;    0.000
750.909; 5705.600;  120.875;    0.000
751.104; 5623.600;  118.875;    0.000
751.299; 5658.600;  122.875;    0.000
751.493; 5591.600;  129.875;    0.000
751.688; 5462.600;  138.875;    0.000
751.882; 5542.600;   87.875;    0.000
752.077; 5439.600;  142.875;    0.000
752.272; 5493.600;  110.875;    0.000
752.466; 5363.600;  154.875;    0.000
752.661; 5445.600;   96.875;    0.000
752.855; 5287.600;   93.875;    0.000
753.050; 5345.600;  122.875;    0.000
753.244; 5228.600;  110.875;    0.000
753.439; 5315.600;  116.875;    0.000
753.633; 5166.600;  131.875;    0.000
753.828; 5321.600;  130.875;    0.000
754.022; 5410.600;   96.875;    0.000
754.216; 5248.600;  114.875;    0.000
754.411; 5229.600;  145.875;    0.000
754.605; 5103.600;   65.875;    0.000
754.799; 5230.600;  116.875;    0.000
754.994; 5301.600;  117.875;    0.000
755.188; 5154.600;  124.875;    0.000
755.382; 5102.600;   80.875;    0.000
755.576; 5289.600;   90.875;    0.000
755.771; 5133.600;  115.875;    0.000
755.965; 5162.600;  106.875;    0.000
756.159; 5219.600;   87.875;    0.000
756.353; 5171.600;  125.875;    0.000
756.547; 5144.600;  146.875;    0.000
756.742; 5226.600;  111.875;    0.000
756.936; 5009.600;  108.875;    0.000
757.130; 5221.600;  101.875;    0.000
757.324; 5089.600;  114.875;    0.000
757.518; 5106.600;  136.875;    0.000
757.712; 5187.600;  123.875;    0.000
757.906; 5172.600;  115.875;    0.000
758.100; 5142.600;  186.875;    0.000
758.294; 5078.600;  118.875;    0.000
758.488; 5097.600;  167.875;    0.000
758.682; 5171.600;  137.875;    0.000
758.876; 5082.600;  135.875;    0.000
759.070; 5089.600;  132.875;    0.000
759.264; 5107.600;  118.875;    0.000
759.458; 5002.600;  111.875;    0.000
759.651; 5175.600;  142.875;    0.000
759.845; 5123.600;  105.875;    0.000
760.039; 5176.600;   73.875;    0.000
760.233; 5127.600;  156.875;    0.000
760.427; 5049.600;  119.875;    0.000
760.620; 5081.600;  136.875;    0.000
760.814; 5017.600;  126.875;    0.000
761.008; 5138.600;  126.875;    0.000
761.202; 5173.600;  123.875;    0.000
761.395; 5234.600;  141.875;    0.000
761.589; 5124.600;  107.875;    0.000
761.783; 5072.600;  122.875;    0.000
761.976; 5113.600;  120.875;    0.000
762.170; 5174.600;  147.875;    0.000
762.363; 5079.600;  144.875;    0.000
762.557; 5198.600;  119.875;    0.000
762.750; 5162.600;  118.875;    0.000
762.944; 5174.600;  145.875;    0.000
763.138; 5123.600;  123.875;    0.000
763.331; 5171.600;  129.875;    0.000
763.524; 5183.600;  109.875;    0.000
763.718; 5191.600;  150.875;    0.000
763.911; 5317.600;  140.875;    0.000
764.105; 5143.600;   97.875;    0.000
764.298; 5073.600;  128.875;    0.000
764.492; 5167.600;  132.875;    0.000
764.685; 5153.600;   92.875;    0.000
764.878; 5226.600;  111.875;    0.000
765.072; 5165.600;  116.875;    0.000
765.265; 5240.600;  135.875;    0.000
765.458; 5191.600;   69.875;    0.000
765.651; 5336.600;  145.875;    0.000
765.845; 5281.600;   95.875;    0.000
766.038; 5202.600;  147.875;    0.000
766.231; 5940.600;  119.875;    0.000
766.424; 8157.600;  126.875;    0.000
766.617; 8412.600;   92.875;    0.000
766.811; 5700.600;  109.875;    0.000
767.004; 5343.600;  107.875;    0.000
767.197; 5410.600;  171.875;    0.000
767.390; 5358.600;  114.875;    0.000
767.583; 5286.600;  109.875;    0.000
767.776; 5318.600;  130.875;    0.000
767.969; 5287.600;  103.875;    0.000
768.162; 5293.600;  139.875;    0.000
768.355; 5363.600;  142.875;    0.000
768.548; 5293.600;  140.875;    0.000
768.741; 5377.600;   82.875;    0.000
768.934; 5401.600;  107.875;    0.000
769.127; 5324.600;  121.875;    0.000
769.320; 5601.600;  106.875;    0.000
769.513; 5522.600;  145.875;    0.000
769.706; 6206.600;  120.875;    0.000
769.898; 8406.600;  135.875;    0.000
770.091; 6766.600;  146.875;    0.000
770.284; 5734.600;  108.875;    0.000
770.477; 5583.600;  148.875;    0.000
770.670; 5503.600;  163.875;    0.000
770.862; 5653.600;   97.875;    0.000
771.055; 5543.600;  116.875;    0.000
771.248; 5641.600;  143.875;    0.000
771.441; 5645.600;  125.875;    0.000
771.633; 5793.600;  125.875;    0.000
771.826; 5754.600;  132.875;    0.000
772.018; 5707.600;  123.875;    0.000
772.211; 5850.600;  143.875;    0.000
772.404; 5936.600;  144.875;    0.000
772.596; 5914.600;  130.875;    0.000
772.789; 5877.600;  109.875;    0.000
772.981; 6171.600;  151.875;    0.000
773.174; 6185.600;  119.875;    0.000
773.366; 6298.600;  179.875;    0.000
773.559; 6291.600;  106.875;    0.000
773.751; 6340.600;  120.875;    0.000
773.944; 6401.600;  159.875;    0.000
774.136; 6660.600;  131.875;    0.000
774.329; 6675.600;  141.875;    0.000
774.521; 6887.600;  114.875;    0.000
774.713; 7014.600;  169.875;    0.000
774.906; 7222.600;  151.875;    0.000
775.098; 7452.600;   99.875;    0.000
775.290; 7875.600;  166.875;    0.000
775.483; 8165.600;  146.875;    0.000
775.675; 8335.600;  106.875;    0.000
775.867; 8957.600;   91.875;    0.000
776.059; 9604.600;  137.875;    0.000
776.251;10709.600;  124.875;    0.000
776.444;11756.600;  168.875;    0.000
776.636;13593.600;  138.875;    0.000
776.828;16994.600;  155.875;    0.000
777.020;23376.600;  160.875;    0.000
777.212;34464.602;  153.875;    0.000
777.404;38216.602;  135.875;    0.000
777.596;35588.602;  144.875;    0.000
777.788;26627.600;  127.875;    0.000
777.980;20854.600;  141.875;    0.000
778.172;17232.600;  138.875;    0.000
778.364;14780.600;  143.875;    0.000
778.556;13300.600;  123.875;    0.000
778.748;11853.600;  103.875;    0.000
778.940;10893.600;  176.875;    0.000
779.132;10190.600;  144.875;    0.000
779.324; 9324.600;   75.875;    0.000
779.516; 8806.600;  117.875;    0.000
779.708; 8500.600;  151.875;    0.000
779.900; 8084.600;  127.875;    0.000
780.091; 7721.600;  155.875;    0.000
780.283; 7454.600;  157.875;    0.000
780.475; 7277.600;  140.875;    0.000
780.667; 7006.600;  141.875;    0.000
780.859; 6818.600;  113.875;    0.000
781.050; 6780.600;  153.875;    0.000
781.242; 6659.600;  118.875;    0.000
781.434; 6422.600;  121.875;    0.000
781.625; 6345.600;  146.875;    0.000
781.817; 6191.600;  154.875;    0.000
782.008; 6060.600;  144.875;    0.000
782.200; 6137.600;  152.875;    0.000
782.392; 6023.600;  160.875;    0.000
782.583; 6008.600;  122.875;    0.000
782.775; 5841.600;  144.875;    0.000
782.966; 5710.600;  143.875;    0.000
783.158; 5602.600;  125.875;    0.000
783.349; 5625.600;  173.875;    0.000
783.541; 5634.600;  166.875;    0.000
783.732; 5552.600;  163.875;    0.000
783.924; 5501.600;  157.875;    0.000
784.115; 5483.600;  158.875;    0.000
784.306; 5400.600;  160.875;    0.000
784.498; 5509.600;  132.875;    0.000
784.689; 5382.600;  181.875;    0.000
784.880; 5408.600;  156.875;    0.000
785.072; 5283.600;  134.875;    0.000
785.263; 5418.600;  155.875;    0.000
785.454; 5306.600;  141.875;    0.000
785.645; 5307.600;  114.875;    0.000
785.837; 5170.600;  137.875;    0.000
786.028; 5211.600;  158.875;    0.000
786.219; 5285.600;  135.875;    0.000
786.410; 5283.600;  152.875;    0.000
786.601; 5251.600;  132.875;    0.000
786.792; 5363.600;  152.875;    0.000
786.984; 5331.600;  162.875;    0.000
787.175; 5230.600;   97.875;    0.000
787.366; 5357.600;  129.875;    0.000
787.557; 5347.600;  135.875;    0.000
787.748; 5435.600;  127.875;    0.000
787.939; 5541.600;  152.875;    0.000
788.130; 5263.600;  182.875;    0.000
788.321; 5302.600;  130.875;    0.000
788.512; 5379.600;  161.875;    0.000
788.703; 5379.600;  127.875;    0.000
788.894; 5414.600;  121.875;    0.000
789.084; 5407.600;  134.875;    0.000
789.275; 5469.600;  108.875;    0.000
789.466; 5399.600;  152.875;    0.000
789.657; 5573.600;  115.875;    0.000
789.848; 5423.600;  150.875;    0.000
790.039; 5583.600;  132.875;    0.000
790.229; 5622.600;  169.875;    0.000
790.420; 5437.600;  159.875;    0.000
790.611; 5450.600;  123.875;    0.000
790.801; 5523.600;  144.875;    0.000
790.992; 5333.600;  177.875;    0.000
791.183; 5555.600;  128.875;    0.000
791.373; 5542.600;  123.875;    0.000
791.564; 5353.600;  131.875;    0.000
791.755; 5359.600;  103.875;    0.000
791.945; 5390.600;  104.875;    0.000
792.136; 5379.600;  115.875;    0.000
792.326; 5351.600;   99.875;    0.000
792.517; 5294.600;  139.875;    0.000
792.707; 5429.600;  155.875;    0.000
792.898; 5387.600;  139.875;    0.000
793.088; 5527.600;  153.875;    0.000
793.279; 5511.600;  137.875;    0.000
793.469; 5437.600;  109.875;    0.000
793.660; 5542.600;  119.875;    0.000
793.850; 5717.600;  119.875;    0.000
794.040; 5805.600;  132.875;    0.000
794.231; 6043.600;  122.875;    0.000
794.421; 6520.600;  124.875;    0.000
794.611; 7097.600;  151.875;    0.000
794.802; 8018.600;  121.875;    0.000
794.992; 8246.600;  139.875;    0.000
795.182; 8491.600;  132.875;    0.000
795.372; 8014.600;  149.875;    0.000
795.563; 7438.600;  153.875;    0.000
795.753; 6871.600;  120.875;    0.000
795.943; 6443.600;  121.875;    0.000
796.133; 6171.600;   97.875;    0.000
796.323; 5997.600;  122.875;    0.000
796.513; 5607.600;  142.875;    0.000
796.703; 5703.600;  125.875;    0.000
796.893; 5641.600;  126.875;    0.000
797.083; 5475.600;  150.875;    0.000
797.273; 5346.600;  108.875;    0.000
797.463; 5321.600;  156.875;    0.000
797.653; 5017.600;   80.875;    0.000
797.843; 5190.600;   88.875;    0.000
798.033; 5057.600;   96.875;    0.000
798.223; 4963.600;  159.875;    0.000
798.413; 5058.600;  155.875;    0.000
798.603; 4834.600;  125.875;    0.000
798.793; 4827.600;  141.875;    0.000
798.983; 4694.600;  113.875;    0.000
799.172; 4633.600;   85.875;    0.000
799.362; 4745.600;  141.875;    0.000
799.552; 4711.600;  122.875;    0.000
799.742; 4515.600;  124.875;    0.000
799.932; 4575.600;  102.875;    0.000
800.121; 4602.600;  146.875;    0.000
800.311; 4490.600;  122.875;    0.000
800.501; 4413.600;  120.875;    0.000
800.690; 4491.600;  141.875;    0.000
800.880; 4551.600;  146.875;    0.000
801.070; 4443.600;  122.875;    0.000
801.259; 4479.600;  138.875;    0.000
801.449; 4342.600;  115.875;    0.000
801.638; 4459.600;  132.875;    0.000
801.828; 4461.600;   92.875;    0.000
802.017; 4387.600;  150.875;    0.000
802.207; 4251.600;  134.875;    0.000
802.396; 4397.600;  133.875;    0.000
802.586; 4371.600;  117.875;    0.000
802.775; 4328.600;  155.875;    0.000
802.965; 4299.600;  132.875;    0.000
803.154; 4179.600;  176.875;    0.000
803.343; 4148.600;  106.875;    0.000
803.533; 4257.600;  154.875;    0.000
803.722; 4126.600;   97.875;    0.000
803.911; 4217.600;  107.875;    0.000
804.101; 4129.600;  145.875;    0.000
804.290; 4166.600;  130.875;    0.000
804.479; 4162.600;  152.875;    0.000
804.668; 4193.600;  160.875;    0.000
804.857; 4162.600;  161.875;    0.000
805.047; 4102.600;  126.875;    0.000
805.236; 4165.600;  136.875;    0.000
805.425; 4055.600;  153.875;    0.000
805.614; 4118.600;  139.875;    0.000
805.803; 4111.600;  144.875;    0.000
805.992; 4121.600;  160.875;    0.000
806.181; 4154.600;  139.875;    0.000
806.370; 4091.600;  104.875;    0.000
806.559; 4075.600;  103.875;    0.000
806.748; 4027.600;  145.875;    0.000
806.937; 4032.600;  151.875;    0.000
807.126; 4017.600;  119.875;    0.000
807.315; 4095.600;  139.875;    0.000
807.504; 3975.600;  143.875;    0.000
807.693; 4033.600;  164.875;    0.000
807.882; 3974.600;  135.875;    0.000
808.071; 4014.600;  131.875;    0.000
808.260; 3891.600;  113.875;    0.000
808.448; 4079.600;  161.875;    0.000
808.637; 3972.600;  125.875;    0.000
808.826; 4087.600;  155.875;    0.000
809.015; 4023.600;  113.875;    0.000
809.203; 3923.600;  152.875;    0.000
809.392; 4047.600;   90.875;    0.000
809.581; 3958.600;  186.875;    0.000
809.770; 3927.600;   99.875;    0.000
809.958; 3997.600;  146.875;    0.000
810.147; 4025.600;  115.875;    0.000
810.335; 3991.600;  122.875;    0.000
810.524; 4067.600;  150.875;    0.000
810.713; 4053.600;  121.875;    0.000
810.901; 4122.600;  156.875;    0.000
811.090; 4012.600;  161.875;    0.000
811.278; 4037.600;  138.875;    0.000
811.467; 4155.600;  184.875;    0.000
811.655; 4248.600;  150.875;    0.000
811.844; 4115.600;  137.875;    0.000
812.032; 4194.600;  142.875;    0.000
812.220; 4046.600;  134.875;    0.000
812.409; 4113.600;  143.875;    0.000
812.597; 4138.600;  164.875;    0.000
812.785; 4005.600;  188.875;    0.000
812.974; 4115.600;  156.875;    0.000
813.162; 4071.600;  166.875;    0.000
813.350; 4076.600;  115.875;    0.000
813.539; 4019.600;  167.875;    0.000
813.727; 4090.600;  165.875;    0.000
813.915; 4071.600;  137.875;    0.000
814.103; 3985.600;  166.875;    0.000
814.291; 4064.600;  151.875;    0.000
814.479; 4019.600;  147.875;    0.000
814.668; 3993.600;  166.875;    0.000
814.856; 4163.600;  160.875;    0.000
815.044; 4046.600;  172.875;    0.000
815.232; 4160.600;  193.875;    0.000
815.420; 4211.600;  173.875;    0.000
815.608; 4142.600;  134.875;    0.000
815.796; 4075.600;  105.875;    0.000
815.984; 4169.600;  125.875;    0.000
816.172; 4250.600;  160.875;    0.000
816.360; 4385.600;  162.875;    0.000
816.548; 4221.600;  160.875;    0.000
816.736; 4315.600;  132.875;    0.000
816.924; 4408.600;  184.875;    0.000
817.111; 4429.600;  145.875;    0.000
817.299; 4554.600;  132.875;    0.000
817.487; 4662.600;  193.875;    0.000
817.675; 4791.600;  153.875;    0.000
817.863; 4990.600;  153.875;    0.000
818.050; 5264.600;  172.875;    0.000
818.238; 5737.600;  131.875;    0.000
818.426; 7209.600;  160.875;    0.000
818.613; 8439.600;  136.875;    0.000
818.801; 9019.600;  162.875;    0.000
818.989; 8956.600;  153.875;    0.000
819.176; 7674.600;  181.875;    0.000
819.364; 6870.600;  165.875;    0.000
819.552; 6759.600;  111.875;    0.000
819.739; 6267.600;  192.875;    0.000
819.927; 6340.600;  146.875;    0.000
820.114; 6617.600;  154.875;    0.000
820.302; 6331.600;  144.875;    0.000
820.489; 6209.600;  133.875;    0.000
820.677; 6431.600;  135.875;    0.000
820.864; 6662.600;  130.875;    0.000
821.052; 7442.600;   88.875;    0.000
821.239; 8307.600;  143.875;    0.000
821.426; 9118.600;  186.875;    0.000
821.614;11825.600;  171.875;    0.000
821.801;13125.600;   90.875;    0.000
821.988;11563.600;  143.875;    0.000
822.176;11029.600;   95.875;    0.000
822.363;11397.600;  148.875;    0.000
822.550;10580.600;  139.875;    0.000
822.737; 9336.600;  122.875;    0.000
822.924; 8677.600;  171.875;    0.000
823.112; 8378.600;  147.875;    0.000
823.299; 7726.600;  111.875;    0.000
823.486; 7222.600;  161.875;    0.000
823.673; 6972.600;  124.875;    0.000
823.860; 6746.600;  151.875;    0.000
824.047; 6985.600;  145.875;    0.000
824.234; 7873.600;  139.875;    0.000
824.421; 7975.600;  110.875;    0.000
824.608; 7342.600;  145.875;    0.000
824.795; 6557.600;  115.875;    0.000
824.982; 6098.600;  148.875;    0.000
825.169; 5796.600;  135.875;    0.000
825.356; 5359.600;  122.875;    0.000
825.543; 5127.600;  142.875;    0.000
825.730; 5044.600;   89.875;    0.000
825.917; 4889.600;  127.875;    0.000
826.104; 4710.600;  187.875;    0.000
826.290; 4703.600;  138.875;    0.000
826.477; 4547.600;  140.875;    0.000
826.664; 4436.600;  106.875;    0.000
826.851; 4278.600;  155.875;    0.000
827.038; 4163.600;  125.875;    0.000
827.224; 4245.600;  126.875;    0.000
827.411; 4185.600;  163.875;    0.000
827.598; 4112.600;  140.875;    0.000
827.784; 4037.600;  117.875;    0.000
827.971; 3963.600;  114.875;    0.000
828.157; 4020.600;  146.875;    0.000
828.344; 3878.600;  161.875;    0.000
828.531; 3862.600;  155.875;    0.000
828.717; 3868.600;  130.875;    0.000
828.904; 3787.600;  138.875;    0.000
829.090; 3666.600;  176.875;    0.000
829.277; 3729.600;  152.875;    0.000
829.463; 3701.600;  139.875;    0.000
829.650; 3622.600;  168.875;    0.000
829.836; 3687.600;  176.875;    0.000
830.022; 3601.600;  159.875;    0.000
830.209; 3574.600;  135.875;    0.000
830.395; 3408.600;  177.875;    0.000
830.581; 3585.600;  125.875;    0.000
830.768; 3533.600;  155.875;    0.000
830.954; 3514.600;  187.875;    0.000
831.140; 3447.600;  135.875;    0.000
831.327; 3474.600;  158.875;    0.000
831.513; 3440.600;  126.875;    0.000
831.699; 3420.600;  167.875;    0.000
831.885; 3479.600;  165.875;    0.000
832.071; 3437.600;  167.875;    0.000
832.257; 3431.600;  144.875;    0.000
832.444; 3320.600;  158.875;    0.000
832.630; 3390.600;  167.875;    0.000
832.816; 3331.600;  150.875;    0.000
833.002; 3222.600;  157.875;    0.000
833.188; 3347.600;  169.875;    0.000
833.374; 3282.600;  144.875;    0.000
833.560; 3353.600;  179.875;    0.000
833.746; 3275.600;  134.875;    0.000
833.932; 3281.600;  150.875;    0.000
834.118; 3295.600;   98.875;    0.000
834.303; 3235.600;  121.875;    0.000
834.489; 3236.600;  179.875;    0.000
834.675; 3263.600;  136.875;    0.000
834.861; 3224.600;  130.875;    0.000
835.047; 3305.600;  132.875;    0.000
835.233; 3097.600;  104.875;    0.000
835.418; 3196.600;  143.875;    0.000
835.604; 3245.600;  127.875;    0.000
835.790; 3140.600;  138.875;    0.000
835.976; 3114.600;  137.875;    0.000
836.161; 3202.600;  155.875;    0.000
836.347; 3160.600;  101.875;    0.000
836.533; 3184.600;  121.875;    0.000
836.718; 3224.600;  150.875;    0.000
836.904; 3243.600;  168.875;    0.000
837.089; 3177.600;  169.875;    0.000
837.275; 3062.600;  172.875;    0.000
837.460; 3130.600;  140.875;    0.000
837.646; 3136.600;  144.875;    0.000
837.831; 3175.600;  137.875;    0.000
838.017; 3192.600;  176.875;    0.000
838.202; 3089.600;  107.875;    0.000
838.388; 3179.600;  181.875;    0.000
838.573; 3146.600;  151.875;    0.000
838.759; 3103.600;  160.875;    0.000
838.944; 3208.600;  121.875;    0.000
839.129; 2998.600;  145.875;    0.000
839.315; 3213.600;  166.875;    0.000
839.500; 3151.600;  143.875;    0.000
839.685; 3087.600;   93.875;    0.000
839.870; 3146.600;  160.875;    0.000
840.056; 3153.600;  132.875;    0.000
840.241; 3280.600;  154.875;    0.000
840.426; 3263.600;  161.875;    0.000
840.611; 3309.600;  186.875;    0.000
840.796; 3221.600;  135.875;    0.000
840.981; 3352.600;  147.875;    0.000
841.166; 3190.600;  138.875;    0.000
841.352; 3385.600;  156.875;    0.000
841.537; 3262.600;  170.875;    0.000
841.722; 3354.600;  143.875;    0.000
841.907; 3414.600;  143.875;    0.000
842.092; 3489.600;  166.875;    0.000
842.277; 3458.600;  113.875;    0.000
842.461; 3531.600;  126.875;    0.000
842.646; 3593.600;  145.875;    0.000
842.831; 3673.600;  193.875;    0.000
843.016; 3916.600;  162.875;    0.000
843.201; 3835.600;  144.875;    0.000
843.386; 3953.600;  160.875;    0.000
843.571; 4200.600;  136.875;    0.000
843.755; 4422.600;  134.875;    0.000
843.940; 4772.600;  136.875;    0.000
844.125; 5213.600;  169.875;    0.000
844.310; 5980.600;  189.875;    0.000
844.494; 7854.600;  167.875;    0.000
844.679;10671.600;  184.875;    0.000
844.864;10578.600;  147.875;    0.000
845.048; 8648.600;  140.875;    0.000
845.233; 7076.600;  178.875;    0.000
845.418; 6427.600;  145.875;    0.000
845.602; 5613.600;  147.875;    0.000
845.787; 5283.600;  147.875;    0.000
845.971; 4976.600;  165.875;    0.000
846.156; 4540.600;  106.875;    0.000
846.340; 4375.600;  168.875;    0.000
846.525; 4102.600;  155.875;    0.000
846.709; 4119.600;  157.875;    0.000
846.893; 3952.600;  166.875;    0.000
847.078; 3840.600;  138.875;    0.000
847.262; 3745.600;  171.875;    0.000
847.447; 3567.600;  135.875;    0.000
847.631; 3479.600;  136.875;    0.000
847.815; 3462.600;  136.875;    0.000
848.000; 3310.600;  126.875;    0.000
848.184; 3318.600;  131.875;    0.000
848.368; 3333.600;  153.875;    0.000
848.552; 3273.600;  137.875;    0.000
848.736; 3229.600;  151.875;    0.000
848.921; 3185.600;  156.875;    0.000
849.105; 3105.600;  153.875;    0.000
849.289; 3152.600;  180.875;    0.000
849.473; 3002.600;  156.875;    0.000
849.657; 3066.600;  157.875;    0.000
849.841; 3056.600;  147.875;    0.000
850.025; 3056.600;  194.875;    0.000
850.209; 3082.600;  147.875;    0.000
850.393; 2887.600;  141.875;    0.000
850.577; 2973.600;  156.875;    0.000
850.761; 2900.600;  157.875;    0.000
850.945; 2932.600;  128.875;    0.000
851.129; 2801.600;  151.875;    0.000
851.313; 2857.600;  180.875;    0.000
851.497; 3004.600;  123.875;    0.000
851.680; 2912.600;  188.875;    0.000
851.864; 2916.600;  177.875;    0.000
852.048; 2830.600;  163.875;    0.000
852.232; 2878.600;  149.875;    0.000
852.416; 2920.600;  187.875;    0.000
852.599; 2860.600;  169.875;    0.000
852.783; 2876.600;  154.875;    0.000
852.967; 2875.600;  191.875;    0.000
853.150; 2863.600;  170.875;    0.000
853.334; 2846.600;  173.875;    0.000
853.518; 2848.600;  186.875;    0.000
853.701; 2840.600;  142.875;    0.000
853.885; 2843.600;  153.875;    0.000
854.068; 2705.600;  132.875;    0.000
854.252; 2755.600;  184.875;    0.000
854.435; 2864.600;  152.875;    0.000
854.619; 2722.600;  152.875;    0.000
854.802; 2861.600;  164.875;    0.000
854.986; 2792.600;  151.875;    0.000
855.169; 2815.600;  153.875;    0.000
855.353; 2930.600;  183.875;    0.000
855.536; 2799.600;  113.875;    0.000
855.719; 2838.600;  181.875;    0.000
855.903; 2906.600;  159.875;    0.000
856.086; 2797.600;  142.875;    0.000
856.269; 2913.600;  171.875;    0.000
856.452; 2951.600;  132.875;    0.000
856.636; 2973.600;  140.875;    0.000
856.819; 3177.600;  165.875;    0.000
857.002; 3344.600;  170.875;    0.000
857.185; 3244.600;  173.875;    0.000
857.368; 3093.600;  129.875;    0.000
857.552; 3028.600;  151.875;    0.000
857.735; 3096.600;  146.875;    0.000
857.918; 3062.600;  114.875;    0.000
858.101; 2942.600;  152.875;    0.000
858.284; 2948.600;  164.875;    0.000
858.467; 3052.600;  147.875;    0.000
858.650; 3076.600;  146.875;    0.000
858.833; 3101.600;  118.875;    0.000
859.016; 3251.600;  161.875;    0.000
859.199; 3302.600;  135.875;    0.000
859.382; 3496.600;  157.875;    0.000
859.564; 3796.600;  124.875;    0.000
859.747; 3682.600;  154.875;    0.000
859.930; 3587.600;  138.875;    0.000
860.113; 3417.600;  153.875;    0.000
860.296; 3452.600;  180.875;    0.000
860.478; 3298.600;  145.875;    0.000
860.661; 3319.600;  160.875;    0.000
860.844; 3283.600;   96.875;    0.000
861.027; 3264.600;  128.875;    0.000
861.209; 3138.600;  127.875;    0.000
861.392; 3191.600;  126.875;    0.000
861.575; 3315.600;  155.875;    0.000
861.757; 3299.600;  141.875;    0.000
861.940; 3364.600;  181.875;    0.000
862.122; 3389.600;  145.875;    0.000
862.305; 3415.600;  124.875;    0.000
862.487; 3493.600;  151.875;    0.000
862.670; 3897.600;  132.875;    0.000
862.852; 4370.600;  112.875;    0.000
863.035; 5220.600;  116.875;    0.000
863.217; 5173.600;  131.875;    0.000
863.400; 4642.600;  145.875;    0.000
863.582; 4384.600;  147.875;    0.000
863.764; 4339.600;  163.875;    0.000
863.947; 4028.600;  129.875;    0.000
864.129; 3894.600;  159.875;    0.000
864.311; 3873.600;  144.875;    0.000
864.493; 3890.600;  141.875;    0.000
864.676; 3753.600;  159.875;    0.000
864.858; 3728.600;  146.875;    0.000
865.040; 3725.600;  163.875;    0.000
865.222; 3766.600;  133.875;    0.000
865.404; 3827.600;  148.875;    0.000
865.587; 4064.600;  177.875;    0.000
865.769; 4138.600;  172.875;    0.000
865.951; 4124.600;  145.875;    0.000
866.133; 4073.600;  168.875;    0.000
866.315; 4119.600;  147.875;    0.000
866.497; 4034.600;  164.875;    0.000
866.679; 4355.600;  143.875;    0.000
866.861; 4230.600;  170.875;    0.000
867.043; 4434.600;  185.875;    0.000
867.225; 4807.600;  149.875;    0.000
867.407; 5155.600;  143.875;    0.000
867.589; 5783.600;  169.875;    0.000
867.770; 7005.600;  166.875;    0.000
867.952; 9493.600;  158.875;    0.000
868.134;12237.600;  170.875;    0.000
868.316;12149.600;  157.875;    0.000
868.498;11729.600;  186.875;    0.000
868.679;10276.600;  158.875;    0.000
868.861; 8822.600;  180.875;    0.000
869.043; 7536.600;  164.875;    0.000
869.224; 6468.600;  156.875;    0.000
869.406; 6048.600;  176.875;    0.000
869.588; 5698.600;  152.875;    0.000
869.769; 5443.600;  131.875;    0.000
869.951; 5284.600;  203.875;    0.000
870.132; 5230.600;  143.875;    0.000
870.314; 5662.600;  129.875;    0.000
870.495; 5861.600;  175.875;    0.000
870.677; 5473.600;  165.875;    0.000
870.858; 5338.600;  151.875;    0.000
871.040; 5559.600;  155.875;    0.000
871.221; 6083.600;  144.875;    0.000
871.403; 5778.600;  131.875;    0.000
871.584; 5422.600;  174.875;    0.000
871.765; 5541.600;  169.875;    0.000
871.947; 5881.600;  187.875;    0.000
872.128; 5213.600;  181.875;    0.000
872.309; 4687.600;  129.875;    0.000
872.491; 4351.600;  142.875;    0.000
872.672; 4194.600;  158.875;    0.000
872.853; 3888.600;  179.875;    0.000
873.034; 3918.600;  164.875;    0.000
873.215; 3687.600;  168.875;    0.000
873.396; 3577.600;  114.875;    0.000
873.578; 3401.600;  126.875;    0.000
873.759; 3364.600;  177.875;    0.000
873.940; 3215.600;  169.875;    0.000
874.121; 3187.600;  133.875;    0.000
874.302; 3078.600;  164.875;    0.000
874.483; 3078.600;  162.875;    0.000
874.664; 3084.600;  140.875;    0.000
874.845; 3063.600;  124.875;    0.000
875.026; 2929.600;  146.875;    0.000
875.207; 2861.600;  147.875;    0.000
875.388; 2887.600;  174.875;    0.000
875.568; 2842.600;  179.875;    0.000
875.749; 2797.600;  155.875;    0.000
875.930; 2712.600;  166.875;    0.000
876.111; 2732.600;  153.875;    0.000
876.292; 2721.600;  146.875;    0.000
876.472; 2757.600;  167.875;    0.000
876.653; 2704.600;  145.875;    0.000
876.834; 2640.600;  172.875;    0.000
877.015; 2678.600;  184.875;    0.000
877.195; 2642.600;  160.875;    0.000
877.376; 2638.600;  163.875;    0.000
877.556; 2596.600;  164.875;    0.000
877.737; 2580.600;  179.875;    0.000
877.918; 2569.600;  137.875;    0.000
878.098; 2525.600;  117.875;    0.000
878.279; 2489.600;  135.875;    0.000
878.459; 2418.600;  149.875;    0.000
878.640; 2596.600;  171.875;    0.000
878.820; 2382.600;  142.875;    0.000
879.000; 2500.600;  166.875;    0.000
879.181; 2510.600;  177.875;    0.000
879.361; 2447.600;  176.875;    0.000
879.542; 2384.600;  159.875;    0.000
879.722; 2531.600;  122.875;    0.000
879.902; 2416.600;  166.875;    0.000
880.083; 2565.600;  164.875;    0.000
880.263; 2579.600;  139.875;    0.000
880.443; 2774.600;  179.875;    0.000
880.623; 3311.600;  154.875;    0.000
880.803; 3614.600;  160.875;    0.000
880.984; 2980.600;  181.875;    0.000
881.164; 2781.600;  167.875;    0.000
881.344; 2717.600;  141.875;    0.000
881.524; 2609.600;  190.875;    0.000
881.704; 2621.600;  165.875;    0.000
881.884; 2668.600;  144.875;    0.000
882.064; 2882.600;  135.875;    0.000
882.244; 2890.600;  186.875;    0.000
882.424; 2692.600;  150.875;    0.000
882.604; 2658.600;  168.875;    0.000
882.784; 2572.600;  155.875;    0.000
882.964; 2533.600;  137.875;    0.000
883.144; 2533.600;  136.875;    0.000
883.324; 2470.600;  200.875;    0.000
883.504; 2407.600;  203.875;    0.000
883.683; 2366.600;  149.875;    0.000
883.863; 2376.600;  160.875;    0.000
884.043; 2294.600;  161.875;    0.000
884.223; 2371.600;  147.875;    0.000
884.402; 2405.600;  175.875;    0.000
884.582; 2413.600;  188.875;    0.000
884.762; 2282.600;  173.875;    0.000
884.941; 2305.600;  164.875;    0.000
885.121; 2221.600;  147.875;    0.000
885.301; 2248.600;  135.875;    0.000
885.480; 2234.600;  145.875;    0.000
885.660; 2211.600;  144.875;    0.000
885.839; 2294.600;  155.875;    0.000
886.019; 2292.600;  207.875;    0.000
886.198; 2220.600;  165.875;    0.000
886.378; 2231.600;  120.875;    0.000
886.557; 2239.600;  133.875;    0.000
886.737; 2209.600;  119.875;    0.000
886.916; 2266.600;  129.875;    0.000
887.095; 2248.600;  158.875;    0.000
887.275; 2185.600;  169.875;    0.000
887.454; 2201.600;  184.875;    0.000
887.633; 2164.600;  143.875;    0.000
887.813; 2221.600;  154.875;    0.000
887.992; 2230.600;  188.875;    0.000
888.171; 2166.600;  176.875;    0.000
888.350; 2146.600;  161.875;    0.000
888.530; 2256.600;  163.875;    0.000
888.709; 2202.600;  136.875;    0.000
888.888; 2139.600;  177.875;    0.000
889.067; 2239.600;  169.875;    0.000
889.246; 2225.600;  188.875;    0.000
889.425; 2232.600;  187.875;    0.000
889.604; 2217.600;  169.875;    0.000
889.783; 2193.600;  182.875;    0.000
889.962; 2137.600;  112.875;    0.000
890.141; 2140.600;  231.875;    0.000
890.320; 2074.600;  161.875;    0.000
890.499; 2208.600;  164.875;    0.000
890.678; 2150.600;  176.875;    0.000
890.857; 2110.600;  163.875;    0.000
891.036; 2136.600;  161.875;    0.000
891.214; 2191.600;  156.875;    0.000
891.393; 2172.600;  167.875;    0.000
891.572; 2063.600;  163.875;    0.000
891.751; 2159.600;  205.875;    0.000
891.930; 2160.600;  162.875;    0.000
892.108; 2133.600;  153.875;    0.000
892.287; 2168.600;  153.875;    0.000
892.466; 2157.600;  201.875;    0.000
892.644; 2195.600;  158.875;    0.000
892.823; 2094.600;  122.875;    0.000
893.001; 2128.600;  148.875;    0.000
893.180; 2112.600;  142.875;    0.000
893.359; 2168.600;  192.875;    0.000
893.537; 2177.600;  166.875;    0.000
893.716; 2127.600;  144.875;    0.000
893.894; 2146.600;  145.875;    0.000
894.073; 2158.600;  180.875;    0.000
894.251; 2052.600;  165.875;    0.000
894.429; 2122.600;  182.875;    0.000
894.608; 2201.600;  181.875;    0.000
894.786; 2135.600;  180.875;    0.000
894.964; 2159.600;  207.875;    0.000
895.143; 2166.600;  190.875;    0.000
895.321; 2169.600;  206.875;    0.000
895.499; 2104.600;  164.875;    0.000
895.677; 2155.600;  199.875;    0.000
895.856; 2247.600;  203.875;    0.000
896.034; 2185.600;  200.875;    0.000
896.212; 2200.600;  198.875;    0.000
896.390; 2258.600;  161.875;    0.000
896.568; 2161.600;  205.875;    0.000
896.746; 2161.600;  185.875;    0.000
896.924; 2166.600;  179.875;    0.000
897.102; 2200.600;  190.875;    0.000
897.280; 2165.600;  160.875;    0.000
897.458; 2206.600;  196.875;    0.000
897.636; 2164.600;  168.875;    0.000
897.814; 2261.600;  159.875;    0.000
897.992; 2204.600;  216.875;    0.000
898.170; 2212.600;  195.875;    0.000
898.348; 2215.600;  185.875;    0.000
898.526; 2208.600;  199.875;    0.000
898.704; 2128.600;  215.875;    0.000
898.882; 2238.600;  195.875;    0.000
899.059; 2256.600;  197.875;    0.000
899.237; 2285.600;  168.875;    0.000
899.415; 2276.600;  221.875;    0.000
899.593; 2190.600;  171.875;    0.000
899.770; 2169.600;  191.875;    0.000
899.948; 2306.600;  206.875;    0.000
900.125; 2124.600;  175.875;    0.000
900.303; 2326.600;  176.875;    0.000
900.481; 2251.600;  199.875;    0.000
900.658; 2354.600;  217.875;    0.000
900.836; 2251.600;  192.875;    0.000
901.013; 2306.600;  221.875;    0.000
901.191; 2283.600;  203.875;    0.000
901.368; 2259.600;  189.875;    0.000
901.546; 2447.600;  212.875;    0.000
901.723; 2463.600;  189.875;    0.000
901.901; 2481.600;  198.875;    0.000
902.078; 2491.600;  193.875;    0.000
902.255; 2437.600;  176.875;    0.000
902.433; 2491.600;  201.875;    0.000
902.610; 2455.600;  170.875;    0.000
902.787; 2486.600;  164.875;    0.000
902.964; 2559.600;  216.875;    0.000
903.142; 2678.600;  153.875;    0.000
903.319; 2693.600;  204.875;    0.000
903.496; 2661.600;  188.875;    0.000
903.673; 2639.600;  209.875;    0.000
903.850; 2761.600;  173.875;    0.000
904.027; 2873.600;  186.875;    0.000
904.204; 2992.600;  241.875;    0.000
904.381; 3202.600;  187.875;    0.000
904.558; 3573.600;  196.875;    0.000
904.735; 3882.600;  206.875;    0.000
904.912; 3914.600;  228.875;    0.000
905.089; 3882.600;  172.875;    0.000
905.266; 3795.600;  175.875;    0.000
905.443; 3478.600;  239.875;    0.000
905.620; 3319.600;  176.875;    0.000
905.797; 3153.600;  205.875;    0.000
905.974; 3087.600;  187.875;    0.000
906.151; 3193.600;  135.875;    0.000
906.327; 3097.600;  209.875;    0.000
906.504; 3059.600;  145.875;    0.000
906.681; 3036.600;  178.875;    0.000
906.858; 2791.600;  179.875;    0.000
907.034; 2878.600;  221.875;    0.000
907.211; 2736.600;  166.875;    0.000
907.388; 2745.600;  206.875;    0.000
907.564; 2606.600;  150.875;    0.000
907.741; 2575.600;  187.875;    0.000
907.917; 2587.600;  180.875;    0.000
908.094; 2588.600;  206.875;    0.000
908.271; 2512.600;  184.875;    0.000
908.447; 2591.600;  212.875;    0.000
908.623; 2501.600;  193.875;    0.000
908.800; 2483.600;  185.875;    0.000
908.976; 2460.600;  202.875;    0.000
909.153; 2518.600;  175.875;    0.000
909.329; 2475.600;  193.875;    0.000
909.505; 2514.600;  154.875;    0.000
909.682; 2533.600;  188.875;    0.000
909.858; 2434.600;  162.875;    0.000
910.034; 2433.600;  181.875;    0.000
910.211; 2383.600;  142.875;    0.000
910.387; 2399.600;  200.875;    0.000
910.563; 2350.600;  163.875;    0.000
910.739; 2365.600;  156.875;    0.000
910.915; 2366.600;  202.875;    0.000
911.091; 2299.600;  186.875;    0.000
911.268; 2329.600;  167.875;    0.000
911.444; 2323.600;  193.875;    0.000
911.620; 2260.600;  175.875;    0.000
911.796; 2333.600;  168.875;    0.000
911.972; 2277.600;  154.875;    0.000
912.148; 2204.600;  201.875;    0.000
912.324; 2287.600;  146.875;    0.000
912.500; 2270.600;  185.875;    0.000
912.676; 2280.600;  183.875;    0.000
912.851; 2224.600;  204.875;    0.000
913.027; 2256.600;  196.875;    0.000
913.203; 2327.600;  174.875;    0.000
913.379; 2249.600;  210.875;    0.000
913.555; 2320.600;  197.875;    0.000
913.730; 2350.600;  209.875;    0.000
913.906; 2308.600;  169.875;    0.000
914.082; 2257.600;  236.875;    0.000
914.258; 2266.600;  216.875;    0.000
914.433; 2260.600;  212.875;    0.000
914.609; 2305.600;  180.875;    0.000
914.784; 2266.600;  176.875;    0.000
914.960; 2254.600;  227.875;    0.000
915.136; 2287.600;  149.875;    0.000
915.311; 2274.600;  165.875;    0.000
915.487; 2264.600;  167.875;    0.000
915.662; 2411.600;  225.875;    0.000
915.838; 2321.600;  165.875;    0.000
916.013; 2367.600;  188.875;    0.000
916.189; 2269.600;  200.875;    0.000
916.364; 2292.600;  201.875;    0.000
916.539; 2303.600;  240.875;    0.000
916.715; 2280.600;  180.875;    0.000
916.890; 2281.600;  191.875;    0.000
917.065; 2296.600;  211.875;    0.000
917.240; 2274.600;  212.875;    0.000
917.416; 2395.600;  207.875;    0.000
917.591; 2246.600;  189.875;    0.000
917.766; 2338.600;  205.875;    0.000
917.941; 2318.600;  191.875;    0.000
918.116; 2199.600;  195.875;    0.000
918.292; 2251.600;  183.875;    0.000
918.467; 2343.600;  206.875;    0.000
918.642; 2351.600;  190.875;    0.000
918.817; 2329.600;  193.875;    0.000
918.992; 2313.600;  171.875;    0.000
919.167; 2291.600;  191.875;    0.000
919.342; 2309.600;  202.875;    0.000
919.517; 2327.600;  182.875;    0.000
919.692; 2376.600;  190.875;    0.000
919.867; 2480.600;  221.875;    0.000
920.041; 2341.600;  195.875;    0.000
920.216; 2346.600;  226.875;    0.000
920.391; 2475.600;  230.875;    0.000
920.566; 2526.600;  210.875;    0.000
920.741; 2498.600;  204.875;    0.000
920.915; 2636.600;  213.875;    0.000
921.090; 2713.600;  194.875;    0.000
921.265; 2985.600;  234.875;    0.000
921.439; 3145.600;  228.875;    0.000
921.614; 2919.600;  199.875;    0.000
921.789; 2822.600;  194.875;    0.000
921.963; 2734.600;  236.875;    0.000
922.138; 2738.600;  192.875;    0.000
922.312; 2654.600;  203.875;    0.000
922.487; 2515.600;  207.875;    0.000
922.661; 2729.600;  216.875;    0.000
922.836; 2813.600;  199.875;    0.000
923.010; 2791.600;  179.875;    0.000
923.185; 2635.600;  241.875;    0.000
923.359; 2681.600;  199.875;    0.000
923.534; 2616.600;  227.875;    0.000
923.708; 2746.600;  213.875;    0.000
923.882; 2849.600;  203.875;    0.000
924.057; 2777.600;  194.875;    0.000
924.231; 2696.600;  185.875;    0.000
924.405; 2624.600;  223.875;    0.000
924.579; 2723.600;  196.875;    0.000
924.753; 2592.600;  209.875;    0.000
924.928; 2576.600;  202.875;    0.000
925.102; 2580.600;  184.875;    0.000
925.276; 2562.600;  191.875;    0.000
925.450; 2657.600;  199.875;    0.000
925.624; 2664.600;  190.875;    0.000
925.798; 2764.600;  214.875;    0.000
925.972; 2862.600;  193.875;    0.000
926.146; 3031.600;  191.875;    0.000
926.320; 3218.600;  177.875;    0.000
926.494; 3480.600;  190.875;    0.000
926.668; 3576.600;  182.875;    0.000
926.842; 3763.600;  182.875;    0.000
927.016; 3809.600;  235.875;    0.000
927.190; 3719.600;  234.875;    0.000
927.363; 3412.600;  214.875;    0.000
927.537; 3442.600;  198.875;    0.000
927.711; 3311.600;  154.875;    0.000
927.885; 3318.600;  167.875;    0.000
928.058; 3157.600;  210.875;    0.000
928.232; 3134.600;  206.875;    0.000
928.406; 3033.600;  176.875;    0.000
928.579; 3015.600;  182.875;    0.000
928.753; 2915.600;  179.875;    0.000
928.927; 2920.600;  186.875;    0.000
929.100; 2773.600;  188.875;    0.000
929.274; 2834.600;  167.875;    0.000
929.447; 2803.600;  152.875;    0.000
929.621; 2757.600;  195.875;    0.000
929.794; 2720.600;  200.875;    0.000
929.968; 2700.600;  203.875;    0.000
930.141; 2729.600;  237.875;    0.000
930.315; 2717.600;  165.875;    0.000
930.488; 2560.600;  175.875;    0.000
930.661; 2502.600;  173.875;    0.000
930.835; 2510.600;  171.875;    0.000
931.008; 2520.600;  210.875;    0.000
931.181; 2456.600;  206.875;    0.000
931.354; 2484.600;  195.875;    0.000
931.528; 2371.600;  178.875;    0.000
931.701; 2397.600;  179.875;    0.000
931.874; 2328.600;  150.875;    0.000
932.047; 2418.600;  154.875;    0.000
932.220; 2476.600;  185.875;    0.000
932.393; 2345.600;  166.875;    0.000
932.566; 2278.600;  171.875;    0.000
932.739; 2286.600;  196.875;    0.000
932.912; 2345.600;  212.875;    0.000
933.085; 2266.600;  234.875;    0.000
933.258; 2240.600;  212.875;    0.000
933.431; 2299.600;  181.875;    0.000
933.604; 2285.600;  201.875;    0.000
933.777; 2380.600;  201.875;    0.000
933.950; 2311.600;  176.875;    0.000
934.123; 2206.600;  175.875;    0.000
934.296; 2263.600;  174.875;    0.000
934.468; 2156.600;  186.875;    0.000
934.641; 2232.600;  192.875;    0.000
934.814; 2223.600;  187.875;    0.000
934.987; 2257.600;  165.875;    0.000
935.159; 2249.600;  162.875;    0.000
935.332; 2280.600;  210.875;    0.000
935.505; 2274.600;  191.875;    0.000
935.677; 2219.600;  159.875;    0.000
935.850; 2222.600;  170.875;    0.000
936.022; 2218.600;  172.875;    0.000
936.195; 2314.600;  202.875;    0.000
936.367; 2291.600;  179.875;    0.000
936.540; 2301.600;  207.875;    0.000
936.712; 2327.600;  200.875;    0.000
936.885; 2327.600;  219.875;    0.000
937.057; 2301.600;  150.875;    0.000
937.229; 2225.600;  187.875;    0.000
937.402; 2308.600;  169.875;    0.000
937.574; 2367.600;  127.875;    0.000
937.746; 2443.600;  171.875;    0.000
937.919; 2392.600;  176.875;    0.000
938.091; 2476.600;  193.875;    0.000
938.263; 2684.600;  200.875;    0.000
938.435; 2893.600;  181.875;    0.000
938.608; 3287.600;  191.875;    0.000
938.780; 3670.600;  173.875;    0.000
938.952; 3890.600;  184.875;    0.000
939.124; 3888.600;  171.875;    0.000
939.296; 4352.600;  156.875;    0.000
939.468; 4509.600;  147.875;    0.000
939.640; 3917.600;  186.875;    0.000
939.812; 3723.600;  217.875;    0.000
939.984; 3306.600;  155.875;    0.000
940.156; 3206.600;  191.875;    0.000
940.328; 3084.600;  201.875;    0.000
940.500; 2906.600;  176.875;    0.000
940.672; 2891.600;  190.875;    0.000
940.843; 2795.600;  143.875;    0.000
941.015; 2697.600;  189.875;    0.000
941.187; 2596.600;  172.875;    0.000
941.359; 2589.600;  175.875;    0.000
941.531; 2489.600;  154.875;    0.000
941.702; 2447.600;  183.875;    0.000
941.874; 2400.600;  140.875;    0.000
942.046; 2376.600;  177.875;    0.000
942.217; 2242.600;  147.875;    0.000
942.389; 2344.600;  196.875;    0.000
942.560; 2169.600;  163.875;    0.000
942.732; 2260.600;  187.875;    0.000
942.904; 2216.600;  226.875;    0.000
943.075; 2085.600;  159.875;    0.000
943.247; 2132.600;  209.875;    0.000
943.418; 2122.600;  167.875;    0.000
943.589; 2100.600;  195.875;    0.000
943.761; 2168.600;  190.875;    0.000
943.932; 2076.600;  187.875;    0.000
944.104; 2156.600;  194.875;    0.000
944.275; 2055.600;  177.875;    0.000
944.446; 2090.600;  155.875;    0.000
944.617; 2084.600;  176.875;    0.000
944.789; 2072.600;  171.875;    0.000
944.960; 2088.600;  172.875;    0.000
945.131; 2089.600;  158.875;    0.000
945.302; 2059.600;  201.875;    0.000
945.473; 1988.600;  141.875;    0.000
945.645; 2030.600;  197.875;    0.000
945.816; 2102.600;  165.875;    0.000
945.987; 2074.600;  190.875;    0.000
946.158; 2179.600;  158.875;    0.000
946.329; 2170.600;  160.875;    0.000
946.500; 2129.600;  190.875;    0.000
946.671; 2095.600;  152.875;    0.000
946.842; 2063.600;  182.875;    0.000
947.013; 1967.600;  160.875;    0.000
947.183; 2061.600;  203.875;    0.000
947.354; 1982.600;  174.875;    0.000
947.525; 2055.600;  173.875;    0.000
947.696; 1945.600;  170.875;    0.000
947.867; 1991.600;  187.875;    0.000
948.037; 1912.600;  165.875;    0.000
948.208; 2005.600;  154.875;    0.000
948.379; 2083.600;  176.875;    0.000
948.550; 1928.600;  176.875;    0.000
948.720; 2053.600;  169.875;    0.000
948.891; 1982.600;  216.875;    0.000
949.061; 1988.600;  200.875;    0.000
949.232; 1887.600;  163.875;    0.000
949.403; 1792.600;  157.875;    0.000
949.573; 1910.600;  158.875;    0.000
949.744; 2033.600;  213.875;    0.000
949.914; 1918.600;  177.875;    0.000
950.085; 1939.600;  195.875;    0.000
950.255; 1944.600;  166.875;    0.000
950.425; 1891.600;  196.875;    0.000
950.596; 1950.600;  176.875;    0.000
950.766; 1937.600;  228.875;    0.000
950.936; 1869.600;  185.875;    0.000
951.107; 1874.600;  178.875;    0.000
951.277; 1883.600;  227.875;    0.000
951.447; 1843.600;  219.875;    0.000
951.617; 1902.600;  219.875;    0.000
951.788; 1884.600;  198.875;    0.000
951.958; 1875.600;  202.875;    0.000
952.128; 1871.600;  197.875;    0.000
952.298; 1863.600;  211.875;    0.000
952.468; 1931.600;  233.875;    0.000
952.638; 1822.600;  222.875;    0.000
952.808; 1819.600;  210.875;    0.000
952.978; 1929.600;  216.875;    0.000
953.148; 1897.600;  203.875;    0.000
953.318; 1817.600;  212.875;    0.000
953.488; 1777.600;  156.875;    0.000
953.658; 1837.600;  226.875;    0.000
953.828; 1842.600;  223.875;    0.000
953.998; 1806.600;  209.875;    0.000
954.167; 1802.600;  203.875;    0.000
954.337; 1810.600;  209.875;    0.000
954.507; 1838.600;  252.875;    0.000
954.677; 1857.600;  207.875;    0.000
954.846; 1803.600;  240.875;    0.000
955.016; 1793.600;  197.875;    0.000
955.186; 1777.600;  208.875;    0.000
955.355; 1823.600;  243.875;    0.000
955.525; 1808.600;  211.875;    0.000
955.695; 1739.600;  187.875;    0.000
955.864; 1854.600;  204.875;    0.000
956.034; 1876.600;  199.875;    0.000
956.203; 1811.600;  257.875;    0.000
956.373; 1706.600;  193.875;    0.000
956.542; 1719.600;  187.875;    0.000
956.711; 1805.600;  259.875;    0.000
956.881; 1764.600;  227.875;    0.000
957.050; 1797.600;  260.875;    0.000
957.220; 1791.600;  246.875;    0.000
957.389; 1775.600;  211.875;    0.000
957.558; 1792.600;  197.875;    0.000
957.727; 1736.600;  227.875;    0.000
957.897; 1788.600;  219.875;    0.000
958.066; 1675.600;  180.875;    0.000
958.235; 1687.600;  179.875;    0.000
958.404; 1672.600;  194.875;    0.000
958.573; 1722.600;  235.875;    0.000
958.743; 1688.600;  191.875;    0.000
958.912; 1671.600;  181.875;    0.000
959.081; 1759.600;  193.875;    0.000
959.250; 1726.600;  180.875;    0.000
959.419; 1765.600;  205.875;    0.000
959.588; 1674.600;  241.875;    0.000
959.757; 1655.600;  202.875;    0.000
959.926; 1747.600;  212.875;    0.000
960.094; 1699.600;  199.875;    0.000
960.263; 1712.600;  226.875;    0.000
960.432; 1685.600;  188.875;    0.000
960.601; 1677.600;  200.875;    0.000
960.770; 1693.600;  197.875;    0.000
960.939; 1657.600;  195.875;    0.000
961.107; 1660.600;  198.875;    0.000
961.276; 1670.600;  151.875;    0.000
961.445; 1644.600;  227.875;    0.000
961.613; 1600.600;  186.875;    0.000
961.782; 1712.600;  187.875;    0.000
961.951; 1620.600;  194.875;    0.000
962.119; 1631.600;  227.875;    0.000
962.288; 1722.600;  181.875;    0.000
962.456; 1628.600;  206.875;    0.000
962.625; 1728.600;  181.875;    0.000
962.793; 1698.600;  216.875;    0.000
962.962; 1697.600;  237.875;    0.000
963.130; 1641.600;  194.875;    0.000
963.298; 1682.600;  190.875;    0.000
963.467; 1654.600;  204.875;    0.000
963.635; 1625.600;  159.875;    0.000
963.803; 1626.600;  208.875;    0.000
963.972; 1712.600;  206.875;    0.000
964.140; 1653.600;  178.875;    0.000
964.308; 1601.600;  185.875;    0.000
964.477; 1646.600;  189.875;    0.000
964.645; 1655.600;  201.875;    0.000
964.813; 1698.600;  200.875;    0.000
964.981; 1640.600;  160.875;    0.000
965.149; 1662.600;  230.875;    0.000
965.317; 1583.600;  214.875;    0.000
965.485; 1681.600;  190.875;    0.000
965.653; 1675.600;  239.875;    0.000
965.821; 1660.600;  211.875;    0.000
965.989; 1721.600;  216.875;    0.000
966.157; 1659.600;  198.875;    0.000
966.325; 1708.600;  200.875;    0.000
966.493; 1543.600;  187.875;    0.000
966.661; 1634.600;  181.875;    0.000
966.829; 1566.600;  181.875;    0.000
966.996; 1619.600;  220.875;    0.000
967.164; 1616.600;  179.875;    0.000
967.332; 1687.600;  203.875;    0.000
967.500; 1579.600;  200.875;    0.000
967.667; 1721.600;  196.875;    0.000
967.835; 1595.600;  199.875;    0.000
968.003; 1616.600;  191.875;    0.000
968.170; 1641.600;  141.875;    0.000
968.338; 1661.600;  185.875;    0.000
968.505; 1724.600;  199.875;    0.000
968.673; 1729.600;  191.875;    0.000
968.841; 1578.600;  165.875;    0.000
969.008; 1678.600;  192.875;    0.000
969.175; 1642.600;  172.875;    0.000
969.343; 1602.600;  191.875;    0.000
969.510; 1660.600;  199.875;    0.000
969.678; 1547.600;  156.875;    0.000
969.845; 1651.600;  191.875;    0.000
970.012; 1655.600;  205.875;    0.000
970.180; 1653.600;  201.875;    0.000
970.347; 1690.600;  229.875;    0.000
970.514; 1669.600;  207.875;    0.000
970.681; 1587.600;  169.875;    0.000
970.849; 1577.600;  196.875;    0.000
971.016; 1646.600;  212.875;    0.000
971.183; 1611.600;  178.875;    0.000
971.350; 1626.600;  193.875;    0.000
971.517; 1703.600;  190.875;    0.000
971.684; 1728.600;  261.875;    0.000
971.851; 1659.600;  203.875;    0.000
972.018; 1673.600;  184.875;    0.000
972.185; 1647.600;  226.875;    0.000
972.352; 1691.600;  180.875;    0.000
972.519; 1692.600;  226.875;    0.000
972.686; 1673.600;  233.875;    0.000
972.853; 1640.600;  173.875;    0.000
973.020; 1643.600;  208.875;    0.000
973.186; 1601.600;  173.875;    0.000
973.353; 1678.600;  218.875;    0.000
973.520; 1694.600;  218.875;    0.000
973.687; 1688.600;  176.875;    0.000
973.853; 1669.600;  203.875;    0.000
974.020; 1666.600;  196.875;    0.000
974.187; 1669.600;  188.875;    0.000
974.353; 1601.600;  230.875;    0.000
974.520; 1684.600;  195.875;    0.000
974.687; 1608.600;  209.875;    0.000
974.853; 1603.600;  189.875;    0.000
975.020; 1580.600;  179.875;    0.000
975.186; 1670.600;  204.875;    0.000
975.353; 1596.600;  201.875;    0.000
975.519; 1610.600;  200.875;    0.000
975.685; 1557.600;  176.875;    0.000
975.852; 1664.600;  197.875;    0.000
976.018; 1619.600;  201.875;    0.000
976.184; 1622.600;  176.875;    0.000
976.351; 1625.600;  221.875;    0.000
976.517; 1616.600;  203.875;    0.000
976.683; 1576.600;  236.875;    0.000
976.849; 1635.600;  190.875;    0.000
977.016; 1553.600;  173.875;    0.000
977.182; 1530.600;  200.875;    0.000
977.348; 1570.600;  179.875;    0.000
977.514; 1616.600;  159.875;    0.000
977.680; 1571.600;  200.875;    0.000
977.846; 1586.600;  206.875;    0.000
978.012; 1563.600;  219.875;    0.000
978.178; 1565.600;  229.875;    0.000
978.344; 1642.600;  195.875;    0.000
978.510; 1549.600;  209.875;    0.000
978.676; 1519.600;  190.875;    0.000
978.842; 1589.600;  195.875;    0.000
979.008; 1612.600;  186.875;    0.000
979.174; 1577.600;  185.875;    0.000
979.340; 1548.600;  198.875;    0.000
979.505; 1575.600;  214.875;    0.000
979.671; 1606.600;  159.875;    0.000
979.837; 1632.600;  202.875;    0.000
980.003; 1550.600;  190.875;    0.000
980.168; 1616.600;  216.875;    0.000
980.334; 1653.600;  194.875;    0.000
980.499; 1617.600;  229.875;    0.000
980.665; 1606.600;  240.875;    0.000
980.831; 1589.600;  202.875;    0.000
980.996; 1658.600;  179.875;    0.000
981.162; 1618.600;  212.875;    0.000
981.327; 1606.600;  202.875;    0.000
981.493; 1595.600;  219.875;    0.000
981.658; 1640.600;  218.875;    0.000
981.823; 1585.600;  207.875;    0.000
981.989; 1599.600;  207.875;    0.000
982.154; 1625.600;  224.875;    0.000
982.319; 1633.600;  217.875;    0.000
982.485; 1708.600;  266.875;    0.000
982.650; 1674.600;  245.875;    0.000
982.815; 1613.600;  229.875;    0.000
982.980; 1666.600;  203.875;    0.000
983.146; 1636.600;  242.875;    0.000
983.311; 1560.600;  144.875;    0.000
983.476; 1571.600;  222.875;    0.000
983.641; 1542.600;  206.875;    0.000
983.806; 1669.600;  217.875;    0.000
983.971; 1686.600;  254.875;    0.000
984.136; 1568.600;  217.875;    0.000
984.301; 1613.600;  202.875;    0.000
984.466; 1571.600;  206.875;    0.000
984.631; 1616.600;  224.875;    0.000
984.796; 1595.600;  218.875;    0.000
984.961; 1508.600;  202.875;    0.000
985.126; 1686.600;  238.875;    0.000
985.291; 1573.600;  220.875;    0.000
985.455; 1592.600;  223.875;    0.000
985.620; 1651.600;  218.875;    0.000
985.785; 1550.600;  228.875;    0.000
985.950; 1599.600;  212.875;    0.000
986.114; 1636.600;  215.875;    0.000
986.279; 1648.600;  243.875;    0.000
986.444; 1615.600;  222.875;    0.000
986.608; 1693.600;  243.875;    0.000
986.773; 1669.600;  213.875;    0.000
986.937; 1662.600;  267.875;    0.000
987.102; 1710.600;  235.875;    0.000
987.266; 1621.600;  210.875;    0.000
987.431; 1622.600;  239.875;    0.000
987.595; 1578.600;  230.875;    0.000
987.760; 1605.600;  229.875;    0.000
987.924; 1675.600;  217.875;    0.000
988.088; 1622.600;  210.875;    0.000
988.253; 1635.600;  215.875;    0.000
988.417; 1613.600;  186.875;    0.000
988.581; 1572.600;  214.875;    0.000
988.746; 1633.600;  212.875;    0.000
988.910; 1537.600;  192.875;    0.000
989.074; 1631.600;  195.875;    0.000
989.238; 1550.600;  226.875;    0.000
989.402; 1592.600;  214.875;    0.000
989.566; 1600.600;  201.875;    0.000
989.731; 1628.600;  199.875;    0.000
989.895; 1613.600;  205.875;    0.000
990.059; 1543.600;  204.875;    0.000
990.223; 1554.600;  182.875;    0.000
990.387; 1614.600;  220.875;    0.000
990.551; 1526.600;  199.875;    0.000
990.714; 1552.600;  202.875;    0.000
990.878; 1627.600;  201.875;    0.000
991.042; 1611.600;  202.875;    0.000
991.206; 1623.600;  215.875;    0.000
991.370; 1579.600;  217.875;    0.000
991.534; 1582.600;  152.875;    0.000
991.697; 1639.600;  194.875;    0.000
991.861; 1545.600;  208.875;    0.000
992.025; 1569.600;  209.875;    0.000
992.188; 1585.600;  182.875;    0.000
992.352; 1585.600;  181.875;    0.000
992.516; 1591.600;  192.875;    0.000
992.679; 1632.600;  183.875;    0.000
992.843; 1580.600;  156.875;    0.000
993.006; 1538.600;  192.875;    0.000
993.170; 1596.600;  172.875;    0.000
993.333; 1553.600;  195.875;    0.000
993.497; 1554.600;  185.875;    0.000
993.660; 1548.600;  155.875;    0.000
993.824; 1521.600;  199.875;    0.000
993.987; 1596.600;  211.875;    0.000
994.150; 1530.600;  173.875;    0.000
994.314; 1629.600;  202.875;    0.000
994.477; 1582.600;  171.875;    0.000
994.640; 1518.600;  191.875;    0.000
994.803; 1592.600;  203.875;    0.000
994.967; 1591.600;  198.875;    0.000
995.130; 1554.600;  192.875;    0.000
995.293; 1579.600;  211.875;    0.000
995.456; 1609.600;  207.875;    0.000
995.619; 1560.600;  207.875;    0.000
995.782; 1517.600;  186.875;    0.000
995.945; 1567.600;  203.875;    0.000
996.108; 1585.600;  195.875;    0.000
996.271; 1578.600;  195.875;    0.000
996.434; 1570.600;  179.875;    0.000
996.597; 1542.600;  170.875;    0.000
996.760; 1523.600;  161.875;    0.000
996.923; 1466.600;  177.875;    0.000
997.086; 1507.600;  199.875;    0.000
997.248; 1607.600;  225.875;    0.000
997.411; 1559.600;  194.875;    0.000
997.574; 1605.600;  204.875;    0.000
997.737; 1597.600;  236.875;    0.000
997.899; 1527.600;  191.875;    0.000
998.062; 1569.600;  178.875;    0.000
998.225; 1503.600;  176.875;    0.000
998.387; 1602.600;  203.875;    0.000
998.550; 1534.600;  155.875;    0.000
998.712; 1555.600;  169.875;    0.000
998.875; 1672.600;  234.875;    0.000
999.037; 1537.600;  211.875;    0.000
999.200; 1517.600;  185.875;    0.000
999.362; 1553.600;  199.875;    0.000
999.525; 1565.600;  234.875;    0.000
999.687; 1486.600;  194.875;    0.000
999.849; 1500.600;  223.875;    0.000
1000.012; 1562.600;  222.875;    0.000
1000.174; 1516.600;  187.875;    0.000
1000.336; 1566.600;  204.875;    0.000
1000.499; 1543.600;  240.875;    0.000
1000.661; 1530.600;  215.875;    0.000
1000.823; 1543.600;  206.875;    0.000
1000.985; 1562.600;  197.875;    0.000
1001.147; 1577.600;  221.875;    0.000
1001.309; 1629.600;  207.875;    0.000
1001.471; 1619.600;  227.875;    0.000
1001.633; 1647.600;  208.875;    0.000
1001.796; 1653.600;  158.875;    0.000
1001.958; 1586.600;  210.875;    0.000
1002.119; 1632.600;  223.875;    0.000
1002.281; 1739.600;  211.875;    0.000
1002.443; 1741.600;  227.875;    0.000
1002.605; 1900.600;  186.875;    0.000
1002.767; 1885.600;  242.875;    0.000
1002.929; 2026.600;  219.875;    0.000
1003.091; 2083.600;  191.875;    0.000
1003.252; 2288.600;  233.875;    0.000
1003.414; 2170.600;  214.875;    0.000
1003.576; 2336.600;  186.875;    0.000
1003.738; 2421.600;  175.875;    0.000
1003.899; 2613.600;  237.875;    0.000
1004.061; 2810.600;  220.875;    0.000
1004.222; 2813.600;  186.875;    0.000
1004.384; 2962.600;  216.875;    0.000
1004.546; 3106.600;  203.875;    0.000
1004.707; 3176.600;  216.875;    0.000
1004.869; 3157.600;  219.875;    0.000
1005.030; 3182.600;  188.875;    0.000
1005.191; 3017.600;  223.875;    0.000
1005.353; 2959.600;  227.875;    0.000
1005.514; 2826.600;  235.875;    0.000
1005.675; 2716.600;  201.875;    0.000
1005.837; 2585.600;  199.875;    0.000
1005.998; 2496.600;  219.875;    0.000
1006.159; 2519.600;  235.875;    0.000
1006.321; 2497.600;  199.875;    0.000
1006.482; 2548.600;  222.875;    0.000
1006.643; 2708.600;  195.875;    0.000
1006.804; 2830.600;  205.875;    0.000
1006.965; 2847.600;  199.875;    0.000
1007.126; 2900.600;  231.875;    0.000
1007.287; 2826.600;  208.875;    0.000
1007.448; 2852.600;  205.875;    0.000
1007.609; 2805.600;  256.875;    0.000
1007.770; 2727.600;  231.875;    0.000
1007.931; 2668.600;  223.875;    0.000
1008.092; 2763.600;  217.875;    0.000
1008.253; 2830.600;  236.875;    0.000
1008.414; 2916.600;  197.875;    0.000
1008.575; 2923.600;  233.875;    0.000
1008.736; 2874.600;  193.875;    0.000
1008.896; 2893.600;  238.875;    0.000
1009.057; 2807.600;  245.875;    0.000
1009.218; 2762.600;  240.875;    0.000
1009.379; 2777.600;  210.875;    0.000
1009.539; 2869.600;  234.875;    0.000
1009.700; 2932.600;  228.875;    0.000
1009.860; 3051.600;  238.875;    0.000
1010.021; 3011.600;  199.875;    0.000
1010.182; 2916.600;  214.875;    0.000
1010.342; 2852.600;  216.875;    0.000
1010.503; 2924.600;  207.875;    0.000
1010.663; 3103.600;  258.875;    0.000
1010.823; 3047.600;  243.875;    0.000
1010.984; 3216.600;  268.875;    0.000
1011.144; 3222.600;  217.875;    0.000
1011.305; 3286.600;  237.875;    0.000
1011.465; 3371.600;  216.875;    0.000
1011.625; 3381.600;  195.875;    0.000
1011.785; 3590.600;  201.875;    0.000
1011.946; 3515.600;  200.875;    0.000
1012.106; 3443.600;  206.875;    0.000
1012.266; 3491.600;  227.875;    0.000
1012.426; 3386.600;  221.875;    0.000
1012.586; 3427.600;  198.875;    0.000
1012.746; 3427.600;  215.875;    0.000
1012.906; 3371.600;  226.875;    0.000
1013.066; 3509.600;  221.875;    0.000
1013.226; 3485.600;  202.875;    0.000
1013.386; 3413.600;  210.875;    0.000
1013.546; 3317.600;  243.875;    0.000
1013.706; 3311.600;  200.875;    0.000
1013.866; 3336.600;  232.875;    0.000
1014.026; 3472.600;  206.875;    0.000
1014.186; 3348.600;  222.875;    0.000
1014.346; 3180.600;  233.875;    0.000
1014.505; 3435.600;  241.875;    0.000
1014.665; 3614.600;  225.875;    0.000
1014.825; 3446.600;  196.875;    0.000
1014.985; 3392.600;  234.875;    0.000
1015.144; 3672.600;  232.875;    0.000
1015.304; 3755.600;  214.875;    0.000
1015.464; 3747.600;  210.875;    0.000
1015.623; 3561.600;  219.875;    0.000
1015.783; 3906.600;  216.875;    0.000
1015.942; 4390.600;  267.875;    0.000
1016.102; 4331.600;  234.875;    0.000
1016.261; 4095.600;  230.875;    0.000
1016.420; 4502.600;  225.875;    0.000
1016.580; 5061.600;  205.875;    0.000
1016.739; 5029.600;  199.875;    0.000
1016.899; 4701.600;  218.875;    0.000
1017.058; 4911.600;  204.875;    0.000
1017.217; 5285.600;  196.875;    0.000
1017.376; 5286.600;  204.875;    0.000
1017.536; 4590.600;  195.875;    0.000
1017.695; 4676.600;  216.875;    0.000
1017.854; 4839.600;  235.875;    0.000
1018.013; 4780.600;  189.875;    0.000
1018.172; 4353.600;  217.875;    0.000
1018.331; 4313.600;  215.875;    0.000
1018.490; 4476.600;  233.875;    0.000
1018.649; 4829.600;  211.875;    0.000
1018.808; 5142.600;  196.875;    0.000
1018.967; 5048.600;  222.875;    0.000
1019.126; 4906.600;  221.875;    0.000
1019.285; 4974.600;  212.875;    0.000
1019.444; 5198.600;  231.875;    0.000
1019.603; 4909.600;  227.875;    0.000
1019.762; 4618.600;  192.875;    0.000
1019.921; 4563.600;  240.875;    0.000
1020.079; 4813.600;  209.875;    0.000
1020.238; 5305.600;  211.875;    0.000
1020.397; 5204.600;  253.875;    0.000
1020.555; 4793.600;  179.875;    0.000
1020.714; 4883.600;  225.875;    0.000
1020.873; 5428.600;  232.875;    0.000
1021.031; 5422.600;  245.875;    0.000
1021.190; 5250.600;  230.875;    0.000
1021.348; 4878.600;  221.875;    0.000
1021.507; 5341.600;  212.875;    0.000
1021.665; 5722.600;  211.875;    0.000
1021.824; 5489.600;  206.875;    0.000
1021.982; 5087.600;  218.875;    0.000
1022.141; 4891.600;  232.875;    0.000
1022.299; 5640.600;  193.875;    0.000
1022.457; 5999.600;  217.875;    0.000
1022.616; 5536.600;  248.875;    0.000
1022.774; 4995.600;  222.875;    0.000
1022.932; 5077.600;  211.875;    0.000
1023.090; 5876.600;  288.875;    0.000
1023.249; 5999.600;  214.875;    0.000
1023.407; 5434.600;  233.875;    0.000
1023.565; 4819.600;  208.875;    0.000
1023.723; 5308.600;  217.875;    0.000
1023.881; 6092.600;  235.875;    0.000
1024.039; 6055.600;  228.875;    0.000
1024.197; 5493.600;  216.875;    0.000
1024.355; 5303.600;  251.875;    0.000
1024.513; 5440.600;  232.875;    0.000
1024.671; 6222.600;  217.875;    0.000
1024.829; 6345.600;  255.875;    0.000
1024.987; 5636.600;  203.875;    0.000
1025.145; 5083.600;  239.875;    0.000
1025.302; 5512.600;  209.875;    0.000
1025.460; 6089.600;  224.875;    0.000
1025.618; 6522.600;  193.875;    0.000
1025.776; 5914.600;  209.875;    0.000
1025.933; 5143.600;  229.875;    0.000
1026.091; 5436.600;  218.875;    0.000
1026.249; 6172.600;  269.875;    0.000
1026.406; 6729.600;  264.875;    0.000
1026.564; 6291.600;  230.875;    0.000
1026.721; 5571.600;  198.875;    0.000
1026.879; 5388.600;  216.875;    0.000
1027.036; 6040.600;  226.875;    0.000
1027.194; 6580.600;  245.875;    0.000
1027.351; 6713.600;  236.875;    0.000
1027.509; 5971.600;  262.875;    0.000
1027.666; 5402.600;  227.875;    0.000
1027.823; 6008.600;  214.875;    0.000
1027.981; 6552.600;  258.875;    0.000
1028.138; 6872.600;  239.875;    0.000
1028.295; 6325.600;  226.875;    0.000
1028.452; 5403.600;  225.875;    0.000
1028.609; 5646.600;  276.875;    0.000
1028.767; 6282.600;  228.875;    0.000
1028.924; 6962.600;  213.875;    0.000
1029.081; 6618.600;  232.875;    0.000
1029.238; 6313.600;  250.875;    0.000
1029.395; 5817.600;  255.875;    0.000
1029.552; 6005.600;  217.875;    0.000
1029.709; 6513.600;  210.875;    0.000
1029.866; 7085.600;  243.875;    0.000
1030.023; 6840.600;  202.875;    0.000
1030.180; 6064.600;  233.875;    0.000
1030.337; 5910.600;  234.875;    0.000
1030.494; 6264.600;  222.875;    0.000
1030.650; 6660.600;  241.875;    0.000
1030.807; 7294.600;  206.875;    0.000
1030.964; 6824.600;  206.875;    0.000
1031.121; 6449.600;  228.875;    0.000
1031.277; 5954.600;  228.875;    0.000
1031.434; 6244.600;  234.875;    0.000
1031.591; 6965.600;  250.875;    0.000
1031.747; 7170.600;  246.875;    0.000
1031.904; 7268.600;  201.875;    0.000
1032.060; 6857.600;  237.875;    0.000
1032.217; 6320.600;  232.875;    0.000
1032.373; 6914.600;  210.875;    0.000
1032.530; 6915.600;  246.875;    0.000
1032.686; 7932.600;  196.875;    0.000
1032.843; 8036.600;  212.875;    0.000
1032.999; 7572.600;  243.875;    0.000
1033.155; 7627.600;  234.875;    0.000
1033.312; 7263.600;  246.875;    0.000
1033.468; 8306.600;  233.875;    0.000
1033.624; 9158.600;  237.875;    0.000
1033.780; 9636.600;  263.875;    0.000
1033.937; 9939.600;  214.875;    0.000
1034.093; 9019.600;  230.875;    0.000
1034.249; 9419.600;  206.875;    0.000
1034.405; 9095.600;  238.875;    0.000
1034.561; 9974.600;  231.875;    0.000
1034.717;10363.600;  228.875;    0.000
1034.873;10463.600;  262.875;    0.000
1035.029;10599.600;  252.875;    0.000
1035.185; 9999.600;  232.875;    0.000
1035.341; 9443.600;  245.875;    0.000
1035.497;10323.600;  253.875;    0.000
1035.653;10581.600;  252.875;    0.000
1035.809;11485.600;  245.875;    0.000
1035.964;12589.600;  229.875;    0.000
1036.120;11435.600;  226.875;    0.000
1036.276;12013.600;  236.875;    0.000
1036.432;11476.600;  203.875;    0.000
1036.587;10572.600;  228.875;    0.000
1036.743;11200.600;  240.875;    0.000
1036.899;12281.600;  220.875;    0.000
1037.054;12286.600;  153.875;    0.000
1037.210;13804.600;  219.875;    0.000
1037.365;14014.600;  229.875;    0.000
1037.521;12834.600;  257.875;    0.000
1037.676;12740.600;  211.875;    0.000
1037.832;11643.600;  234.875;    0.000
1037.987;11738.600;  235.875;    0.000
1038.143;11711.600;  176.875;    0.000
1038.298;14055.600;  262.875;    0.000
1038.453;14014.600;  209.875;    0.000
1038.609;15103.600;  230.875;    0.000
1038.764;15935.600;  253.875;    0.000
1038.919;14263.600;  195.875;    0.000
1039.074;13777.600;  234.875;    0.000
1039.229;13157.600;  234.875;    0.000
1039.385;12769.600;  266.875;    0.000
1039.540;13457.600;  252.875;    0.000
1039.695;14775.600;  231.875;    0.000
1039.850;16310.600;  208.875;    0.000
1040.005;16908.600;  232.875;    0.000
1040.160;18286.600;  214.875;    0.000
1040.315;17070.600;  221.875;    0.000
1040.470;16337.600;  207.875;    0.000
1040.625;15651.600;  249.875;    0.000
1040.780;15440.600;  251.875;    0.000
1040.935;15035.600;  254.875;    0.000
1041.089;15595.600;  210.875;    0.000
1041.244;18350.600;  225.875;    0.000
1041.399;18391.600;  208.875;    0.000
1041.554;19520.600;  249.875;    0.000
1041.708;22859.600;  254.875;    0.000
1041.863;22127.600;  248.875;    0.000
1042.018;20543.600;  280.875;    0.000
1042.172;20283.600;  233.875;    0.000
1042.327;18750.600;  256.875;    0.000
1042.481;18941.600;  210.875;    0.000
1042.636;19129.600;  229.875;    0.000
1042.791;19085.600;  215.875;    0.000
1042.945;22439.600;  256.875;    0.000
1043.099;25317.600;  251.875;    0.000
1043.254;25848.600;  204.875;    0.000
1043.408;26026.600;  278.875;    0.000
1043.563;27442.600;  211.875;    0.000
1043.717;26443.600;  259.875;    0.000
1043.871;24614.600;  233.875;    0.000
1044.025;23602.600;  221.875;    0.000
1044.180;23181.600;  208.875;    0.000
1044.334;24149.600;  255.875;    0.000
1044.488;24707.600;  269.875;    0.000
1044.642;26493.600;  228.875;    0.000
1044.796;28755.600;  232.875;    0.000
1044.950;32260.600;  249.875;    0.000
1045.104;35814.602;  205.875;    0.000
1045.258;36763.602;  206.875;    0.000
1045.412;34776.602;  251.875;    0.000
1045.566;33711.602;  249.875;    0.000
1045.720;31542.600;  206.875;    0.000
1045.874;29857.600;  232.875;    0.000
1046.028;28317.600;  266.875;    0.000
1046.182;28232.600;  217.875;    0.000
1046.336;28205.600;  216.875;    0.000
1046.489;28915.600;  236.875;    0.000
1046.643;31142.600;  253.875;    0.000
1046.797;34934.602;  244.875;    0.000
1046.951;36272.602;  234.875;    0.000
1047.104;35184.602;  281.875;    0.000
1047.258;36955.602;  253.875;    0.000
1047.411;40503.602;  228.875;    0.000
1047.565;39093.602;  273.875;    0.000
1047.719;37852.602;  232.875;    0.000
1047.872;36030.602;  230.875;    0.000
1048.026;34379.602;  282.875;    0.000
1048.179;33845.602;  225.875;    0.000
1048.332;34084.602;  234.875;    0.000
1048.486;33232.602;  223.875;    0.000
1048.639;34319.602;  248.875;    0.000
1048.792;33951.602;  244.875;    0.000
1048.946;37054.602;  210.875;    0.000
1049.099;41502.602;  242.875;    0.000
1049.252;43574.602;  269.875;    0.000
1049.406;39913.602;  285.875;    0.000
1049.559;40013.602;  277.875;    0.000
1049.712;44271.602;  254.875;    0.000
1049.865;49141.602;  252.875;    0.000
1050.018;48189.602;  270.875;    0.000
1050.171;41996.602;  230.875;    0.000
1050.324;39456.602;  268.875;    0.000
1050.477;40345.602;  262.875;    0.000
1050.630;43234.602;  243.875;    0.000
1050.783;46588.602;  216.875;    0.000
1050.936;43650.602;  250.875;    0.000
1051.089;41076.602;  247.875;    0.000
1051.242;42514.602;  300.875;    0.000
1051.394;48253.602;  233.875;    0.000
1051.547;51566.602;  263.875;    0.000
1051.700;47845.602;  238.875;    0.000
1051.853;45104.602;  299.875;    0.000
1052.005;47845.602;  275.875;    0.000
1052.158;52940.602;  304.875;    0.000
1052.311;59989.602;  251.875;    0.000
1052.463;58478.602;  276.875;    0.000
1052.616;52254.602;  271.875;    0.000
1052.768;46748.602;  285.875;    0.000
1052.921;42188.602;  261.875;    0.000
1053.073;46878.602;  333.875;    0.000
1053.226;54955.602;  271.875;    0.000
1053.378;61299.602;  309.875;    0.000
1053.531;64348.602;  266.875;    0.000
1053.683;62586.602;  278.875;    0.000
1053.835;54999.602;  274.875;    0.000
1053.988;40913.602;  287.875;    0.000
1054.140; 7459.600;  350.875;    0.000
1054.292; 1764.600;  338.875;    0.000
1054.444; 1373.600;  270.875;    0.000
1054.596; 1293.600;  294.875;    0.000
1054.749; 1124.600;  285.875;    0.000
1054.901; 1057.600;  254.875;    0.000
1055.053; 1040.600;  320.875;    0.000
1055.205;  994.600;  284.875;    0.000
1055.357;  924.600;  298.875;    0.000
1055.509;  874.600;  304.875;    0.000
1055.661;  858.600;  350.875;    0.000
1055.813;  804.600;  289.875;    0.000
1055.965;  833.600;  277.875;    0.000
1056.116;  774.600;  288.875;    0.000
1056.268;  769.600;  311.875;    0.000
1056.420;  843.600;  308.875;    0.000

