
Integration time [ms]:   0.300
Averaging Nr. [scans]: 1
Smoothing Nr. [pixels]: 0
Data measured with spectrometer [name]: UV2
Wave   ;Sample   ;Dark     ;Reference
[nm]   ;[counts] ;[counts] ;[counts] 

353.533;  225.150;  235.675;    0.000
353.597;  240.150;  239.675;    0.000
353.660;  215.150;  203.675;    0.000
353.723;  204.150;  225.675;    0.000
353.786;  172.150;  178.675;    0.000
353.850;  232.150;  199.675;    0.000
353.913;  174.150;  179.675;    0.000
353.976;  223.150;  209.675;    0.000
354.039;  156.150;  188.675;    0.000
354.102;  200.150;  219.675;    0.000
354.166;  190.150;  237.675;    0.000
354.229;  199.150;  179.675;    0.000
354.292;  201.150;  210.675;    0.000
354.355;  188.150;  214.675;    0.000
354.418;  182.150;  173.675;    0.000
354.481;  213.150;  170.675;    0.000
354.545;  587.150;  229.675;    0.000
354.608;  642.150;  233.675;    0.000
354.671;  530.150;  183.675;    0.000
354.734;  597.150;  208.675;    0.000
354.797;  584.150;  263.675;    0.000
354.860;  599.150;  208.675;    0.000
354.923;  649.150;  202.675;    0.000
354.986;  595.150;  207.675;    0.000
355.050;  632.150;  180.675;    0.000
355.113;  638.150;  189.675;    0.000
355.176;  655.150;  214.675;    0.000
355.239;  688.150;  199.675;    0.000
355.302;  633.150;  229.675;    0.000
355.365;  648.150;  220.675;    0.000
355.428;  683.150;  196.675;    0.000
355.491;  713.150;  243.675;    0.000
355.554;  722.150;  191.675;    0.000
355.617;  680.150;  200.675;    0.000
355.680;  698.150;  190.675;    0.000
355.743;  689.150;  236.675;    0.000
355.806;  710.150;  193.675;    0.000
355.869;  771.150;  223.675;    0.000
355.932;  720.150;  208.675;    0.000
355.995;  747.150;  231.675;    0.000
356.058;  760.150;  202.675;    0.000
356.121;  721.150;  198.675;    0.000
356.184;  773.150;  209.675;    0.000
356.247;  746.150;  224.675;    0.000
356.310;  675.150;  149.675;    0.000
356.373;  788.150;  211.675;    0.000
356.436;  768.150;  195.675;    0.000
356.498;  760.150;  176.675;    0.000
356.561;  719.150;  186.675;    0.000
356.624;  727.150;  184.675;    0.000
356.687;  708.150;  179.675;    0.000
356.750;  824.150;  213.675;    0.000
356.813;  760.150;  172.675;    0.000
356.876;  787.150;  189.675;    0.000
356.939;  741.150;  204.675;    0.000
357.001;  872.150;  195.675;    0.000
357.064;  732.150;  202.675;    0.000
357.127;  804.150;  176.675;    0.000
357.190;  745.150;  186.675;    0.000
357.253;  818.150;  178.675;    0.000
357.316;  858.150;  187.675;    0.000
357.378;  782.150;  181.675;    0.000
357.441;  832.150;  142.675;    0.000
357.504;  802.150;  161.675;    0.000
357.567;  797.150;  113.675;    0.000
357.629;  785.150;  193.675;    0.000
357.692;  813.150;  144.675;    0.000
357.755;  794.150;  177.675;    0.000
357.818;  777.150;  144.675;    0.000
357.880;  840.150;  182.675;    0.000
357.943;  764.150;  166.675;    0.000
358.006;  812.150;  184.675;    0.000
358.069;  775.150;  200.675;    0.000
358.131;  788.150;  148.675;    0.000
358.194;  792.150;  155.675;    0.000
358.257;  804.150;  173.675;    0.000
358.319;  786.150;  178.675;    0.000
358.382;  883.150;  184.675;    0.000
358.445;  864.150;  156.675;    0.000
358.507;  854.150;  199.675;    0.000
358.570;  854.150;  182.675;    0.000
358.633;  797.150;  167.675;    0.000
358.695;  793.150;  124.675;    0.000
358.758;  816.150;  164.675;    0.000
358.821;  853.150;  147.675;    0.000
358.883;  843.150;  153.675;    0.000
358.946;  836.150;  171.675;    0.000
359.008;  858.150;  196.675;    0.000
359.071;  816.150;  178.675;    0.000
359.134;  816.150;  123.675;    0.000
359.196;  835.150;  166.675;    0.000
359.259;  866.150;  173.675;    0.000
359.321;  853.150;  164.675;    0.000
359.384;  894.150;  155.675;    0.000
359.446;  832.150;  157.675;    0.000
359.509;  847.150;  153.675;    0.000
359.571;  879.150;  184.675;    0.000
359.634;  848.150;  138.675;    0.000
359.696;  837.150;  169.675;    0.000
359.759;  888.150;  152.675;    0.000
359.821;  835.150;  150.675;    0.000
359.884;  863.150;  166.675;    0.000
359.946;  862.150;  165.675;    0.000
360.009;  862.150;  176.675;    0.000
360.071;  856.150;  148.675;    0.000
360.134;  925.150;  193.675;    0.000
360.196;  827.150;  151.675;    0.000
360.259;  897.150;  182.675;    0.000
360.321;  907.150;  168.675;    0.000
360.384;  852.150;  176.675;    0.000
360.446;  868.150;  156.675;    0.000
360.508;  899.150;  183.675;    0.000
360.571;  902.150;  193.675;    0.000
360.633;  881.150;  184.675;    0.000
360.696;  866.150;  136.675;    0.000
360.758;  866.150;  186.675;    0.000
360.820;  933.150;  127.675;    0.000
360.883;  865.150;  146.675;    0.000
360.945;  926.150;  144.675;    0.000
361.007;  887.150;  160.675;    0.000
361.070;  861.150;  175.675;    0.000
361.132;  876.150;  195.675;    0.000
361.194;  856.150;  167.675;    0.000
361.257;  897.150;  140.675;    0.000
361.319;  853.150;  154.675;    0.000
361.381;  898.150;  181.675;    0.000
361.443;  852.150;  137.675;    0.000
361.506;  960.150;  159.675;    0.000
361.568;  926.150;  144.675;    0.000
361.630;  890.150;  189.675;    0.000
361.693;  905.150;  162.675;    0.000
361.755;  952.150;  156.675;    0.000
361.817;  954.150;  225.675;    0.000
361.879;  947.150;  172.675;    0.000
361.941;  873.150;  138.675;    0.000
362.004;  926.150;  163.675;    0.000
362.066;  950.150;  164.675;    0.000
362.128;  939.150;  160.675;    0.000
362.190;  983.150;  168.675;    0.000
362.252;  956.150;  177.675;    0.000
362.315;  899.150;  169.675;    0.000
362.377;  909.150;  188.675;    0.000
362.439;  967.150;  158.675;    0.000
362.501;  953.150;  168.675;    0.000
362.563;  908.150;  168.675;    0.000
362.625;  951.150;  188.675;    0.000
362.688;  982.150;  162.675;    0.000
362.750; 1033.150;  209.675;    0.000
362.812;  934.150;  154.675;    0.000
362.874;  934.150;  190.675;    0.000
362.936;  983.150;  190.675;    0.000
362.998;  945.150;  143.675;    0.000
363.060;  982.150;  186.675;    0.000
363.122; 1013.150;  167.675;    0.000
363.184;  987.150;  163.675;    0.000
363.246;  989.150;  169.675;    0.000
363.308;  934.150;  165.675;    0.000
363.370;  967.150;  177.675;    0.000
363.432;  910.150;  139.675;    0.000
363.494;  977.150;  177.675;    0.000
363.556;  926.150;  164.675;    0.000
363.618;  965.150;  170.675;    0.000
363.680;  943.150;  146.675;    0.000
363.742; 1017.150;  179.675;    0.000
363.804; 1048.150;  188.675;    0.000
363.866; 1053.150;  186.675;    0.000
363.928;  978.150;  147.675;    0.000
363.990; 1003.150;  185.675;    0.000
364.052; 1012.150;  197.675;    0.000
364.114;  962.150;  150.675;    0.000
364.176; 1014.150;  217.675;    0.000
364.238;  991.150;  159.675;    0.000
364.300;  941.150;  192.675;    0.000
364.362;  964.150;  130.675;    0.000
364.424;  951.150;  131.675;    0.000
364.486; 1033.150;  178.675;    0.000
364.548; 1025.150;  203.675;    0.000
364.609;  988.150;  192.675;    0.000
364.671;  952.150;  169.675;    0.000
364.733;  951.150;  169.675;    0.000
364.795;  980.150;  157.675;    0.000
364.857;  964.150;  171.675;    0.000
364.919; 1002.150;  134.675;    0.000
364.981;  988.150;  162.675;    0.000
365.042; 1033.150;  136.675;    0.000
365.104; 1052.150;  152.675;    0.000
365.166;  974.150;  149.675;    0.000
365.228;  969.150;  195.675;    0.000
365.290; 1036.150;  147.675;    0.000
365.351; 1012.150;  138.675;    0.000
365.413;  918.150;  168.675;    0.000
365.475; 1015.150;  150.675;    0.000
365.537;  986.150;  179.675;    0.000
365.598; 1020.150;  177.675;    0.000
365.660;  952.150;  149.675;    0.000
365.722;  961.150;  160.675;    0.000
365.784; 1055.150;  175.675;    0.000
365.845; 1051.150;  149.675;    0.000
365.907;  926.150;  154.675;    0.000
365.969; 1080.150;  128.675;    0.000
366.030; 1038.150;  176.675;    0.000
366.092; 1041.150;  181.675;    0.000
366.154; 1051.150;  194.675;    0.000
366.215; 1039.150;  149.675;    0.000
366.277; 1066.150;  144.675;    0.000
366.339; 1027.150;  160.675;    0.000
366.400;  954.150;  144.675;    0.000
366.462; 1009.150;  145.675;    0.000
366.524; 1001.150;  148.675;    0.000
366.585;  971.150;  128.675;    0.000
366.647;  995.150;  156.675;    0.000
366.708; 1009.150;  128.675;    0.000
366.770; 1092.150;  188.675;    0.000
366.832; 1064.150;  170.675;    0.000
366.893;  965.150;  158.675;    0.000
366.955; 1069.150;  150.675;    0.000
367.016; 1004.150;  160.675;    0.000
367.078; 1048.150;  144.675;    0.000
367.139; 1000.150;  109.675;    0.000
367.201; 1028.150;  155.675;    0.000
367.262; 1072.150;  165.675;    0.000
367.324; 1044.150;  180.675;    0.000
367.385; 1042.150;  150.675;    0.000
367.447; 1060.150;  164.675;    0.000
367.508; 1028.150;  137.675;    0.000
367.570; 1006.150;  174.675;    0.000
367.631; 1012.150;  126.675;    0.000
367.693;  947.150;  153.675;    0.000
367.754;  978.150;  194.675;    0.000
367.816; 1024.150;  154.675;    0.000
367.877; 1029.150;  183.675;    0.000
367.939; 1090.150;  179.675;    0.000
368.000; 1061.150;  142.675;    0.000
368.062; 1031.150;  147.675;    0.000
368.123; 1000.150;  155.675;    0.000
368.184; 1088.150;  169.675;    0.000
368.246; 1051.150;  145.675;    0.000
368.307; 1054.150;  165.675;    0.000
368.369; 1015.150;  177.675;    0.000
368.430;  998.150;  161.675;    0.000
368.491; 1038.150;  156.675;    0.000
368.553; 1087.150;  156.675;    0.000
368.614; 1031.150;  186.675;    0.000
368.675; 1007.150;  154.675;    0.000
368.737; 1085.150;  162.675;    0.000
368.798; 1083.150;  202.675;    0.000
368.859; 1055.150;  162.675;    0.000
368.921; 1015.150;  171.675;    0.000
368.982; 1135.150;  193.675;    0.000
369.043; 1016.150;  207.675;    0.000
369.104; 1039.150;  143.675;    0.000
369.166; 1063.150;  203.675;    0.000
369.227; 1077.150;  125.675;    0.000
369.288; 1015.150;  154.675;    0.000
369.349; 1086.150;  187.675;    0.000
369.411; 1025.150;  191.675;    0.000
369.472; 1081.150;  175.675;    0.000
369.533; 1090.150;  180.675;    0.000
369.594; 1099.150;  161.675;    0.000
369.656; 1105.150;  169.675;    0.000
369.717; 1024.150;  103.675;    0.000
369.778; 1082.150;  159.675;    0.000
369.839; 1083.150;  146.675;    0.000
369.900; 1107.150;  218.675;    0.000
369.961; 1018.150;  200.675;    0.000
370.023; 1122.150;  177.675;    0.000
370.084; 1105.150;  149.675;    0.000
370.145; 1055.150;  179.675;    0.000
370.206; 1119.150;  179.675;    0.000
370.267; 1069.150;  166.675;    0.000
370.328; 1051.150;  164.675;    0.000
370.389; 1096.150;  162.675;    0.000
370.451; 1127.150;  179.675;    0.000
370.512; 1103.150;  181.675;    0.000
370.573; 1054.150;  173.675;    0.000
370.634; 1135.150;  162.675;    0.000
370.695; 1066.150;  167.675;    0.000
370.756; 1135.150;  177.675;    0.000
370.817; 1125.150;  178.675;    0.000
370.878; 1127.150;  152.675;    0.000
370.939; 1089.150;  185.675;    0.000
371.000; 1091.150;  173.675;    0.000
371.061; 1093.150;  176.675;    0.000
371.122; 1146.150;  169.675;    0.000
371.183; 1033.150;  116.675;    0.000
371.244; 1112.150;  174.675;    0.000
371.305; 1111.150;  152.675;    0.000
371.366; 1094.150;  168.675;    0.000
371.427; 1125.150;  188.675;    0.000
371.488; 1078.150;  180.675;    0.000
371.549; 1106.150;  145.675;    0.000
371.610; 1131.150;  160.675;    0.000
371.671; 1095.150;  164.675;    0.000
371.732; 1072.150;  158.675;    0.000
371.793; 1101.150;  162.675;    0.000
371.853; 1067.150;  130.675;    0.000
371.914; 1149.150;  172.675;    0.000
371.975; 1115.150;   98.675;    0.000
372.036; 1114.150;  161.675;    0.000
372.097; 1094.150;  143.675;    0.000
372.158; 1069.150;  175.675;    0.000
372.219; 1106.150;  196.675;    0.000
372.280; 1109.150;  175.675;    0.000
372.340; 1057.150;  160.675;    0.000
372.401; 1129.150;  163.675;    0.000
372.462; 1116.150;  147.675;    0.000
372.523; 1137.150;  146.675;    0.000
372.584; 1002.150;  173.675;    0.000
372.645; 1106.150;  126.675;    0.000
372.705; 1084.150;  179.675;    0.000
372.766; 1146.150;  173.675;    0.000
372.827; 1158.150;  171.675;    0.000
372.888; 1171.150;  134.675;    0.000
372.948; 1149.150;  167.675;    0.000
373.009; 1098.150;  167.675;    0.000
373.070; 1129.150;  152.675;    0.000
373.131; 1113.150;  177.675;    0.000
373.191; 1219.150;  225.675;    0.000
373.252; 1174.150;  165.675;    0.000
373.313; 1173.150;  171.675;    0.000
373.373; 1138.150;  160.675;    0.000
373.434; 1108.150;  172.675;    0.000
373.495; 1085.150;  150.675;    0.000
373.555; 1155.150;  130.675;    0.000
373.616; 1072.150;  155.675;    0.000
373.677; 1107.150;  212.675;    0.000
373.737; 1152.150;  188.675;    0.000
373.798; 1106.150;  203.675;    0.000
373.859; 1171.150;  169.675;    0.000
373.919; 1208.150;  197.675;    0.000
373.980; 1189.150;  134.675;    0.000
374.041; 1226.150;  186.675;    0.000
374.101; 1119.150;  207.675;    0.000
374.162; 1127.150;  190.675;    0.000
374.222; 1120.150;  182.675;    0.000
374.283; 1168.150;  213.675;    0.000
374.343; 1119.150;  191.675;    0.000
374.404; 1149.150;  181.675;    0.000
374.465; 1211.150;  193.675;    0.000
374.525; 1142.150;  153.675;    0.000
374.586; 1172.150;  190.675;    0.000
374.646; 1183.150;  173.675;    0.000
374.707; 1218.150;  210.675;    0.000
374.767; 1149.150;  218.675;    0.000
374.828; 1175.150;  174.675;    0.000
374.888; 1198.150;  197.675;    0.000
374.949; 1211.150;  196.675;    0.000
375.009; 1133.150;  169.675;    0.000
375.070; 1180.150;  157.675;    0.000
375.130; 1245.150;  203.675;    0.000
375.190; 1223.150;  174.675;    0.000
375.251; 1183.150;  230.675;    0.000
375.311; 1148.150;  198.675;    0.000
375.372; 1222.150;  160.675;    0.000
375.432; 1212.150;  169.675;    0.000
375.493; 1165.150;  159.675;    0.000
375.553; 1197.150;  179.675;    0.000
375.613; 1224.150;  157.675;    0.000
375.674; 1227.150;  174.675;    0.000
375.734; 1222.150;  180.675;    0.000
375.794; 1192.150;  175.675;    0.000
375.855; 1250.150;  193.675;    0.000
375.915; 1158.150;  148.675;    0.000
375.975; 1191.150;  183.675;    0.000
376.036; 1183.150;  144.675;    0.000
376.096; 1138.150;  195.675;    0.000
376.156; 1175.150;  200.675;    0.000
376.217; 1227.150;  160.675;    0.000
376.277; 1157.150;  193.675;    0.000
376.337; 1201.150;  168.675;    0.000
376.398; 1197.150;  183.675;    0.000
376.458; 1149.150;  168.675;    0.000
376.518; 1185.150;  184.675;    0.000
376.578; 1256.150;  176.675;    0.000
376.639; 1154.150;  158.675;    0.000
376.699; 1194.150;  157.675;    0.000
376.759; 1184.150;  184.675;    0.000
376.819; 1218.150;  166.675;    0.000
376.880; 1216.150;  220.675;    0.000
376.940; 1287.150;  195.675;    0.000
377.000; 1157.150;  178.675;    0.000
377.060; 1188.150;  212.675;    0.000
377.120; 1143.150;  161.675;    0.000
377.180; 1198.150;  168.675;    0.000
377.241; 1215.150;  167.675;    0.000
377.301; 1240.150;  171.675;    0.000
377.361; 1190.150;  174.675;    0.000
377.421; 1255.150;  216.675;    0.000
377.481; 1191.150;  164.675;    0.000
377.541; 1235.150;  163.675;    0.000
377.601; 1244.150;  197.675;    0.000
377.661; 1193.150;  175.675;    0.000
377.722; 1293.150;  196.675;    0.000
377.782; 1215.150;  162.675;    0.000
377.842; 1267.150;  179.675;    0.000
377.902; 1274.150;  140.675;    0.000
377.962; 1260.150;  121.675;    0.000
378.022; 1268.150;  174.675;    0.000
378.082; 1283.150;  167.675;    0.000
378.142; 1259.150;  151.675;    0.000
378.202; 1261.150;  174.675;    0.000
378.262; 1304.150;  168.675;    0.000
378.322; 1284.150;  183.675;    0.000
378.382; 1223.150;  159.675;    0.000
378.442; 1267.150;  177.675;    0.000
378.502; 1256.150;  137.675;    0.000
378.562; 1252.150;  140.675;    0.000
378.622; 1296.150;  197.675;    0.000
378.682; 1255.150;  205.675;    0.000
378.742; 1275.150;  160.675;    0.000
378.802; 1276.150;  132.675;    0.000
378.862; 1310.150;  222.675;    0.000
378.921; 1300.150;  178.675;    0.000
378.981; 1377.150;  160.675;    0.000
379.041; 1365.150;  136.675;    0.000
379.101; 1356.150;  184.675;    0.000
379.161; 1305.150;  147.675;    0.000
379.221; 1360.150;  139.675;    0.000
379.281; 1300.150;  204.675;    0.000
379.341; 1380.150;  142.675;    0.000
379.401; 1350.150;  136.675;    0.000
379.460; 1328.150;  161.675;    0.000
379.520; 1342.150;  171.675;    0.000
379.580; 1424.150;  168.675;    0.000
379.640; 1316.150;  183.675;    0.000
379.700; 1369.150;  182.675;    0.000
379.759; 1360.150;  190.675;    0.000
379.819; 1371.150;  149.675;    0.000
379.879; 1352.150;  140.675;    0.000
379.939; 1416.150;  155.675;    0.000
379.999; 1392.150;  199.675;    0.000
380.058; 1296.150;  163.675;    0.000
380.118; 1419.150;  190.675;    0.000
380.178; 1394.150;  220.675;    0.000
380.237; 1352.150;  181.675;    0.000
380.297; 1358.150;  187.675;    0.000
380.357; 1340.150;  193.675;    0.000
380.417; 1427.150;  157.675;    0.000
380.476; 1431.150;  176.675;    0.000
380.536; 1418.150;  180.675;    0.000
380.596; 1347.150;  191.675;    0.000
380.655; 1470.150;  190.675;    0.000
380.715; 1481.150;  180.675;    0.000
380.775; 1439.150;  202.675;    0.000
380.834; 1429.150;  190.675;    0.000
380.894; 1493.150;  163.675;    0.000
380.954; 1383.150;  181.675;    0.000
381.013; 1452.150;  218.675;    0.000
381.073; 1403.150;  181.675;    0.000
381.132; 1432.150;  193.675;    0.000
381.192; 1430.150;  209.675;    0.000
381.252; 1475.150;  206.675;    0.000
381.311; 1416.150;  173.675;    0.000
381.371; 1451.150;  188.675;    0.000
381.430; 1512.150;  162.675;    0.000
381.490; 1461.150;  168.675;    0.000
381.549; 1487.150;  213.675;    0.000
381.609; 1534.150;  194.675;    0.000
381.668; 1421.150;  190.675;    0.000
381.728; 1508.150;  183.675;    0.000
381.787; 1482.150;  172.675;    0.000
381.847; 1565.150;  198.675;    0.000
381.906; 1623.150;  197.675;    0.000
381.966; 1554.150;  201.675;    0.000
382.025; 1536.150;  219.675;    0.000
382.085; 1587.150;  194.675;    0.000
382.144; 1624.150;  187.675;    0.000
382.204; 1607.150;  196.675;    0.000
382.263; 1591.150;  168.675;    0.000
382.323; 1666.150;  135.675;    0.000
382.382; 1661.150;  173.675;    0.000
382.441; 1640.150;  155.675;    0.000
382.501; 1657.150;  168.675;    0.000
382.560; 1707.150;  200.675;    0.000
382.619; 1719.150;  155.675;    0.000
382.679; 1798.150;  198.675;    0.000
382.738; 1864.150;  211.675;    0.000
382.798; 1934.150;  214.675;    0.000
382.857; 2031.150;  146.675;    0.000
382.916; 2285.150;  183.675;    0.000
382.976; 2311.150;  173.675;    0.000
383.035; 2168.150;  165.675;    0.000
383.094; 2227.150;  173.675;    0.000
383.154; 2463.150;  143.675;    0.000
383.213; 2696.150;  173.675;    0.000
383.272; 2715.150;  166.675;    0.000
383.331; 2278.150;  154.675;    0.000
383.391; 2139.150;  232.675;    0.000
383.450; 2133.150;  185.675;    0.000
383.509; 2116.150;  204.675;    0.000
383.568; 2187.150;  197.675;    0.000
383.628; 2301.150;  171.675;    0.000
383.687; 2381.150;  202.675;    0.000
383.746; 2600.150;  116.675;    0.000
383.805; 2852.150;  156.675;    0.000
383.864; 2901.150;  150.675;    0.000
383.924; 2480.150;  195.675;    0.000
383.983; 2116.150;  157.675;    0.000
384.042; 2008.150;  184.675;    0.000
384.101; 2002.150;  210.675;    0.000
384.160; 1826.150;  123.675;    0.000
384.219; 1834.150;  191.675;    0.000
384.279; 1762.150;  184.675;    0.000
384.338; 1664.150;  172.675;    0.000
384.397; 1641.150;  153.675;    0.000
384.456; 1667.150;  181.675;    0.000
384.515; 1687.150;  171.675;    0.000
384.574; 1659.150;  172.675;    0.000
384.633; 1678.150;  174.675;    0.000
384.692; 1660.150;  178.675;    0.000
384.751; 1593.150;  180.675;    0.000
384.810; 1613.150;  161.675;    0.000
384.869; 1643.150;  162.675;    0.000
384.929; 1611.150;  157.675;    0.000
384.988; 1618.150;  153.675;    0.000
385.047; 1640.150;  178.675;    0.000
385.106; 1586.150;  164.675;    0.000
385.165; 1631.150;  127.675;    0.000
385.224; 1559.150;  156.675;    0.000
385.283; 1591.150;  178.675;    0.000
385.342; 1534.150;  177.675;    0.000
385.401; 1625.150;  178.675;    0.000
385.459; 1645.150;  177.675;    0.000
385.518; 1625.150;  152.675;    0.000
385.577; 1523.150;  133.675;    0.000
385.636; 1605.150;  204.675;    0.000
385.695; 1564.150;  161.675;    0.000
385.754; 1582.150;  190.675;    0.000
385.813; 1572.150;  160.675;    0.000
385.872; 1537.150;  138.675;    0.000
385.931; 1602.150;  192.675;    0.000
385.990; 1596.150;  158.675;    0.000
386.049; 1657.150;  187.675;    0.000
386.107; 1596.150;  140.675;    0.000
386.166; 1560.150;  139.675;    0.000
386.225; 1585.150;  182.675;    0.000
386.284; 1524.150;  123.675;    0.000
386.343; 1672.150;  207.675;    0.000
386.402; 1550.150;  150.675;    0.000
386.460; 1594.150;  185.675;    0.000
386.519; 1580.150;  145.675;    0.000
386.578; 1610.150;  153.675;    0.000
386.637; 1562.150;  153.675;    0.000
386.696; 1573.150;  189.675;    0.000
386.754; 1485.150;  128.675;    0.000
386.813; 1584.150;  202.675;    0.000
386.872; 1557.150;  152.675;    0.000
386.931; 1615.150;  166.675;    0.000
386.989; 1558.150;  194.675;    0.000
387.048; 1662.150;  176.675;    0.000
387.107; 1614.150;  203.675;    0.000
387.165; 1550.150;  136.675;    0.000
387.224; 1575.150;  193.675;    0.000
387.283; 1459.150;  157.675;    0.000
387.342; 1599.150;  194.675;    0.000
387.400; 1561.150;  191.675;    0.000
387.459; 1575.150;  142.675;    0.000
387.517; 1539.150;  202.675;    0.000
387.576; 1555.150;  164.675;    0.000
387.635; 1635.150;  147.675;    0.000
387.693; 1616.150;  199.675;    0.000
387.752; 1509.150;  181.675;    0.000
387.811; 1571.150;  161.675;    0.000
387.869; 1571.150;  184.675;    0.000
387.928; 1555.150;  175.675;    0.000
387.986; 1602.150;  143.675;    0.000
388.045; 1580.150;  146.675;    0.000
388.103; 1565.150;  164.675;    0.000
388.162; 1535.150;  170.675;    0.000
388.221; 1497.150;  169.675;    0.000
388.279; 1609.150;  151.675;    0.000
388.338; 1640.150;  175.675;    0.000
388.396; 1570.150;  170.675;    0.000
388.455; 1547.150;  193.675;    0.000
388.513; 1470.150;  134.675;    0.000
388.572; 1566.150;  201.675;    0.000
388.630; 1566.150;  181.675;    0.000
388.689; 1565.150;  165.675;    0.000
388.747; 1563.150;  164.675;    0.000
388.806; 1491.150;  155.675;    0.000
388.864; 1569.150;  172.675;    0.000
388.922; 1567.150;  190.675;    0.000
388.981; 1500.150;  170.675;    0.000
389.039; 1573.150;  142.675;    0.000
389.098; 1623.150;  177.675;    0.000
389.156; 1600.150;  184.675;    0.000
389.214; 1545.150;  197.675;    0.000
389.273; 1558.150;  141.675;    0.000
389.331; 1596.150;  145.675;    0.000
389.390; 1529.150;  160.675;    0.000
389.448; 1606.150;  142.675;    0.000
389.506; 1630.150;  192.675;    0.000
389.565; 1615.150;  176.675;    0.000
389.623; 1556.150;  174.675;    0.000
389.681; 1648.150;  184.675;    0.000
389.740; 1577.150;  193.675;    0.000
389.798; 1537.150;  130.675;    0.000
389.856; 1599.150;  224.675;    0.000
389.914; 1630.150;  223.675;    0.000
389.973; 1564.150;  164.675;    0.000
390.031; 1598.150;  198.675;    0.000
390.089; 1602.150;  177.675;    0.000
390.147; 1555.150;  158.675;    0.000
390.206; 1591.150;  213.675;    0.000
390.264; 1600.150;  178.675;    0.000
390.322; 1583.150;  181.675;    0.000
390.380; 1539.150;  148.675;    0.000
390.439; 1547.150;  185.675;    0.000
390.497; 1659.150;  208.675;    0.000
390.555; 1518.150;  175.675;    0.000
390.613; 1559.150;  178.675;    0.000
390.671; 1579.150;  190.675;    0.000
390.729; 1531.150;  172.675;    0.000
390.788; 1537.150;  194.675;    0.000
390.846; 1617.150;  187.675;    0.000
390.904; 1625.150;  207.675;    0.000
390.962; 1625.150;  211.675;    0.000
391.020; 1597.150;  218.675;    0.000
391.078; 1646.150;  179.675;    0.000
391.136; 1600.150;  223.675;    0.000
391.194; 1612.150;  209.675;    0.000
391.253; 1570.150;  217.675;    0.000
391.311; 1630.150;  217.675;    0.000
391.369; 1691.150;  217.675;    0.000
391.427; 1712.150;  253.675;    0.000
391.485; 1686.150;  176.675;    0.000
391.543; 1673.150;  252.675;    0.000
391.601; 1619.150;  168.675;    0.000
391.659; 1599.150;  206.675;    0.000
391.717; 1648.150;  172.675;    0.000
391.775; 1627.150;  170.675;    0.000
391.833; 1646.150;  196.675;    0.000
391.891; 1639.150;  180.675;    0.000
391.949; 1627.150;  201.675;    0.000
392.007; 1626.150;  196.675;    0.000
392.065; 1585.150;  191.675;    0.000
392.123; 1585.150;  158.675;    0.000
392.180; 1669.150;  192.675;    0.000
392.238; 1647.150;  186.675;    0.000
392.296; 1627.150;  150.675;    0.000
392.354; 1644.150;  175.675;    0.000
392.412; 1618.150;  219.675;    0.000
392.470; 1666.150;  200.675;    0.000
392.528; 1651.150;  177.675;    0.000
392.586; 1641.150;  169.675;    0.000
392.644; 1624.150;  155.675;    0.000
392.701; 1601.150;  215.675;    0.000
392.759; 1727.150;  218.675;    0.000
392.817; 1645.150;  178.675;    0.000
392.875; 1684.150;  190.675;    0.000
392.933; 1706.150;  197.675;    0.000
392.991; 1658.150;  179.675;    0.000
393.048; 1663.150;  205.675;    0.000
393.106; 1666.150;  229.675;    0.000
393.164; 1616.150;  167.675;    0.000
393.222; 1667.150;  156.675;    0.000
393.279; 1687.150;  203.675;    0.000
393.337; 1705.150;  216.675;    0.000
393.395; 1761.150;  180.675;    0.000
393.453; 1692.150;  163.675;    0.000
393.510; 1737.150;  194.675;    0.000
393.568; 1601.150;  207.675;    0.000
393.626; 1658.150;  200.675;    0.000
393.684; 1702.150;  234.675;    0.000
393.741; 1718.150;  197.675;    0.000
393.799; 1752.150;  201.675;    0.000
393.857; 1628.150;  185.675;    0.000
393.914; 1677.150;  200.675;    0.000
393.972; 1669.150;  181.675;    0.000
394.030; 1749.150;  188.675;    0.000
394.087; 1738.150;  202.675;    0.000
394.145; 1758.150;  214.675;    0.000
394.202; 1726.150;  204.675;    0.000
394.260; 1672.150;  178.675;    0.000
394.318; 1796.150;  208.675;    0.000
394.375; 1703.150;  183.675;    0.000
394.433; 1693.150;  175.675;    0.000
394.490; 1751.150;  170.675;    0.000
394.548; 1694.150;  161.675;    0.000
394.605; 1714.150;  196.675;    0.000
394.663; 1709.150;  191.675;    0.000
394.720; 1708.150;  179.675;    0.000
394.778; 1755.150;  193.675;    0.000
394.836; 1791.150;  160.675;    0.000
394.893; 1717.150;  152.675;    0.000
394.951; 1664.150;  179.675;    0.000
395.008; 1724.150;  185.675;    0.000
395.065; 1733.150;  154.675;    0.000
395.123; 1757.150;  176.675;    0.000
395.180; 1768.150;  202.675;    0.000
395.238; 1790.150;  135.675;    0.000
395.295; 1786.150;  178.675;    0.000
395.353; 1832.150;  181.675;    0.000
395.410; 1788.150;  160.675;    0.000
395.468; 1768.150;  179.675;    0.000
395.525; 1765.150;  187.675;    0.000
395.582; 1849.150;  221.675;    0.000
395.640; 1846.150;  220.675;    0.000
395.697; 1806.150;  174.675;    0.000
395.754; 1732.150;  177.675;    0.000
395.812; 1862.150;  193.675;    0.000
395.869; 1852.150;  220.675;    0.000
395.927; 1793.150;  206.675;    0.000
395.984; 1845.150;  213.675;    0.000
396.041; 1830.150;  194.675;    0.000
396.098; 1785.150;  144.675;    0.000
396.156; 1850.150;  168.675;    0.000
396.213; 1784.150;  181.675;    0.000
396.270; 1876.150;  186.675;    0.000
396.328; 1763.150;  165.675;    0.000
396.385; 1818.150;  192.675;    0.000
396.442; 1839.150;  196.675;    0.000
396.499; 1836.150;  162.675;    0.000
396.557; 1816.150;  177.675;    0.000
396.614; 1863.150;  184.675;    0.000
396.671; 1813.150;  180.675;    0.000
396.728; 1837.150;  194.675;    0.000
396.785; 1774.150;  173.675;    0.000
396.843; 1882.150;  154.675;    0.000
396.900; 1881.150;  200.675;    0.000
396.957; 1876.150;  158.675;    0.000
397.014; 1922.150;  203.675;    0.000
397.071; 1899.150;  178.675;    0.000
397.128; 1853.150;  201.675;    0.000
397.186; 1894.150;  200.675;    0.000
397.243; 1796.150;  187.675;    0.000
397.300; 1805.150;  173.675;    0.000
397.357; 1887.150;  189.675;    0.000
397.414; 1832.150;  202.675;    0.000
397.471; 1801.150;  156.675;    0.000
397.528; 1782.150;  197.675;    0.000
397.585; 1894.150;  174.675;    0.000
397.642; 1865.150;  202.675;    0.000
397.699; 1880.150;  197.675;    0.000
397.756; 1876.150;  188.675;    0.000
397.814; 1965.150;  210.675;    0.000
397.871; 1875.150;  203.675;    0.000
397.928; 1842.150;  189.675;    0.000
397.985; 1950.150;  192.675;    0.000
398.042; 1946.150;  198.675;    0.000
398.099; 1888.150;  181.675;    0.000
398.156; 1915.150;  201.675;    0.000
398.212; 1909.150;  216.675;    0.000
398.269; 1955.150;  206.675;    0.000
398.326; 1937.150;  213.675;    0.000
398.383; 1886.150;  168.675;    0.000
398.440; 1943.150;  184.675;    0.000
398.497; 1948.150;  194.675;    0.000
398.554; 1983.150;  219.675;    0.000
398.611; 2006.150;  190.675;    0.000
398.668; 1923.150;  138.675;    0.000
398.725; 1939.150;  170.675;    0.000
398.782; 2062.150;  223.675;    0.000
398.839; 1973.150;  211.675;    0.000
398.895; 1927.150;  173.675;    0.000
398.952; 1937.150;  207.675;    0.000
399.009; 1989.150;  173.675;    0.000
399.066; 2067.150;  171.675;    0.000
399.123; 2104.150;  189.675;    0.000
399.180; 2081.150;  170.675;    0.000
399.236; 2064.150;  193.675;    0.000
399.293; 2046.150;  222.675;    0.000
399.350; 2041.150;  195.675;    0.000
399.407; 2098.150;  214.675;    0.000
399.463; 2188.150;  181.675;    0.000
399.520; 2076.150;  168.675;    0.000
399.577; 2153.150;  231.675;    0.000
399.634; 2124.150;  215.675;    0.000
399.690; 2115.150;  177.675;    0.000
399.747; 2190.150;  212.675;    0.000
399.804; 2190.150;  208.675;    0.000
399.861; 2202.150;  225.675;    0.000
399.917; 2200.150;  191.675;    0.000
399.974; 2215.150;  182.675;    0.000
400.031; 2207.150;  218.675;    0.000
400.087; 2141.150;  202.675;    0.000
400.144; 2123.150;  192.675;    0.000
400.201; 2132.150;  187.675;    0.000
400.257; 2119.150;  193.675;    0.000
400.314; 2167.150;  185.675;    0.000
400.370; 2106.150;  201.675;    0.000
400.427; 2063.150;  208.675;    0.000
400.484; 2172.150;  201.675;    0.000
400.540; 2129.150;  204.675;    0.000
400.597; 2127.150;  210.675;    0.000
400.653; 2017.150;  224.675;    0.000
400.710; 2133.150;  196.675;    0.000
400.766; 2110.150;  224.675;    0.000
400.823; 2124.150;  210.675;    0.000
400.879; 2079.150;  213.675;    0.000
400.936; 2072.150;  182.675;    0.000
400.993; 2060.150;  184.675;    0.000
401.049; 1997.150;  216.675;    0.000
401.105; 2058.150;  235.675;    0.000
401.162; 2133.150;  196.675;    0.000
401.218; 2102.150;  221.675;    0.000
401.275; 2058.150;  216.675;    0.000
401.331; 2082.150;  198.675;    0.000
401.388; 2067.150;  205.675;    0.000
401.444; 1988.150;  154.675;    0.000
401.501; 2049.150;  208.675;    0.000
401.557; 2115.150;  162.675;    0.000
401.614; 2097.150;  157.675;    0.000
401.670; 2095.150;  198.675;    0.000
401.726; 2072.150;  195.675;    0.000
401.783; 2044.150;  186.675;    0.000
401.839; 2155.150;  205.675;    0.000
401.895; 2066.150;  202.675;    0.000
401.952; 2007.150;  143.675;    0.000
402.008; 2054.150;  177.675;    0.000
402.064; 2074.150;  177.675;    0.000
402.121; 2101.150;  194.675;    0.000
402.177; 2149.150;  181.675;    0.000
402.233; 2127.150;  205.675;    0.000
402.290; 2117.150;  190.675;    0.000
402.346; 2193.150;  190.675;    0.000
402.402; 2062.150;  151.675;    0.000
402.458; 2100.150;  194.675;    0.000
402.515; 2163.150;  212.675;    0.000
402.571; 2152.150;  209.675;    0.000
402.627; 2070.150;  199.675;    0.000
402.683; 2153.150;  213.675;    0.000
402.740; 2108.150;  165.675;    0.000
402.796; 2091.150;  168.675;    0.000
402.852; 2126.150;  200.675;    0.000
402.908; 2105.150;  193.675;    0.000
402.964; 2060.150;  166.675;    0.000
403.021; 2146.150;  196.675;    0.000
403.077; 2147.150;  212.675;    0.000
403.133; 2165.150;  186.675;    0.000
403.189; 2148.150;  206.675;    0.000
403.245; 2134.150;  207.675;    0.000
403.301; 2239.150;  204.675;    0.000
403.357; 2145.150;  246.675;    0.000
403.414; 2160.150;  227.675;    0.000
403.470; 2146.150;  207.675;    0.000
403.526; 2271.150;  171.675;    0.000
403.582; 2155.150;  200.675;    0.000
403.638; 2170.150;  213.675;    0.000
403.694; 2174.150;  239.675;    0.000
403.750; 2225.150;  221.675;    0.000
403.806; 2173.150;  197.675;    0.000
403.862; 2173.150;  222.675;    0.000
403.918; 2109.150;  174.675;    0.000
403.974; 2191.150;  183.675;    0.000
404.030; 2126.150;  184.675;    0.000
404.086; 2156.150;  170.675;    0.000
404.142; 2162.150;  215.675;    0.000
404.198; 2204.150;  189.675;    0.000
404.254; 2175.150;  195.675;    0.000
404.310; 2161.150;  206.675;    0.000
404.366; 2254.150;  179.675;    0.000
404.422; 2165.150;  197.675;    0.000
404.478; 2266.150;  176.675;    0.000
404.534; 2253.150;  165.675;    0.000
404.590; 2134.150;  203.675;    0.000
404.646; 2253.150;  195.675;    0.000
404.701; 2206.150;  180.675;    0.000
404.757; 2277.150;  218.675;    0.000
404.813; 2152.150;  160.675;    0.000
404.869; 2223.150;  213.675;    0.000
404.925; 2234.150;  171.675;    0.000
404.981; 2297.150;  194.675;    0.000
405.037; 2208.150;  211.675;    0.000
405.092; 2240.150;  158.675;    0.000
405.148; 2259.150;  140.675;    0.000
405.204; 2189.150;  161.675;    0.000
405.260; 2220.150;  161.675;    0.000
405.316; 2254.150;  155.675;    0.000
405.371; 2210.150;  151.675;    0.000
405.427; 2197.150;  186.675;    0.000
405.483; 2264.150;  206.675;    0.000
405.539; 2288.150;  162.675;    0.000
405.594; 2209.150;  205.675;    0.000
405.650; 2281.150;  153.675;    0.000
405.706; 2272.150;  185.675;    0.000
405.761; 2360.150;  205.675;    0.000
405.817; 2272.150;  185.675;    0.000
405.873; 2292.150;  160.675;    0.000
405.928; 2288.150;  182.675;    0.000
405.984; 2312.150;  206.675;    0.000
406.040; 2222.150;  200.675;    0.000
406.095; 2238.150;  138.675;    0.000
406.151; 2308.150;  178.675;    0.000
406.207; 2314.150;  225.675;    0.000
406.262; 2316.150;  161.675;    0.000
406.318; 2277.150;  186.675;    0.000
406.374; 2321.150;  173.675;    0.000
406.429; 2362.150;  197.675;    0.000
406.485; 2319.150;  260.675;    0.000
406.540; 2270.150;  184.675;    0.000
406.596; 2352.150;  193.675;    0.000
406.651; 2362.150;  176.675;    0.000
406.707; 2357.150;  158.675;    0.000
406.763; 2329.150;  174.675;    0.000
406.818; 2275.150;  188.675;    0.000
406.874; 2398.150;  176.675;    0.000
406.929; 2471.150;  220.675;    0.000
406.985; 2466.150;  167.675;    0.000
407.040; 2446.150;  191.675;    0.000
407.095; 2467.150;  190.675;    0.000
407.151; 2531.150;  196.675;    0.000
407.206; 2475.150;  184.675;    0.000
407.262; 2401.150;  167.675;    0.000
407.317; 2561.150;  199.675;    0.000
407.373; 2459.150;  211.675;    0.000
407.428; 2507.150;  202.675;    0.000
407.484; 2445.150;  172.675;    0.000
407.539; 2466.150;  171.675;    0.000
407.594; 2552.150;  219.675;    0.000
407.650; 2533.150;  179.675;    0.000
407.705; 2477.150;  141.675;    0.000
407.760; 2504.150;  182.675;    0.000
407.816; 2557.150;  203.675;    0.000
407.871; 2498.150;  219.675;    0.000
407.926; 2548.150;  197.675;    0.000
407.982; 2454.150;  176.675;    0.000
408.037; 2558.150;  187.675;    0.000
408.092; 2492.150;  161.675;    0.000
408.148; 2577.150;  185.675;    0.000
408.203; 2522.150;  196.675;    0.000
408.258; 2439.150;  188.675;    0.000
408.314; 2515.150;  225.675;    0.000
408.369; 2462.150;  172.675;    0.000
408.424; 2566.150;  204.675;    0.000
408.479; 2497.150;  182.675;    0.000
408.534; 2485.150;  220.675;    0.000
408.590; 2467.150;  196.675;    0.000
408.645; 2509.150;  170.675;    0.000
408.700; 2435.150;  204.675;    0.000
408.755; 2458.150;  219.675;    0.000
408.810; 2488.150;  174.675;    0.000
408.866; 2463.150;  212.675;    0.000
408.921; 2476.150;  233.675;    0.000
408.976; 2443.150;  198.675;    0.000
409.031; 2463.150;  179.675;    0.000
409.086; 2484.150;  181.675;    0.000
409.141; 2535.150;  192.675;    0.000
409.196; 2468.150;  172.675;    0.000
409.252; 2471.150;  199.675;    0.000
409.307; 2419.150;  159.675;    0.000
409.362; 2404.150;  158.675;    0.000
409.417; 2467.150;  164.675;    0.000
409.472; 2484.150;  186.675;    0.000
409.527; 2521.150;  215.675;    0.000
409.582; 2531.150;  227.675;    0.000
409.637; 2482.150;  211.675;    0.000
409.692; 2501.150;  224.675;    0.000
409.747; 2444.150;  147.675;    0.000
409.802; 2426.150;  203.675;    0.000
409.857; 2463.150;  203.675;    0.000
409.912; 2489.150;  219.675;    0.000
409.967; 2554.150;  200.675;    0.000
410.022; 2430.150;  199.675;    0.000
410.077; 2511.150;  171.675;    0.000
410.132; 2425.150;  193.675;    0.000
410.187; 2492.150;  167.675;    0.000
410.242; 2439.150;  188.675;    0.000
410.297; 2395.150;  195.675;    0.000
410.351; 2483.150;  225.675;    0.000
410.406; 2468.150;  188.675;    0.000
410.461; 2436.150;  197.675;    0.000
410.516; 2567.150;  212.675;    0.000
410.571; 2491.150;  173.675;    0.000
410.626; 2535.150;  180.675;    0.000
410.681; 2528.150;  198.675;    0.000
410.736; 2422.150;  190.675;    0.000
410.790; 2507.150;  204.675;    0.000
410.845; 2529.150;  214.675;    0.000
410.900; 2487.150;  184.675;    0.000
410.955; 2384.150;  231.675;    0.000
411.010; 2415.150;  211.675;    0.000
411.064; 2529.150;  204.675;    0.000
411.119; 2502.150;  219.675;    0.000
411.174; 2559.150;  208.675;    0.000
411.229; 2526.150;  207.675;    0.000
411.283; 2405.150;  199.675;    0.000
411.338; 2456.150;  198.675;    0.000
411.393; 2441.150;  155.675;    0.000
411.447; 2499.150;  200.675;    0.000
411.502; 2457.150;  229.675;    0.000
411.557; 2484.150;  197.675;    0.000
411.612; 2488.150;  171.675;    0.000
411.666; 2388.150;  201.675;    0.000
411.721; 2443.150;  174.675;    0.000
411.776; 2456.150;  222.675;    0.000
411.830; 2540.150;  150.675;    0.000
411.885; 2448.150;  169.675;    0.000
411.939; 2526.150;  216.675;    0.000
411.994; 2443.150;  215.675;    0.000
412.049; 2534.150;  219.675;    0.000
412.103; 2538.150;  225.675;    0.000
412.158; 2556.150;  216.675;    0.000
412.212; 2437.150;  218.675;    0.000
412.267; 2517.150;  219.675;    0.000
412.322; 2529.150;  235.675;    0.000
412.376; 2511.150;  208.675;    0.000
412.431; 2536.150;  232.675;    0.000
412.485; 2520.150;  223.675;    0.000
412.540; 2472.150;  217.675;    0.000
412.594; 2572.150;  195.675;    0.000
412.649; 2625.150;  236.675;    0.000
412.703; 2554.150;  216.675;    0.000
412.758; 2434.150;  201.675;    0.000
412.812; 2488.150;  176.675;    0.000
412.866; 2518.150;  179.675;    0.000
412.921; 2496.150;  196.675;    0.000
412.975; 2471.150;  238.675;    0.000
413.030; 2467.150;  272.675;    0.000
413.084; 2472.150;  208.675;    0.000
413.139; 2453.150;  201.675;    0.000
413.193; 2448.150;  198.675;    0.000
413.247; 2549.150;  213.675;    0.000
413.302; 2371.150;  202.675;    0.000
413.356; 2440.150;  184.675;    0.000
413.410; 2512.150;  202.675;    0.000
413.465; 2496.150;  145.675;    0.000
413.519; 2406.150;  200.675;    0.000
413.573; 2549.150;  197.675;    0.000
413.628; 2518.150;  224.675;    0.000
413.682; 2466.150;  211.675;    0.000
413.736; 2436.150;  202.675;    0.000
413.791; 2427.150;  228.675;    0.000
413.845; 2450.150;  184.675;    0.000
413.899; 2465.150;  226.675;    0.000
413.953; 2401.150;  213.675;    0.000
414.008; 2510.150;  175.675;    0.000
414.062; 2403.150;  216.675;    0.000
414.116; 2421.150;  206.675;    0.000
414.170; 2444.150;  229.675;    0.000
414.225; 2390.150;  196.675;    0.000
414.279; 2479.150;  199.675;    0.000
414.333; 2477.150;  220.675;    0.000
414.387; 2492.150;  217.675;    0.000
414.441; 2394.150;  206.675;    0.000
414.496; 2549.150;  264.675;    0.000
414.550; 2367.150;  217.675;    0.000
414.604; 2394.150;  224.675;    0.000
414.658; 2504.150;  156.675;    0.000
414.712; 2469.150;  203.675;    0.000
414.766; 2454.150;  216.675;    0.000
414.820; 2401.150;  218.675;    0.000
414.874; 2471.150;  240.675;    0.000
414.928; 2530.150;  204.675;    0.000
414.982; 2402.150;  195.675;    0.000
415.037; 2491.150;  212.675;    0.000
415.091; 2490.150;  211.675;    0.000
415.145; 2449.150;  230.675;    0.000
415.199; 2455.150;  208.675;    0.000
415.253; 2433.150;  213.675;    0.000
415.307; 2499.150;  208.675;    0.000
415.361; 2453.150;  193.675;    0.000
415.415; 2486.150;  207.675;    0.000
415.469; 2513.150;  214.675;    0.000
415.523; 2498.150;  226.675;    0.000
415.577; 2429.150;  194.675;    0.000
415.631; 2482.150;  258.675;    0.000
415.684; 2463.150;  239.675;    0.000
415.738; 2468.150;  191.675;    0.000
415.792; 2499.150;  185.675;    0.000
415.846; 2430.150;  239.675;    0.000
415.900; 2401.150;  209.675;    0.000
415.954; 2479.150;  215.675;    0.000
416.008; 2498.150;  229.675;    0.000
416.062; 2417.150;  200.675;    0.000
416.116; 2347.150;  195.675;    0.000
416.169; 2488.150;  238.675;    0.000
416.223; 2487.150;  271.675;    0.000
416.277; 2443.150;  232.675;    0.000
416.331; 2524.150;  226.675;    0.000
416.385; 2459.150;  207.675;    0.000
416.439; 2428.150;  221.675;    0.000
416.492; 2389.150;  269.675;    0.000
416.546; 2569.150;  254.675;    0.000
416.600; 2384.150;  225.675;    0.000
416.654; 2477.150;  269.675;    0.000
416.707; 2504.150;  232.675;    0.000
416.761; 2364.150;  226.675;    0.000
416.815; 2440.150;  219.675;    0.000
416.869; 2478.150;  234.675;    0.000
416.922; 2490.150;  230.675;    0.000
416.976; 2450.150;  216.675;    0.000
417.030; 2318.150;  271.675;    0.000
417.083; 2466.150;  229.675;    0.000
417.137; 2527.150;  249.675;    0.000
417.191; 2415.150;  241.675;    0.000
417.244; 2487.150;  230.675;    0.000
417.298; 2367.150;  215.675;    0.000
417.352; 2417.150;  188.675;    0.000
417.405; 2533.150;  248.675;    0.000
417.459; 2447.150;  256.675;    0.000
417.512; 2499.150;  263.675;    0.000
417.566; 2447.150;  227.675;    0.000
417.620; 2456.150;  270.675;    0.000
417.673; 2410.150;  216.675;    0.000
417.727; 2477.150;  234.675;    0.000
417.780; 2483.150;  215.675;    0.000
417.834; 2411.150;  203.675;    0.000
417.887; 2498.150;  257.675;    0.000
417.941; 2431.150;  216.675;    0.000
417.994; 2426.150;  245.675;    0.000
418.048; 2457.150;  209.675;    0.000
418.101; 2397.150;  207.675;    0.000
418.155; 2429.150;  204.675;    0.000
418.208; 2475.150;  270.675;    0.000
418.262; 2459.150;  228.675;    0.000
418.315; 2534.150;  254.675;    0.000
418.369; 2422.150;  245.675;    0.000
418.422; 2454.150;  224.675;    0.000
418.476; 2403.150;  221.675;    0.000
418.529; 2501.150;  234.675;    0.000
418.582; 2437.150;  249.675;    0.000
418.636; 2475.150;  224.675;    0.000
418.689; 2477.150;  228.675;    0.000
418.743; 2461.150;  240.675;    0.000
418.796; 2468.150;  197.675;    0.000
418.849; 2406.150;  220.675;    0.000
418.903; 2469.150;  246.675;    0.000
418.956; 2464.150;  250.675;    0.000
419.009; 2486.150;  276.675;    0.000
419.063; 2472.150;  232.675;    0.000
419.116; 2431.150;  228.675;    0.000
419.169; 2434.150;  249.675;    0.000
419.222; 2452.150;  215.675;    0.000
419.276; 2457.150;  228.675;    0.000
419.329; 2408.150;  246.675;    0.000
419.382; 2369.150;  188.675;    0.000
419.435; 2493.150;  240.675;    0.000
419.489; 2488.150;  261.675;    0.000
419.542; 2430.150;  224.675;    0.000
419.595; 2526.150;  251.675;    0.000
419.648; 2422.150;  236.675;    0.000
419.701; 2388.150;  244.675;    0.000
419.755; 2380.150;  242.675;    0.000
419.808; 2435.150;  242.675;    0.000
419.861; 2415.150;  189.675;    0.000
419.914; 2443.150;  258.675;    0.000
419.967; 2412.150;  230.675;    0.000
420.020; 2388.150;  223.675;    0.000
420.073; 2439.150;  221.675;    0.000
420.127; 2427.150;  252.675;    0.000
420.180; 2407.150;  219.675;    0.000
420.233; 2438.150;  201.675;    0.000
420.286; 2416.150;  221.675;    0.000
420.339; 2375.150;  250.675;    0.000
420.392; 2339.150;  268.675;    0.000
420.445; 2429.150;  223.675;    0.000
420.498; 2385.150;  240.675;    0.000
420.551; 2354.150;  220.675;    0.000
420.604; 2407.150;  231.675;    0.000
420.657; 2415.150;  228.675;    0.000
420.710; 2392.150;  219.675;    0.000
420.763; 2388.150;  280.675;    0.000
420.816; 2377.150;  202.675;    0.000
420.869; 2389.150;  219.675;    0.000
420.922; 2345.150;  218.675;    0.000
420.975; 2418.150;  237.675;    0.000
421.028; 2420.150;  242.675;    0.000
421.081; 2296.150;  247.675;    0.000
421.134; 2400.150;  239.675;    0.000
421.187; 2340.150;  229.675;    0.000
421.239; 2359.150;  200.675;    0.000
421.292; 2292.150;  205.675;    0.000
421.345; 2276.150;  219.675;    0.000
421.398; 2326.150;  187.675;    0.000
421.451; 2416.150;  226.675;    0.000
421.504; 2315.150;  206.675;    0.000
421.557; 2374.150;  226.675;    0.000
421.609; 2274.150;  209.675;    0.000
421.662; 2313.150;  229.675;    0.000
421.715; 2282.150;  231.675;    0.000
421.768; 2305.150;  215.675;    0.000
421.821; 2357.150;  211.675;    0.000
421.873; 2381.150;  220.675;    0.000
421.926; 2316.150;  212.675;    0.000
421.979; 2289.150;  209.675;    0.000
422.032; 2382.150;  203.675;    0.000
422.084; 2430.150;  213.675;    0.000
422.137; 2336.150;  196.675;    0.000
422.190; 2374.150;  246.675;    0.000
422.243; 2354.150;  194.675;    0.000
422.295; 2237.150;  225.675;    0.000
422.348; 2331.150;  248.675;    0.000
422.401; 2384.150;  252.675;    0.000
422.453; 2311.150;  249.675;    0.000
422.506; 2247.150;  233.675;    0.000
422.559; 2298.150;  228.675;    0.000
422.611; 2303.150;  224.675;    0.000
422.664; 2340.150;  226.675;    0.000
422.716; 2383.150;  226.675;    0.000
422.769; 2301.150;  216.675;    0.000
422.822; 2245.150;  256.675;    0.000
422.874; 2279.150;  206.675;    0.000
422.927; 2284.150;  257.675;    0.000
422.979; 2247.150;  209.675;    0.000
423.032; 2260.150;  244.675;    0.000
423.084; 2358.150;  244.675;    0.000
423.137; 2295.150;  213.675;    0.000
423.189; 2344.150;  208.675;    0.000
423.242; 2313.150;  226.675;    0.000
423.294; 2306.150;  250.675;    0.000
423.347; 2335.150;  206.675;    0.000
423.399; 2279.150;  268.675;    0.000
423.452; 2354.150;  262.675;    0.000
423.504; 2282.150;  237.675;    0.000
423.557; 2265.150;  245.675;    0.000
423.609; 2245.150;  211.675;    0.000
423.662; 2311.150;  222.675;    0.000
423.714; 2277.150;  219.675;    0.000
423.766; 2291.150;  250.675;    0.000
423.819; 2268.150;  220.675;    0.000
423.871; 2290.150;  229.675;    0.000
423.923; 2277.150;  219.675;    0.000
423.976; 2278.150;  221.675;    0.000
424.028; 2215.150;  211.675;    0.000
424.081; 2182.150;  254.675;    0.000
424.133; 2205.150;  230.675;    0.000
424.185; 2216.150;  241.675;    0.000
424.238; 2273.150;  182.675;    0.000
424.290; 2243.150;  215.675;    0.000
424.342; 2215.150;  235.675;    0.000
424.394; 2256.150;  225.675;    0.000
424.447; 2290.150;  264.675;    0.000
424.499; 2304.150;  225.675;    0.000
424.551; 2249.150;  237.675;    0.000
424.603; 2271.150;  219.675;    0.000
424.656; 2234.150;  240.675;    0.000
424.708; 2205.150;  266.675;    0.000
424.760; 2200.150;  230.675;    0.000
424.812; 2234.150;  284.675;    0.000
424.864; 2263.150;  189.675;    0.000
424.917; 2145.150;  226.675;    0.000
424.969; 2240.150;  253.675;    0.000
425.021; 2188.150;  233.675;    0.000
425.073; 2201.150;  246.675;    0.000
425.125; 2289.150;  238.675;    0.000
425.177; 2294.150;  253.675;    0.000
425.229; 2296.150;  254.675;    0.000
425.282; 2284.150;  252.675;    0.000
425.334; 2216.150;  261.675;    0.000
425.386; 2180.150;  227.675;    0.000
425.438; 2225.150;  246.675;    0.000
425.490; 2172.150;  249.675;    0.000
425.542; 2274.150;  236.675;    0.000
425.594; 2174.150;  236.675;    0.000
425.646; 2196.150;  237.675;    0.000
425.698; 2150.150;  271.675;    0.000
425.750; 2190.150;  240.675;    0.000
425.802; 2165.150;  238.675;    0.000
425.854; 2219.150;  256.675;    0.000
425.906; 2180.150;  230.675;    0.000
425.958; 2127.150;  231.675;    0.000
426.010; 2197.150;  268.675;    0.000
426.062; 2202.150;  227.675;    0.000
426.114; 2237.150;  234.675;    0.000
426.166; 2172.150;  239.675;    0.000
426.218; 2167.150;  255.675;    0.000
426.270; 2094.150;  196.675;    0.000
426.321; 2161.150;  231.675;    0.000
426.373; 2138.150;  199.675;    0.000
426.425; 2138.150;  245.675;    0.000
426.477; 2201.150;  259.675;    0.000
426.529; 2175.150;  274.675;    0.000
426.581; 2138.150;  221.675;    0.000
426.633; 2111.150;  231.675;    0.000
426.684; 2149.150;  248.675;    0.000
426.736; 2180.150;  237.675;    0.000
426.788; 2155.150;  191.675;    0.000
426.840; 2091.150;  180.675;    0.000
426.892; 2091.150;  259.675;    0.000
426.943; 2114.150;  256.675;    0.000
426.995; 2114.150;  212.675;    0.000
427.047; 2125.150;  233.675;    0.000
427.099; 2081.150;  222.675;    0.000
427.150; 2201.150;  203.675;    0.000
427.202; 2157.150;  218.675;    0.000
427.254; 2109.150;  198.675;    0.000
427.306; 2098.150;  248.675;    0.000
427.357; 2134.150;  239.675;    0.000
427.409; 2252.150;  193.675;    0.000
427.461; 2094.150;  215.675;    0.000
427.512; 2114.150;  251.675;    0.000
427.564; 2163.150;  210.675;    0.000
427.616; 2111.150;  251.675;    0.000
427.667; 2102.150;  246.675;    0.000
427.719; 2159.150;  227.675;    0.000
427.770; 2085.150;  247.675;    0.000
427.822; 2109.150;  261.675;    0.000
427.874; 2145.150;  231.675;    0.000
427.925; 2051.150;  231.675;    0.000
427.977; 2017.150;  243.675;    0.000
428.028; 2076.150;  249.675;    0.000
428.080; 2126.150;  224.675;    0.000
428.131; 2042.150;  247.675;    0.000
428.183; 2041.150;  213.675;    0.000
428.234; 2156.150;  213.675;    0.000
428.286; 2036.150;  224.675;    0.000
428.337; 2019.150;  212.675;    0.000
428.389; 2059.150;  231.675;    0.000
428.440; 2076.150;  248.675;    0.000
428.492; 2148.150;  242.675;    0.000
428.543; 2066.150;  220.675;    0.000
428.595; 2071.150;  212.675;    0.000
428.646; 2107.150;  231.675;    0.000
428.697; 2104.150;  232.675;    0.000
428.749; 2058.150;  231.675;    0.000
428.800; 2079.150;  270.675;    0.000
428.852; 2147.150;  266.675;    0.000
428.903; 1981.150;  215.675;    0.000
428.954; 2128.150;  200.675;    0.000
429.006; 2065.150;  247.675;    0.000
429.057; 2137.150;  247.675;    0.000
429.108; 2059.150;  193.675;    0.000
429.160; 2062.150;  249.675;    0.000
429.211; 2090.150;  228.675;    0.000
429.262; 2020.150;  243.675;    0.000
429.314; 2006.150;  227.675;    0.000
429.365; 2037.150;  242.675;    0.000
429.416; 2049.150;  240.675;    0.000
429.467; 2081.150;  222.675;    0.000
429.519; 2044.150;  233.675;    0.000
429.570; 2047.150;  223.675;    0.000
429.621; 2104.150;  257.675;    0.000
429.672; 1982.150;  220.675;    0.000
429.724; 2040.150;  203.675;    0.000
429.775; 2040.150;  242.675;    0.000
429.826; 2001.150;  195.675;    0.000
429.877; 1974.150;  248.675;    0.000
429.928; 1999.150;  226.675;    0.000
429.980; 2004.150;  189.675;    0.000
430.031; 2048.150;  223.675;    0.000
430.082; 2076.150;  217.675;    0.000
430.133; 2041.150;  210.675;    0.000
430.184; 1995.150;  271.675;    0.000
430.235; 2064.150;  190.675;    0.000
430.286; 2008.150;  233.675;    0.000
430.337; 1980.150;  232.675;    0.000
430.388; 1980.150;  221.675;    0.000
430.439; 2047.150;  221.675;    0.000
430.490; 2064.150;  229.675;    0.000
430.542; 2026.150;  196.675;    0.000
430.593; 1964.150;  214.675;    0.000
430.644; 2018.150;  224.675;    0.000
430.695; 1989.150;  216.675;    0.000
430.746; 2030.150;  228.675;    0.000
430.797; 2053.150;  190.675;    0.000
430.848; 2048.150;  231.675;    0.000
430.898; 1995.150;  232.675;    0.000
430.949; 2016.150;  224.675;    0.000
431.000; 2089.150;  236.675;    0.000
431.051; 2092.150;  251.675;    0.000
431.102; 1990.150;  205.675;    0.000
431.153; 2001.150;  212.675;    0.000
431.204; 1952.150;  200.675;    0.000
431.255; 1934.150;  220.675;    0.000
431.306; 2084.150;  223.675;    0.000
431.357; 1999.150;  240.675;    0.000
431.408; 2030.150;  232.675;    0.000
431.458; 1996.150;  204.675;    0.000
431.509; 2031.150;  196.675;    0.000
431.560; 1968.150;  243.675;    0.000
431.611; 1891.150;  222.675;    0.000
431.662; 2029.150;  246.675;    0.000
431.713; 2008.150;  188.675;    0.000
431.763; 1973.150;  226.675;    0.000
431.814; 1988.150;  239.675;    0.000
431.865; 2041.150;  245.675;    0.000
431.916; 2108.150;  173.675;    0.000
431.966; 1994.150;  220.675;    0.000
432.017; 2150.150;  247.675;    0.000
432.068; 2006.150;  241.675;    0.000
432.118; 2070.150;  220.675;    0.000
432.169; 2108.150;  244.675;    0.000
432.220; 2001.150;  246.675;    0.000
432.271; 2119.150;  203.675;    0.000
432.321; 1995.150;  244.675;    0.000
432.372; 2015.150;  254.675;    0.000
432.423; 2038.150;  224.675;    0.000
432.473; 2012.150;  211.675;    0.000
432.524; 1975.150;  227.675;    0.000
432.574; 1983.150;  228.675;    0.000
432.625; 1999.150;  223.675;    0.000
432.676; 2005.150;  220.675;    0.000
432.726; 2000.150;  257.675;    0.000
432.777; 1973.150;  257.675;    0.000
432.827; 1979.150;  240.675;    0.000
432.878; 2049.150;  219.675;    0.000
432.928; 1986.150;  234.675;    0.000
432.979; 1986.150;  226.675;    0.000
433.029; 2006.150;  216.675;    0.000
433.080; 1989.150;  232.675;    0.000
433.130; 1976.150;  257.675;    0.000
433.181; 2021.150;  243.675;    0.000
433.231; 2051.150;  239.675;    0.000
433.282; 2009.150;  232.675;    0.000
433.332; 1988.150;  256.675;    0.000
433.383; 2106.150;  268.675;    0.000
433.433; 2052.150;  291.675;    0.000
433.484; 2057.150;  263.675;    0.000
433.534; 2026.150;  248.675;    0.000
433.585; 2016.150;  244.675;    0.000
433.635; 1927.150;  242.675;    0.000
433.685; 2022.150;  243.675;    0.000
433.736; 2060.150;  283.675;    0.000
433.786; 2065.150;  264.675;    0.000
433.836; 2060.150;  282.675;    0.000
433.887; 1953.150;  265.675;    0.000
433.937; 2001.150;  255.675;    0.000
433.987; 1990.150;  245.675;    0.000
434.038; 2052.150;  276.675;    0.000
434.088; 2042.150;  249.675;    0.000
434.138; 1932.150;  260.675;    0.000
434.189; 2044.150;  241.675;    0.000
434.239; 2001.150;  232.675;    0.000
434.289; 2028.150;  272.675;    0.000
434.339; 1997.150;  288.675;    0.000
434.389; 2042.150;  258.675;    0.000
434.440; 1990.150;  244.675;    0.000
434.490; 2074.150;  288.675;    0.000
434.540; 2030.150;  252.675;    0.000
434.590; 2098.150;  256.675;    0.000
434.640; 1975.150;  259.675;    0.000
434.691; 2147.150;  220.675;    0.000
434.741; 2005.150;  238.675;    0.000
434.791; 2027.150;  276.675;    0.000
434.841; 2071.150;  256.675;    0.000
434.891; 2121.150;  297.675;    0.000
434.941; 2069.150;  290.675;    0.000
434.991; 1998.150;  261.675;    0.000
435.042; 2003.150;  300.675;    0.000
435.092; 2029.150;  248.675;    0.000
435.142; 1966.150;  246.675;    0.000
435.192; 2036.150;  201.675;    0.000
435.242; 2029.150;  234.675;    0.000
435.292; 1915.150;  266.675;    0.000
435.342; 1996.150;  250.675;    0.000
435.392; 2051.150;  279.675;    0.000
435.442; 1970.150;  242.675;    0.000
435.492; 2044.150;  265.675;    0.000
435.542; 1981.150;  243.675;    0.000
435.592; 2016.150;  243.675;    0.000
435.642; 1995.150;  241.675;    0.000
435.692; 2011.150;  263.675;    0.000
435.742; 2026.150;  264.675;    0.000
435.792; 1990.150;  291.675;    0.000
435.842; 2036.150;  257.675;    0.000
435.891; 1959.150;  224.675;    0.000
435.941; 1955.150;  243.675;    0.000
435.991; 1967.150;  300.675;    0.000
436.041; 1953.150;  197.675;    0.000
436.091; 1958.150;  238.675;    0.000
436.141; 1933.150;  222.675;    0.000
436.191; 1947.150;  249.675;    0.000
436.241; 1931.150;  208.675;    0.000
436.290; 2028.150;  282.675;    0.000
436.340; 1927.150;  233.675;    0.000
436.390; 1962.150;  223.675;    0.000
436.440; 1899.150;  252.675;    0.000
436.490; 1889.150;  254.675;    0.000
436.539; 1938.150;  271.675;    0.000
436.589; 1967.150;  248.675;    0.000
436.639; 1921.150;  235.675;    0.000
436.689; 1957.150;  238.675;    0.000
436.738; 1928.150;  267.675;    0.000
436.788; 1897.150;  239.675;    0.000
436.838; 1945.150;  244.675;    0.000
436.887; 1910.150;  265.675;    0.000
436.937; 1952.150;  261.675;    0.000
436.987; 1878.150;  235.675;    0.000
437.036; 2018.150;  267.675;    0.000
437.086; 1960.150;  258.675;    0.000
437.136; 1961.150;  250.675;    0.000
437.185; 1846.150;  214.675;    0.000
437.235; 1957.150;  257.675;    0.000
437.285; 1857.150;  259.675;    0.000
437.334; 1902.150;  241.675;    0.000
437.384; 1942.150;  231.675;    0.000
437.433; 1911.150;  239.675;    0.000
437.483; 1902.150;  260.675;    0.000
437.532; 1856.150;  277.675;    0.000
437.582; 1917.150;  268.675;    0.000
437.631; 1875.150;  239.675;    0.000
437.681; 1927.150;  251.675;    0.000
437.730; 1755.150;  246.675;    0.000
437.780; 1852.150;  226.675;    0.000
437.829; 1904.150;  256.675;    0.000
437.879; 1807.150;  239.675;    0.000
437.928; 1831.150;  253.675;    0.000
437.978; 1885.150;  245.675;    0.000
438.027; 1878.150;  277.675;    0.000
438.077; 1812.150;  248.675;    0.000
438.126; 1819.150;  201.675;    0.000
438.176; 1851.150;  220.675;    0.000
438.225; 1932.150;  250.675;    0.000
438.274; 1907.150;  234.675;    0.000
438.324; 1842.150;  276.675;    0.000
438.373; 1843.150;  226.675;    0.000
438.422; 1871.150;  228.675;    0.000
438.472; 1788.150;  225.675;    0.000
438.521; 1797.150;  227.675;    0.000
438.570; 1867.150;  242.675;    0.000
438.620; 1925.150;  277.675;    0.000
438.669; 1849.150;  256.675;    0.000
438.718; 1870.150;  248.675;    0.000
438.768; 1928.150;  225.675;    0.000
438.817; 1873.150;  229.675;    0.000
438.866; 1752.150;  218.675;    0.000
438.915; 1912.150;  256.675;    0.000
438.965; 1827.150;  242.675;    0.000
439.014; 1784.150;  260.675;    0.000
439.063; 1954.150;  238.675;    0.000
439.112; 1798.150;  209.675;    0.000
439.162; 1904.150;  258.675;    0.000
439.211; 1873.150;  275.675;    0.000
439.260; 1898.150;  238.675;    0.000
439.309; 1827.150;  237.675;    0.000
439.358; 1907.150;  252.675;    0.000
439.407; 1842.150;  239.675;    0.000
439.456; 1828.150;  211.675;    0.000
439.506; 1859.150;  261.675;    0.000
439.555; 1865.150;  274.675;    0.000
439.604; 1901.150;  262.675;    0.000
439.653; 1883.150;  245.675;    0.000
439.702; 1842.150;  247.675;    0.000
439.751; 1871.150;  228.675;    0.000
439.800; 1842.150;  253.675;    0.000
439.849; 1862.150;  219.675;    0.000
439.898; 1835.150;  246.675;    0.000
439.947; 1785.150;  229.675;    0.000
439.996; 1895.150;  274.675;    0.000
440.045; 1869.150;  224.675;    0.000
440.094; 1947.150;  225.675;    0.000
440.143; 1953.150;  277.675;    0.000
440.192; 1862.150;  252.675;    0.000
440.241; 1871.150;  253.675;    0.000
440.290; 1920.150;  242.675;    0.000
440.339; 1863.150;  220.675;    0.000
440.388; 1848.150;  244.675;    0.000
440.437; 1913.150;  268.675;    0.000
440.486; 1831.150;  242.675;    0.000
440.535; 1924.150;  269.675;    0.000
440.583; 1867.150;  258.675;    0.000
440.632; 1904.150;  286.675;    0.000
440.681; 1914.150;  238.675;    0.000
440.730; 1891.150;  271.675;    0.000
440.779; 1928.150;  226.675;    0.000
440.828; 1853.150;  213.675;    0.000
440.876; 1854.150;  207.675;    0.000
440.925; 1935.150;  247.675;    0.000
440.974; 1867.150;  229.675;    0.000
441.023; 1944.150;  227.675;    0.000
441.072; 1834.150;  222.675;    0.000
441.120; 1933.150;  273.675;    0.000
441.169; 1977.150;  263.675;    0.000
441.218; 1941.150;  264.675;    0.000
441.267; 1952.150;  287.675;    0.000
441.315; 1871.150;  251.675;    0.000
441.364; 1978.150;  252.675;    0.000
441.413; 1930.150;  227.675;    0.000
441.461; 2016.150;  198.675;    0.000
441.510; 2054.150;  273.675;    0.000
441.559; 2015.150;  245.675;    0.000
441.607; 1959.150;  218.675;    0.000
441.656; 1909.150;  261.675;    0.000
441.705; 2012.150;  259.675;    0.000
441.753; 1981.150;  272.675;    0.000
441.802; 1923.150;  246.675;    0.000
441.850; 1971.150;  255.675;    0.000
441.899; 1988.150;  236.675;    0.000
441.948; 1938.150;  267.675;    0.000
441.996; 1900.150;  246.675;    0.000
442.045; 1909.150;  279.675;    0.000
442.093; 1961.150;  251.675;    0.000
442.142; 1946.150;  274.675;    0.000
442.190; 2041.150;  279.675;    0.000
442.239; 1994.150;  295.675;    0.000
442.287; 2004.150;  229.675;    0.000
442.336; 1958.150;  265.675;    0.000
442.384; 2005.150;  219.675;    0.000
442.433; 1972.150;  287.675;    0.000
442.481; 1897.150;  271.675;    0.000
442.529; 1944.150;  262.675;    0.000
442.578; 2035.150;  282.675;    0.000
442.626; 1910.150;  245.675;    0.000
442.675; 2000.150;  283.675;    0.000
442.723; 1924.150;  247.675;    0.000
442.771; 1900.150;  221.675;    0.000
442.820; 1933.150;  253.675;    0.000
442.868; 1989.150;  204.675;    0.000
442.917; 1940.150;  263.675;    0.000
442.965; 1902.150;  255.675;    0.000
443.013; 1970.150;  282.675;    0.000
443.062; 2000.150;  258.675;    0.000
443.110; 1930.150;  268.675;    0.000
443.158; 1964.150;  247.675;    0.000
443.206; 1953.150;  243.675;    0.000
443.255; 2007.150;  271.675;    0.000
443.303; 1956.150;  279.675;    0.000
443.351; 2001.150;  264.675;    0.000
443.399; 1960.150;  245.675;    0.000
443.448; 1936.150;  259.675;    0.000
443.496; 1999.150;  281.675;    0.000
443.544; 1888.150;  213.675;    0.000
443.592; 2022.150;  290.675;    0.000
443.640; 2068.150;  270.675;    0.000
443.689; 1948.150;  229.675;    0.000
443.737; 1995.150;  254.675;    0.000
443.785; 1976.150;  234.675;    0.000
443.833; 2005.150;  287.675;    0.000
443.881; 1998.150;  229.675;    0.000
443.929; 2030.150;  260.675;    0.000
443.977; 1995.150;  265.675;    0.000
444.025; 2004.150;  257.675;    0.000
444.074; 2068.150;  245.675;    0.000
444.122; 2035.150;  282.675;    0.000
444.170; 1947.150;  240.675;    0.000
444.218; 2033.150;  270.675;    0.000
444.266; 1990.150;  254.675;    0.000
444.314; 2094.150;  264.675;    0.000
444.362; 2083.150;  287.675;    0.000
444.410; 2079.150;  236.675;    0.000
444.458; 1996.150;  273.675;    0.000
444.506; 2015.150;  235.675;    0.000
444.554; 1989.150;  242.675;    0.000
444.602; 2047.150;  283.675;    0.000
444.650; 2057.150;  266.675;    0.000
444.698; 2072.150;  248.675;    0.000
444.746; 2043.150;  247.675;    0.000
444.793; 2074.150;  211.675;    0.000
444.841; 2183.150;  259.675;    0.000
444.889; 2046.150;  253.675;    0.000
444.937; 2126.150;  248.675;    0.000
444.985; 2153.150;  233.675;    0.000
445.033; 1997.150;  245.675;    0.000
445.081; 2009.150;  243.675;    0.000
445.129; 2053.150;  238.675;    0.000
445.176; 1991.150;  204.675;    0.000
445.224; 2092.150;  262.675;    0.000
445.272; 2146.150;  256.675;    0.000
445.320; 2030.150;  235.675;    0.000
445.368; 2014.150;  251.675;    0.000
445.415; 2093.150;  250.675;    0.000
445.463; 2110.150;  225.675;    0.000
445.511; 2065.150;  226.675;    0.000
445.559; 1995.150;  251.675;    0.000
445.606; 2041.150;  213.675;    0.000
445.654; 2056.150;  261.675;    0.000
445.702; 2109.150;  222.675;    0.000
445.749; 2106.150;  257.675;    0.000
445.797; 2075.150;  263.675;    0.000
445.845; 2108.150;  218.675;    0.000
445.892; 2044.150;  228.675;    0.000
445.940; 2038.150;  249.675;    0.000
445.988; 2083.150;  276.675;    0.000
446.035; 2061.150;  229.675;    0.000
446.083; 2144.150;  255.675;    0.000
446.130; 1980.150;  200.675;    0.000
446.178; 2131.150;  256.675;    0.000
446.226; 2109.150;  238.675;    0.000
446.273; 2110.150;  250.675;    0.000
446.321; 2084.150;  233.675;    0.000
446.368; 2106.150;  244.675;    0.000
446.416; 2141.150;  214.675;    0.000
446.463; 2096.150;  225.675;    0.000
446.511; 2079.150;  253.675;    0.000
446.558; 2068.150;  246.675;    0.000
446.606; 2037.150;  238.675;    0.000
446.653; 2116.150;  215.675;    0.000
446.701; 2166.150;  248.675;    0.000
446.748; 2157.150;  258.675;    0.000
446.796; 2176.150;  259.675;    0.000
446.843; 2184.150;  269.675;    0.000
446.891; 2166.150;  259.675;    0.000
446.938; 2101.150;  226.675;    0.000
446.985; 2210.150;  225.675;    0.000
447.033; 2228.150;  269.675;    0.000
447.080; 2202.150;  258.675;    0.000
447.128; 2165.150;  225.675;    0.000
447.175; 2176.150;  259.675;    0.000
447.222; 2313.150;  238.675;    0.000
447.270; 2298.150;  250.675;    0.000
447.317; 2245.150;  217.675;    0.000
447.364; 2308.150;  262.675;    0.000
447.411; 2296.150;  269.675;    0.000
447.459; 2272.150;  251.675;    0.000
447.506; 2235.150;  227.675;    0.000
447.553; 2334.150;  250.675;    0.000
447.601; 2266.150;  251.675;    0.000
447.648; 2394.150;  276.675;    0.000
447.695; 2316.150;  229.675;    0.000
447.742; 2309.150;  245.675;    0.000
447.789; 2407.150;  243.675;    0.000
447.837; 2471.150;  267.675;    0.000
447.884; 2457.150;  246.675;    0.000
447.931; 2468.150;  266.675;    0.000
447.978; 2574.150;  242.675;    0.000
448.025; 2517.150;  267.675;    0.000
448.072; 2533.150;  257.675;    0.000
448.120; 2520.150;  279.675;    0.000
448.167; 2620.150;  275.675;    0.000
448.214; 2463.150;  241.675;    0.000
448.261; 2572.150;  271.675;    0.000
448.308; 2460.150;  256.675;    0.000
448.355; 2418.150;  253.675;    0.000
448.402; 2394.150;  267.675;    0.000
448.449; 2381.150;  252.675;    0.000
448.496; 2366.150;  241.675;    0.000
448.543; 2296.150;  250.675;    0.000
448.590; 2377.150;  288.675;    0.000
448.637; 2261.150;  255.675;    0.000
448.684; 2322.150;  284.675;    0.000
448.731; 2249.150;  244.675;    0.000
448.778; 2340.150;  257.675;    0.000
448.825; 2154.150;  252.675;    0.000
448.872; 2156.150;  205.675;    0.000
448.919; 2207.150;  244.675;    0.000
448.966; 2220.150;  278.675;    0.000
449.013; 2166.150;  262.675;    0.000
449.060; 2163.150;  278.675;    0.000
449.107; 2150.150;  248.675;    0.000
449.154; 2113.150;  230.675;    0.000
449.200; 2146.150;  211.675;    0.000
449.247; 2157.150;  283.675;    0.000
449.294; 2159.150;  251.675;    0.000
449.341; 2159.150;  280.675;    0.000
449.388; 2082.150;  247.675;    0.000
449.435; 2101.150;  267.675;    0.000
449.481; 2134.150;  303.675;    0.000
449.528; 2095.150;  279.675;    0.000
449.575; 2041.150;  226.675;    0.000
449.622; 2035.150;  263.675;    0.000
449.668; 2104.150;  249.675;    0.000
449.715; 2053.150;  257.675;    0.000
449.762; 1955.150;  251.675;    0.000
449.809; 2074.150;  289.675;    0.000
449.855; 2011.150;  239.675;    0.000
449.902; 2062.150;  262.675;    0.000
449.949; 2028.150;  262.675;    0.000
449.995; 2017.150;  265.675;    0.000
450.042; 2005.150;  280.675;    0.000
450.089; 2123.150;  277.675;    0.000
450.135; 2005.150;  285.675;    0.000
450.182; 1920.150;  275.675;    0.000
450.229; 2046.150;  278.675;    0.000
450.275; 2008.150;  288.675;    0.000
450.322; 1893.150;  238.675;    0.000
450.368; 2018.150;  276.675;    0.000
450.415; 1988.150;  295.675;    0.000
450.462; 1961.150;  283.675;    0.000
450.508; 1906.150;  264.675;    0.000
450.555; 2002.150;  275.675;    0.000
450.601; 1991.150;  278.675;    0.000
450.648; 1906.150;  251.675;    0.000
450.694; 1972.150;  237.675;    0.000
450.741; 1971.150;  280.675;    0.000
450.787; 1951.150;  279.675;    0.000
450.834; 1897.150;  287.675;    0.000
450.880; 1989.150;  265.675;    0.000
450.927; 1934.150;  270.675;    0.000
450.973; 1897.150;  308.675;    0.000
451.019; 1853.150;  253.675;    0.000
451.066; 1912.150;  261.675;    0.000
451.112; 1960.150;  276.675;    0.000
451.159; 1943.150;  235.675;    0.000
451.205; 1918.150;  284.675;    0.000
451.251; 1914.150;  264.675;    0.000
451.298; 1882.150;  262.675;    0.000
451.344; 1954.150;  278.675;    0.000
451.390; 1907.150;  273.675;    0.000
451.437; 1935.150;  272.675;    0.000
451.483; 1987.150;  302.675;    0.000
451.529; 1911.150;  255.675;    0.000
451.576; 1993.150;  287.675;    0.000
451.622; 1853.150;  254.675;    0.000
451.668; 1835.150;  260.675;    0.000
451.714; 1917.150;  289.675;    0.000
451.761; 1919.150;  273.675;    0.000
451.807; 1906.150;  307.675;    0.000
451.853; 1906.150;  281.675;    0.000
451.899; 1901.150;  246.675;    0.000
451.945; 1886.150;  258.675;    0.000
451.992; 1951.150;  276.675;    0.000
452.038; 1883.150;  287.675;    0.000
452.084; 1861.150;  288.675;    0.000
452.130; 1894.150;  259.675;    0.000
452.176; 1881.150;  265.675;    0.000
452.222; 1825.150;  222.675;    0.000
452.268; 1897.150;  271.675;    0.000
452.315; 1818.150;  258.675;    0.000
452.361; 1815.150;  233.675;    0.000
452.407; 1810.150;  270.675;    0.000
452.453; 1778.150;  261.675;    0.000
452.499; 1902.150;  279.675;    0.000
452.545; 1847.150;  269.675;    0.000
452.591; 1901.150;  288.675;    0.000
452.637; 1813.150;  279.675;    0.000
452.683; 1747.150;  232.675;    0.000
452.729; 1863.150;  285.675;    0.000
452.775; 1841.150;  280.675;    0.000
452.821; 1918.150;  260.675;    0.000
452.867; 1808.150;  239.675;    0.000
452.913; 1825.150;  240.675;    0.000
452.959; 1879.150;  214.675;    0.000
453.005; 1786.150;  266.675;    0.000
453.051; 1897.150;  258.675;    0.000
453.097; 1816.150;  253.675;    0.000
453.142; 1818.150;  244.675;    0.000
453.188; 1801.150;  241.675;    0.000
453.234; 1891.150;  257.675;    0.000
453.280; 1784.150;  231.675;    0.000
453.326; 1812.150;  240.675;    0.000
453.372; 1865.150;  208.675;    0.000
453.418; 1772.150;  266.675;    0.000
453.463; 1847.150;  232.675;    0.000
453.509; 1794.150;  221.675;    0.000
453.555; 1758.150;  268.675;    0.000
453.601; 1832.150;  242.675;    0.000
453.647; 1844.150;  283.675;    0.000
453.692; 1795.150;  242.675;    0.000
453.738; 1805.150;  294.675;    0.000
453.784; 1719.150;  256.675;    0.000
453.829; 1802.150;  267.675;    0.000
453.875; 1756.150;  233.675;    0.000
453.921; 1791.150;  247.675;    0.000
453.967; 1814.150;  249.675;    0.000
454.012; 1865.150;  274.675;    0.000
454.058; 1855.150;  249.675;    0.000
454.104; 1796.150;  272.675;    0.000
454.149; 1747.150;  277.675;    0.000
454.195; 1771.150;  256.675;    0.000
454.240; 1820.150;  263.675;    0.000
454.286; 1741.150;  276.675;    0.000
454.332; 1830.150;  290.675;    0.000
454.377; 1809.150;  274.675;    0.000
454.423; 1755.150;  282.675;    0.000
454.468; 1820.150;  275.675;    0.000
454.514; 1812.150;  270.675;    0.000
454.559; 1729.150;  249.675;    0.000
454.605; 1756.150;  241.675;    0.000
454.650; 1773.150;  269.675;    0.000
454.696; 1818.150;  253.675;    0.000
454.741; 1850.150;  279.675;    0.000
454.787; 1784.150;  252.675;    0.000
454.832; 1726.150;  246.675;    0.000
454.878; 1826.150;  264.675;    0.000
454.923; 1791.150;  268.675;    0.000
454.969; 1751.150;  253.675;    0.000
455.014; 1778.150;  264.675;    0.000
455.060; 1755.150;  265.675;    0.000
455.105; 1817.150;  270.675;    0.000
455.150; 1793.150;  284.675;    0.000
455.196; 1855.150;  278.675;    0.000
455.241; 1755.150;  248.675;    0.000
455.286; 1853.150;  274.675;    0.000
455.332; 1790.150;  269.675;    0.000
455.377; 1686.150;  218.675;    0.000
455.422; 1789.150;  261.675;    0.000
455.468; 1713.150;  278.675;    0.000
455.513; 1802.150;  235.675;    0.000
455.558; 1745.150;  232.675;    0.000
455.604; 1775.150;  285.675;    0.000
455.649; 1794.150;  264.675;    0.000
455.694; 1752.150;  235.675;    0.000
455.739; 1697.150;  265.675;    0.000
455.785; 1834.150;  266.675;    0.000
455.830; 1803.150;  272.675;    0.000
455.875; 1807.150;  256.675;    0.000
455.920; 1716.150;  191.675;    0.000
455.965; 1714.150;  280.675;    0.000
456.010; 1779.150;  267.675;    0.000
456.056; 1791.150;  270.675;    0.000
456.101; 1681.150;  248.675;    0.000
456.146; 1784.150;  287.675;    0.000
456.191; 1795.150;  280.675;    0.000
456.236; 1685.150;  229.675;    0.000
456.281; 1719.150;  241.675;    0.000
456.326; 1754.150;  248.675;    0.000
456.371; 1858.150;  233.675;    0.000
456.416; 1751.150;  284.675;    0.000
456.461; 1816.150;  256.675;    0.000
456.507; 1759.150;  250.675;    0.000
456.552; 1807.150;  290.675;    0.000
456.597; 1881.150;  260.675;    0.000
456.642; 1791.150;  252.675;    0.000
456.687; 1770.150;  272.675;    0.000
456.732; 1825.150;  303.675;    0.000
456.776; 1815.150;  269.675;    0.000
456.821; 1744.150;  256.675;    0.000
456.866; 1805.150;  278.675;    0.000
456.911; 1745.150;  230.675;    0.000
456.956; 1794.150;  275.675;    0.000
457.001; 1735.150;  248.675;    0.000
457.046; 1740.150;  222.675;    0.000
457.091; 1776.150;  251.675;    0.000
457.136; 1812.150;  231.675;    0.000
457.181; 1863.150;  245.675;    0.000
457.225; 1771.150;  262.675;    0.000
457.270; 1756.150;  277.675;    0.000
457.315; 1818.150;  235.675;    0.000
457.360; 1800.150;  231.675;    0.000
457.405; 1731.150;  214.675;    0.000
457.450; 1785.150;  255.675;    0.000
457.494; 1738.150;  220.675;    0.000
457.539; 1827.150;  257.675;    0.000
457.584; 1730.150;  279.675;    0.000
457.629; 1695.150;  249.675;    0.000
457.673; 1782.150;  237.675;    0.000
457.718; 1743.150;  232.675;    0.000
457.763; 1899.150;  278.675;    0.000
457.807; 1809.150;  279.675;    0.000
457.852; 1791.150;  246.675;    0.000
457.897; 1801.150;  284.675;    0.000
457.941; 1825.150;  272.675;    0.000
457.986; 1865.150;  285.675;    0.000
458.031; 1794.150;  235.675;    0.000
458.075; 1765.150;  299.675;    0.000
458.120; 1840.150;  284.675;    0.000
458.165; 1772.150;  212.675;    0.000
458.209; 1788.150;  254.675;    0.000
458.254; 1839.150;  257.675;    0.000
458.298; 1822.150;  265.675;    0.000
458.343; 1884.150;  278.675;    0.000
458.387; 1816.150;  316.675;    0.000
458.432; 1820.150;  279.675;    0.000
458.476; 1805.150;  272.675;    0.000
458.521; 1823.150;  240.675;    0.000
458.565; 1808.150;  307.675;    0.000
458.610; 1750.150;  246.675;    0.000
458.654; 1870.150;  275.675;    0.000
458.699; 1870.150;  288.675;    0.000
458.743; 1835.150;  244.675;    0.000
458.788; 1924.150;  245.675;    0.000
458.832; 1903.150;  277.675;    0.000
458.877; 1905.150;  285.675;    0.000
458.921; 1815.150;  216.675;    0.000
458.965; 1953.150;  260.675;    0.000
459.010; 1932.150;  284.675;    0.000
459.054; 1963.150;  272.675;    0.000
459.099; 1870.150;  262.675;    0.000
459.143; 1901.150;  276.675;    0.000
459.187; 1950.150;  258.675;    0.000
459.231; 1908.150;  278.675;    0.000
459.276; 1889.150;  262.675;    0.000
459.320; 1919.150;  291.675;    0.000
459.364; 1908.150;  294.675;    0.000
459.409; 1973.150;  269.675;    0.000
459.453; 1942.150;  257.675;    0.000
459.497; 1984.150;  283.675;    0.000
459.541; 1955.150;  275.675;    0.000
459.586; 1944.150;  261.675;    0.000
459.630; 1946.150;  284.675;    0.000
459.674; 1925.150;  244.675;    0.000
459.718; 1946.150;  309.675;    0.000
459.762; 1985.150;  281.675;    0.000
459.807; 1938.150;  250.675;    0.000
459.851; 2013.150;  286.675;    0.000
459.895; 1992.150;  230.675;    0.000
459.939; 1921.150;  262.675;    0.000
459.983; 1870.150;  250.675;    0.000
460.027; 1923.150;  275.675;    0.000
460.071; 1900.150;  301.675;    0.000
460.115; 1906.150;  279.675;    0.000
460.159; 2050.150;  301.675;    0.000
460.204; 1929.150;  287.675;    0.000
460.248; 1955.150;  293.675;    0.000
460.292; 2006.150;  310.675;    0.000
460.336; 1967.150;  263.675;    0.000
460.380; 1963.150;  268.675;    0.000
460.424; 2014.150;  281.675;    0.000
460.468; 1995.150;  310.675;    0.000
460.512; 2049.150;  273.675;    0.000
460.556; 2033.150;  291.675;    0.000
460.599; 1961.150;  240.675;    0.000
460.643; 2069.150;  260.675;    0.000
460.687; 2025.150;  283.675;    0.000
460.731; 1916.150;  254.675;    0.000
460.775; 1936.150;  265.675;    0.000
460.819; 2036.150;  280.675;    0.000
460.863; 1906.150;  316.675;    0.000
460.907; 1900.150;  231.675;    0.000
460.951; 2024.150;  275.675;    0.000
460.995; 2028.150;  290.675;    0.000
461.038; 2034.150;  284.675;    0.000
461.082; 1979.150;  278.675;    0.000
461.126; 2066.150;  321.675;    0.000
461.170; 1994.150;  273.675;    0.000
461.214; 2010.150;  289.675;    0.000
461.257; 2063.150;  296.675;    0.000
461.301; 2025.150;  287.675;    0.000
461.345; 1983.150;  290.675;    0.000
461.389; 2027.150;  260.675;    0.000
461.432; 1975.150;  262.675;    0.000
461.476; 1941.150;  254.675;    0.000
461.520; 1944.150;  305.675;    0.000
461.563; 1961.150;  289.675;    0.000
461.607; 2031.150;  286.675;    0.000
461.651; 2019.150;  271.675;    0.000
461.694; 1934.150;  245.675;    0.000
461.738; 2010.150;  278.675;    0.000
461.782; 1994.150;  284.675;    0.000
461.825; 2053.150;  305.675;    0.000
461.869; 2127.150;  293.675;    0.000
461.913; 1963.150;  280.675;    0.000
461.956; 2001.150;  237.675;    0.000
462.000; 2093.150;  288.675;    0.000
462.043; 2088.150;  282.675;    0.000
462.087; 2085.150;  268.675;    0.000
462.130; 2111.150;  286.675;    0.000
462.174; 2090.150;  312.675;    0.000
462.217; 2114.150;  270.675;    0.000
462.261; 2068.150;  281.675;    0.000
462.304; 2046.150;  248.675;    0.000
462.348; 2019.150;  267.675;    0.000
462.391; 2073.150;  270.675;    0.000
462.435; 2149.150;  287.675;    0.000
462.478; 2120.150;  290.675;    0.000
462.522; 2093.150;  296.675;    0.000
462.565; 2113.150;  275.675;    0.000
462.608; 2160.150;  325.675;    0.000
462.652; 2196.150;  303.675;    0.000
462.695; 2162.150;  355.675;    0.000
462.739; 2102.150;  272.675;    0.000
462.782; 2204.150;  295.675;    0.000
462.825; 2178.150;  300.675;    0.000
462.869; 2142.150;  319.675;    0.000
462.912; 2267.150;  363.675;    0.000
462.955; 2181.150;  298.675;    0.000
462.998; 2232.150;  321.675;    0.000
463.042; 2223.150;  310.675;    0.000
463.085; 2205.150;  305.675;    0.000
463.128; 2141.150;  345.675;    0.000
463.172; 2220.150;  341.675;    0.000
463.215;  344.150;  300.675;    0.000
463.258;  307.150;  287.675;    0.000
463.301;  298.150;  290.675;    0.000
463.344;  350.150;  320.675;    0.000
463.388;  312.150;  340.675;    0.000
463.431;  288.150;  278.675;    0.000
463.474;  323.150;  353.675;    0.000
463.517;  327.150;  295.675;    0.000
463.560;  311.150;  328.675;    0.000
463.603;  330.150;  316.675;    0.000
463.646;  304.150;  295.675;    0.000
463.690;  333.150;  334.675;    0.000
463.733;  331.150;  343.675;    0.000
463.776;  271.150;  300.675;    0.000
463.819;  307.150;  368.675;    0.000
463.862;  316.150;  327.675;    0.000

