
Integration time [ms]:   0.300
Averaging Nr. [scans]: 1
Smoothing Nr. [pixels]: 0
Data measured with spectrometer [name]: VIS
Wave   ;Sample   ;Dark     ;Reference
[nm]   ;[counts] ;[counts] ;[counts] 

450.961;  174.850;  204.350;    0.000
451.100;  222.850;  243.350;    0.000
451.239;  206.850;  228.350;    0.000
451.377;  255.850;  250.350;    0.000
451.516;  200.850;  189.350;    0.000
451.655;  226.850;  235.350;    0.000
451.794;  242.850;  223.350;    0.000
451.932;  266.850;  269.350;    0.000
452.071;  219.850;  250.350;    0.000
452.210;  245.850;  262.350;    0.000
452.348;  264.850;  259.350;    0.000
452.487;  232.850;  231.350;    0.000
452.626;  194.850;  220.350;    0.000
452.764;  229.850;  252.350;    0.000
452.903;  232.850;  236.350;    0.000
453.042;  285.850;  217.350;    0.000
453.180; 3329.850;  273.350;    0.000
453.319; 3388.850;  261.350;    0.000
453.458; 3322.850;  219.350;    0.000
453.596; 3403.850;  307.350;    0.000
453.735; 3432.850;  246.350;    0.000
453.873; 3470.850;  270.350;    0.000
454.012; 3409.850;  232.350;    0.000
454.150; 3516.850;  211.350;    0.000
454.289; 3557.850;  245.350;    0.000
454.427; 3691.850;  224.350;    0.000
454.566; 3532.850;  252.350;    0.000
454.704; 3690.850;  225.350;    0.000
454.843; 3639.850;  195.350;    0.000
454.981; 3828.850;  258.350;    0.000
455.120; 3687.850;  191.350;    0.000
455.258; 3809.850;  243.350;    0.000
455.397; 3840.850;  188.350;    0.000
455.535; 3897.850;  219.350;    0.000
455.674; 3893.850;  184.350;    0.000
455.812; 3903.850;  225.350;    0.000
455.951; 3970.850;  201.350;    0.000
456.089; 4005.850;  187.350;    0.000
456.227; 3922.850;  199.350;    0.000
456.366; 4090.850;  235.350;    0.000
456.504; 4185.850;  216.350;    0.000
456.642; 4120.850;  256.350;    0.000
456.781; 4190.850;  201.350;    0.000
456.919; 4194.850;  231.350;    0.000
457.057; 4240.850;  181.350;    0.000
457.196; 4382.850;  231.350;    0.000
457.334; 4301.850;  229.350;    0.000
457.472; 4320.850;  242.350;    0.000
457.610; 4486.850;  221.350;    0.000
457.749; 4469.850;  218.350;    0.000
457.887; 4578.850;  213.350;    0.000
458.025; 4662.850;  228.350;    0.000
458.163; 4703.850;  204.350;    0.000
458.301; 4896.850;  230.350;    0.000
458.440; 4814.850;  200.350;    0.000
458.578; 4968.850;  222.350;    0.000
458.716; 5158.850;  137.350;    0.000
458.854; 5165.850;  259.350;    0.000
458.992; 5169.850;  172.350;    0.000
459.130; 5238.850;  253.350;    0.000
459.269; 5139.850;  212.350;    0.000
459.407; 5370.850;  212.350;    0.000
459.545; 5430.850;  225.350;    0.000
459.683; 5528.850;  225.350;    0.000
459.821; 5578.850;  192.350;    0.000
459.959; 5429.850;  205.350;    0.000
460.097; 5678.850;  199.350;    0.000
460.235; 5642.850;  232.350;    0.000
460.373; 5709.850;  248.350;    0.000
460.511; 5850.850;  225.350;    0.000
460.649; 5814.850;  204.350;    0.000
460.787; 5898.850;  221.350;    0.000
460.925; 5880.850;  181.350;    0.000
461.063; 5938.850;  243.350;    0.000
461.201; 5880.850;  212.350;    0.000
461.339; 6096.850;  229.350;    0.000
461.477; 5918.850;  162.350;    0.000
461.615; 6213.850;  232.350;    0.000
461.753; 5968.850;  193.350;    0.000
461.891; 6125.850;  217.350;    0.000
462.029; 6215.850;  224.350;    0.000
462.166; 6386.850;  222.350;    0.000
462.304; 6384.850;  185.350;    0.000
462.442; 6469.850;  246.350;    0.000
462.580; 6454.850;  246.350;    0.000
462.718; 6653.850;  235.350;    0.000
462.856; 6502.850;  230.350;    0.000
462.993; 6497.850;  266.350;    0.000
463.131; 6464.850;  208.350;    0.000
463.269; 6582.850;  218.350;    0.000
463.407; 6406.850;  215.350;    0.000
463.545; 6290.850;  200.350;    0.000
463.682; 6354.850;  206.350;    0.000
463.820; 6529.850;  211.350;    0.000
463.958; 6852.850;  206.350;    0.000
464.095; 7026.850;  193.350;    0.000
464.233; 6936.850;  203.350;    0.000
464.371; 7006.850;  258.350;    0.000
464.509; 6962.850;  219.350;    0.000
464.646; 6915.850;  210.350;    0.000
464.784; 6834.850;  206.350;    0.000
464.921; 6781.850;  233.350;    0.000
465.059; 6724.850;  186.350;    0.000
465.197; 6528.850;  213.350;    0.000
465.334; 6419.850;  202.350;    0.000
465.472; 6348.850;  236.350;    0.000
465.609; 6402.850;  206.350;    0.000
465.747; 6259.850;  208.350;    0.000
465.885; 6165.850;  198.350;    0.000
466.022; 6133.850;  210.350;    0.000
466.160; 6235.850;  245.350;    0.000
466.297; 6182.850;  226.350;    0.000
466.435; 6025.850;  235.350;    0.000
466.572; 6044.850;  226.350;    0.000
466.710; 6102.850;  266.350;    0.000
466.847; 6073.850;  258.350;    0.000
466.985; 5992.850;  228.350;    0.000
467.122; 6006.850;  201.350;    0.000
467.260; 5867.850;  170.350;    0.000
467.397; 6076.850;  174.350;    0.000
467.534; 6034.850;  244.350;    0.000
467.672; 6049.850;  247.350;    0.000
467.809; 5954.850;  182.350;    0.000
467.947; 5949.850;  208.350;    0.000
468.084; 5877.850;  206.350;    0.000
468.221; 5972.850;  249.350;    0.000
468.359; 5976.850;  253.350;    0.000
468.496; 5918.850;  208.350;    0.000
468.633; 5936.850;  189.350;    0.000
468.771; 5978.850;  216.350;    0.000
468.908; 6083.850;  240.350;    0.000
469.045; 6057.850;  234.350;    0.000
469.183; 6114.850;  203.350;    0.000
469.320; 6089.850;  230.350;    0.000
469.457; 6198.850;  219.350;    0.000
469.594; 6237.850;  233.350;    0.000
469.732; 6254.850;  230.350;    0.000
469.869; 6370.850;  239.350;    0.000
470.006; 6346.850;  224.350;    0.000
470.143; 6414.850;  241.350;    0.000
470.280; 6544.850;  234.350;    0.000
470.417; 6606.850;  236.350;    0.000
470.555; 6534.850;  207.350;    0.000
470.692; 6460.850;  251.350;    0.000
470.829; 6540.850;  238.350;    0.000
470.966; 6421.850;  242.350;    0.000
471.103; 6366.850;  215.350;    0.000
471.240; 6428.850;  237.350;    0.000
471.377; 6491.850;  235.350;    0.000
471.514; 6341.850;  256.350;    0.000
471.651; 6442.850;  198.350;    0.000
471.789; 6428.850;  215.350;    0.000
471.926; 6287.850;  210.350;    0.000
472.063; 6243.850;  237.350;    0.000
472.200; 6198.850;  265.350;    0.000
472.337; 6324.850;  240.350;    0.000
472.474; 6209.850;  195.350;    0.000
472.611; 6225.850;  228.350;    0.000
472.748; 6285.850;  234.350;    0.000
472.884; 6178.850;  230.350;    0.000
473.021; 6145.850;  219.350;    0.000
473.158; 6118.850;  253.350;    0.000
473.295; 6268.850;  207.350;    0.000
473.432; 6258.850;  238.350;    0.000
473.569; 6394.850;  236.350;    0.000
473.706; 6066.850;  203.350;    0.000
473.843; 6096.850;  232.350;    0.000
473.980; 6221.850;  207.350;    0.000
474.117; 6108.850;  182.350;    0.000
474.253; 6230.850;  261.350;    0.000
474.390; 6240.850;  211.350;    0.000
474.527; 6129.850;  229.350;    0.000
474.664; 6156.850;  181.350;    0.000
474.801; 6273.850;  250.350;    0.000
474.937; 6204.850;  196.350;    0.000
475.074; 6383.850;  213.350;    0.000
475.211; 6272.850;  232.350;    0.000
475.348; 6269.850;  228.350;    0.000
475.484; 6460.850;  240.350;    0.000
475.621; 6365.850;  235.350;    0.000
475.758; 6303.850;  232.350;    0.000
475.894; 6317.850;  227.350;    0.000
476.031; 6466.850;  233.350;    0.000
476.168; 6485.850;  205.350;    0.000
476.304; 6384.850;  263.350;    0.000
476.441; 6461.850;  255.350;    0.000
476.578; 6502.850;  191.350;    0.000
476.714; 6484.850;  218.350;    0.000
476.851; 6604.850;  224.350;    0.000
476.987; 6529.850;  225.350;    0.000
477.124; 6608.850;  231.350;    0.000
477.261; 6664.850;  291.350;    0.000
477.397; 6547.850;  218.350;    0.000
477.534; 6647.850;  209.350;    0.000
477.670; 6708.850;  210.350;    0.000
477.807; 6699.850;  199.350;    0.000
477.943; 6835.850;  219.350;    0.000
478.080; 6829.850;  234.350;    0.000
478.216; 6807.850;  196.350;    0.000
478.353; 6835.850;  234.350;    0.000
478.489; 7005.850;  219.350;    0.000
478.626; 7127.850;  209.350;    0.000
478.762; 6948.850;  206.350;    0.000
478.898; 7087.850;  209.350;    0.000
479.035; 7233.850;  232.350;    0.000
479.171; 7032.850;  219.350;    0.000
479.308; 7087.850;  226.350;    0.000
479.444; 7165.850;  184.350;    0.000
479.580; 7089.850;  192.350;    0.000
479.717; 7138.850;  247.350;    0.000
479.853; 7163.850;  181.350;    0.000
479.989; 7177.850;  212.350;    0.000
480.126; 7222.850;  187.350;    0.000
480.262; 7274.850;  217.350;    0.000
480.398; 7292.850;  249.350;    0.000
480.535; 7269.850;  196.350;    0.000
480.671; 7198.850;  199.350;    0.000
480.807; 7322.850;  231.350;    0.000
480.943; 7262.850;  192.350;    0.000
481.080; 7319.850;  206.350;    0.000
481.216; 7074.850;  189.350;    0.000
481.352; 7050.850;  215.350;    0.000
481.488; 7142.850;  223.350;    0.000
481.624; 7118.850;  235.350;    0.000
481.760; 7053.850;  218.350;    0.000
481.897; 7088.850;  204.350;    0.000
482.033; 7108.850;  243.350;    0.000
482.169; 7118.850;  239.350;    0.000
482.305; 7154.850;  221.350;    0.000
482.441; 7122.850;  162.350;    0.000
482.577; 7243.850;  241.350;    0.000
482.713; 7083.850;  223.350;    0.000
482.849; 7108.850;  195.350;    0.000
482.985; 7138.850;  230.350;    0.000
483.121; 7234.850;  230.350;    0.000
483.258; 7195.850;  254.350;    0.000
483.394; 7119.850;  199.350;    0.000
483.530; 7085.850;  209.350;    0.000
483.665; 7126.850;  196.350;    0.000
483.801; 7128.850;  208.350;    0.000
483.937; 7145.850;  202.350;    0.000
484.073; 7223.850;  247.350;    0.000
484.209; 7294.850;  188.350;    0.000
484.345; 7386.850;  241.350;    0.000
484.481; 7235.850;  247.350;    0.000
484.617; 7322.850;  248.350;    0.000
484.753; 7205.850;  255.350;    0.000
484.889; 7328.850;  253.350;    0.000
485.025; 7292.850;  226.350;    0.000
485.161; 7269.850;  207.350;    0.000
485.296; 7404.850;  247.350;    0.000
485.432; 7372.850;  255.350;    0.000
485.568; 7443.850;  216.350;    0.000
485.704; 7443.850;  232.350;    0.000
485.840; 7312.850;  231.350;    0.000
485.975; 7295.850;  233.350;    0.000
486.111; 7379.850;  207.350;    0.000
486.247; 7425.850;  211.350;    0.000
486.383; 7375.850;  219.350;    0.000
486.518; 7353.850;  213.350;    0.000
486.654; 7255.850;  216.350;    0.000
486.790; 7429.850;  253.350;    0.000
486.926; 7262.850;  229.350;    0.000
487.061; 7299.850;  241.350;    0.000
487.197; 7316.850;  218.350;    0.000
487.333; 7153.850;  221.350;    0.000
487.468; 7218.850;  206.350;    0.000
487.604; 7466.850;  254.350;    0.000
487.740; 7301.850;  240.350;    0.000
487.875; 7281.850;  260.350;    0.000
488.011; 7456.850;  232.350;    0.000
488.146; 7270.850;  206.350;    0.000
488.282; 7242.850;  236.350;    0.000
488.417; 7254.850;  255.350;    0.000
488.553; 7320.850;  221.350;    0.000
488.688; 7297.850;  233.350;    0.000
488.824; 7246.850;  246.350;    0.000
488.960; 7282.850;  267.350;    0.000
489.095; 7386.850;  217.350;    0.000
489.230; 7399.850;  226.350;    0.000
489.366; 7274.850;  232.350;    0.000
489.501; 7452.850;  220.350;    0.000
489.637; 7328.850;  245.350;    0.000
489.772; 7252.850;  228.350;    0.000
489.908; 7413.850;  250.350;    0.000
490.043; 7446.850;  239.350;    0.000
490.178; 7395.850;  213.350;    0.000
490.314; 7357.850;  270.350;    0.000
490.449; 7243.850;  245.350;    0.000
490.585; 7276.850;  218.350;    0.000
490.720; 7238.850;  243.350;    0.000
490.855; 7437.850;  196.350;    0.000
490.991; 7336.850;  208.350;    0.000
491.126; 7313.850;  268.350;    0.000
491.261; 7221.850;  226.350;    0.000
491.396; 7296.850;  201.350;    0.000
491.532; 7224.850;  213.350;    0.000
491.667; 7365.850;  183.350;    0.000
491.802; 7254.850;  239.350;    0.000
491.937; 7328.850;  228.350;    0.000
492.073; 7281.850;  258.350;    0.000
492.208; 7247.850;  218.350;    0.000
492.343; 7378.850;  205.350;    0.000
492.478; 7352.850;  247.350;    0.000
492.613; 7273.850;  217.350;    0.000
492.749; 7404.850;  258.350;    0.000
492.884; 7311.850;  208.350;    0.000
493.019; 7344.850;  248.350;    0.000
493.154; 7373.850;  231.350;    0.000
493.289; 7330.850;  226.350;    0.000
493.424; 7247.850;  216.350;    0.000
493.559; 7209.850;  205.350;    0.000
493.694; 7409.850;  203.350;    0.000
493.829; 7500.850;  231.350;    0.000
493.964; 7374.850;  200.350;    0.000
494.099; 7465.850;  253.350;    0.000
494.234; 7370.850;  244.350;    0.000
494.369; 7210.850;  239.350;    0.000
494.504; 7295.850;  223.350;    0.000
494.639; 7306.850;  263.350;    0.000
494.774; 7284.850;  240.350;    0.000
494.909; 7298.850;  231.350;    0.000
495.044; 7378.850;  195.350;    0.000
495.179; 7267.850;  231.350;    0.000
495.314; 7260.850;  231.350;    0.000
495.449; 7275.850;  239.350;    0.000
495.584; 7340.850;  201.350;    0.000
495.719; 7304.850;  201.350;    0.000
495.854; 7293.850;  201.350;    0.000
495.988; 7391.850;  239.350;    0.000
496.123; 7387.850;  199.350;    0.000
496.258; 7391.850;  256.350;    0.000
496.393; 7521.850;  214.350;    0.000
496.528; 7454.850;  220.350;    0.000
496.663; 7701.850;  207.350;    0.000
496.797; 7577.850;  241.350;    0.000
496.932; 7613.850;  215.350;    0.000
497.067; 7726.850;  240.350;    0.000
497.202; 7684.850;  177.350;    0.000
497.336; 7814.850;  221.350;    0.000
497.471; 7940.850;  228.350;    0.000
497.606; 8050.850;  213.350;    0.000
497.740; 8048.850;  217.350;    0.000
497.875; 8075.850;  182.350;    0.000
498.010; 8094.850;  230.350;    0.000
498.144; 8309.850;  217.350;    0.000
498.279; 8400.850;  194.350;    0.000
498.414; 8595.850;  270.350;    0.000
498.548; 8725.850;  184.350;    0.000
498.683; 8974.850;  188.350;    0.000
498.817; 9168.850;  216.350;    0.000
498.952; 9289.850;  208.350;    0.000
499.087; 9525.850;  236.350;    0.000
499.221;10008.850;  219.350;    0.000
499.356;10028.850;  263.350;    0.000
499.490;10347.850;  221.350;    0.000
499.625;10660.850;  233.350;    0.000
499.759;10882.850;  245.350;    0.000
499.894;11349.850;  241.350;    0.000
500.028;11761.850;  237.350;    0.000
500.162;12075.850;  282.350;    0.000
500.297;12069.850;  232.350;    0.000
500.431;12280.850;  266.350;    0.000
500.566;12160.850;  254.350;    0.000
500.700;11972.850;  238.350;    0.000
500.835;11749.850;  264.350;    0.000
500.969;11662.850;  165.350;    0.000
501.103;11311.850;  190.350;    0.000
501.238;10865.850;  274.350;    0.000
501.372;10587.850;  270.350;    0.000
501.506;10162.850;  231.350;    0.000
501.641; 9788.850;  224.350;    0.000
501.775; 9585.850;  224.350;    0.000
501.909; 9414.850;  218.350;    0.000
502.043; 9173.850;  238.350;    0.000
502.178; 8974.850;  289.350;    0.000
502.312; 8679.850;  225.350;    0.000
502.446; 8584.850;  295.350;    0.000
502.580; 8586.850;  200.350;    0.000
502.715; 8412.850;  256.350;    0.000
502.849; 8104.850;  226.350;    0.000
502.983; 8087.850;  250.350;    0.000
503.117; 7991.850;  229.350;    0.000
503.251; 7882.850;  267.350;    0.000
503.385; 7835.850;  237.350;    0.000
503.520; 7585.850;  210.350;    0.000
503.654; 7447.850;  204.350;    0.000
503.788; 7471.850;  236.350;    0.000
503.922; 7604.850;  225.350;    0.000
504.056; 7433.850;  222.350;    0.000
504.190; 7434.850;  220.350;    0.000
504.324; 7327.850;  257.350;    0.000
504.458; 7395.850;  223.350;    0.000
504.592; 7395.850;  252.350;    0.000
504.726; 7204.850;  216.350;    0.000
504.860; 7102.850;  231.350;    0.000
504.994; 6915.850;  228.350;    0.000
505.128; 6805.850;  239.350;    0.000
505.262; 6815.850;  245.350;    0.000
505.396; 6695.850;  231.350;    0.000
505.530; 6574.850;  211.350;    0.000
505.664; 6381.850;  223.350;    0.000
505.798; 6422.850;  239.350;    0.000
505.932; 6367.850;  232.350;    0.000
506.066; 6277.850;  263.350;    0.000
506.199; 6336.850;  231.350;    0.000
506.333; 6206.850;  213.350;    0.000
506.467; 6056.850;  241.350;    0.000
506.601; 6131.850;  233.350;    0.000
506.735; 6038.850;  235.350;    0.000
506.869; 6091.850;  269.350;    0.000
507.002; 6088.850;  244.350;    0.000
507.136; 6091.850;  258.350;    0.000
507.270; 5953.850;  218.350;    0.000
507.404; 5976.850;  191.350;    0.000
507.537; 6007.850;  226.350;    0.000
507.671; 5797.850;  243.350;    0.000
507.805; 5731.850;  234.350;    0.000
507.939; 5758.850;  234.350;    0.000
508.072; 5847.850;  261.350;    0.000
508.206; 5823.850;  220.350;    0.000
508.340; 5778.850;  241.350;    0.000
508.473; 5801.850;  214.350;    0.000
508.607; 5784.850;  232.350;    0.000
508.740; 5683.850;  222.350;    0.000
508.874; 5759.850;  225.350;    0.000
509.008; 5594.850;  258.350;    0.000
509.141; 5592.850;  210.350;    0.000
509.275; 5643.850;  199.350;    0.000
509.408; 5703.850;  260.350;    0.000
509.542; 5617.850;  252.350;    0.000
509.675; 5590.850;  276.350;    0.000
509.809; 5597.850;  266.350;    0.000
509.942; 5537.850;  227.350;    0.000
510.076; 5579.850;  243.350;    0.000
510.209; 5396.850;  221.350;    0.000
510.343; 5442.850;  229.350;    0.000
510.476; 5458.850;  246.350;    0.000
510.610; 5418.850;  211.350;    0.000
510.743; 5357.850;  279.350;    0.000
510.877; 5403.850;  274.350;    0.000
511.010; 5408.850;  252.350;    0.000
511.143; 5398.850;  228.350;    0.000
511.277; 5334.850;  261.350;    0.000
511.410; 5364.850;  217.350;    0.000
511.543; 5353.850;  230.350;    0.000
511.677; 5315.850;  245.350;    0.000
511.810; 5296.850;  237.350;    0.000
511.943; 5264.850;  224.350;    0.000
512.077; 5305.850;  194.350;    0.000
512.210; 5282.850;  212.350;    0.000
512.343; 5227.850;  236.350;    0.000
512.476; 5243.850;  248.350;    0.000
512.610; 5279.850;  249.350;    0.000
512.743; 5336.850;  224.350;    0.000
512.876; 5342.850;  277.350;    0.000
513.009; 5319.850;  261.350;    0.000
513.142; 5195.850;  213.350;    0.000
513.276; 5309.850;  192.350;    0.000
513.409; 5307.850;  267.350;    0.000
513.542; 5308.850;  224.350;    0.000
513.675; 5245.850;  244.350;    0.000
513.808; 5235.850;  218.350;    0.000
513.941; 5212.850;  237.350;    0.000
514.074; 5213.850;  257.350;    0.000
514.207; 5319.850;  245.350;    0.000
514.340; 5358.850;  195.350;    0.000
514.474; 5201.850;  244.350;    0.000
514.607; 5227.850;  230.350;    0.000
514.740; 5350.850;  246.350;    0.000
514.873; 5331.850;  268.350;    0.000
515.006; 5244.850;  253.350;    0.000
515.139; 5292.850;  235.350;    0.000
515.272; 5313.850;  214.350;    0.000
515.404; 5456.850;  228.350;    0.000
515.537; 5443.850;  263.350;    0.000
515.670; 5405.850;  270.350;    0.000
515.803; 5487.850;  243.350;    0.000
515.936; 5646.850;  226.350;    0.000
516.069; 5457.850;  227.350;    0.000
516.202; 5769.850;  259.350;    0.000
516.335; 5826.850;  260.350;    0.000
516.468; 5937.850;  243.350;    0.000
516.600; 7190.850;  258.350;    0.000
516.733; 8646.850;  235.350;    0.000
516.866; 8478.850;  267.350;    0.000
516.999; 7594.850;  251.350;    0.000
517.132; 9278.850;  261.350;    0.000
517.264;12820.850;  260.350;    0.000
517.397;12138.850;  231.350;    0.000
517.530; 9050.850;  257.350;    0.000
517.663; 7682.850;  263.350;    0.000
517.795; 7348.850;  250.350;    0.000
517.928; 7025.850;  257.350;    0.000
518.061; 7204.850;  227.350;    0.000
518.193; 9336.850;  252.350;    0.000
518.326;14678.850;  227.350;    0.000
518.459;14937.850;  210.350;    0.000
518.591;10730.850;  214.350;    0.000
518.724; 8389.850;  269.350;    0.000
518.857; 7463.850;  215.350;    0.000
518.989; 6938.850;  259.350;    0.000
519.122; 6588.850;  238.350;    0.000
519.254; 6298.850;  248.350;    0.000
519.387; 6030.850;  246.350;    0.000
519.519; 5969.850;  239.350;    0.000
519.652; 5614.850;  249.350;    0.000
519.784; 5597.850;  238.350;    0.000
519.917; 5502.850;  231.350;    0.000
520.049; 5438.850;  244.350;    0.000
520.182; 5436.850;  205.350;    0.000
520.314; 5450.850;  262.350;    0.000
520.447; 5262.850;  234.350;    0.000
520.579; 5308.850;  273.350;    0.000
520.712; 5220.850;  215.350;    0.000
520.844; 5233.850;  258.350;    0.000
520.976; 5096.850;  242.350;    0.000
521.109; 5062.850;  232.350;    0.000
521.241; 5025.850;  236.350;    0.000
521.373; 4979.850;  227.350;    0.000
521.506; 4932.850;  212.350;    0.000
521.638; 4993.850;  292.350;    0.000
521.770; 4828.850;  259.350;    0.000
521.903; 4822.850;  263.350;    0.000
522.035; 4895.850;  269.350;    0.000
522.167; 4831.850;  289.350;    0.000
522.300; 4810.850;  255.350;    0.000
522.432; 4707.850;  247.350;    0.000
522.564; 4762.850;  239.350;    0.000
522.696; 4781.850;  246.350;    0.000
522.828; 4801.850;  230.350;    0.000
522.961; 4658.850;  239.350;    0.000
523.093; 4731.850;  269.350;    0.000
523.225; 4742.850;  251.350;    0.000
523.357; 4782.850;  244.350;    0.000
523.489; 4674.850;  266.350;    0.000
523.621; 4720.850;  267.350;    0.000
523.753; 4625.850;  234.350;    0.000
523.885; 4466.850;  229.350;    0.000
524.018; 4532.850;  221.350;    0.000
524.150; 4594.850;  264.350;    0.000
524.282; 4621.850;  283.350;    0.000
524.414; 4580.850;  258.350;    0.000
524.546; 4522.850;  286.350;    0.000
524.678; 4433.850;  274.350;    0.000
524.810; 4444.850;  253.350;    0.000
524.942; 4396.850;  183.350;    0.000
525.074; 4433.850;  232.350;    0.000
525.206; 4386.850;  250.350;    0.000
525.338; 4466.850;  228.350;    0.000
525.469; 4447.850;  224.350;    0.000
525.601; 4385.850;  247.350;    0.000
525.733; 4380.850;  199.350;    0.000
525.865; 4334.850;  230.350;    0.000
525.997; 4420.850;  209.350;    0.000
526.129; 4405.850;  211.350;    0.000
526.261; 4294.850;  233.350;    0.000
526.393; 4315.850;  261.350;    0.000
526.524; 4216.850;  206.350;    0.000
526.656; 4409.850;  260.350;    0.000
526.788; 4282.850;  293.350;    0.000
526.920; 4266.850;  208.350;    0.000
527.052; 4281.850;  204.350;    0.000
527.183; 4233.850;  244.350;    0.000
527.315; 4302.850;  237.350;    0.000
527.447; 4322.850;  236.350;    0.000
527.578; 4246.850;  235.350;    0.000
527.710; 4318.850;  253.350;    0.000
527.842; 4224.850;  231.350;    0.000
527.973; 4190.850;  224.350;    0.000
528.105; 4184.850;  237.350;    0.000
528.237; 4228.850;  213.350;    0.000
528.368; 4316.850;  194.350;    0.000
528.500; 4205.850;  195.350;    0.000
528.632; 4260.850;  201.350;    0.000
528.763; 4247.850;  196.350;    0.000
528.895; 4187.850;  204.350;    0.000
529.026; 4187.850;  214.350;    0.000
529.158; 4126.850;  197.350;    0.000
529.289; 4237.850;  230.350;    0.000
529.421; 4167.850;  247.350;    0.000
529.552; 4217.850;  255.350;    0.000
529.684; 4195.850;  270.350;    0.000
529.815; 4376.850;  248.350;    0.000
529.947; 4198.850;  234.350;    0.000
530.078; 4277.850;  223.350;    0.000
530.210; 4130.850;  243.350;    0.000
530.341; 4181.850;  222.350;    0.000
530.472; 4161.850;  217.350;    0.000
530.604; 4166.850;  242.350;    0.000
530.735; 4136.850;  249.350;    0.000
530.867; 4238.850;  257.350;    0.000
530.998; 4124.850;  250.350;    0.000
531.129; 4210.850;  244.350;    0.000
531.260; 4172.850;  276.350;    0.000
531.392; 4295.850;  220.350;    0.000
531.523; 4294.850;  262.350;    0.000
531.654; 4149.850;  264.350;    0.000
531.786; 4244.850;  225.350;    0.000
531.917; 4209.850;  285.350;    0.000
532.048; 4295.850;  239.350;    0.000
532.179; 4244.850;  248.350;    0.000
532.311; 4254.850;  219.350;    0.000
532.442; 4213.850;  264.350;    0.000
532.573; 4144.850;  230.350;    0.000
532.704; 4173.850;  253.350;    0.000
532.835; 4177.850;  239.350;    0.000
532.966; 4172.850;  247.350;    0.000
533.097; 4300.850;  225.350;    0.000
533.229; 4157.850;  282.350;    0.000
533.360; 4182.850;  236.350;    0.000
533.491; 4178.850;  247.350;    0.000
533.622; 4223.850;  265.350;    0.000
533.753; 4205.850;  226.350;    0.000
533.884; 4212.850;  294.350;    0.000
534.015; 4184.850;  215.350;    0.000
534.146; 4232.850;  223.350;    0.000
534.277; 4277.850;  264.350;    0.000
534.408; 4230.850;  232.350;    0.000
534.539; 4235.850;  274.350;    0.000
534.670; 4233.850;  275.350;    0.000
534.801; 4229.850;  261.350;    0.000
534.932; 4204.850;  225.350;    0.000
535.063; 4130.850;  235.350;    0.000
535.194; 4177.850;  300.350;    0.000
535.324; 4124.850;  249.350;    0.000
535.455; 4210.850;  260.350;    0.000
535.586; 4149.850;  288.350;    0.000
535.717; 4162.850;  237.350;    0.000
535.848; 4222.850;  271.350;    0.000
535.979; 4179.850;  234.350;    0.000
536.109; 4082.850;  255.350;    0.000
536.240; 4144.850;  269.350;    0.000
536.371; 4144.850;  232.350;    0.000
536.502; 4152.850;  253.350;    0.000
536.632; 3965.850;  240.350;    0.000
536.763; 4112.850;  251.350;    0.000
536.894; 4157.850;  256.350;    0.000
537.025; 4071.850;  247.350;    0.000
537.155; 3955.850;  272.350;    0.000
537.286; 4152.850;  241.350;    0.000
537.417; 4133.850;  279.350;    0.000
537.547; 4006.850;  229.350;    0.000
537.678; 4077.850;  227.350;    0.000
537.808; 3901.850;  225.350;    0.000
537.939; 4029.850;  250.350;    0.000
538.070; 4026.850;  263.350;    0.000
538.200; 4142.850;  270.350;    0.000
538.331; 4050.850;  249.350;    0.000
538.461; 3994.850;  230.350;    0.000
538.592; 4044.850;  282.350;    0.000
538.722; 4034.850;  253.350;    0.000
538.853; 3988.850;  240.350;    0.000
538.983; 4030.850;  232.350;    0.000
539.114; 3996.850;  248.350;    0.000
539.244; 3925.850;  256.350;    0.000
539.375; 3928.850;  248.350;    0.000
539.505; 4035.850;  235.350;    0.000
539.636; 4002.850;  237.350;    0.000
539.766; 3983.850;  263.350;    0.000
539.896; 3936.850;  217.350;    0.000
540.027; 4045.850;  217.350;    0.000
540.157; 4059.850;  231.350;    0.000
540.287; 3880.850;  210.350;    0.000
540.418; 4059.850;  239.350;    0.000
540.548; 3995.850;  260.350;    0.000
540.678; 4030.850;  228.350;    0.000
540.809; 4053.850;  241.350;    0.000
540.939; 4053.850;  238.350;    0.000
541.069; 4025.850;  245.350;    0.000
541.200; 4029.850;  225.350;    0.000
541.330; 3894.850;  219.350;    0.000
541.460; 4124.850;  254.350;    0.000
541.590; 4050.850;  234.350;    0.000
541.720; 3976.850;  196.350;    0.000
541.851; 4032.850;  200.350;    0.000
541.981; 4072.850;  235.350;    0.000
542.111; 3991.850;  246.350;    0.000
542.241; 4056.850;  214.350;    0.000
542.371; 4097.850;  221.350;    0.000
542.501; 4157.850;  259.350;    0.000
542.631; 4109.850;  213.350;    0.000
542.761; 4137.850;  240.350;    0.000
542.891; 4229.850;  242.350;    0.000
543.021; 4074.850;  230.350;    0.000
543.151; 4062.850;  261.350;    0.000
543.281; 4092.850;  212.350;    0.000
543.411; 4074.850;  229.350;    0.000
543.542; 4036.850;  204.350;    0.000
543.671; 4092.850;  260.350;    0.000
543.801; 4044.850;  236.350;    0.000
543.931; 4133.850;  243.350;    0.000
544.061; 4122.850;  262.350;    0.000
544.191; 4037.850;  223.350;    0.000
544.321; 4179.850;  217.350;    0.000
544.451; 4069.850;  209.350;    0.000
544.581; 4144.850;  213.350;    0.000
544.711; 4126.850;  256.350;    0.000
544.841; 4184.850;  235.350;    0.000
544.970; 4237.850;  260.350;    0.000
545.100; 4166.850;  236.350;    0.000
545.230; 4283.850;  220.350;    0.000
545.360; 4248.850;  219.350;    0.000
545.490; 4247.850;  217.350;    0.000
545.619; 4234.850;  199.350;    0.000
545.749; 4206.850;  183.350;    0.000
545.879; 4157.850;  169.350;    0.000
546.009; 4113.850;  215.350;    0.000
546.138; 4207.850;  228.350;    0.000
546.268; 4142.850;  209.350;    0.000
546.398; 4208.850;  167.350;    0.000
546.527; 4158.850;  178.350;    0.000
546.657; 4088.850;  175.350;    0.000
546.786; 4243.850;  225.350;    0.000
546.916; 4180.850;  196.350;    0.000
547.046; 4219.850;  185.350;    0.000
547.175; 4212.850;  184.350;    0.000
547.305; 4149.850;  197.350;    0.000
547.434; 4131.850;  168.350;    0.000
547.564; 4207.850;  183.350;    0.000
547.693; 4035.850;  204.350;    0.000
547.823; 4223.850;  211.350;    0.000
547.953; 4134.850;  174.350;    0.000
548.082; 4225.850;  217.350;    0.000
548.211; 4203.850;  201.350;    0.000
548.341; 4087.850;  195.350;    0.000
548.470; 4275.850;  225.350;    0.000
548.600; 4228.850;  194.350;    0.000
548.729; 4132.850;  218.350;    0.000
548.859; 4297.850;  202.350;    0.000
548.988; 4163.850;  193.350;    0.000
549.117; 4229.850;  182.350;    0.000
549.247; 4255.850;  198.350;    0.000
549.376; 4275.850;  200.350;    0.000
549.505; 4320.850;  200.350;    0.000
549.635; 4257.850;  224.350;    0.000
549.764; 4192.850;  200.350;    0.000
549.893; 4153.850;  224.350;    0.000
550.023; 4337.850;  207.350;    0.000
550.152; 4255.850;  167.350;    0.000
550.281; 4286.850;  219.350;    0.000
550.410; 4317.850;  217.350;    0.000
550.539; 4156.850;  211.350;    0.000
550.669; 4206.850;  173.350;    0.000
550.798; 4315.850;  211.350;    0.000
550.927; 4348.850;  195.350;    0.000
551.056; 4182.850;  176.350;    0.000
551.185; 4323.850;  203.350;    0.000
551.314; 4280.850;  178.350;    0.000
551.443; 4217.850;  185.350;    0.000
551.573; 4257.850;  167.350;    0.000
551.702; 4256.850;  193.350;    0.000
551.831; 4321.850;  245.350;    0.000
551.960; 4331.850;  190.350;    0.000
552.089; 4292.850;  202.350;    0.000
552.218; 4278.850;  211.350;    0.000
552.347; 4451.850;  184.350;    0.000
552.476; 4396.850;  200.350;    0.000
552.605; 4569.850;  174.350;    0.000
552.734; 4627.850;  206.350;    0.000
552.863; 4730.850;  189.350;    0.000
552.992; 4793.850;  209.350;    0.000
553.121; 4701.850;  201.350;    0.000
553.249; 4678.850;  208.350;    0.000
553.378; 4513.850;  142.350;    0.000
553.507; 4518.850;  208.350;    0.000
553.636; 4464.850;  192.350;    0.000
553.765; 4622.850;  182.350;    0.000
553.894; 4550.850;  183.350;    0.000
554.023; 4454.850;  182.350;    0.000
554.151; 4386.850;  211.350;    0.000
554.280; 4397.850;  179.350;    0.000
554.409; 4392.850;  182.350;    0.000
554.538; 4394.850;  209.350;    0.000
554.666; 4390.850;  182.350;    0.000
554.795; 4292.850;  179.350;    0.000
554.924; 4366.850;  217.350;    0.000
555.052; 4365.850;  220.350;    0.000
555.181; 4398.850;  228.350;    0.000
555.310; 4358.850;  212.350;    0.000
555.439; 4289.850;  199.350;    0.000
555.567; 4194.850;  220.350;    0.000
555.696; 4140.850;  187.350;    0.000
555.824; 4206.850;  189.350;    0.000
555.953; 4356.850;  217.350;    0.000
556.082; 4154.850;  187.350;    0.000
556.210; 4206.850;  245.350;    0.000
556.339; 4109.850;  195.350;    0.000
556.467; 4232.850;  218.350;    0.000
556.596; 4157.850;  198.350;    0.000
556.724; 4290.850;  201.350;    0.000
556.853; 4064.850;  196.350;    0.000
556.981; 4122.850;  175.350;    0.000
557.110; 4141.850;  210.350;    0.000
557.238; 4168.850;  190.350;    0.000
557.367; 4014.850;  192.350;    0.000
557.495; 4093.850;  219.350;    0.000
557.623; 4042.850;  203.350;    0.000
557.752; 4138.850;  166.350;    0.000
557.880; 4117.850;  172.350;    0.000
558.008; 4092.850;  221.350;    0.000
558.137; 4170.850;  211.350;    0.000
558.265; 4158.850;  157.350;    0.000
558.393; 4178.850;  198.350;    0.000
558.522; 4108.850;  209.350;    0.000
558.650; 4301.850;  260.350;    0.000
558.778; 4204.850;  203.350;    0.000
558.906; 4152.850;  210.350;    0.000
559.035; 4090.850;  194.350;    0.000
559.163; 4051.850;  192.350;    0.000
559.291; 4120.850;  215.350;    0.000
559.419; 4141.850;  197.350;    0.000
559.548; 4093.850;  160.350;    0.000
559.676; 4218.850;  200.350;    0.000
559.804; 4153.850;  223.350;    0.000
559.932; 4141.850;  213.350;    0.000
560.060; 4162.850;  224.350;    0.000
560.188; 4250.850;  221.350;    0.000
560.316; 4278.850;  223.350;    0.000
560.444; 4124.850;  159.350;    0.000
560.572; 4246.850;  204.350;    0.000
560.700; 4130.850;  213.350;    0.000
560.828; 4316.850;  216.350;    0.000
560.956; 4134.850;  207.350;    0.000
561.085; 4317.850;  231.350;    0.000
561.212; 4188.850;  197.350;    0.000
561.340; 4284.850;  192.350;    0.000
561.468; 4397.850;  215.350;    0.000
561.596; 4296.850;  215.350;    0.000
561.724; 4370.850;  181.350;    0.000
561.852; 4337.850;  184.350;    0.000
561.980; 4305.850;  217.350;    0.000
562.108; 4310.850;  199.350;    0.000
562.236; 4397.850;  181.350;    0.000
562.364; 4388.850;  234.350;    0.000
562.492; 4268.850;  225.350;    0.000
562.619; 4390.850;  204.350;    0.000
562.747; 4350.850;  223.350;    0.000
562.875; 4374.850;  210.350;    0.000
563.003; 4425.850;  232.350;    0.000
563.130; 4349.850;  224.350;    0.000
563.258; 4468.850;  213.350;    0.000
563.386; 4486.850;  191.350;    0.000
563.514; 4530.850;  252.350;    0.000
563.641; 4574.850;  201.350;    0.000
563.769; 4582.850;  201.350;    0.000
563.897; 4717.850;  176.350;    0.000
564.024; 4682.850;  167.350;    0.000
564.152; 4772.850;  205.350;    0.000
564.280; 4794.850;  222.350;    0.000
564.407; 4630.850;  192.350;    0.000
564.535; 4728.850;  231.350;    0.000
564.662; 4782.850;  197.350;    0.000
564.790; 4803.850;  200.350;    0.000
564.917; 4838.850;  172.350;    0.000
565.045; 4850.850;  187.350;    0.000
565.173; 4843.850;  173.350;    0.000
565.300; 5056.850;  196.350;    0.000
565.428; 5041.850;  195.350;    0.000
565.555; 5048.850;  191.350;    0.000
565.682; 5184.850;  169.350;    0.000
565.810; 5185.850;  198.350;    0.000
565.937; 5297.850;  213.350;    0.000
566.065; 5424.850;  221.350;    0.000
566.192; 5421.850;  173.350;    0.000
566.320; 5625.850;  214.350;    0.000
566.447; 5804.850;  214.350;    0.000
566.574; 5770.850;  188.350;    0.000
566.702; 5765.850;  198.350;    0.000
566.829; 5818.850;  200.350;    0.000
566.956; 5900.850;  194.350;    0.000
567.083; 5953.850;  176.350;    0.000
567.211; 5962.850;  189.350;    0.000
567.338; 6074.850;  184.350;    0.000
567.465; 5970.850;  181.350;    0.000
567.593; 6207.850;  194.350;    0.000
567.720; 6020.850;  193.350;    0.000
567.847; 6278.850;  196.350;    0.000
567.974; 6114.850;  199.350;    0.000
568.101; 5968.850;  150.350;    0.000
568.228; 6029.850;  174.350;    0.000
568.356; 5753.850;  164.350;    0.000
568.483; 5594.850;  163.350;    0.000
568.610; 5522.850;  187.350;    0.000
568.737; 5479.850;  192.350;    0.000
568.864; 5266.850;  218.350;    0.000
568.991; 5166.850;  169.350;    0.000
569.118; 5234.850;  161.350;    0.000
569.245; 5050.850;  161.350;    0.000
569.372; 4937.850;  187.350;    0.000
569.499; 4902.850;  146.350;    0.000
569.626; 4892.850;  172.350;    0.000
569.753; 4824.850;  188.350;    0.000
569.880; 4822.850;  180.350;    0.000
570.007; 4790.850;  187.350;    0.000
570.134; 4820.850;  196.350;    0.000
570.261; 4701.850;  127.350;    0.000
570.388; 4571.850;  189.350;    0.000
570.515; 4704.850;  219.350;    0.000
570.642; 4650.850;  187.350;    0.000
570.768; 4611.850;  175.350;    0.000
570.895; 4734.850;  165.350;    0.000
571.022; 4729.850;  180.350;    0.000
571.149; 4557.850;  209.350;    0.000
571.276; 4636.850;  187.350;    0.000
571.402; 4541.850;  227.350;    0.000
571.529; 4452.850;  166.350;    0.000
571.656; 4642.850;  203.350;    0.000
571.783; 4430.850;  156.350;    0.000
571.909; 4423.850;  195.350;    0.000
572.036; 4406.850;  165.350;    0.000
572.163; 4481.850;  156.350;    0.000
572.289; 4302.850;  193.350;    0.000
572.416; 4392.850;  199.350;    0.000
572.543; 4455.850;  185.350;    0.000
572.669; 4342.850;  180.350;    0.000
572.796; 4396.850;  173.350;    0.000
572.922; 4266.850;  186.350;    0.000
573.049; 4249.850;  185.350;    0.000
573.176; 4263.850;  196.350;    0.000
573.302; 4330.850;  189.350;    0.000
573.429; 4393.850;  186.350;    0.000
573.555; 4350.850;  220.350;    0.000
573.682; 4196.850;  196.350;    0.000
573.808; 4241.850;  201.350;    0.000
573.935; 4196.850;  188.350;    0.000
574.061; 4216.850;  216.350;    0.000
574.188; 4198.850;  161.350;    0.000
574.314; 4263.850;  189.350;    0.000
574.440; 4180.850;  190.350;    0.000
574.567; 4205.850;  201.350;    0.000
574.693; 4281.850;  175.350;    0.000
574.820; 4366.850;  188.350;    0.000
574.946; 4165.850;  182.350;    0.000
575.072; 4315.850;  188.350;    0.000
575.198; 4292.850;  232.350;    0.000
575.325; 4196.850;  159.350;    0.000
575.451; 4214.850;  231.350;    0.000
575.577; 4186.850;  196.350;    0.000
575.704; 4255.850;  177.350;    0.000
575.830; 4281.850;  171.350;    0.000
575.956; 4145.850;  163.350;    0.000
576.082; 4230.850;  197.350;    0.000
576.208; 4122.850;  181.350;    0.000
576.335; 4155.850;  218.350;    0.000
576.461; 4192.850;  207.350;    0.000
576.587; 4150.850;  173.350;    0.000
576.713; 4068.850;  170.350;    0.000
576.839; 4166.850;  186.350;    0.000
576.965; 4117.850;  194.350;    0.000
577.091; 4057.850;  167.350;    0.000
577.217; 4150.850;  212.350;    0.000
577.343; 4077.850;  214.350;    0.000
577.469; 4116.850;  208.350;    0.000
577.596; 4096.850;  188.350;    0.000
577.722; 4058.850;  221.350;    0.000
577.848; 4124.850;  197.350;    0.000
577.974; 4100.850;  222.350;    0.000
578.099; 4051.850;  187.350;    0.000
578.225; 4019.850;  213.350;    0.000
578.351; 4056.850;  190.350;    0.000
578.477; 4101.850;  212.350;    0.000
578.603; 4021.850;  178.350;    0.000
578.729; 3981.850;  193.350;    0.000
578.855; 4039.850;  194.350;    0.000
578.981; 3985.850;  152.350;    0.000
579.107; 4072.850;  175.350;    0.000
579.232; 4024.850;  192.350;    0.000
579.358; 4086.850;  186.350;    0.000
579.484; 4017.850;  186.350;    0.000
579.610; 4092.850;  199.350;    0.000
579.735; 4097.850;  197.350;    0.000
579.861; 4103.850;  203.350;    0.000
579.987; 4082.850;  220.350;    0.000
580.113; 3998.850;  210.350;    0.000
580.238; 4043.850;  189.350;    0.000
580.364; 4008.850;  214.350;    0.000
580.490; 4045.850;  205.350;    0.000
580.615; 4086.850;  231.350;    0.000
580.741; 4022.850;  212.350;    0.000
580.867; 4111.850;  196.350;    0.000
580.992; 4109.850;  214.350;    0.000
581.118; 3886.850;  178.350;    0.000
581.243; 4116.850;  209.350;    0.000
581.369; 4056.850;  173.350;    0.000
581.494; 4031.850;  209.350;    0.000
581.620; 4036.850;  204.350;    0.000
581.745; 4018.850;  168.350;    0.000
581.871; 4187.850;  236.350;    0.000
581.996; 4049.850;  212.350;    0.000
582.122; 4081.850;  192.350;    0.000
582.247; 3911.850;  179.350;    0.000
582.373; 4058.850;  189.350;    0.000
582.498; 4153.850;  217.350;    0.000
582.624; 4068.850;  231.350;    0.000
582.749; 4072.850;  237.350;    0.000
582.874; 4017.850;  205.350;    0.000
583.000; 4062.850;  204.350;    0.000
583.125; 3944.850;  192.350;    0.000
583.250; 4109.850;  229.350;    0.000
583.376; 4039.850;  256.350;    0.000
583.501; 4024.850;  200.350;    0.000
583.626; 4052.850;  207.350;    0.000
583.751; 4149.850;  215.350;    0.000
583.877; 4046.850;  212.350;    0.000
584.002; 4181.850;  227.350;    0.000
584.127; 4055.850;  153.350;    0.000
584.252; 3959.850;  197.350;    0.000
584.377; 4078.850;  183.350;    0.000
584.503; 4160.850;  211.350;    0.000
584.628; 4106.850;  215.350;    0.000
584.753; 4027.850;  194.350;    0.000
584.878; 4033.850;  154.350;    0.000
585.003; 4086.850;  213.350;    0.000
585.128; 4117.850;  199.350;    0.000
585.253; 4134.850;  219.350;    0.000
585.378; 4185.850;  174.350;    0.000
585.503; 4028.850;  202.350;    0.000
585.628; 4102.850;  186.350;    0.000
585.753; 4112.850;  209.350;    0.000
585.878; 4002.850;  167.350;    0.000
586.003; 4086.850;  226.350;    0.000
586.128; 4067.850;  206.350;    0.000
586.253; 4002.850;  198.350;    0.000
586.378; 4051.850;  180.350;    0.000
586.503; 4072.850;  201.350;    0.000
586.628; 4160.850;  206.350;    0.000
586.753; 4071.850;  178.350;    0.000
586.878; 4128.850;  228.350;    0.000
587.003; 4107.850;  199.350;    0.000
587.127; 4133.850;  194.350;    0.000
587.252; 4093.850;  212.350;    0.000
587.377; 4095.850;  172.350;    0.000
587.502; 4123.850;  219.350;    0.000
587.627; 4119.850;  247.350;    0.000
587.751; 4102.850;  184.350;    0.000
587.876; 4100.850;  215.350;    0.000
588.001; 3981.850;  163.350;    0.000
588.125; 4101.850;  185.350;    0.000
588.250; 4099.850;  171.350;    0.000
588.375; 4158.850;  255.350;    0.000
588.499; 4055.850;  185.350;    0.000
588.624; 4120.850;  167.350;    0.000
588.749; 4190.850;  170.350;    0.000
588.873; 4925.850;  173.350;    0.000
588.998; 6066.850;  203.350;    0.000
589.122; 5299.850;  184.350;    0.000
589.247; 4401.850;  217.350;    0.000
589.372; 4260.850;  250.350;    0.000
589.496; 5058.850;  200.350;    0.000
589.621; 5442.850;  199.350;    0.000
589.745; 4801.850;  235.350;    0.000
589.870; 4304.850;  206.350;    0.000
589.994; 4175.850;  194.350;    0.000
590.118; 4290.850;  177.350;    0.000
590.243; 4144.850;  231.350;    0.000
590.367; 4220.850;  173.350;    0.000
590.492; 4263.850;  170.350;    0.000
590.616; 4297.850;  182.350;    0.000
590.740; 4212.850;  178.350;    0.000
590.865; 4293.850;  219.350;    0.000
590.989; 4257.850;  210.350;    0.000
591.114; 4345.850;  194.350;    0.000
591.238; 4280.850;  154.350;    0.000
591.362; 4253.850;  210.350;    0.000
591.486; 4398.850;  215.350;    0.000
591.611; 4396.850;  194.350;    0.000
591.735; 4376.850;  206.350;    0.000
591.859; 4443.850;  188.350;    0.000
591.983; 4482.850;  202.350;    0.000
592.107; 4472.850;  175.350;    0.000
592.232; 4439.850;  214.350;    0.000
592.356; 4577.850;  232.350;    0.000
592.480; 4639.850;  203.350;    0.000
592.604; 4608.850;  204.350;    0.000
592.728; 4547.850;  187.350;    0.000
592.852; 4605.850;  204.350;    0.000
592.976; 4662.850;  163.350;    0.000
593.100; 4645.850;  177.350;    0.000
593.224; 4711.850;  209.350;    0.000
593.349; 4711.850;  255.350;    0.000
593.473; 4698.850;  225.350;    0.000
593.597; 4644.850;  211.350;    0.000
593.721; 4834.850;  222.350;    0.000
593.844; 4723.850;  202.350;    0.000
593.968; 4723.850;  223.350;    0.000
594.092; 4670.850;  162.350;    0.000
594.216; 4665.850;  211.350;    0.000
594.340; 4646.850;  198.350;    0.000
594.464; 4531.850;  242.350;    0.000
594.588; 4623.850;  213.350;    0.000
594.712; 4544.850;  198.350;    0.000
594.836; 4618.850;  207.350;    0.000
594.959; 4526.850;  192.350;    0.000
595.083; 4421.850;  180.350;    0.000
595.207; 4441.850;  242.350;    0.000
595.331; 4429.850;  172.350;    0.000
595.455; 4412.850;  185.350;    0.000
595.578; 4368.850;  221.350;    0.000
595.702; 4340.850;  233.350;    0.000
595.826; 4348.850;  164.350;    0.000
595.949; 4260.850;  215.350;    0.000
596.073; 4339.850;  198.350;    0.000
596.197; 4269.850;  266.350;    0.000
596.320; 4281.850;  236.350;    0.000
596.444; 4187.850;  215.350;    0.000
596.568; 4127.850;  213.350;    0.000
596.691; 4045.850;  198.350;    0.000
596.815; 4102.850;  210.350;    0.000
596.938; 4156.850;  207.350;    0.000
597.062; 4275.850;  187.350;    0.000
597.186; 4119.850;  234.350;    0.000
597.309; 4100.850;  176.350;    0.000
597.433; 4160.850;  222.350;    0.000
597.556; 3987.850;  219.350;    0.000
597.680; 4055.850;  227.350;    0.000
597.803; 4043.850;  240.350;    0.000
597.926; 4021.850;  227.350;    0.000
598.050; 4085.850;  198.350;    0.000
598.173; 4019.850;  235.350;    0.000
598.297; 3999.850;  233.350;    0.000
598.420; 4007.850;  211.350;    0.000
598.543; 3970.850;  207.350;    0.000
598.667; 4018.850;  232.350;    0.000
598.790; 3989.850;  205.350;    0.000
598.913; 3911.850;  200.350;    0.000
599.037; 4039.850;  193.350;    0.000
599.160; 4026.850;  199.350;    0.000
599.283; 3964.850;  237.350;    0.000
599.406; 3886.850;  168.350;    0.000
599.530; 3939.850;  231.350;    0.000
599.653; 3885.850;  220.350;    0.000
599.776; 3900.850;  203.350;    0.000
599.899; 3847.850;  202.350;    0.000
600.022; 3858.850;  189.350;    0.000
600.145; 4013.850;  175.350;    0.000
600.269; 3966.850;  235.350;    0.000
600.392; 3893.850;  213.350;    0.000
600.515; 3809.850;  236.350;    0.000
600.638; 3892.850;  198.350;    0.000
600.761; 3884.850;  195.350;    0.000
600.884; 3854.850;  221.350;    0.000
601.007; 3828.850;  236.350;    0.000
601.130; 3904.850;  223.350;    0.000
601.253; 3907.850;  250.350;    0.000
601.376; 3803.850;  195.350;    0.000
601.499; 3724.850;  168.350;    0.000
601.622; 3851.850;  221.350;    0.000
601.745; 3631.850;  223.350;    0.000
601.868; 3877.850;  204.350;    0.000
601.991; 3797.850;  207.350;    0.000
602.113; 3763.850;  223.350;    0.000
602.236; 3771.850;  182.350;    0.000
602.359; 3783.850;  235.350;    0.000
602.482; 3824.850;  173.350;    0.000
602.605; 3790.850;  227.350;    0.000
602.728; 3721.850;  227.350;    0.000
602.850; 3851.850;  250.350;    0.000
602.973; 3767.850;  195.350;    0.000
603.096; 3833.850;  270.350;    0.000
603.219; 3686.850;  197.350;    0.000
603.341; 3768.850;  195.350;    0.000
603.464; 3795.850;  204.350;    0.000
603.587; 3821.850;  243.350;    0.000
603.709; 3726.850;  188.350;    0.000
603.832; 3822.850;  214.350;    0.000
603.955; 3787.850;  213.350;    0.000
604.077; 3821.850;  201.350;    0.000
604.200; 3774.850;  209.350;    0.000
604.323; 3646.850;  201.350;    0.000
604.445; 3686.850;  202.350;    0.000
604.568; 3655.850;  230.350;    0.000
604.690; 3684.850;  212.350;    0.000
604.813; 3686.850;  226.350;    0.000
604.935; 3816.850;  216.350;    0.000
605.058; 3676.850;  182.350;    0.000
605.180; 3713.850;  204.350;    0.000
605.303; 3571.850;  199.350;    0.000
605.425; 3692.850;  178.350;    0.000
605.547; 3713.850;  209.350;    0.000
605.670; 3671.850;  206.350;    0.000
605.792; 3754.850;  199.350;    0.000
605.915; 3615.850;  221.350;    0.000
606.037; 3685.850;  222.350;    0.000
606.159; 3724.850;  160.350;    0.000
606.282; 3685.850;  188.350;    0.000
606.404; 3704.850;  205.350;    0.000
606.526; 3715.850;  228.350;    0.000
606.648; 3616.850;  184.350;    0.000
606.771; 3645.850;  195.350;    0.000
606.893; 3530.850;  193.350;    0.000
607.015; 3647.850;  202.350;    0.000
607.137; 3593.850;  189.350;    0.000
607.260; 3631.850;  201.350;    0.000
607.382; 3612.850;  211.350;    0.000
607.504; 3570.850;  206.350;    0.000
607.626; 3589.850;  236.350;    0.000
607.748; 3658.850;  228.350;    0.000
607.870; 3613.850;  212.350;    0.000
607.992; 3621.850;  201.350;    0.000
608.114; 3530.850;  214.350;    0.000
608.237; 3766.850;  235.350;    0.000
608.359; 3590.850;  215.350;    0.000
608.481; 3576.850;  183.350;    0.000
608.603; 3508.850;  206.350;    0.000
608.725; 3612.850;  238.350;    0.000
608.847; 3668.850;  237.350;    0.000
608.969; 3664.850;  227.350;    0.000
609.090; 3651.850;  205.350;    0.000
609.212; 3497.850;  182.350;    0.000
609.334; 3591.850;  210.350;    0.000
609.456; 3631.850;  208.350;    0.000
609.578; 3643.850;  195.350;    0.000
609.700; 3597.850;  196.350;    0.000
609.822; 3550.850;  184.350;    0.000
609.944; 3623.850;  258.350;    0.000
610.065; 3601.850;  219.350;    0.000
610.187; 3597.850;  217.350;    0.000
610.309; 3580.850;  179.350;    0.000
610.431; 3656.850;  189.350;    0.000
610.552; 3649.850;  212.350;    0.000
610.674; 3618.850;  211.350;    0.000
610.796; 3550.850;  168.350;    0.000
610.918; 3541.850;  201.350;    0.000
611.039; 3509.850;  212.350;    0.000
611.161; 3588.850;  207.350;    0.000
611.282; 3544.850;  219.350;    0.000
611.404; 3664.850;  243.350;    0.000
611.526; 3574.850;  180.350;    0.000
611.647; 3494.850;  235.350;    0.000
611.769; 3557.850;  189.350;    0.000
611.890; 3539.850;  201.350;    0.000
612.012; 3581.850;  191.350;    0.000
612.133; 3582.850;  227.350;    0.000
612.255; 3548.850;  191.350;    0.000
612.377; 3552.850;  192.350;    0.000
612.498; 3527.850;  202.350;    0.000
612.619; 3494.850;  207.350;    0.000
612.741; 3550.850;  241.350;    0.000
612.862; 3581.850;  219.350;    0.000
612.984; 3541.850;  203.350;    0.000
613.105; 3483.850;  228.350;    0.000
613.226; 3486.850;  199.350;    0.000
613.348; 3524.850;  238.350;    0.000
613.469; 3620.850;  239.350;    0.000
613.590; 3610.850;  183.350;    0.000
613.712; 3541.850;  245.350;    0.000
613.833; 3464.850;  241.350;    0.000
613.954; 3523.850;  208.350;    0.000
614.076; 3515.850;  181.350;    0.000
614.197; 3528.850;  217.350;    0.000
614.318; 3452.850;  182.350;    0.000
614.439; 3471.850;  204.350;    0.000
614.560; 3531.850;  219.350;    0.000
614.682; 3453.850;  238.350;    0.000
614.803; 3545.850;  240.350;    0.000
614.924; 3501.850;  212.350;    0.000
615.045; 3619.850;  225.350;    0.000
615.166; 3575.850;  227.350;    0.000
615.287; 3616.850;  230.350;    0.000
615.408; 3452.850;  187.350;    0.000
615.529; 3588.850;  211.350;    0.000
615.650; 3617.850;  202.350;    0.000
615.771; 3515.850;  203.350;    0.000
615.892; 3485.850;  222.350;    0.000
616.013; 3527.850;  215.350;    0.000
616.134; 3549.850;  193.350;    0.000
616.255; 3578.850;  242.350;    0.000
616.376; 3547.850;  205.350;    0.000
616.497; 3566.850;  200.350;    0.000
616.618; 3483.850;  177.350;    0.000
616.739; 3560.850;  218.350;    0.000
616.860; 3434.850;  214.350;    0.000
616.981; 3633.850;  208.350;    0.000
617.102; 3574.850;  203.350;    0.000
617.222; 3485.850;  212.350;    0.000
617.343; 3519.850;  162.350;    0.000
617.464; 3584.850;  230.350;    0.000
617.585; 3504.850;  197.350;    0.000
617.705; 3488.850;  209.350;    0.000
617.826; 3460.850;  229.350;    0.000
617.947; 3491.850;  216.350;    0.000
618.068; 3453.850;  192.350;    0.000
618.188; 3553.850;  230.350;    0.000
618.309; 3567.850;  238.350;    0.000
618.430; 3481.850;  242.350;    0.000
618.550; 3447.850;  235.350;    0.000
618.671; 3372.850;  207.350;    0.000
618.791; 3460.850;  228.350;    0.000
618.912; 3477.850;  266.350;    0.000
619.033; 3490.850;  232.350;    0.000
619.153; 3421.850;  207.350;    0.000
619.274; 3531.850;  193.350;    0.000
619.394; 3541.850;  237.350;    0.000
619.515; 3450.850;  216.350;    0.000
619.635; 3404.850;  203.350;    0.000
619.756; 3452.850;  227.350;    0.000
619.876; 3481.850;  244.350;    0.000
619.996; 3460.850;  220.350;    0.000
620.117; 3372.850;  231.350;    0.000
620.237; 3451.850;  235.350;    0.000
620.358; 3525.850;  241.350;    0.000
620.478; 3402.850;  237.350;    0.000
620.598; 3457.850;  255.350;    0.000
620.719; 3443.850;  243.350;    0.000
620.839; 3539.850;  237.350;    0.000
620.959; 3438.850;  216.350;    0.000
621.079; 3506.850;  240.350;    0.000
621.200; 3480.850;  195.350;    0.000
621.320; 3437.850;  287.350;    0.000
621.440; 3423.850;  236.350;    0.000
621.560; 3352.850;  231.350;    0.000
621.681; 3384.850;  177.350;    0.000
621.801; 3423.850;  257.350;    0.000
621.921; 3412.850;  241.350;    0.000
622.041; 3333.850;  239.350;    0.000
622.161; 3433.850;  233.350;    0.000
622.281; 3357.850;  204.350;    0.000
622.401; 3451.850;  204.350;    0.000
622.521; 3365.850;  242.350;    0.000
622.641; 3370.850;  205.350;    0.000
622.761; 3306.850;  254.350;    0.000
622.882; 3316.850;  225.350;    0.000
623.002; 3399.850;  255.350;    0.000
623.121; 3340.850;  244.350;    0.000
623.241; 3440.850;  238.350;    0.000
623.361; 3332.850;  208.350;    0.000
623.481; 3223.850;  194.350;    0.000
623.601; 3405.850;  249.350;    0.000
623.721; 3479.850;  229.350;    0.000
623.841; 3409.850;  244.350;    0.000
623.961; 3401.850;  253.350;    0.000
624.081; 3319.850;  218.350;    0.000
624.201; 3366.850;  218.350;    0.000
624.320; 3359.850;  212.350;    0.000
624.440; 3362.850;  251.350;    0.000
624.560; 3366.850;  244.350;    0.000
624.680; 3315.850;  224.350;    0.000
624.799; 3212.850;  198.350;    0.000
624.919; 3319.850;  215.350;    0.000
625.039; 3332.850;  225.350;    0.000
625.159; 3302.850;  209.350;    0.000
625.278; 3261.850;  211.350;    0.000
625.398; 3235.850;  260.350;    0.000
625.518; 3303.850;  205.350;    0.000
625.637; 3311.850;  240.350;    0.000
625.757; 3256.850;  208.350;    0.000
625.876; 3306.850;  221.350;    0.000
625.996; 3285.850;  245.350;    0.000
626.115; 3349.850;  196.350;    0.000
626.235; 3287.850;  241.350;    0.000
626.354; 3337.850;  231.350;    0.000
626.474; 3236.850;  220.350;    0.000
626.594; 3238.850;  210.350;    0.000
626.713; 3306.850;  229.350;    0.000
626.832; 3361.850;  236.350;    0.000
626.952; 3232.850;  223.350;    0.000
627.071; 3291.850;  211.350;    0.000
627.191; 3234.850;  220.350;    0.000
627.310; 3258.850;  206.350;    0.000
627.429; 3236.850;  223.350;    0.000
627.549; 3235.850;  205.350;    0.000
627.668; 3233.850;  227.350;    0.000
627.787; 3200.850;  221.350;    0.000
627.907; 3228.850;  194.350;    0.000
628.026; 3145.850;  231.350;    0.000
628.145; 3199.850;  210.350;    0.000
628.264; 3196.850;  245.350;    0.000
628.384; 3165.850;  234.350;    0.000
628.503; 3247.850;  210.350;    0.000
628.622; 3212.850;  223.350;    0.000
628.741; 3231.850;  210.350;    0.000
628.860; 3255.850;  222.350;    0.000
628.980; 3174.850;  184.350;    0.000
629.099; 3263.850;  234.350;    0.000
629.218; 3223.850;  157.350;    0.000
629.337; 3205.850;  220.350;    0.000
629.456; 3211.850;  210.350;    0.000
629.575; 3192.850;  239.350;    0.000
629.694; 3191.850;  216.350;    0.000
629.813; 3193.850;  218.350;    0.000
629.932; 3168.850;  175.350;    0.000
630.051; 3277.850;  218.350;    0.000
630.170; 3195.850;  215.350;    0.000
630.289; 3209.850;  203.350;    0.000
630.408; 3166.850;  180.350;    0.000
630.527; 3365.850;  249.350;    0.000
630.646; 3146.850;  186.350;    0.000
630.764; 3213.850;  189.350;    0.000
630.883; 3182.850;  221.350;    0.000
631.002; 3202.850;  191.350;    0.000
631.121; 3134.850;  210.350;    0.000
631.240; 3194.850;  256.350;    0.000
631.359; 3200.850;  246.350;    0.000
631.477; 3130.850;  230.350;    0.000
631.596; 3224.850;  229.350;    0.000
631.715; 3210.850;  242.350;    0.000
631.834; 3218.850;  261.350;    0.000
631.952; 3209.850;  250.350;    0.000
632.071; 3178.850;  218.350;    0.000
632.190; 3241.850;  200.350;    0.000
632.308; 3196.850;  226.350;    0.000
632.427; 3088.850;  234.350;    0.000
632.546; 3238.850;  250.350;    0.000
632.664; 3188.850;  224.350;    0.000
632.783; 3160.850;  211.350;    0.000
632.901; 3119.850;  254.350;    0.000
633.020; 3169.850;  204.350;    0.000
633.138; 3116.850;  228.350;    0.000
633.257; 3213.850;  219.350;    0.000
633.375; 3185.850;  243.350;    0.000
633.494; 3157.850;  242.350;    0.000
633.612; 3122.850;  227.350;    0.000
633.731; 3129.850;  221.350;    0.000
633.849; 3110.850;  239.350;    0.000
633.968; 3084.850;  219.350;    0.000
634.086; 3126.850;  218.350;    0.000
634.204; 3152.850;  203.350;    0.000
634.323; 3140.850;  222.350;    0.000
634.441; 3194.850;  257.350;    0.000
634.559; 3195.850;  201.350;    0.000
634.678; 3046.850;  214.350;    0.000
634.796; 3105.850;  207.350;    0.000
634.914; 3115.850;  226.350;    0.000
635.032; 3292.850;  250.350;    0.000
635.151; 3105.850;  228.350;    0.000
635.269; 3122.850;  188.350;    0.000
635.387; 3202.850;  247.350;    0.000
635.505; 3183.850;  250.350;    0.000
635.623; 3139.850;  230.350;    0.000
635.742; 3090.850;  209.350;    0.000
635.860; 3144.850;  239.350;    0.000
635.978; 3242.850;  213.350;    0.000
636.096; 3175.850;  176.350;    0.000
636.214; 3241.850;  246.350;    0.000
636.332; 3102.850;  224.350;    0.000
636.450; 3069.850;  215.350;    0.000
636.568; 3112.850;  246.350;    0.000
636.686; 3089.850;  225.350;    0.000
636.804; 3168.850;  218.350;    0.000
636.922; 3054.850;  195.350;    0.000
637.040; 3158.850;  213.350;    0.000
637.158; 3149.850;  228.350;    0.000
637.276; 3188.850;  206.350;    0.000
637.394; 3041.850;  224.350;    0.000
637.512; 3122.850;  245.350;    0.000
637.629; 3148.850;  234.350;    0.000
637.747; 3154.850;  233.350;    0.000
637.865; 3151.850;  236.350;    0.000
637.983; 3112.850;  235.350;    0.000
638.101; 3028.850;  232.350;    0.000
638.218; 3083.850;  256.350;    0.000
638.336; 3202.850;  216.350;    0.000
638.454; 3165.850;  255.350;    0.000
638.572; 3083.850;  237.350;    0.000
638.689; 3107.850;  271.350;    0.000
638.807; 3135.850;  243.350;    0.000
638.925; 3134.850;  259.350;    0.000
639.042; 3072.850;  185.350;    0.000
639.160; 3107.850;  250.350;    0.000
639.278; 3125.850;  207.350;    0.000
639.395; 3031.850;  243.350;    0.000
639.513; 3152.850;  235.350;    0.000
639.630; 3161.850;  230.350;    0.000
639.748; 3119.850;  192.350;    0.000
639.865; 3128.850;  219.350;    0.000
639.983; 3069.850;  183.350;    0.000
640.100; 3185.850;  251.350;    0.000
640.218; 3062.850;  246.350;    0.000
640.335; 3125.850;  227.350;    0.000
640.453; 3107.850;  259.350;    0.000
640.570; 3090.850;  251.350;    0.000
640.688; 3068.850;  223.350;    0.000
640.805; 3078.850;  246.350;    0.000
640.922; 3248.850;  249.350;    0.000
641.040; 3119.850;  257.350;    0.000
641.157; 3050.850;  207.350;    0.000
641.274; 3083.850;  241.350;    0.000
641.391; 3108.850;  246.350;    0.000
641.509; 3131.850;  216.350;    0.000
641.626; 3093.850;  252.350;    0.000
641.743; 3094.850;  215.350;    0.000
641.860; 3169.850;  234.350;    0.000
641.978; 3129.850;  216.350;    0.000
642.095; 3157.850;  247.350;    0.000
642.212; 3110.850;  199.350;    0.000
642.329; 3050.850;  237.350;    0.000
642.446; 3106.850;  222.350;    0.000
642.563; 3226.850;  287.350;    0.000
642.681; 3120.850;  261.350;    0.000
642.798; 3092.850;  251.350;    0.000
642.915; 3178.850;  238.350;    0.000
643.032; 3196.850;  246.350;    0.000
643.149; 3174.850;  239.350;    0.000
643.266; 3111.850;  238.350;    0.000
643.383; 3167.850;  231.350;    0.000
643.500; 3108.850;  212.350;    0.000
643.617; 3093.850;  236.350;    0.000
643.734; 3122.850;  239.350;    0.000
643.850; 3161.850;  234.350;    0.000
643.967; 3233.850;  253.350;    0.000
644.084; 3263.850;  253.350;    0.000
644.201; 3252.850;  227.350;    0.000
644.318; 3228.850;  247.350;    0.000
644.435; 3232.850;  264.350;    0.000
644.552; 3238.850;  230.350;    0.000
644.668; 3249.850;  250.350;    0.000
644.785; 3217.850;  235.350;    0.000
644.902; 3225.850;  227.350;    0.000
645.019; 3213.850;  203.350;    0.000
645.135; 3250.850;  210.350;    0.000
645.252; 3152.850;  206.350;    0.000
645.369; 3324.850;  235.350;    0.000
645.485; 3278.850;  223.350;    0.000
645.602; 3302.850;  205.350;    0.000
645.719; 3272.850;  222.350;    0.000
645.835; 3347.850;  246.350;    0.000
645.952; 3253.850;  239.350;    0.000
646.068; 3364.850;  225.350;    0.000
646.185; 3384.850;  248.350;    0.000
646.302; 3339.850;  226.350;    0.000
646.418; 3347.850;  228.350;    0.000
646.535; 3286.850;  219.350;    0.000
646.651; 3371.850;  204.350;    0.000
646.768; 3435.850;  247.350;    0.000
646.884; 3479.850;  228.350;    0.000
647.000; 3497.850;  223.350;    0.000
647.117; 3384.850;  251.350;    0.000
647.233; 3479.850;  223.350;    0.000
647.350; 3555.850;  237.350;    0.000
647.466; 3517.850;  223.350;    0.000
647.582; 3546.850;  243.350;    0.000
647.699; 3541.850;  223.350;    0.000
647.815; 3515.850;  215.350;    0.000
647.931; 3635.850;  214.350;    0.000
648.047; 3514.850;  199.350;    0.000
648.164; 3592.850;  233.350;    0.000
648.280; 3642.850;  231.350;    0.000
648.396; 3575.850;  215.350;    0.000
648.512; 3661.850;  252.350;    0.000
648.629; 3534.850;  237.350;    0.000
648.745; 3665.850;  216.350;    0.000
648.861; 3660.850;  207.350;    0.000
648.977; 3649.850;  247.350;    0.000
649.093; 3756.850;  221.350;    0.000
649.209; 3734.850;  232.350;    0.000
649.325; 3722.850;  245.350;    0.000
649.441; 3731.850;  253.350;    0.000
649.557; 3720.850;  221.350;    0.000
649.673; 3765.850;  182.350;    0.000
649.789; 3722.850;  245.350;    0.000
649.905; 3756.850;  204.350;    0.000
650.021; 3823.850;  270.350;    0.000
650.137; 3691.850;  218.350;    0.000
650.253; 3756.850;  268.350;    0.000
650.369; 3820.850;  222.350;    0.000
650.485; 3823.850;  215.350;    0.000
650.601; 3861.850;  218.350;    0.000
650.717; 3865.850;  208.350;    0.000
650.833; 3983.850;  263.350;    0.000
650.948; 3987.850;  266.350;    0.000
651.064; 3991.850;  271.350;    0.000
651.180; 3946.850;  232.350;    0.000
651.296; 3976.850;  237.350;    0.000
651.411; 3979.850;  233.350;    0.000
651.527; 4033.850;  232.350;    0.000
651.643; 4115.850;  259.350;    0.000
651.759; 4048.850;  257.350;    0.000
651.874; 4037.850;  216.350;    0.000
651.990; 4165.850;  234.350;    0.000
652.105; 4196.850;  195.350;    0.000
652.221; 4281.850;  245.350;    0.000
652.337; 4367.850;  210.350;    0.000
652.452; 4354.850;  259.350;    0.000
652.568; 4288.850;  202.350;    0.000
652.683; 4427.850;  233.350;    0.000
652.799; 4538.850;  230.350;    0.000
652.914; 4517.850;  198.350;    0.000
653.030; 4482.850;  203.350;    0.000
653.145; 4623.850;  228.350;    0.000
653.261; 4631.850;  244.350;    0.000
653.376; 4670.850;  214.350;    0.000
653.492; 4764.850;  246.350;    0.000
653.607; 4880.850;  241.350;    0.000
653.722; 4855.850;  257.350;    0.000
653.838; 4989.850;  265.350;    0.000
653.953; 5098.850;  252.350;    0.000
654.068; 5105.850;  270.350;    0.000
654.184; 5269.850;  248.350;    0.000
654.299; 5549.850;  226.350;    0.000
654.414; 5454.850;  190.350;    0.000
654.530; 5552.850;  263.350;    0.000
654.645; 5794.850;  240.350;    0.000
654.760; 5838.850;  243.350;    0.000
654.875; 6032.850;  210.350;    0.000
654.990; 6132.850;  250.350;    0.000
655.106; 6347.850;  277.350;    0.000
655.221; 6578.850;  249.350;    0.000
655.336; 6666.850;  239.350;    0.000
655.451; 7003.850;  226.350;    0.000
655.566; 7167.850;  236.350;    0.000
655.681; 7611.850;  272.350;    0.000
655.796; 7924.850;  224.350;    0.000
655.911; 8230.850;  247.350;    0.000
656.026; 8489.850;  240.350;    0.000
656.141; 8973.850;  239.350;    0.000
656.256; 9407.850;  241.350;    0.000
656.371; 9463.850;  213.350;    0.000
656.486; 9332.850;  275.350;    0.000
656.601; 9236.850;  225.350;    0.000
656.716; 8778.850;  239.350;    0.000
656.831; 8677.850;  260.350;    0.000
656.946; 8197.850;  250.350;    0.000
657.060; 8139.850;  257.350;    0.000
657.175; 7777.850;  256.350;    0.000
657.290; 7618.850;  255.350;    0.000
657.405; 7574.850;  303.350;    0.000
657.520; 7336.850;  272.350;    0.000
657.634; 7043.850;  268.350;    0.000
657.749; 6912.850;  261.350;    0.000
657.864; 6712.850;  235.350;    0.000
657.979; 6582.850;  257.350;    0.000
658.093; 6371.850;  243.350;    0.000
658.208; 6331.850;  281.350;    0.000
658.323; 6033.850;  240.350;    0.000
658.437; 6059.850;  285.350;    0.000
658.552; 5928.850;  262.350;    0.000
658.666; 5799.850;  269.350;    0.000
658.781; 5831.850;  244.350;    0.000
658.895; 5620.850;  259.350;    0.000
659.010; 5579.850;  254.350;    0.000
659.125; 5525.850;  210.350;    0.000
659.239; 5315.850;  212.350;    0.000
659.353; 5155.850;  269.350;    0.000
659.468; 5235.850;  269.350;    0.000
659.582; 5195.850;  244.350;    0.000
659.697; 5066.850;  262.350;    0.000
659.811; 4953.850;  271.350;    0.000
659.926; 4951.850;  232.350;    0.000
660.040; 4883.850;  250.350;    0.000
660.154; 4711.850;  209.350;    0.000
660.269; 4732.850;  212.350;    0.000
660.383; 4782.850;  237.350;    0.000
660.497; 4623.850;  231.350;    0.000
660.612; 4573.850;  232.350;    0.000
660.726; 4473.850;  276.350;    0.000
660.840; 4453.850;  235.350;    0.000
660.954; 4502.850;  224.350;    0.000
661.068; 4361.850;  241.350;    0.000
661.183; 4332.850;  223.350;    0.000
661.297; 4278.850;  255.350;    0.000
661.411; 4198.850;  223.350;    0.000
661.525; 4198.850;  249.350;    0.000
661.639; 4168.850;  264.350;    0.000
661.753; 4017.850;  225.350;    0.000
661.867; 4122.850;  245.350;    0.000
661.981; 4020.850;  225.350;    0.000
662.095; 3954.850;  262.350;    0.000
662.209; 3867.850;  225.350;    0.000
662.323; 3900.850;  228.350;    0.000
662.437; 3790.850;  230.350;    0.000
662.551; 3803.850;  234.350;    0.000
662.665; 3744.850;  212.350;    0.000
662.779; 3757.850;  254.350;    0.000
662.893; 3791.850;  269.350;    0.000
663.007; 3634.850;  196.350;    0.000
663.121; 3707.850;  262.350;    0.000
663.235; 3749.850;  263.350;    0.000
663.349; 3572.850;  242.350;    0.000
663.462; 3577.850;  234.350;    0.000
663.576; 3518.850;  219.350;    0.000
663.690; 3543.850;  234.350;    0.000
663.804; 3546.850;  205.350;    0.000
663.917; 3461.850;  224.350;    0.000
664.031; 3428.850;  208.350;    0.000
664.145; 3440.850;  241.350;    0.000
664.258; 3253.850;  188.350;    0.000
664.372; 3378.850;  214.350;    0.000
664.486; 3302.850;  203.350;    0.000
664.599; 3321.850;  217.350;    0.000
664.713; 3363.850;  286.350;    0.000
664.827; 3234.850;  199.350;    0.000
664.940; 3342.850;  250.350;    0.000
665.054; 3230.850;  261.350;    0.000
665.167; 3166.850;  258.350;    0.000
665.281; 3253.850;  234.350;    0.000
665.394; 3158.850;  213.350;    0.000
665.508; 3168.850;  222.350;    0.000
665.621; 3188.850;  254.350;    0.000
665.735; 3300.850;  252.350;    0.000
665.848; 3160.850;  248.350;    0.000
665.961; 3136.850;  234.350;    0.000
666.075; 3117.850;  262.350;    0.000
666.188; 3085.850;  270.350;    0.000
666.301; 3133.850;  237.350;    0.000
666.415; 3081.850;  245.350;    0.000
666.528; 3033.850;  248.350;    0.000
666.641; 3080.850;  210.350;    0.000
666.755; 2970.850;  218.350;    0.000
666.868; 2948.850;  224.350;    0.000
666.981; 3096.850;  244.350;    0.000
667.094; 2934.850;  279.350;    0.000
667.207; 2943.850;  190.350;    0.000
667.321; 2998.850;  210.350;    0.000
667.434; 2909.850;  205.350;    0.000
667.547; 2903.850;  253.350;    0.000
667.660; 2910.850;  243.350;    0.000
667.773; 2953.850;  242.350;    0.000
667.886; 2854.850;  218.350;    0.000
667.999; 2800.850;  226.350;    0.000
668.112; 2783.850;  258.350;    0.000
668.225; 2808.850;  243.350;    0.000
668.338; 2798.850;  224.350;    0.000
668.451; 2866.850;  250.350;    0.000
668.564; 2839.850;  260.350;    0.000
668.677; 2667.850;  204.350;    0.000
668.790; 2763.850;  229.350;    0.000
668.903; 2726.850;  269.350;    0.000
669.016; 2666.850;  228.350;    0.000
669.129; 2727.850;  253.350;    0.000
669.242; 2709.850;  245.350;    0.000
669.354; 2711.850;  234.350;    0.000
669.467; 2694.850;  256.350;    0.000
669.580; 2694.850;  223.350;    0.000
669.693; 2697.850;  252.350;    0.000
669.806; 2752.850;  212.350;    0.000
669.918; 2721.850;  228.350;    0.000
670.031; 2662.850;  265.350;    0.000
670.144; 2662.850;  255.350;    0.000
670.256; 2602.850;  229.350;    0.000
670.369; 2635.850;  301.350;    0.000
670.482; 2620.850;  263.350;    0.000
670.594; 2700.850;  246.350;    0.000
670.707; 2572.850;  255.350;    0.000
670.820; 2604.850;  256.350;    0.000
670.932; 2555.850;  210.350;    0.000
671.045; 2661.850;  249.350;    0.000
671.157; 2563.850;  254.350;    0.000
671.270; 2595.850;  265.350;    0.000
671.382; 2559.850;  219.350;    0.000
671.495; 2547.850;  242.350;    0.000
671.607; 2554.850;  266.350;    0.000
671.720; 2493.850;  238.350;    0.000
671.832; 2551.850;  220.350;    0.000
671.944; 2515.850;  251.350;    0.000
672.057; 2465.850;  232.350;    0.000
672.169; 2556.850;  240.350;    0.000
672.281; 2512.850;  270.350;    0.000
672.394; 2537.850;  257.350;    0.000
672.506; 2497.850;  247.350;    0.000
672.618; 2492.850;  229.350;    0.000
672.731; 2477.850;  227.350;    0.000
672.843; 2555.850;  282.350;    0.000
672.955; 2444.850;  262.350;    0.000
673.067; 2452.850;  277.350;    0.000
673.180; 2377.850;  280.350;    0.000
673.292; 2426.850;  241.350;    0.000
673.404; 2477.850;  234.350;    0.000
673.516; 2435.850;  224.350;    0.000
673.628; 2477.850;  272.350;    0.000
673.740; 2414.850;  249.350;    0.000
673.852; 2492.850;  288.350;    0.000
673.964; 2562.850;  278.350;    0.000
674.076; 2451.850;  273.350;    0.000
674.188; 2416.850;  251.350;    0.000
674.300; 2486.850;  244.350;    0.000
674.412; 2367.850;  267.350;    0.000
674.524; 2398.850;  276.350;    0.000
674.636; 2397.850;  234.350;    0.000
674.748; 2349.850;  267.350;    0.000
674.860; 2418.850;  255.350;    0.000
674.972; 2307.850;  253.350;    0.000
675.084; 2394.850;  253.350;    0.000
675.196; 2434.850;  300.350;    0.000
675.307; 2384.850;  307.350;    0.000
675.419; 2422.850;  245.350;    0.000
675.531; 2435.850;  292.350;    0.000
675.643; 2392.850;  244.350;    0.000
675.755; 2372.850;  265.350;    0.000
675.866; 2319.850;  281.350;    0.000
675.978; 2340.850;  266.350;    0.000
676.090; 2325.850;  267.350;    0.000
676.201; 2357.850;  265.350;    0.000
676.313; 2357.850;  222.350;    0.000
676.425; 2293.850;  248.350;    0.000
676.536; 2291.850;  234.350;    0.000
676.648; 2382.850;  261.350;    0.000
676.759; 2298.850;  280.350;    0.000
676.871; 2346.850;  260.350;    0.000
676.983; 2392.850;  277.350;    0.000
677.094; 2325.850;  252.350;    0.000
677.206; 2308.850;  238.350;    0.000
677.317; 2230.850;  269.350;    0.000
677.429; 2248.850;  245.350;    0.000
677.540; 2249.850;  244.350;    0.000
677.651; 2270.850;  225.350;    0.000
677.763; 2233.850;  216.350;    0.000
677.874; 2290.850;  226.350;    0.000
677.986; 2207.850;  234.350;    0.000
678.097; 2246.850;  237.350;    0.000
678.208; 2272.850;  278.350;    0.000
678.320; 2266.850;  243.350;    0.000
678.431; 2294.850;  248.350;    0.000
678.542; 2199.850;  240.350;    0.000
678.653; 2216.850;  250.350;    0.000
678.765; 2203.850;  258.350;    0.000
678.876; 2170.850;  221.350;    0.000
678.987; 2172.850;  229.350;    0.000
679.098; 2169.850;  233.350;    0.000
679.209; 2189.850;  274.350;    0.000
679.320; 2139.850;  216.350;    0.000
679.432; 2204.850;  246.350;    0.000
679.543; 2165.850;  226.350;    0.000
679.654; 2136.850;  232.350;    0.000
679.765; 2188.850;  246.350;    0.000
679.876; 2147.850;  263.350;    0.000
679.987; 2171.850;  216.350;    0.000
680.098; 2214.850;  262.350;    0.000
680.209; 2079.850;  219.350;    0.000
680.320; 2157.850;  232.350;    0.000
680.431; 2115.850;  261.350;    0.000
680.542; 2137.850;  219.350;    0.000
680.653; 2220.850;  238.350;    0.000
680.763; 2075.850;  191.350;    0.000
680.874; 2098.850;  267.350;    0.000
680.985; 2097.850;  240.350;    0.000
681.096; 2176.850;  251.350;    0.000
681.207; 2127.850;  232.350;    0.000
681.318; 2111.850;  211.350;    0.000
681.428; 2146.850;  233.350;    0.000
681.539; 2048.850;  197.350;    0.000
681.650; 2105.850;  197.350;    0.000
681.760; 2157.850;  243.350;    0.000
681.871; 2063.850;  245.350;    0.000
681.982; 2086.850;  218.350;    0.000
682.093; 2129.850;  262.350;    0.000
682.203; 2062.850;  250.350;    0.000
682.314; 2096.850;  239.350;    0.000
682.424; 2033.850;  250.350;    0.000
682.535; 2168.850;  206.350;    0.000
682.646; 2118.850;  302.350;    0.000
682.756; 2172.850;  258.350;    0.000
682.867; 2195.850;  265.350;    0.000
682.977; 2144.850;  218.350;    0.000
683.088; 2119.850;  264.350;    0.000
683.198; 2062.850;  236.350;    0.000
683.308; 2101.850;  246.350;    0.000
683.419; 2111.850;  296.350;    0.000
683.529; 2129.850;  242.350;    0.000
683.640; 2079.850;  245.350;    0.000
683.750; 2008.850;  213.350;    0.000
683.860; 2160.850;  256.350;    0.000
683.971; 2141.850;  251.350;    0.000
684.081; 2096.850;  232.350;    0.000
684.191; 2085.850;  252.350;    0.000
684.301; 2041.850;  214.350;    0.000
684.412; 2089.850;  261.350;    0.000
684.522; 2030.850;  243.350;    0.000
684.632; 2075.850;  257.350;    0.000
684.742; 2212.850;  271.350;    0.000
684.852; 2082.850;  258.350;    0.000
684.963; 2112.850;  262.350;    0.000
685.073; 2040.850;  219.350;    0.000
685.183; 2111.850;  270.350;    0.000
685.293; 2045.850;  233.350;    0.000
685.403; 2072.850;  274.350;    0.000
685.513; 2141.850;  280.350;    0.000
685.623; 2051.850;  267.350;    0.000
685.733; 2011.850;  274.350;    0.000
685.843; 1986.850;  274.350;    0.000
685.953; 2061.850;  244.350;    0.000
686.063; 2056.850;  261.350;    0.000
686.173; 2085.850;  283.350;    0.000
686.283; 2011.850;  260.350;    0.000
686.393; 2048.850;  256.350;    0.000
686.503; 2154.850;  295.350;    0.000
686.612; 2019.850;  294.350;    0.000
686.722; 2070.850;  263.350;    0.000
686.832; 2039.850;  291.350;    0.000
686.942; 2009.850;  229.350;    0.000
687.052; 2016.850;  241.350;    0.000
687.161; 1979.850;  304.350;    0.000
687.271; 2018.850;  223.350;    0.000
687.381; 1945.850;  273.350;    0.000
687.491; 2042.850;  246.350;    0.000
687.600; 2043.850;  242.350;    0.000
687.710; 2071.850;  225.350;    0.000
687.820; 2074.850;  259.350;    0.000
687.929; 2036.850;  232.350;    0.000
688.039; 1968.850;  248.350;    0.000
688.148; 2049.850;  250.350;    0.000
688.258; 2013.850;  240.350;    0.000
688.367; 2000.850;  253.350;    0.000
688.477; 1929.850;  229.350;    0.000
688.586; 2037.850;  259.350;    0.000
688.696; 2064.850;  250.350;    0.000
688.805; 2038.850;  279.350;    0.000
688.915; 1973.850;  250.350;    0.000
689.024; 1962.850;  240.350;    0.000
689.134; 1936.850;  269.350;    0.000
689.243; 1935.850;  214.350;    0.000
689.352; 1936.850;  257.350;    0.000
689.462; 2040.850;  248.350;    0.000
689.571; 1958.850;  233.350;    0.000
689.680; 2013.850;  236.350;    0.000
689.790; 1967.850;  238.350;    0.000
689.899; 1887.850;  232.350;    0.000
690.008; 1955.850;  259.350;    0.000
690.117; 1948.850;  254.350;    0.000
690.227; 2010.850;  251.350;    0.000
690.336; 1945.850;  240.350;    0.000
690.445; 1941.850;  235.350;    0.000
690.554; 1973.850;  243.350;    0.000
690.663; 1935.850;  214.350;    0.000
690.772; 1982.850;  247.350;    0.000
690.881; 1986.850;  249.350;    0.000
690.990; 1970.850;  265.350;    0.000
691.099; 1894.850;  217.350;    0.000
691.209; 1945.850;  272.350;    0.000
691.318; 1990.850;  223.350;    0.000
691.427; 1936.850;  212.350;    0.000
691.536; 1920.850;  260.350;    0.000
691.644; 1912.850;  246.350;    0.000
691.753; 1936.850;  251.350;    0.000
691.862; 1986.850;  239.350;    0.000
691.971; 1943.850;  253.350;    0.000
692.080; 1955.850;  255.350;    0.000
692.189; 1921.850;  228.350;    0.000
692.298; 1895.850;  243.350;    0.000
692.406; 1948.850;  269.350;    0.000
692.515; 1985.850;  254.350;    0.000
692.624; 1951.850;  225.350;    0.000
692.733; 1952.850;  245.350;    0.000
692.842; 1935.850;  259.350;    0.000
692.950; 1901.850;  226.350;    0.000
693.059; 1916.850;  216.350;    0.000
693.168; 1905.850;  266.350;    0.000
693.276; 1945.850;  236.350;    0.000
693.385; 1875.850;  257.350;    0.000
693.494; 1922.850;  268.350;    0.000
693.602; 1921.850;  239.350;    0.000
693.711; 1922.850;  224.350;    0.000
693.819; 1940.850;  263.350;    0.000
693.928; 1943.850;  270.350;    0.000
694.036; 1844.850;  247.350;    0.000
694.145; 1958.850;  261.350;    0.000
694.253; 1912.850;  261.350;    0.000
694.362; 1937.850;  253.350;    0.000
694.470; 1997.850;  270.350;    0.000
694.579; 1933.850;  233.350;    0.000
694.687; 1986.850;  260.350;    0.000
694.795; 1881.850;  228.350;    0.000
694.904; 1934.850;  228.350;    0.000
695.012; 1886.850;  288.350;    0.000
695.120; 1894.850;  230.350;    0.000
695.229; 1920.850;  287.350;    0.000
695.337; 1908.850;  249.350;    0.000
695.445; 1974.850;  283.350;    0.000
695.553; 1884.850;  251.350;    0.000
695.662; 1966.850;  236.350;    0.000
695.770; 1889.850;  267.350;    0.000
695.878; 1973.850;  268.350;    0.000
695.986; 1938.850;  297.350;    0.000
696.094; 1919.850;  275.350;    0.000
696.202; 1864.850;  201.350;    0.000
696.310; 1920.850;  283.350;    0.000
696.419; 1876.850;  261.350;    0.000
696.527; 2008.850;  252.350;    0.000
696.635; 1929.850;  249.350;    0.000
696.743; 1947.850;  236.350;    0.000
696.851; 1921.850;  241.350;    0.000
696.959; 2023.850;  278.350;    0.000
697.067; 1949.850;  239.350;    0.000
697.174; 2026.850;  260.350;    0.000
697.282; 1881.850;  259.350;    0.000
697.390; 1934.850;  302.350;    0.000
697.498; 1849.850;  216.350;    0.000
697.606; 1908.850;  245.350;    0.000
697.714; 1852.850;  279.350;    0.000
697.822; 1930.850;  267.350;    0.000
697.929; 1870.850;  234.350;    0.000
698.037; 1844.850;  255.350;    0.000
698.145; 1865.850;  226.350;    0.000
698.253; 1887.850;  261.350;    0.000
698.360; 1862.850;  299.350;    0.000
698.468; 1920.850;  254.350;    0.000
698.576; 1987.850;  307.350;    0.000
698.683; 1992.850;  280.350;    0.000
698.791; 1893.850;  284.350;    0.000
698.899; 1930.850;  279.350;    0.000
699.006; 1919.850;  264.350;    0.000
699.114; 1877.850;  263.350;    0.000
699.221; 1815.850;  291.350;    0.000
699.329; 1944.850;  309.350;    0.000
699.436; 1904.850;  261.350;    0.000
699.544; 1861.850;  259.350;    0.000
699.651; 1900.850;  251.350;    0.000
699.759; 1905.850;  251.350;    0.000
699.866; 1905.850;  266.350;    0.000
699.974; 1819.850;  264.350;    0.000
700.081; 1876.850;  295.350;    0.000
700.188; 1861.850;  293.350;    0.000
700.296; 1924.850;  233.350;    0.000
700.403; 1866.850;  290.350;    0.000
700.510; 1853.850;  275.350;    0.000
700.618; 1931.850;  273.350;    0.000
700.725; 1836.850;  262.350;    0.000
700.832; 1867.850;  250.350;    0.000
700.940; 1954.850;  300.350;    0.000
701.047; 1836.850;  245.350;    0.000
701.154; 1899.850;  280.350;    0.000
701.261; 1795.850;  270.350;    0.000
701.368; 1789.850;  286.350;    0.000
701.475; 1858.850;  301.350;    0.000
701.582; 1847.850;  286.350;    0.000
701.690; 1781.850;  279.350;    0.000
701.797; 1887.850;  292.350;    0.000
701.904; 1940.850;  314.350;    0.000
702.011; 1890.850;  340.350;    0.000
702.118; 1887.850;  276.350;    0.000
702.225; 1942.850;  351.350;    0.000
702.332; 1913.850;  301.350;    0.000
702.439; 1955.850;  334.350;    0.000
702.546; 1874.850;  325.350;    0.000
702.652; 1949.850;  343.350;    0.000
702.759; 1920.850;  339.350;    0.000
702.866; 1922.850;  344.350;    0.000
702.973; 1901.850;  330.350;    0.000
703.080; 1856.850;  322.350;    0.000
703.187; 1904.850;  327.350;    0.000
703.294; 1919.850;  339.350;    0.000
703.400; 1730.850;  325.350;    0.000
703.507;  482.850;  372.350;    0.000
703.614;  295.850;  348.350;    0.000
703.720;  283.850;  333.350;    0.000
703.827;  339.850;  331.350;    0.000
703.934;  314.850;  330.350;    0.000
704.040;  286.850;  327.350;    0.000
704.147;  323.850;  327.350;    0.000
704.254;  341.850;  354.350;    0.000
704.360;  305.850;  337.350;    0.000
704.467;  302.850;  370.350;    0.000
704.573;  324.850;  367.350;    0.000
704.680;  333.850;  339.350;    0.000
704.786;  318.850;  356.350;    0.000
704.893;  342.850;  352.350;    0.000
704.999;  306.850;  332.350;    0.000
705.106;  357.850;  359.350;    0.000

