
Integration time [ms]:   0.300
Averaging Nr. [scans]: 1
Smoothing Nr. [pixels]: 0
Data measured with spectrometer [name]: NIR
Wave   ;Sample   ;Dark     ;Reference
[nm]   ;[counts] ;[counts] ;[counts] 

691.496;  -45.175;  102.875;    0.000
691.696;   -2.175;  181.875;    0.000
691.896;  -45.175;  138.875;    0.000
692.096;  -21.175;  182.875;    0.000
692.296;  -83.175;  145.875;    0.000
692.496;  -10.175;  154.875;    0.000
692.695;  -51.175;  108.875;    0.000
692.895;  -22.175;  176.875;    0.000
693.095;  -48.175;  138.875;    0.000
693.295;  -11.175;  192.875;    0.000
693.495;   -9.175;  170.875;    0.000
693.695;  -23.175;  147.875;    0.000
693.894;  -19.175;  191.875;    0.000
694.094;  -24.175;  148.875;    0.000
694.294;  -35.175;  147.875;    0.000
694.494;  197.825;  140.875;    0.000
694.693; 2334.825;  137.875;    0.000
694.893; 2540.825;  141.875;    0.000
695.093; 2539.825;  105.875;    0.000
695.293; 2578.825;  115.875;    0.000
695.492; 2662.825;   81.875;    0.000
695.692; 2617.825;  162.875;    0.000
695.891; 2576.825;  162.875;    0.000
696.091; 2667.825;  166.875;    0.000
696.291; 2657.825;  143.875;    0.000
696.490; 2683.825;  170.875;    0.000
696.690; 2702.825;  142.875;    0.000
696.889; 2640.825;  186.875;    0.000
697.089; 2701.825;  120.875;    0.000
697.288; 2714.825;  215.875;    0.000
697.488; 2721.825;  178.875;    0.000
697.687; 2759.825;  170.875;    0.000
697.887; 2696.825;  140.875;    0.000
698.086; 2804.825;  131.875;    0.000
698.286; 2791.825;  117.875;    0.000
698.485; 2622.825;  136.875;    0.000
698.684; 2655.825;  126.875;    0.000
698.884; 2770.825;  161.875;    0.000
699.083; 2738.825;   95.875;    0.000
699.282; 2771.825;  120.875;    0.000
699.482; 2689.825;  131.875;    0.000
699.681; 2803.825;  168.875;    0.000
699.880; 2793.825;  154.875;    0.000
700.080; 2869.825;  149.875;    0.000
700.279; 2829.825;   99.875;    0.000
700.478; 2690.825;  157.875;    0.000
700.677; 2683.825;  111.875;    0.000
700.877; 2820.825;  126.875;    0.000
701.076; 2798.825;  142.875;    0.000
701.275; 2794.825;  107.875;    0.000
701.474; 2673.825;   72.875;    0.000
701.673; 2735.825;   87.875;    0.000
701.872; 2722.825;  170.875;    0.000
702.071; 2825.825;  136.875;    0.000
702.271; 2821.825;  121.875;    0.000
702.470; 2798.825;  139.875;    0.000
702.669; 2831.825;  121.875;    0.000
702.868; 2813.825;  146.875;    0.000
703.067; 2868.825;  159.875;    0.000
703.266; 2810.825;  122.875;    0.000
703.465; 2867.825;  121.875;    0.000
703.664; 2907.825;  144.875;    0.000
703.863; 2896.825;  140.875;    0.000
704.062; 2866.825;  109.875;    0.000
704.260; 2777.825;  164.875;    0.000
704.459; 2863.825;  124.875;    0.000
704.658; 2789.825;  109.875;    0.000
704.857; 2852.825;  149.875;    0.000
705.056; 2889.825;  112.875;    0.000
705.255; 2870.825;   95.875;    0.000
705.454; 2771.825;  105.875;    0.000
705.652; 2890.825;  134.875;    0.000
705.851; 2906.825;   92.875;    0.000
706.050; 2874.825;  127.875;    0.000
706.249; 2879.825;  111.875;    0.000
706.447; 2875.825;   98.875;    0.000
706.646; 2845.825;  108.875;    0.000
706.845; 2959.825;   95.875;    0.000
707.043; 2957.825;   95.875;    0.000
707.242; 2879.825;   97.875;    0.000
707.441; 2969.825;  142.875;    0.000
707.639; 3054.825;  121.875;    0.000
707.838; 2981.825;  141.875;    0.000
708.037; 2936.825;  125.875;    0.000
708.235; 2909.825;  100.875;    0.000
708.434; 3038.825;  106.875;    0.000
708.632; 2909.825;   86.875;    0.000
708.831; 2960.825;  138.875;    0.000
709.029; 2944.825;   86.875;    0.000
709.228; 2990.825;  103.875;    0.000
709.426; 3061.825;  146.875;    0.000
709.625; 3044.825;  136.875;    0.000
709.823; 3072.825;  114.875;    0.000
710.022; 3044.825;  144.875;    0.000
710.220; 3007.825;  109.875;    0.000
710.418; 3090.825;  116.875;    0.000
710.617; 3030.825;   67.875;    0.000
710.815; 2954.825;  104.875;    0.000
711.013; 3004.825;  109.875;    0.000
711.212; 3087.825;  106.875;    0.000
711.410; 3045.825;   95.875;    0.000
711.608; 3077.825;  155.875;    0.000
711.807; 3125.825;  103.875;    0.000
712.005; 2984.825;  104.875;    0.000
712.203; 3077.825;   94.875;    0.000
712.401; 3134.825;  125.875;    0.000
712.599; 3124.825;  127.875;    0.000
712.798; 3072.825;  141.875;    0.000
712.996; 3074.825;   85.875;    0.000
713.194; 3090.825;   96.875;    0.000
713.392; 3109.825;   54.875;    0.000
713.590; 3152.825;  123.875;    0.000
713.788; 3242.825;  130.875;    0.000
713.986; 3231.825;  104.875;    0.000
714.184; 3301.825;   91.875;    0.000
714.382; 3262.825;  120.875;    0.000
714.580; 3216.825;   71.875;    0.000
714.778; 3313.825;   92.875;    0.000
714.976; 3317.825;  129.875;    0.000
715.174; 3390.825;   99.875;    0.000
715.372; 3393.825;  119.875;    0.000
715.570; 3586.825;   95.875;    0.000
715.768; 3776.825;  113.875;    0.000
715.966; 3794.825;   64.875;    0.000
716.164; 3781.825;  135.875;    0.000
716.362; 3698.825;  125.875;    0.000
716.560; 3583.825;  135.875;    0.000
716.758; 3612.825;   84.875;    0.000
716.955; 3567.825;  109.875;    0.000
717.153; 3510.825;   73.875;    0.000
717.351; 3543.825;  110.875;    0.000
717.549; 3589.825;  149.875;    0.000
717.746; 3482.825;  121.875;    0.000
717.944; 3469.825;  128.875;    0.000
718.142; 3411.825;  124.875;    0.000
718.340; 3497.825;   96.875;    0.000
718.537; 3338.825;  138.875;    0.000
718.735; 3447.825;  144.875;    0.000
718.933; 3512.825;   97.875;    0.000
719.130; 3483.825;  109.875;    0.000
719.328; 3524.825;  123.875;    0.000
719.525; 3497.825;  118.875;    0.000
719.723; 3499.825;  117.875;    0.000
719.920; 3472.825;   72.875;    0.000
720.118; 3477.825;   92.875;    0.000
720.316; 3416.825;  141.875;    0.000
720.513; 3436.825;   98.875;    0.000
720.711; 3577.825;  146.875;    0.000
720.908; 3570.825;  113.875;    0.000
721.105; 3518.825;  157.875;    0.000
721.303; 3462.825;  106.875;    0.000
721.500; 3426.825;   88.875;    0.000
721.698; 3468.825;   88.875;    0.000
721.895; 3565.825;   94.875;    0.000
722.092; 3479.825;   82.875;    0.000
722.290; 3573.825;  136.875;    0.000
722.487; 3501.825;   67.875;    0.000
722.684; 3552.825;  115.875;    0.000
722.882; 3404.825;  104.875;    0.000
723.079; 3447.825;  122.875;    0.000
723.276; 3426.825;   91.875;    0.000
723.473; 3438.825;   89.875;    0.000
723.671; 3420.825;   97.875;    0.000
723.868; 3574.825;  117.875;    0.000
724.065; 3519.825;  102.875;    0.000
724.262; 3535.825;  137.875;    0.000
724.459; 3523.825;   48.875;    0.000
724.656; 3560.825;  122.875;    0.000
724.854; 3559.825;   96.875;    0.000
725.051; 3543.825;  120.875;    0.000
725.248; 3625.825;  146.875;    0.000
725.445; 3605.825;  117.875;    0.000
725.642; 3528.825;  106.875;    0.000
725.839; 3579.825;  143.875;    0.000
726.036; 3565.825;   79.875;    0.000
726.233; 3544.825;   90.875;    0.000
726.430; 3566.825;  124.875;    0.000
726.627; 3630.825;   98.875;    0.000
726.824; 3503.825;   91.875;    0.000
727.021; 3624.825;  131.875;    0.000
727.218; 3594.825;  110.875;    0.000
727.414; 3593.825;   83.875;    0.000
727.611; 3585.825;   86.875;    0.000
727.808; 3597.825;  131.875;    0.000
728.005; 3668.825;  105.875;    0.000
728.202; 3675.825;  128.875;    0.000
728.399; 3610.825;  113.875;    0.000
728.595; 3648.825;  102.875;    0.000
728.792; 3646.825;   91.875;    0.000
728.989; 3620.825;  122.875;    0.000
729.186; 3703.825;  103.875;    0.000
729.382; 3615.825;  106.875;    0.000
729.579; 3598.825;  114.875;    0.000
729.776; 3617.825;  115.875;    0.000
729.972; 3624.825;  108.875;    0.000
730.169; 3737.825;  111.875;    0.000
730.366; 3671.825;  100.875;    0.000
730.562; 3695.825;   86.875;    0.000
730.759; 3702.825;   93.875;    0.000
730.955; 3664.825;  127.875;    0.000
731.152; 3684.825;   99.875;    0.000
731.348; 3761.825;   97.875;    0.000
731.545; 3783.825;   98.875;    0.000
731.741; 3669.825;  130.875;    0.000
731.938; 3790.825;  115.875;    0.000
732.134; 3740.825;  107.875;    0.000
732.331; 3702.825;   80.875;    0.000
732.527; 3637.825;  108.875;    0.000
732.724; 3640.825;  104.875;    0.000
732.920; 3691.825;  109.875;    0.000
733.116; 3742.825;  117.875;    0.000
733.313; 3677.825;   81.875;    0.000
733.509; 3784.825;   87.875;    0.000
733.705; 3722.825;  143.875;    0.000
733.902; 3737.825;   74.875;    0.000
734.098; 3681.825;   90.875;    0.000
734.294; 3696.825;  104.875;    0.000
734.490; 3744.825;  139.875;    0.000
734.687; 3833.825;  113.875;    0.000
734.883; 3708.825;   72.875;    0.000
735.079; 3712.825;  100.875;    0.000
735.275; 3776.825;  113.875;    0.000
735.471; 3668.825;   55.875;    0.000
735.667; 3808.825;  106.875;    0.000
735.863; 3848.825;  131.875;    0.000
736.060; 3806.825;  127.875;    0.000
736.256; 3864.825;   76.875;    0.000
736.452; 3784.825;  127.875;    0.000
736.648; 3740.825;  136.875;    0.000
736.844; 3796.825;  113.875;    0.000
737.040; 3927.825;  125.875;    0.000
737.236; 3830.825;   99.875;    0.000
737.432; 3912.825;   75.875;    0.000
737.628; 3978.825;  155.875;    0.000
737.824; 3964.825;  116.875;    0.000
738.019; 3843.825;   92.875;    0.000
738.215; 3867.825;  113.875;    0.000
738.411; 3942.825;  135.875;    0.000
738.607; 3885.825;   53.875;    0.000
738.803; 3890.825;   79.875;    0.000
738.999; 3947.825;  117.875;    0.000
739.195; 3843.825;  106.875;    0.000
739.390; 3991.825;  125.875;    0.000
739.586; 4030.825;  102.875;    0.000
739.782; 4027.825;  125.875;    0.000
739.978; 4067.825;  124.875;    0.000
740.173; 3999.825;   96.875;    0.000
740.369; 4121.825;  118.875;    0.000
740.565; 4039.825;  128.875;    0.000
740.760; 4043.825;  118.875;    0.000
740.956; 4269.825;  109.875;    0.000
741.152; 4179.825;  151.875;    0.000
741.347; 4232.825;  112.875;    0.000
741.543; 4193.825;  113.875;    0.000
741.738; 4207.825;  128.875;    0.000
741.934; 4338.825;  144.875;    0.000
742.129; 4577.825;  105.875;    0.000
742.325; 4984.825;  137.875;    0.000
742.520; 5322.825;  128.875;    0.000
742.716; 5117.825;  121.875;    0.000
742.911; 4845.825;   75.875;    0.000
743.107; 4902.825;  100.875;    0.000
743.302; 4758.825;   72.875;    0.000
743.498; 4781.825;  137.875;    0.000
743.693; 4914.825;  124.875;    0.000
743.888; 5050.825;  121.875;    0.000
744.084; 5631.825;   93.875;    0.000
744.279; 6623.825;   75.875;    0.000
744.474; 6658.825;  136.875;    0.000
744.670; 6077.825;  109.875;    0.000
744.865; 5735.825;  142.875;    0.000
745.060; 5495.825;   84.875;    0.000
745.255; 5443.825;  149.875;    0.000
745.451; 5267.825;  101.875;    0.000
745.646; 5192.825;  132.875;    0.000
745.841; 5227.825;  126.875;    0.000
746.036; 5231.825;  125.875;    0.000
746.231; 5285.825;  150.875;    0.000
746.426; 5379.825;  118.875;    0.000
746.622; 6148.825;  135.875;    0.000
746.817; 7615.825;  122.875;    0.000
747.012; 8391.825;  134.875;    0.000
747.207; 7478.825;  124.875;    0.000
747.402; 7019.825;  122.875;    0.000
747.597; 6548.825;   95.875;    0.000
747.792; 6275.825;  168.875;    0.000
747.987; 5951.825;  110.875;    0.000
748.182; 5963.825;  119.875;    0.000
748.377; 5605.825;   70.875;    0.000
748.572; 5542.825;  113.875;    0.000
748.767; 5379.825;  123.875;    0.000
748.961; 5309.825;  110.875;    0.000
749.156; 5203.825;  135.875;    0.000
749.351; 5122.825;   98.875;    0.000
749.546; 4969.825;  126.875;    0.000
749.741; 4967.825;  129.875;    0.000
749.936; 4976.825;   86.875;    0.000
750.130; 4791.825;   97.875;    0.000
750.325; 4739.825;  110.875;    0.000
750.520; 4762.825;  120.875;    0.000
750.715; 4811.825;  122.875;    0.000
750.909; 4736.825;  120.875;    0.000
751.104; 4629.825;  118.875;    0.000
751.299; 4727.825;  122.875;    0.000
751.493; 4665.825;  129.875;    0.000
751.688; 4639.825;  138.875;    0.000
751.882; 4548.825;   87.875;    0.000
752.077; 4626.825;  142.875;    0.000
752.272; 4479.825;  110.875;    0.000
752.466; 4540.825;  154.875;    0.000
752.661; 4457.825;   96.875;    0.000
752.855; 4366.825;   93.875;    0.000
753.050; 4415.825;  122.875;    0.000
753.244; 4467.825;  110.875;    0.000
753.439; 4490.825;  116.875;    0.000
753.633; 4274.825;  131.875;    0.000
753.828; 4551.825;  130.875;    0.000
754.022; 4339.825;   96.875;    0.000
754.216; 4309.825;  114.875;    0.000
754.411; 4425.825;  145.875;    0.000
754.605; 4303.825;   65.875;    0.000
754.799; 4337.825;  116.875;    0.000
754.994; 4227.825;  117.875;    0.000
755.188; 4344.825;  124.875;    0.000
755.382; 4336.825;   80.875;    0.000
755.576; 4191.825;   90.875;    0.000
755.771; 4342.825;  115.875;    0.000
755.965; 4273.825;  106.875;    0.000
756.159; 4372.825;   87.875;    0.000
756.353; 4300.825;  125.875;    0.000
756.547; 4215.825;  146.875;    0.000
756.742; 4227.825;  111.875;    0.000
756.936; 4304.825;  108.875;    0.000
757.130; 4270.825;  101.875;    0.000
757.324; 4244.825;  114.875;    0.000
757.518; 4277.825;  136.875;    0.000
757.712; 4263.825;  123.875;    0.000
757.906; 4394.825;  115.875;    0.000
758.100; 4359.825;  186.875;    0.000
758.294; 4346.825;  118.875;    0.000
758.488; 4312.825;  167.875;    0.000
758.682; 4273.825;  137.875;    0.000
758.876; 4295.825;  135.875;    0.000
759.070; 4359.825;  132.875;    0.000
759.264; 4333.825;  118.875;    0.000
759.458; 4308.825;  111.875;    0.000
759.651; 4206.825;  142.875;    0.000
759.845; 4271.825;  105.875;    0.000
760.039; 4181.825;   73.875;    0.000
760.233; 4214.825;  156.875;    0.000
760.427; 4260.825;  119.875;    0.000
760.620; 4345.825;  136.875;    0.000
760.814; 4321.825;  126.875;    0.000
761.008; 4328.825;  126.875;    0.000
761.202; 4239.825;  123.875;    0.000
761.395; 4266.825;  141.875;    0.000
761.589; 4360.825;  107.875;    0.000
761.783; 4266.825;  122.875;    0.000
761.976; 4286.825;  120.875;    0.000
762.170; 4253.825;  147.875;    0.000
762.363; 4181.825;  144.875;    0.000
762.557; 4270.825;  119.875;    0.000
762.750; 4329.825;  118.875;    0.000
762.944; 4357.825;  145.875;    0.000
763.138; 4334.825;  123.875;    0.000
763.331; 4208.825;  129.875;    0.000
763.524; 4275.825;  109.875;    0.000
763.718; 4432.825;  150.875;    0.000
763.911; 4370.825;  140.875;    0.000
764.105; 4265.825;   97.875;    0.000
764.298; 4346.825;  128.875;    0.000
764.492; 4255.825;  132.875;    0.000
764.685; 4324.825;   92.875;    0.000
764.878; 4395.825;  111.875;    0.000
765.072; 4272.825;  116.875;    0.000
765.265; 4455.825;  135.875;    0.000
765.458; 4297.825;   69.875;    0.000
765.651; 4436.825;  145.875;    0.000
765.845; 4375.825;   95.875;    0.000
766.038; 4470.825;  147.875;    0.000
766.231; 4951.825;  119.875;    0.000
766.424; 7418.825;  126.875;    0.000
766.617; 7888.825;   92.875;    0.000
766.811; 4779.825;  109.875;    0.000
767.004; 4455.825;  107.875;    0.000
767.197; 4647.825;  171.875;    0.000
767.390; 4487.825;  114.875;    0.000
767.583; 4430.825;  109.875;    0.000
767.776; 4485.825;  130.875;    0.000
767.969; 4461.825;  103.875;    0.000
768.162; 4609.825;  139.875;    0.000
768.355; 4509.825;  142.875;    0.000
768.548; 4469.825;  140.875;    0.000
768.741; 4534.825;   82.875;    0.000
768.934; 4494.825;  107.875;    0.000
769.127; 4658.825;  121.875;    0.000
769.320; 4572.825;  106.875;    0.000
769.513; 4704.825;  145.875;    0.000
769.706; 5217.825;  120.875;    0.000
769.898; 7387.825;  135.875;    0.000
770.091; 5899.825;  146.875;    0.000
770.284; 4908.825;  108.875;    0.000
770.477; 4824.825;  148.875;    0.000
770.670; 4674.825;  163.875;    0.000
770.862; 4773.825;   97.875;    0.000
771.055; 4759.825;  116.875;    0.000
771.248; 4818.825;  143.875;    0.000
771.441; 4828.825;  125.875;    0.000
771.633; 4787.825;  125.875;    0.000
771.826; 4898.825;  132.875;    0.000
772.018; 4949.825;  123.875;    0.000
772.211; 4989.825;  143.875;    0.000
772.404; 5104.825;  144.875;    0.000
772.596; 4987.825;  130.875;    0.000
772.789; 5063.825;  109.875;    0.000
772.981; 5116.825;  151.875;    0.000
773.174; 5224.825;  119.875;    0.000
773.366; 5316.825;  179.875;    0.000
773.559; 5173.825;  106.875;    0.000
773.751; 5381.825;  120.875;    0.000
773.944; 5420.825;  159.875;    0.000
774.136; 5628.825;  131.875;    0.000
774.329; 5600.825;  141.875;    0.000
774.521; 5742.825;  114.875;    0.000
774.713; 5976.825;  169.875;    0.000
774.906; 6222.825;  151.875;    0.000
775.098; 6390.825;   99.875;    0.000
775.290; 6624.825;  166.875;    0.000
775.483; 6863.825;  146.875;    0.000
775.675; 7070.825;  106.875;    0.000
775.867; 7527.825;   91.875;    0.000
776.059; 8279.825;  137.875;    0.000
776.251; 8918.825;  124.875;    0.000
776.444; 9981.825;  168.875;    0.000
776.636;11633.825;  138.875;    0.000
776.828;14137.825;  155.875;    0.000
777.020;19741.824;  160.875;    0.000
777.212;28511.824;  153.875;    0.000
777.404;31988.824;  135.875;    0.000
777.596;29720.824;  144.875;    0.000
777.788;22654.824;  127.875;    0.000
777.980;17566.824;  141.875;    0.000
778.172;14419.825;  138.875;    0.000
778.364;12434.825;  143.875;    0.000
778.556;11066.825;  123.875;    0.000
778.748;10121.825;  103.875;    0.000
778.940; 9303.825;  176.875;    0.000
779.132; 8457.825;  144.875;    0.000
779.324; 7931.825;   75.875;    0.000
779.516; 7475.825;  117.875;    0.000
779.708; 7166.825;  151.875;    0.000
779.900; 6831.825;  127.875;    0.000
780.091; 6580.825;  155.875;    0.000
780.283; 6303.825;  157.875;    0.000
780.475; 6047.825;  140.875;    0.000
780.667; 5957.825;  141.875;    0.000
780.859; 5813.825;  113.875;    0.000
781.050; 5680.825;  153.875;    0.000
781.242; 5451.825;  118.875;    0.000
781.434; 5441.825;  121.875;    0.000
781.625; 5258.825;  146.875;    0.000
781.817; 5298.825;  154.875;    0.000
782.008; 5230.825;  144.875;    0.000
782.200; 5185.825;  152.875;    0.000
782.392; 5008.825;  160.875;    0.000
782.583; 5063.825;  122.875;    0.000
782.775; 4863.825;  144.875;    0.000
782.966; 4869.825;  143.875;    0.000
783.158; 4874.825;  125.875;    0.000
783.349; 4988.825;  173.875;    0.000
783.541; 4785.825;  166.875;    0.000
783.732; 4763.825;  163.875;    0.000
783.924; 4688.825;  157.875;    0.000
784.115; 4567.825;  158.875;    0.000
784.306; 4576.825;  160.875;    0.000
784.498; 4550.825;  132.875;    0.000
784.689; 4687.825;  181.875;    0.000
784.880; 4622.825;  156.875;    0.000
785.072; 4557.825;  134.875;    0.000
785.263; 4456.825;  155.875;    0.000
785.454; 4517.825;  141.875;    0.000
785.645; 4439.825;  114.875;    0.000
785.837; 4469.825;  137.875;    0.000
786.028; 4478.825;  158.875;    0.000
786.219; 4520.825;  135.875;    0.000
786.410; 4436.825;  152.875;    0.000
786.601; 4369.825;  132.875;    0.000
786.792; 4374.825;  152.875;    0.000
786.984; 4425.825;  162.875;    0.000
787.175; 4278.825;   97.875;    0.000
787.366; 4374.825;  129.875;    0.000
787.557; 4364.825;  135.875;    0.000
787.748; 4275.825;  127.875;    0.000
787.939; 4326.825;  152.875;    0.000
788.130; 4355.825;  182.875;    0.000
788.321; 4305.825;  130.875;    0.000
788.512; 4376.825;  161.875;    0.000
788.703; 4437.825;  127.875;    0.000
788.894; 4423.825;  121.875;    0.000
789.084; 4477.825;  134.875;    0.000
789.275; 4396.825;  108.875;    0.000
789.466; 4392.825;  152.875;    0.000
789.657; 4404.825;  115.875;    0.000
789.848; 4497.825;  150.875;    0.000
790.039; 4342.825;  132.875;    0.000
790.229; 4468.825;  169.875;    0.000
790.420; 4424.825;  159.875;    0.000
790.611; 4402.825;  123.875;    0.000
790.801; 4436.825;  144.875;    0.000
790.992; 4401.825;  177.875;    0.000
791.183; 4422.825;  128.875;    0.000
791.373; 4348.825;  123.875;    0.000
791.564; 4295.825;  131.875;    0.000
791.755; 4458.825;  103.875;    0.000
791.945; 4426.825;  104.875;    0.000
792.136; 4335.825;  115.875;    0.000
792.326; 4380.825;   99.875;    0.000
792.517; 4305.825;  139.875;    0.000
792.707; 4357.825;  155.875;    0.000
792.898; 4409.825;  139.875;    0.000
793.088; 4497.825;  153.875;    0.000
793.279; 4574.825;  137.875;    0.000
793.469; 4570.825;  109.875;    0.000
793.660; 4660.825;  119.875;    0.000
793.850; 4726.825;  119.875;    0.000
794.040; 4926.825;  132.875;    0.000
794.231; 4981.825;  122.875;    0.000
794.421; 5387.825;  124.875;    0.000
794.611; 6022.825;  151.875;    0.000
794.802; 6563.825;  121.875;    0.000
794.992; 6983.825;  139.875;    0.000
795.182; 7226.825;  132.875;    0.000
795.372; 6907.825;  149.875;    0.000
795.563; 6251.825;  153.875;    0.000
795.753; 5685.825;  120.875;    0.000
795.943; 5499.825;  121.875;    0.000
796.133; 5229.825;   97.875;    0.000
796.323; 5191.825;  122.875;    0.000
796.513; 4905.825;  142.875;    0.000
796.703; 4796.825;  125.875;    0.000
796.893; 4721.825;  126.875;    0.000
797.083; 4738.825;  150.875;    0.000
797.273; 4607.825;  108.875;    0.000
797.463; 4432.825;  156.875;    0.000
797.653; 4448.825;   80.875;    0.000
797.843; 4422.825;   88.875;    0.000
798.033; 4347.825;   96.875;    0.000
798.223; 4327.825;  159.875;    0.000
798.413; 4250.825;  155.875;    0.000
798.603; 4146.825;  125.875;    0.000
798.793; 4115.825;  141.875;    0.000
798.983; 4225.825;  113.875;    0.000
799.172; 4015.825;   85.875;    0.000
799.362; 4127.825;  141.875;    0.000
799.552; 4079.825;  122.875;    0.000
799.742; 4027.825;  124.875;    0.000
799.932; 3940.825;  102.875;    0.000
800.121; 4039.825;  146.875;    0.000
800.311; 3897.825;  122.875;    0.000
800.501; 3989.825;  120.875;    0.000
800.690; 3925.825;  141.875;    0.000
800.880; 4010.825;  146.875;    0.000
801.070; 4065.825;  122.875;    0.000
801.259; 3944.825;  138.875;    0.000
801.449; 3968.825;  115.875;    0.000
801.638; 3962.825;  132.875;    0.000
801.828; 3953.825;   92.875;    0.000
802.017; 3994.825;  150.875;    0.000
802.207; 3936.825;  134.875;    0.000
802.396; 4004.825;  133.875;    0.000
802.586; 3967.825;  117.875;    0.000
802.775; 3826.825;  155.875;    0.000
802.965; 3855.825;  132.875;    0.000
803.154; 3916.825;  176.875;    0.000
803.343; 3814.825;  106.875;    0.000
803.533; 3759.825;  154.875;    0.000
803.722; 3877.825;   97.875;    0.000
803.911; 3855.825;  107.875;    0.000
804.101; 3864.825;  145.875;    0.000
804.290; 3859.825;  130.875;    0.000
804.479; 3881.825;  152.875;    0.000
804.668; 3850.825;  160.875;    0.000
804.857; 3817.825;  161.875;    0.000
805.047; 3772.825;  126.875;    0.000
805.236; 3871.825;  136.875;    0.000
805.425; 3950.825;  153.875;    0.000
805.614; 3797.825;  139.875;    0.000
805.803; 3856.825;  144.875;    0.000
805.992; 3910.825;  160.875;    0.000
806.181; 3817.825;  139.875;    0.000
806.370; 3849.825;  104.875;    0.000
806.559; 3878.825;  103.875;    0.000
806.748; 3934.825;  145.875;    0.000
806.937; 3857.825;  151.875;    0.000
807.126; 3964.825;  119.875;    0.000
807.315; 3844.825;  139.875;    0.000
807.504; 3951.825;  143.875;    0.000
807.693; 3931.825;  164.875;    0.000
807.882; 3862.825;  135.875;    0.000
808.071; 4050.825;  131.875;    0.000
808.260; 3984.825;  113.875;    0.000
808.448; 3921.825;  161.875;    0.000
808.637; 4017.825;  125.875;    0.000
808.826; 4041.825;  155.875;    0.000
809.015; 4089.825;  113.875;    0.000
809.203; 3986.825;  152.875;    0.000
809.392; 4150.825;   90.875;    0.000
809.581; 4164.825;  186.875;    0.000
809.770; 4070.825;   99.875;    0.000
809.958; 4172.825;  146.875;    0.000
810.147; 4211.825;  115.875;    0.000
810.335; 4167.825;  122.875;    0.000
810.524; 4154.825;  150.875;    0.000
810.713; 4187.825;  121.875;    0.000
810.901; 4268.825;  156.875;    0.000
811.090; 4243.825;  161.875;    0.000
811.278; 4329.825;  138.875;    0.000
811.467; 4393.825;  184.875;    0.000
811.655; 4505.825;  150.875;    0.000
811.844; 4568.825;  137.875;    0.000
812.032; 4633.825;  142.875;    0.000
812.220; 4606.825;  134.875;    0.000
812.409; 4584.825;  143.875;    0.000
812.597; 4620.825;  164.875;    0.000
812.785; 4716.825;  188.875;    0.000
812.974; 4638.825;  156.875;    0.000
813.162; 4635.825;  166.875;    0.000
813.350; 4888.825;  115.875;    0.000
813.539; 4656.825;  167.875;    0.000
813.727; 4922.825;  165.875;    0.000
813.915; 4847.825;  137.875;    0.000
814.103; 4921.825;  166.875;    0.000
814.291; 4944.825;  151.875;    0.000
814.479; 5158.825;  147.875;    0.000
814.668; 5093.825;  166.875;    0.000
814.856; 5359.825;  160.875;    0.000
815.044; 5472.825;  172.875;    0.000
815.232; 5534.825;  193.875;    0.000
815.420; 5601.825;  173.875;    0.000
815.608; 5818.825;  134.875;    0.000
815.796; 5981.825;  105.875;    0.000
815.984; 6138.825;  125.875;    0.000
816.172; 6267.825;  160.875;    0.000
816.360; 6400.825;  162.875;    0.000
816.548; 6675.825;  160.875;    0.000
816.736; 6934.825;  132.875;    0.000
816.924; 7273.825;  184.875;    0.000
817.111; 7777.825;  145.875;    0.000
817.299; 8356.825;  132.875;    0.000
817.487; 9071.825;  193.875;    0.000
817.675;10085.825;  153.875;    0.000
817.863;11686.825;  153.875;    0.000
818.050;15740.825;  172.875;    0.000
818.238;26026.824;  131.875;    0.000
818.426;35509.824;  160.875;    0.000
818.613;26766.824;  136.875;    0.000
818.801;22431.824;  162.875;    0.000
818.989;21536.824;  153.875;    0.000
819.176;23125.824;  181.875;    0.000
819.364;32228.824;  165.875;    0.000
819.552;43909.824;  111.875;    0.000
819.739;34425.824;  192.875;    0.000
819.927;26144.824;  146.875;    0.000
820.114;21648.824;  154.875;    0.000
820.302;19266.824;  144.875;    0.000
820.489;17038.824;  133.875;    0.000
820.677;15842.825;  135.875;    0.000
820.864;14810.825;  130.875;    0.000
821.052;14450.825;   88.875;    0.000
821.239;14161.825;  143.875;    0.000
821.426;13989.825;  186.875;    0.000
821.614;15065.825;  171.875;    0.000
821.801;15375.825;   90.875;    0.000
821.988;14117.825;  143.875;    0.000
822.176;13372.825;   95.875;    0.000
822.363;13464.825;  148.875;    0.000
822.550;12508.825;  139.875;    0.000
822.737;11309.825;  122.875;    0.000
822.924;10714.825;  171.875;    0.000
823.112;10282.825;  147.875;    0.000
823.299; 9588.825;  111.875;    0.000
823.486; 9072.825;  161.875;    0.000
823.673; 8954.825;  124.875;    0.000
823.860; 8555.825;  151.875;    0.000
824.047; 8483.825;  145.875;    0.000
824.234; 8950.825;  139.875;    0.000
824.421; 9032.825;  110.875;    0.000
824.608; 8353.825;  145.875;    0.000
824.795; 7645.825;  115.875;    0.000
824.982; 7243.825;  148.875;    0.000
825.169; 6895.825;  135.875;    0.000
825.356; 6708.825;  122.875;    0.000
825.543; 6400.825;  142.875;    0.000
825.730; 6260.825;   89.875;    0.000
825.917; 6089.825;  127.875;    0.000
826.104; 5803.825;  187.875;    0.000
826.290; 5722.825;  138.875;    0.000
826.477; 5596.825;  140.875;    0.000
826.664; 5482.825;  106.875;    0.000
826.851; 5330.825;  155.875;    0.000
827.038; 5277.825;  125.875;    0.000
827.224; 5113.825;  126.875;    0.000
827.411; 5054.825;  163.875;    0.000
827.598; 4949.825;  140.875;    0.000
827.784; 4935.825;  117.875;    0.000
827.971; 4820.825;  114.875;    0.000
828.157; 4644.825;  146.875;    0.000
828.344; 4643.825;  161.875;    0.000
828.531; 4568.825;  155.875;    0.000
828.717; 4481.825;  130.875;    0.000
828.904; 4380.825;  138.875;    0.000
829.090; 4440.825;  176.875;    0.000
829.277; 4229.825;  152.875;    0.000
829.463; 4298.825;  139.875;    0.000
829.650; 4236.825;  168.875;    0.000
829.836; 4124.825;  176.875;    0.000
830.022; 4142.825;  159.875;    0.000
830.209; 4060.825;  135.875;    0.000
830.395; 3949.825;  177.875;    0.000
830.581; 3882.825;  125.875;    0.000
830.768; 3834.825;  155.875;    0.000
830.954; 3843.825;  187.875;    0.000
831.140; 3902.825;  135.875;    0.000
831.327; 3660.825;  158.875;    0.000
831.513; 3751.825;  126.875;    0.000
831.699; 3799.825;  167.875;    0.000
831.885; 3745.825;  165.875;    0.000
832.071; 3601.825;  167.875;    0.000
832.257; 3610.825;  144.875;    0.000
832.444; 3647.825;  158.875;    0.000
832.630; 3595.825;  167.875;    0.000
832.816; 3534.825;  150.875;    0.000
833.002; 3488.825;  157.875;    0.000
833.188; 3539.825;  169.875;    0.000
833.374; 3535.825;  144.875;    0.000
833.560; 3349.825;  179.875;    0.000
833.746; 3467.825;  134.875;    0.000
833.932; 3302.825;  150.875;    0.000
834.118; 3323.825;   98.875;    0.000
834.303; 3427.825;  121.875;    0.000
834.489; 3342.825;  179.875;    0.000
834.675; 3299.825;  136.875;    0.000
834.861; 3205.825;  130.875;    0.000
835.047; 3265.825;  132.875;    0.000
835.233; 3311.825;  104.875;    0.000
835.418; 3233.825;  143.875;    0.000
835.604; 3223.825;  127.875;    0.000
835.790; 3222.825;  138.875;    0.000
835.976; 3078.825;  137.875;    0.000
836.161; 3121.825;  155.875;    0.000
836.347; 3098.825;  101.875;    0.000
836.533; 3041.825;  121.875;    0.000
836.718; 3193.825;  150.875;    0.000
836.904; 3099.825;  168.875;    0.000
837.089; 3092.825;  169.875;    0.000
837.275; 3035.825;  172.875;    0.000
837.460; 3066.825;  140.875;    0.000
837.646; 3078.825;  144.875;    0.000
837.831; 3051.825;  137.875;    0.000
838.017; 3122.825;  176.875;    0.000
838.202; 3057.825;  107.875;    0.000
838.388; 3051.825;  181.875;    0.000
838.573; 3055.825;  151.875;    0.000
838.759; 3139.825;  160.875;    0.000
838.944; 3021.825;  121.875;    0.000
839.129; 2992.825;  145.875;    0.000
839.315; 3023.825;  166.875;    0.000
839.500; 3027.825;  143.875;    0.000
839.685; 3061.825;   93.875;    0.000
839.870; 3058.825;  160.875;    0.000
840.056; 2944.825;  132.875;    0.000
840.241; 3089.825;  154.875;    0.000
840.426; 3071.825;  161.875;    0.000
840.611; 3012.825;  186.875;    0.000
840.796; 3147.825;  135.875;    0.000
840.981; 3114.825;  147.875;    0.000
841.166; 3166.825;  138.875;    0.000
841.352; 3061.825;  156.875;    0.000
841.537; 3098.825;  170.875;    0.000
841.722; 3173.825;  143.875;    0.000
841.907; 3187.825;  143.875;    0.000
842.092; 3195.825;  166.875;    0.000
842.277; 3252.825;  113.875;    0.000
842.461; 3283.825;  126.875;    0.000
842.646; 3374.825;  145.875;    0.000
842.831; 3373.825;  193.875;    0.000
843.016; 3465.825;  162.875;    0.000
843.201; 3512.825;  144.875;    0.000
843.386; 3723.825;  160.875;    0.000
843.571; 3725.825;  136.875;    0.000
843.755; 3934.825;  134.875;    0.000
843.940; 4234.825;  136.875;    0.000
844.125; 4624.825;  169.875;    0.000
844.310; 5355.825;  189.875;    0.000
844.494; 6650.825;  167.875;    0.000
844.679; 8907.825;  184.875;    0.000
844.864; 9041.825;  147.875;    0.000
845.048; 7350.825;  140.875;    0.000
845.233; 6281.825;  178.875;    0.000
845.418; 5653.825;  145.875;    0.000
845.602; 5063.825;  147.875;    0.000
845.787; 4596.825;  147.875;    0.000
845.971; 4341.825;  165.875;    0.000
846.156; 4010.825;  106.875;    0.000
846.340; 3978.825;  168.875;    0.000
846.525; 3699.825;  155.875;    0.000
846.709; 3602.825;  157.875;    0.000
846.893; 3494.825;  166.875;    0.000
847.078; 3373.825;  138.875;    0.000
847.262; 3309.825;  171.875;    0.000
847.447; 3237.825;  135.875;    0.000
847.631; 3175.825;  136.875;    0.000
847.815; 3021.825;  136.875;    0.000
848.000; 3074.825;  126.875;    0.000
848.184; 2938.825;  131.875;    0.000
848.368; 3034.825;  153.875;    0.000
848.552; 2867.825;  137.875;    0.000
848.736; 2880.825;  151.875;    0.000
848.921; 2885.825;  156.875;    0.000
849.105; 2839.825;  153.875;    0.000
849.289; 2793.825;  180.875;    0.000
849.473; 2767.825;  156.875;    0.000
849.657; 2794.825;  157.875;    0.000
849.841; 2662.825;  147.875;    0.000
850.025; 2735.825;  194.875;    0.000
850.209; 2738.825;  147.875;    0.000
850.393; 2725.825;  141.875;    0.000
850.577; 2805.825;  156.875;    0.000
850.761; 2723.825;  157.875;    0.000
850.945; 2611.825;  128.875;    0.000
851.129; 2657.825;  151.875;    0.000
851.313; 2588.825;  180.875;    0.000
851.497; 2632.825;  123.875;    0.000
851.680; 2717.825;  188.875;    0.000
851.864; 2607.825;  177.875;    0.000
852.048; 2592.825;  163.875;    0.000
852.232; 2606.825;  149.875;    0.000
852.416; 2652.825;  187.875;    0.000
852.599; 2558.825;  169.875;    0.000
852.783; 2541.825;  154.875;    0.000
852.967; 2592.825;  191.875;    0.000
853.150; 2623.825;  170.875;    0.000
853.334; 2542.825;  173.875;    0.000
853.518; 2569.825;  186.875;    0.000
853.701; 2486.825;  142.875;    0.000
853.885; 2424.825;  153.875;    0.000
854.068; 2523.825;  132.875;    0.000
854.252; 2451.825;  184.875;    0.000
854.435; 2464.825;  152.875;    0.000
854.619; 2429.825;  152.875;    0.000
854.802; 2458.825;  164.875;    0.000
854.986; 2441.825;  151.875;    0.000
855.169; 2467.825;  153.875;    0.000
855.353; 2628.825;  183.875;    0.000
855.536; 2480.825;  113.875;    0.000
855.719; 2527.825;  181.875;    0.000
855.903; 2520.825;  159.875;    0.000
856.086; 2531.825;  142.875;    0.000
856.269; 2464.825;  171.875;    0.000
856.452; 2552.825;  132.875;    0.000
856.636; 2493.825;  140.875;    0.000
856.819; 2860.825;  165.875;    0.000
857.002; 2763.825;  170.875;    0.000
857.185; 2742.825;  173.875;    0.000
857.368; 2612.825;  129.875;    0.000
857.552; 2678.825;  151.875;    0.000
857.735; 2586.825;  146.875;    0.000
857.918; 2637.825;  114.875;    0.000
858.101; 2585.825;  152.875;    0.000
858.284; 2630.825;  164.875;    0.000
858.467; 2623.825;  147.875;    0.000
858.650; 2721.825;  146.875;    0.000
858.833; 2694.825;  118.875;    0.000
859.016; 2786.825;  161.875;    0.000
859.199; 2817.825;  135.875;    0.000
859.382; 3073.825;  157.875;    0.000
859.564; 3254.825;  124.875;    0.000
859.747; 3207.825;  154.875;    0.000
859.930; 2935.825;  138.875;    0.000
860.113; 2956.825;  153.875;    0.000
860.296; 3028.825;  180.875;    0.000
860.478; 2747.825;  145.875;    0.000
860.661; 2833.825;  160.875;    0.000
860.844; 2823.825;   96.875;    0.000
861.027; 2768.825;  128.875;    0.000
861.209; 2716.825;  127.875;    0.000
861.392; 2807.825;  126.875;    0.000
861.575; 2834.825;  155.875;    0.000
861.757; 2787.825;  141.875;    0.000
861.940; 2846.825;  181.875;    0.000
862.122; 2784.825;  145.875;    0.000
862.305; 2979.825;  124.875;    0.000
862.487; 2917.825;  151.875;    0.000
862.670; 3215.825;  132.875;    0.000
862.852; 3663.825;  112.875;    0.000
863.035; 4290.825;  116.875;    0.000
863.217; 4131.825;  131.875;    0.000
863.400; 3856.825;  145.875;    0.000
863.582; 3643.825;  147.875;    0.000
863.764; 3497.825;  163.875;    0.000
863.947; 3325.825;  129.875;    0.000
864.129; 3249.825;  159.875;    0.000
864.311; 3264.825;  144.875;    0.000
864.493; 3163.825;  141.875;    0.000
864.676; 3282.825;  159.875;    0.000
864.858; 3184.825;  146.875;    0.000
865.040; 3120.825;  163.875;    0.000
865.222; 3194.825;  133.875;    0.000
865.404; 3203.825;  148.875;    0.000
865.587; 3357.825;  177.875;    0.000
865.769; 3332.825;  172.875;    0.000
865.951; 3358.825;  145.875;    0.000
866.133; 3361.825;  168.875;    0.000
866.315; 3399.825;  147.875;    0.000
866.497; 3348.825;  164.875;    0.000
866.679; 3456.825;  143.875;    0.000
866.861; 3563.825;  170.875;    0.000
867.043; 3736.825;  185.875;    0.000
867.225; 3927.825;  149.875;    0.000
867.407; 4152.825;  143.875;    0.000
867.589; 4518.825;  169.875;    0.000
867.770; 5337.825;  166.875;    0.000
867.952; 7390.825;  158.875;    0.000
868.134; 9341.825;  170.875;    0.000
868.316; 9382.825;  157.875;    0.000
868.498; 9077.825;  186.875;    0.000
868.679; 7948.825;  158.875;    0.000
868.861; 6963.825;  180.875;    0.000
869.043; 5924.825;  164.875;    0.000
869.224; 5271.825;  156.875;    0.000
869.406; 4804.825;  176.875;    0.000
869.588; 4494.825;  152.875;    0.000
869.769; 4257.825;  131.875;    0.000
869.951; 4242.825;  203.875;    0.000
870.132; 4327.825;  143.875;    0.000
870.314; 4660.825;  129.875;    0.000
870.495; 4801.825;  175.875;    0.000
870.677; 4326.825;  165.875;    0.000
870.858; 4235.825;  151.875;    0.000
871.040; 4431.825;  155.875;    0.000
871.221; 4784.825;  144.875;    0.000
871.403; 4720.825;  131.875;    0.000
871.584; 4221.825;  174.875;    0.000
871.765; 4445.825;  169.875;    0.000
871.947; 4633.825;  187.875;    0.000
872.128; 4220.825;  181.875;    0.000
872.309; 3884.825;  129.875;    0.000
872.491; 3524.825;  142.875;    0.000
872.672; 3338.825;  158.875;    0.000
872.853; 3402.825;  179.875;    0.000
873.034; 3234.825;  164.875;    0.000
873.215; 3116.825;  168.875;    0.000
873.396; 2932.825;  114.875;    0.000
873.578; 2841.825;  126.875;    0.000
873.759; 2761.825;  177.875;    0.000
873.940; 2733.825;  169.875;    0.000
874.121; 2562.825;  133.875;    0.000
874.302; 2586.825;  164.875;    0.000
874.483; 2672.825;  162.875;    0.000
874.664; 2602.825;  140.875;    0.000
874.845; 2532.825;  124.875;    0.000
875.026; 2553.825;  146.875;    0.000
875.207; 2489.825;  147.875;    0.000
875.388; 2536.825;  174.875;    0.000
875.568; 2433.825;  179.875;    0.000
875.749; 2310.825;  155.875;    0.000
875.930; 2438.825;  166.875;    0.000
876.111; 2486.825;  153.875;    0.000
876.292; 2278.825;  146.875;    0.000
876.472; 2354.825;  167.875;    0.000
876.653; 2313.825;  145.875;    0.000
876.834; 2289.825;  172.875;    0.000
877.015; 2341.825;  184.875;    0.000
877.195; 2173.825;  160.875;    0.000
877.376; 2289.825;  163.875;    0.000
877.556; 2168.825;  164.875;    0.000
877.737; 2250.825;  179.875;    0.000
877.918; 2262.825;  137.875;    0.000
878.098; 2236.825;  117.875;    0.000
878.279; 2212.825;  135.875;    0.000
878.459; 2102.825;  149.875;    0.000
878.640; 2171.825;  171.875;    0.000
878.820; 2157.825;  142.875;    0.000
879.000; 2182.825;  166.875;    0.000
879.181; 2148.825;  177.875;    0.000
879.361; 2223.825;  176.875;    0.000
879.542; 2087.825;  159.875;    0.000
879.722; 2132.825;  122.875;    0.000
879.902; 2173.825;  166.875;    0.000
880.083; 2228.825;  164.875;    0.000
880.263; 2167.825;  139.875;    0.000
880.443; 2203.825;  179.875;    0.000
880.623; 2384.825;  154.875;    0.000
880.803; 2668.825;  160.875;    0.000
880.984; 2368.825;  181.875;    0.000
881.164; 2379.825;  167.875;    0.000
881.344; 2235.825;  141.875;    0.000
881.524; 2238.825;  190.875;    0.000
881.704; 2272.825;  165.875;    0.000
881.884; 2372.825;  144.875;    0.000
882.064; 2443.825;  135.875;    0.000
882.244; 2513.825;  186.875;    0.000
882.424; 2343.825;  150.875;    0.000
882.604; 2340.825;  168.875;    0.000
882.784; 2170.825;  155.875;    0.000
882.964; 2211.825;  137.875;    0.000
883.144; 2168.825;  136.875;    0.000
883.324; 2201.825;  200.875;    0.000
883.504; 2134.825;  203.875;    0.000
883.683; 2107.825;  149.875;    0.000
883.863; 2085.825;  160.875;    0.000
884.043; 2004.825;  161.875;    0.000
884.223; 2096.825;  147.875;    0.000
884.402; 2017.825;  175.875;    0.000
884.582; 2091.825;  188.875;    0.000
884.762; 2052.825;  173.875;    0.000
884.941; 2044.825;  164.875;    0.000
885.121; 1980.825;  147.875;    0.000
885.301; 2044.825;  135.875;    0.000
885.480; 2033.825;  145.875;    0.000
885.660; 1948.825;  144.875;    0.000
885.839; 2064.825;  155.875;    0.000
886.019; 2050.825;  207.875;    0.000
886.198; 2018.825;  165.875;    0.000
886.378; 1960.825;  120.875;    0.000
886.557; 1944.825;  133.875;    0.000
886.737; 1956.825;  119.875;    0.000
886.916; 1931.825;  129.875;    0.000
887.095; 1923.825;  158.875;    0.000
887.275; 1992.825;  169.875;    0.000
887.454; 1938.825;  184.875;    0.000
887.633; 1956.825;  143.875;    0.000
887.813; 2003.825;  154.875;    0.000
887.992; 1949.825;  188.875;    0.000
888.171; 1916.825;  176.875;    0.000
888.350; 1991.825;  161.875;    0.000
888.530; 1844.825;  163.875;    0.000
888.709; 1903.825;  136.875;    0.000
888.888; 1910.825;  177.875;    0.000
889.067; 1952.825;  169.875;    0.000
889.246; 1987.825;  188.875;    0.000
889.425; 1922.825;  187.875;    0.000
889.604; 1955.825;  169.875;    0.000
889.783; 1899.825;  182.875;    0.000
889.962; 1896.825;  112.875;    0.000
890.141; 1865.825;  231.875;    0.000
890.320; 1899.825;  161.875;    0.000
890.499; 1933.825;  164.875;    0.000
890.678; 1893.825;  176.875;    0.000
890.857; 1896.825;  163.875;    0.000
891.036; 1900.825;  161.875;    0.000
891.214; 1831.825;  156.875;    0.000
891.393; 1914.825;  167.875;    0.000
891.572; 1936.825;  163.875;    0.000
891.751; 1940.825;  205.875;    0.000
891.930; 1916.825;  162.875;    0.000
892.108; 1887.825;  153.875;    0.000
892.287; 1971.825;  153.875;    0.000
892.466; 1906.825;  201.875;    0.000
892.644; 1984.825;  158.875;    0.000
892.823; 1846.825;  122.875;    0.000
893.001; 1995.825;  148.875;    0.000
893.180; 1835.825;  142.875;    0.000
893.359; 1887.825;  192.875;    0.000
893.537; 1940.825;  166.875;    0.000
893.716; 1895.825;  144.875;    0.000
893.894; 1965.825;  145.875;    0.000
894.073; 1869.825;  180.875;    0.000
894.251; 1939.825;  165.875;    0.000
894.429; 1854.825;  182.875;    0.000
894.608; 1863.825;  181.875;    0.000
894.786; 1872.825;  180.875;    0.000
894.964; 1986.825;  207.875;    0.000
895.143; 1877.825;  190.875;    0.000
895.321; 1857.825;  206.875;    0.000
895.499; 1943.825;  164.875;    0.000
895.677; 1832.825;  199.875;    0.000
895.856; 1941.825;  203.875;    0.000
896.034; 1908.825;  200.875;    0.000
896.212; 1988.825;  198.875;    0.000
896.390; 1857.825;  161.875;    0.000
896.568; 1940.825;  205.875;    0.000
896.746; 1946.825;  185.875;    0.000
896.924; 1890.825;  179.875;    0.000
897.102; 1980.825;  190.875;    0.000
897.280; 1854.825;  160.875;    0.000
897.458; 1956.825;  196.875;    0.000
897.636; 1995.825;  168.875;    0.000
897.814; 1953.825;  159.875;    0.000
897.992; 1950.825;  216.875;    0.000
898.170; 1863.825;  195.875;    0.000
898.348; 1964.825;  185.875;    0.000
898.526; 1961.825;  199.875;    0.000
898.704; 1920.825;  215.875;    0.000
898.882; 1959.825;  195.875;    0.000
899.059; 1913.825;  197.875;    0.000
899.237; 1990.825;  168.875;    0.000
899.415; 1962.825;  221.875;    0.000
899.593; 1898.825;  171.875;    0.000
899.770; 1931.825;  191.875;    0.000
899.948; 1988.825;  206.875;    0.000
900.125; 1987.825;  175.875;    0.000
900.303; 1975.825;  176.875;    0.000
900.481; 1983.825;  199.875;    0.000
900.658; 2049.825;  217.875;    0.000
900.836; 1996.825;  192.875;    0.000
901.013; 2043.825;  221.875;    0.000
901.191; 1999.825;  203.875;    0.000
901.368; 1997.825;  189.875;    0.000
901.546; 2080.825;  212.875;    0.000
901.723; 2048.825;  189.875;    0.000
901.901; 2101.825;  198.875;    0.000
902.078; 2095.825;  193.875;    0.000
902.255; 2150.825;  176.875;    0.000
902.433; 2120.825;  201.875;    0.000
902.610; 2144.825;  170.875;    0.000
902.787; 2172.825;  164.875;    0.000
902.964; 2219.825;  216.875;    0.000
903.142; 2241.825;  153.875;    0.000
903.319; 2322.825;  204.875;    0.000
903.496; 2248.825;  188.875;    0.000
903.673; 2378.825;  209.875;    0.000
903.850; 2361.825;  173.875;    0.000
904.027; 2374.825;  186.875;    0.000
904.204; 2575.825;  241.875;    0.000
904.381; 2540.825;  187.875;    0.000
904.558; 2913.825;  196.875;    0.000
904.735; 3244.825;  206.875;    0.000
904.912; 3175.825;  228.875;    0.000
905.089; 3309.825;  172.875;    0.000
905.266; 3086.825;  175.875;    0.000
905.443; 2852.825;  239.875;    0.000
905.620; 2776.825;  176.875;    0.000
905.797; 2643.825;  205.875;    0.000
905.974; 2560.825;  187.875;    0.000
906.151; 2641.825;  135.875;    0.000
906.327; 2614.825;  209.875;    0.000
906.504; 2484.825;  145.875;    0.000
906.681; 2441.825;  178.875;    0.000
906.858; 2420.825;  179.875;    0.000
907.034; 2454.825;  221.875;    0.000
907.211; 2317.825;  166.875;    0.000
907.388; 2296.825;  206.875;    0.000
907.564; 2200.825;  150.875;    0.000
907.741; 2312.825;  187.875;    0.000
907.917; 2221.825;  180.875;    0.000
908.094; 2230.825;  206.875;    0.000
908.271; 2198.825;  184.875;    0.000
908.447; 2284.825;  212.875;    0.000
908.623; 2084.825;  193.875;    0.000
908.800; 2096.825;  185.875;    0.000
908.976; 2119.825;  202.875;    0.000
909.153; 2061.825;  175.875;    0.000
909.329; 2060.825;  193.875;    0.000
909.505; 2078.825;  154.875;    0.000
909.682; 2050.825;  188.875;    0.000
909.858; 2087.825;  162.875;    0.000
910.034; 2058.825;  181.875;    0.000
910.211; 2014.825;  142.875;    0.000
910.387; 2023.825;  200.875;    0.000
910.563; 2063.825;  163.875;    0.000
910.739; 1957.825;  156.875;    0.000
910.915; 1993.825;  202.875;    0.000
911.091; 2011.825;  186.875;    0.000
911.268; 2047.825;  167.875;    0.000
911.444; 1933.825;  193.875;    0.000
911.620; 1986.825;  175.875;    0.000
911.796; 1954.825;  168.875;    0.000
911.972; 2117.825;  154.875;    0.000
912.148; 2033.825;  201.875;    0.000
912.324; 1974.825;  146.875;    0.000
912.500; 1957.825;  185.875;    0.000
912.676; 1953.825;  183.875;    0.000
912.851; 2044.825;  204.875;    0.000
913.027; 1986.825;  196.875;    0.000
913.203; 2007.825;  174.875;    0.000
913.379; 1986.825;  210.875;    0.000
913.555; 1980.825;  197.875;    0.000
913.730; 1976.825;  209.875;    0.000
913.906; 2047.825;  169.875;    0.000
914.082; 2015.825;  236.875;    0.000
914.258; 2079.825;  216.875;    0.000
914.433; 1930.825;  212.875;    0.000
914.609; 1952.825;  180.875;    0.000
914.784; 1937.825;  176.875;    0.000
914.960; 1999.825;  227.875;    0.000
915.136; 1977.825;  149.875;    0.000
915.311; 2003.825;  165.875;    0.000
915.487; 1930.825;  167.875;    0.000
915.662; 1982.825;  225.875;    0.000
915.838; 1963.825;  165.875;    0.000
916.013; 2036.825;  188.875;    0.000
916.189; 2075.825;  200.875;    0.000
916.364; 2011.825;  201.875;    0.000
916.539; 1987.825;  240.875;    0.000
916.715; 2009.825;  180.875;    0.000
916.890; 2104.825;  191.875;    0.000
917.065; 2009.825;  211.875;    0.000
917.240; 2041.825;  212.875;    0.000
917.416; 1937.825;  207.875;    0.000
917.591; 1972.825;  189.875;    0.000
917.766; 2054.825;  205.875;    0.000
917.941; 2012.825;  191.875;    0.000
918.116; 1932.825;  195.875;    0.000
918.292; 2034.825;  183.875;    0.000
918.467; 2016.825;  206.875;    0.000
918.642; 1905.825;  190.875;    0.000
918.817; 2034.825;  193.875;    0.000
918.992; 2018.825;  171.875;    0.000
919.167; 2053.825;  191.875;    0.000
919.342; 2042.825;  202.875;    0.000
919.517; 2076.825;  182.875;    0.000
919.692; 2051.825;  190.875;    0.000
919.867; 2097.825;  221.875;    0.000
920.041; 2090.825;  195.875;    0.000
920.216; 2163.825;  226.875;    0.000
920.391; 2076.825;  230.875;    0.000
920.566; 2173.825;  210.875;    0.000
920.741; 2176.825;  204.875;    0.000
920.915; 2313.825;  213.875;    0.000
921.090; 2487.825;  194.875;    0.000
921.265; 2930.825;  234.875;    0.000
921.439; 3198.825;  228.875;    0.000
921.614; 2904.825;  199.875;    0.000
921.789; 2670.825;  194.875;    0.000
921.963; 2567.825;  236.875;    0.000
922.138; 2523.825;  192.875;    0.000
922.312; 2431.825;  203.875;    0.000
922.487; 2358.825;  207.875;    0.000
922.661; 2619.825;  216.875;    0.000
922.836; 2793.825;  199.875;    0.000
923.010; 2855.825;  179.875;    0.000
923.185; 2703.825;  241.875;    0.000
923.359; 2629.825;  199.875;    0.000
923.534; 2553.825;  227.875;    0.000
923.708; 2672.825;  213.875;    0.000
923.882; 2821.825;  203.875;    0.000
924.057; 2571.825;  194.875;    0.000
924.231; 2502.825;  185.875;    0.000
924.405; 2552.825;  223.875;    0.000
924.579; 2536.825;  196.875;    0.000
924.753; 2402.825;  209.875;    0.000
924.928; 2353.825;  202.875;    0.000
925.102; 2397.825;  184.875;    0.000
925.276; 2396.825;  191.875;    0.000
925.450; 2448.825;  199.875;    0.000
925.624; 2395.825;  190.875;    0.000
925.798; 2438.825;  214.875;    0.000
925.972; 2516.825;  193.875;    0.000
926.146; 2682.825;  191.875;    0.000
926.320; 2822.825;  177.875;    0.000
926.494; 2903.825;  190.875;    0.000
926.668; 3125.825;  182.875;    0.000
926.842; 3134.825;  182.875;    0.000
927.016; 3167.825;  235.875;    0.000
927.190; 3163.825;  234.875;    0.000
927.363; 3069.825;  214.875;    0.000
927.537; 2944.825;  198.875;    0.000
927.711; 2839.825;  154.875;    0.000
927.885; 2865.825;  167.875;    0.000
928.058; 2849.825;  210.875;    0.000
928.232; 2750.825;  206.875;    0.000
928.406; 2704.825;  176.875;    0.000
928.579; 2631.825;  182.875;    0.000
928.753; 2654.825;  179.875;    0.000
928.927; 2506.825;  186.875;    0.000
929.100; 2549.825;  188.875;    0.000
929.274; 2510.825;  167.875;    0.000
929.447; 2497.825;  152.875;    0.000
929.621; 2553.825;  195.875;    0.000
929.794; 2411.825;  200.875;    0.000
929.968; 2342.825;  203.875;    0.000
930.141; 2331.825;  237.875;    0.000
930.315; 2332.825;  165.875;    0.000
930.488; 2352.825;  175.875;    0.000
930.661; 2335.825;  173.875;    0.000
930.835; 2239.825;  171.875;    0.000
931.008; 2233.825;  210.875;    0.000
931.181; 2224.825;  206.875;    0.000
931.354; 2216.825;  195.875;    0.000
931.528; 2167.825;  178.875;    0.000
931.701; 2147.825;  179.875;    0.000
931.874; 2130.825;  150.875;    0.000
932.047; 2106.825;  154.875;    0.000
932.220; 2106.825;  185.875;    0.000
932.393; 2029.825;  166.875;    0.000
932.566; 2083.825;  171.875;    0.000
932.739; 2121.825;  196.875;    0.000
932.912; 2109.825;  212.875;    0.000
933.085; 2095.825;  234.875;    0.000
933.258; 2124.825;  212.875;    0.000
933.431; 2047.825;  181.875;    0.000
933.604; 2078.825;  201.875;    0.000
933.777; 2148.825;  201.875;    0.000
933.950; 1977.825;  176.875;    0.000
934.123; 2052.825;  175.875;    0.000
934.296; 2073.825;  174.875;    0.000
934.468; 1999.825;  186.875;    0.000
934.641; 1976.825;  192.875;    0.000
934.814; 2038.825;  187.875;    0.000
934.987; 2048.825;  165.875;    0.000
935.159; 2000.825;  162.875;    0.000
935.332; 2009.825;  210.875;    0.000
935.505; 1980.825;  191.875;    0.000
935.677; 1925.825;  159.875;    0.000
935.850; 2010.825;  170.875;    0.000
936.022; 1998.825;  172.875;    0.000
936.195; 2064.825;  202.875;    0.000
936.367; 2006.825;  179.875;    0.000
936.540; 2052.825;  207.875;    0.000
936.712; 2071.825;  200.875;    0.000
936.885; 2083.825;  219.875;    0.000
937.057; 2026.825;  150.875;    0.000
937.229; 2001.825;  187.875;    0.000
937.402; 2022.825;  169.875;    0.000
937.574; 2043.825;  127.875;    0.000
937.746; 2061.825;  171.875;    0.000
937.919; 2165.825;  176.875;    0.000
938.091; 2338.825;  193.875;    0.000
938.263; 2409.825;  200.875;    0.000
938.435; 2511.825;  181.875;    0.000
938.608; 2844.825;  191.875;    0.000
938.780; 3056.825;  173.875;    0.000
938.952; 3135.825;  184.875;    0.000
939.124; 3144.825;  171.875;    0.000
939.296; 3519.825;  156.875;    0.000
939.468; 3646.825;  147.875;    0.000
939.640; 3248.825;  186.875;    0.000
939.812; 3065.825;  217.875;    0.000
939.984; 2922.825;  155.875;    0.000
940.156; 2787.825;  191.875;    0.000
940.328; 2613.825;  201.875;    0.000
940.500; 2504.825;  176.875;    0.000
940.672; 2374.825;  190.875;    0.000
940.843; 2353.825;  143.875;    0.000
941.015; 2377.825;  189.875;    0.000
941.187; 2274.825;  172.875;    0.000
941.359; 2226.825;  175.875;    0.000
941.531; 2239.825;  154.875;    0.000
941.702; 2232.825;  183.875;    0.000
941.874; 2118.825;  140.875;    0.000
942.046; 2175.825;  177.875;    0.000
942.217; 2093.825;  147.875;    0.000
942.389; 2221.825;  196.875;    0.000
942.560; 2050.825;  163.875;    0.000
942.732; 2059.825;  187.875;    0.000
942.904; 2087.825;  226.875;    0.000
943.075; 1940.825;  159.875;    0.000
943.247; 1966.825;  209.875;    0.000
943.418; 2003.825;  167.875;    0.000
943.589; 2025.825;  195.875;    0.000
943.761; 2019.825;  190.875;    0.000
943.932; 1964.825;  187.875;    0.000
944.104; 2015.825;  194.875;    0.000
944.275; 1953.825;  177.875;    0.000
944.446; 1942.825;  155.875;    0.000
944.617; 1823.825;  176.875;    0.000
944.789; 1894.825;  171.875;    0.000
944.960; 1895.825;  172.875;    0.000
945.131; 1880.825;  158.875;    0.000
945.302; 1877.825;  201.875;    0.000
945.473; 1833.825;  141.875;    0.000
945.645; 1831.825;  197.875;    0.000
945.816; 1867.825;  165.875;    0.000
945.987; 1890.825;  190.875;    0.000
946.158; 1932.825;  158.875;    0.000
946.329; 1974.825;  160.875;    0.000
946.500; 1977.825;  190.875;    0.000
946.671; 1845.825;  152.875;    0.000
946.842; 1877.825;  182.875;    0.000
947.013; 1834.825;  160.875;    0.000
947.183; 1787.825;  203.875;    0.000
947.354; 1922.825;  174.875;    0.000
947.525; 1750.825;  173.875;    0.000
947.696; 1872.825;  170.875;    0.000
947.867; 1757.825;  187.875;    0.000
948.037; 1713.825;  165.875;    0.000
948.208; 1853.825;  154.875;    0.000
948.379; 1899.825;  176.875;    0.000
948.550; 1824.825;  176.875;    0.000
948.720; 1734.825;  169.875;    0.000
948.891; 1820.825;  216.875;    0.000
949.061; 1784.825;  200.875;    0.000
949.232; 1709.825;  163.875;    0.000
949.403; 1780.825;  157.875;    0.000
949.573; 1797.825;  158.875;    0.000
949.744; 1824.825;  213.875;    0.000
949.914; 1776.825;  177.875;    0.000
950.085; 1866.825;  195.875;    0.000
950.255; 1812.825;  166.875;    0.000
950.425; 1778.825;  196.875;    0.000
950.596; 1788.825;  176.875;    0.000
950.766; 1816.825;  228.875;    0.000
950.936; 1741.825;  185.875;    0.000
951.107; 1780.825;  178.875;    0.000
951.277; 1703.825;  227.875;    0.000
951.447; 1824.825;  219.875;    0.000
951.617; 1776.825;  219.875;    0.000
951.788; 1688.825;  198.875;    0.000
951.958; 1722.825;  202.875;    0.000
952.128; 1661.825;  197.875;    0.000
952.298; 1798.825;  211.875;    0.000
952.468; 1760.825;  233.875;    0.000
952.638; 1784.825;  222.875;    0.000
952.808; 1783.825;  210.875;    0.000
952.978; 1724.825;  216.875;    0.000
953.148; 1807.825;  203.875;    0.000
953.318; 1686.825;  212.875;    0.000
953.488; 1722.825;  156.875;    0.000
953.658; 1747.825;  226.875;    0.000
953.828; 1648.825;  223.875;    0.000
953.998; 1715.825;  209.875;    0.000
954.167; 1653.825;  203.875;    0.000
954.337; 1693.825;  209.875;    0.000
954.507; 1699.825;  252.875;    0.000
954.677; 1692.825;  207.875;    0.000
954.846; 1703.825;  240.875;    0.000
955.016; 1740.825;  197.875;    0.000
955.186; 1642.825;  208.875;    0.000
955.355; 1731.825;  243.875;    0.000
955.525; 1696.825;  211.875;    0.000
955.695; 1677.825;  187.875;    0.000
955.864; 1670.825;  204.875;    0.000
956.034; 1617.825;  199.875;    0.000
956.203; 1705.825;  257.875;    0.000
956.373; 1610.825;  193.875;    0.000
956.542; 1650.825;  187.875;    0.000
956.711; 1671.825;  259.875;    0.000
956.881; 1588.825;  227.875;    0.000
957.050; 1670.825;  260.875;    0.000
957.220; 1637.825;  246.875;    0.000
957.389; 1651.825;  211.875;    0.000
957.558; 1573.825;  197.875;    0.000
957.727; 1570.825;  227.875;    0.000
957.897; 1581.825;  219.875;    0.000
958.066; 1626.825;  180.875;    0.000
958.235; 1551.825;  179.875;    0.000
958.404; 1642.825;  194.875;    0.000
958.573; 1669.825;  235.875;    0.000
958.743; 1640.825;  191.875;    0.000
958.912; 1565.825;  181.875;    0.000
959.081; 1555.825;  193.875;    0.000
959.250; 1559.825;  180.875;    0.000
959.419; 1588.825;  205.875;    0.000
959.588; 1654.825;  241.875;    0.000
959.757; 1626.825;  202.875;    0.000
959.926; 1591.825;  212.875;    0.000
960.094; 1611.825;  199.875;    0.000
960.263; 1508.825;  226.875;    0.000
960.432; 1605.825;  188.875;    0.000
960.601; 1585.825;  200.875;    0.000
960.770; 1595.825;  197.875;    0.000
960.939; 1593.825;  195.875;    0.000
961.107; 1496.825;  198.875;    0.000
961.276; 1536.825;  151.875;    0.000
961.445; 1560.825;  227.875;    0.000
961.613; 1589.825;  186.875;    0.000
961.782; 1568.825;  187.875;    0.000
961.951; 1550.825;  194.875;    0.000
962.119; 1516.825;  227.875;    0.000
962.288; 1548.825;  181.875;    0.000
962.456; 1476.825;  206.875;    0.000
962.625; 1568.825;  181.875;    0.000
962.793; 1533.825;  216.875;    0.000
962.962; 1572.825;  237.875;    0.000
963.130; 1486.825;  194.875;    0.000
963.298; 1558.825;  190.875;    0.000
963.467; 1546.825;  204.875;    0.000
963.635; 1488.825;  159.875;    0.000
963.803; 1554.825;  208.875;    0.000
963.972; 1633.825;  206.875;    0.000
964.140; 1597.825;  178.875;    0.000
964.308; 1549.825;  185.875;    0.000
964.477; 1576.825;  189.875;    0.000
964.645; 1551.825;  201.875;    0.000
964.813; 1562.825;  200.875;    0.000
964.981; 1556.825;  160.875;    0.000
965.149; 1606.825;  230.875;    0.000
965.317; 1626.825;  214.875;    0.000
965.485; 1543.825;  190.875;    0.000
965.653; 1529.825;  239.875;    0.000
965.821; 1646.825;  211.875;    0.000
965.989; 1571.825;  216.875;    0.000
966.157; 1505.825;  198.875;    0.000
966.325; 1635.825;  200.875;    0.000
966.493; 1574.825;  187.875;    0.000
966.661; 1587.825;  181.875;    0.000
966.829; 1485.825;  181.875;    0.000
966.996; 1548.825;  220.875;    0.000
967.164; 1557.825;  179.875;    0.000
967.332; 1525.825;  203.875;    0.000
967.500; 1535.825;  200.875;    0.000
967.667; 1560.825;  196.875;    0.000
967.835; 1590.825;  199.875;    0.000
968.003; 1648.825;  191.875;    0.000
968.170; 1646.825;  141.875;    0.000
968.338; 1537.825;  185.875;    0.000
968.505; 1592.825;  199.875;    0.000
968.673; 1559.825;  191.875;    0.000
968.841; 1486.825;  165.875;    0.000
969.008; 1527.825;  192.875;    0.000
969.175; 1532.825;  172.875;    0.000
969.343; 1488.825;  191.875;    0.000
969.510; 1551.825;  199.875;    0.000
969.678; 1503.825;  156.875;    0.000
969.845; 1607.825;  191.875;    0.000
970.012; 1542.825;  205.875;    0.000
970.180; 1582.825;  201.875;    0.000
970.347; 1605.825;  229.875;    0.000
970.514; 1517.825;  207.875;    0.000
970.681; 1465.825;  169.875;    0.000
970.849; 1529.825;  196.875;    0.000
971.016; 1591.825;  212.875;    0.000
971.183; 1524.825;  178.875;    0.000
971.350; 1514.825;  193.875;    0.000
971.517; 1544.825;  190.875;    0.000
971.684; 1600.825;  261.875;    0.000
971.851; 1565.825;  203.875;    0.000
972.018; 1504.825;  184.875;    0.000
972.185; 1515.825;  226.875;    0.000
972.352; 1566.825;  180.875;    0.000
972.519; 1544.825;  226.875;    0.000
972.686; 1512.825;  233.875;    0.000
972.853; 1560.825;  173.875;    0.000
973.020; 1597.825;  208.875;    0.000
973.186; 1467.825;  173.875;    0.000
973.353; 1588.825;  218.875;    0.000
973.520; 1580.825;  218.875;    0.000
973.687; 1578.825;  176.875;    0.000
973.853; 1578.825;  203.875;    0.000
974.020; 1585.825;  196.875;    0.000
974.187; 1488.825;  188.875;    0.000
974.353; 1576.825;  230.875;    0.000
974.520; 1559.825;  195.875;    0.000
974.687; 1601.825;  209.875;    0.000
974.853; 1566.825;  189.875;    0.000
975.020; 1540.825;  179.875;    0.000
975.186; 1604.825;  204.875;    0.000
975.353; 1575.825;  201.875;    0.000
975.519; 1500.825;  200.875;    0.000
975.685; 1559.825;  176.875;    0.000
975.852; 1516.825;  197.875;    0.000
976.018; 1564.825;  201.875;    0.000
976.184; 1547.825;  176.875;    0.000
976.351; 1508.825;  221.875;    0.000
976.517; 1509.825;  203.875;    0.000
976.683; 1518.825;  236.875;    0.000
976.849; 1564.825;  190.875;    0.000
977.016; 1479.825;  173.875;    0.000
977.182; 1538.825;  200.875;    0.000
977.348; 1466.825;  179.875;    0.000
977.514; 1561.825;  159.875;    0.000
977.680; 1558.825;  200.875;    0.000
977.846; 1501.825;  206.875;    0.000
978.012; 1449.825;  219.875;    0.000
978.178; 1521.825;  229.875;    0.000
978.344; 1494.825;  195.875;    0.000
978.510; 1457.825;  209.875;    0.000
978.676; 1460.825;  190.875;    0.000
978.842; 1494.825;  195.875;    0.000
979.008; 1486.825;  186.875;    0.000
979.174; 1423.825;  185.875;    0.000
979.340; 1496.825;  198.875;    0.000
979.505; 1516.825;  214.875;    0.000
979.671; 1435.825;  159.875;    0.000
979.837; 1511.825;  202.875;    0.000
980.003; 1535.825;  190.875;    0.000
980.168; 1458.825;  216.875;    0.000
980.334; 1514.825;  194.875;    0.000
980.499; 1483.825;  229.875;    0.000
980.665; 1585.825;  240.875;    0.000
980.831; 1583.825;  202.875;    0.000
980.996; 1509.825;  179.875;    0.000
981.162; 1537.825;  212.875;    0.000
981.327; 1435.825;  202.875;    0.000
981.493; 1548.825;  219.875;    0.000
981.658; 1523.825;  218.875;    0.000
981.823; 1560.825;  207.875;    0.000
981.989; 1504.825;  207.875;    0.000
982.154; 1603.825;  224.875;    0.000
982.319; 1590.825;  217.875;    0.000
982.485; 1531.825;  266.875;    0.000
982.650; 1632.825;  245.875;    0.000
982.815; 1516.825;  229.875;    0.000
982.980; 1573.825;  203.875;    0.000
983.146; 1609.825;  242.875;    0.000
983.311; 1511.825;  144.875;    0.000
983.476; 1560.825;  222.875;    0.000
983.641; 1492.825;  206.875;    0.000
983.806; 1482.825;  217.875;    0.000
983.971; 1546.825;  254.875;    0.000
984.136; 1535.825;  217.875;    0.000
984.301; 1616.825;  202.875;    0.000
984.466; 1534.825;  206.875;    0.000
984.631; 1545.825;  224.875;    0.000
984.796; 1543.825;  218.875;    0.000
984.961; 1543.825;  202.875;    0.000
985.126; 1574.825;  238.875;    0.000
985.291; 1549.825;  220.875;    0.000
985.455; 1492.825;  223.875;    0.000
985.620; 1527.825;  218.875;    0.000
985.785; 1475.825;  228.875;    0.000
985.950; 1437.825;  212.875;    0.000
986.114; 1536.825;  215.875;    0.000
986.279; 1568.825;  243.875;    0.000
986.444; 1565.825;  222.875;    0.000
986.608; 1573.825;  243.875;    0.000
986.773; 1570.825;  213.875;    0.000
986.937; 1596.825;  267.875;    0.000
987.102; 1630.825;  235.875;    0.000
987.266; 1538.825;  210.875;    0.000
987.431; 1638.825;  239.875;    0.000
987.595; 1625.825;  230.875;    0.000
987.760; 1520.825;  229.875;    0.000
987.924; 1553.825;  217.875;    0.000
988.088; 1555.825;  210.875;    0.000
988.253; 1529.825;  215.875;    0.000
988.417; 1484.825;  186.875;    0.000
988.581; 1574.825;  214.875;    0.000
988.746; 1480.825;  212.875;    0.000
988.910; 1525.825;  192.875;    0.000
989.074; 1536.825;  195.875;    0.000
989.238; 1554.825;  226.875;    0.000
989.402; 1537.825;  214.875;    0.000
989.566; 1498.825;  201.875;    0.000
989.731; 1520.825;  199.875;    0.000
989.895; 1448.825;  205.875;    0.000
990.059; 1455.825;  204.875;    0.000
990.223; 1474.825;  182.875;    0.000
990.387; 1501.825;  220.875;    0.000
990.551; 1506.825;  199.875;    0.000
990.714; 1460.825;  202.875;    0.000
990.878; 1499.825;  201.875;    0.000
991.042; 1461.825;  202.875;    0.000
991.206; 1476.825;  215.875;    0.000
991.370; 1565.825;  217.875;    0.000
991.534; 1528.825;  152.875;    0.000
991.697; 1561.825;  194.875;    0.000
991.861; 1526.825;  208.875;    0.000
992.025; 1474.825;  209.875;    0.000
992.188; 1458.825;  182.875;    0.000
992.352; 1562.825;  181.875;    0.000
992.516; 1514.825;  192.875;    0.000
992.679; 1469.825;  183.875;    0.000
992.843; 1513.825;  156.875;    0.000
993.006; 1503.825;  192.875;    0.000
993.170; 1501.825;  172.875;    0.000
993.333; 1481.825;  195.875;    0.000
993.497; 1478.825;  185.875;    0.000
993.660; 1570.825;  155.875;    0.000
993.824; 1433.825;  199.875;    0.000
993.987; 1534.825;  211.875;    0.000
994.150; 1502.825;  173.875;    0.000
994.314; 1525.825;  202.875;    0.000
994.477; 1473.825;  171.875;    0.000
994.640; 1496.825;  191.875;    0.000
994.803; 1491.825;  203.875;    0.000
994.967; 1577.825;  198.875;    0.000
995.130; 1558.825;  192.875;    0.000
995.293; 1490.825;  211.875;    0.000
995.456; 1536.825;  207.875;    0.000
995.619; 1517.825;  207.875;    0.000
995.782; 1504.825;  186.875;    0.000
995.945; 1463.825;  203.875;    0.000
996.108; 1583.825;  195.875;    0.000
996.271; 1520.825;  195.875;    0.000
996.434; 1524.825;  179.875;    0.000
996.597; 1486.825;  170.875;    0.000
996.760; 1467.825;  161.875;    0.000
996.923; 1419.825;  177.875;    0.000
997.086; 1486.825;  199.875;    0.000
997.248; 1560.825;  225.875;    0.000
997.411; 1487.825;  194.875;    0.000
997.574; 1555.825;  204.875;    0.000
997.737; 1471.825;  236.875;    0.000
997.899; 1443.825;  191.875;    0.000
998.062; 1440.825;  178.875;    0.000
998.225; 1413.825;  176.875;    0.000
998.387; 1505.825;  203.875;    0.000
998.550; 1519.825;  155.875;    0.000
998.712; 1469.825;  169.875;    0.000
998.875; 1498.825;  234.875;    0.000
999.037; 1434.825;  211.875;    0.000
999.200; 1480.825;  185.875;    0.000
999.362; 1501.825;  199.875;    0.000
999.525; 1528.825;  234.875;    0.000
999.687; 1477.825;  194.875;    0.000
999.849; 1515.825;  223.875;    0.000
1000.012; 1456.825;  222.875;    0.000
1000.174; 1450.825;  187.875;    0.000
1000.336; 1468.825;  204.875;    0.000
1000.499; 1472.825;  240.875;    0.000
1000.661; 1531.825;  215.875;    0.000
1000.823; 1480.825;  206.875;    0.000
1000.985; 1455.825;  197.875;    0.000
1001.147; 1610.825;  221.875;    0.000
1001.309; 1552.825;  207.875;    0.000
1001.471; 1543.825;  227.875;    0.000
1001.633; 1532.825;  208.875;    0.000
1001.796; 1581.825;  158.875;    0.000
1001.958; 1621.825;  210.875;    0.000
1002.119; 1524.825;  223.875;    0.000
1002.281; 1623.825;  211.875;    0.000
1002.443; 1708.825;  227.875;    0.000
1002.605; 1790.825;  186.875;    0.000
1002.767; 1838.825;  242.875;    0.000
1002.929; 1912.825;  219.875;    0.000
1003.091; 1989.825;  191.875;    0.000
1003.252; 2090.825;  233.875;    0.000
1003.414; 2173.825;  214.875;    0.000
1003.576; 2191.825;  186.875;    0.000
1003.738; 2312.825;  175.875;    0.000
1003.899; 2496.825;  237.875;    0.000
1004.061; 2635.825;  220.875;    0.000
1004.222; 2658.825;  186.875;    0.000
1004.384; 2731.825;  216.875;    0.000
1004.546; 2784.825;  203.875;    0.000
1004.707; 2918.825;  216.875;    0.000
1004.869; 2939.825;  219.875;    0.000
1005.030; 2947.825;  188.875;    0.000
1005.191; 2849.825;  223.875;    0.000
1005.353; 2834.825;  227.875;    0.000
1005.514; 2573.825;  235.875;    0.000
1005.675; 2615.825;  201.875;    0.000
1005.837; 2453.825;  199.875;    0.000
1005.998; 2310.825;  219.875;    0.000
1006.159; 2353.825;  235.875;    0.000
1006.321; 2426.825;  199.875;    0.000
1006.482; 2315.825;  222.875;    0.000
1006.643; 2548.825;  195.875;    0.000
1006.804; 2631.825;  205.875;    0.000
1006.965; 2626.825;  199.875;    0.000
1007.126; 2613.825;  231.875;    0.000
1007.287; 2725.825;  208.875;    0.000
1007.448; 2698.825;  205.875;    0.000
1007.609; 2683.825;  256.875;    0.000
1007.770; 2509.825;  231.875;    0.000
1007.931; 2524.825;  223.875;    0.000
1008.092; 2584.825;  217.875;    0.000
1008.253; 2743.825;  236.875;    0.000
1008.414; 2663.825;  197.875;    0.000
1008.575; 2748.825;  233.875;    0.000
1008.736; 2792.825;  193.875;    0.000
1008.896; 2742.825;  238.875;    0.000
1009.057; 2661.825;  245.875;    0.000
1009.218; 2645.825;  240.875;    0.000
1009.379; 2756.825;  210.875;    0.000
1009.539; 2796.825;  234.875;    0.000
1009.700; 2773.825;  228.875;    0.000
1009.860; 2916.825;  238.875;    0.000
1010.021; 2758.825;  199.875;    0.000
1010.182; 2662.825;  214.875;    0.000
1010.342; 2778.825;  216.875;    0.000
1010.503; 2754.825;  207.875;    0.000
1010.663; 2958.825;  258.875;    0.000
1010.823; 3005.825;  243.875;    0.000
1010.984; 2955.825;  268.875;    0.000
1011.144; 2977.825;  217.875;    0.000
1011.305; 3007.825;  237.875;    0.000
1011.465; 3125.825;  216.875;    0.000
1011.625; 3180.825;  195.875;    0.000
1011.785; 3153.825;  201.875;    0.000
1011.946; 3216.825;  200.875;    0.000
1012.106; 3127.825;  206.875;    0.000
1012.266; 3152.825;  227.875;    0.000
1012.426; 3138.825;  221.875;    0.000
1012.586; 3122.825;  198.875;    0.000
1012.746; 3174.825;  215.875;    0.000
1012.906; 3173.825;  226.875;    0.000
1013.066; 3150.825;  221.875;    0.000
1013.226; 3139.825;  202.875;    0.000
1013.386; 3155.825;  210.875;    0.000
1013.546; 3073.825;  243.875;    0.000
1013.706; 3108.825;  200.875;    0.000
1013.866; 3085.825;  232.875;    0.000
1014.026; 3215.825;  206.875;    0.000
1014.186; 3087.825;  222.875;    0.000
1014.346; 3016.825;  233.875;    0.000
1014.505; 3142.825;  241.875;    0.000
1014.665; 3196.825;  225.875;    0.000
1014.825; 3197.825;  196.875;    0.000
1014.985; 3133.825;  234.875;    0.000
1015.144; 3158.825;  232.875;    0.000
1015.304; 3465.825;  214.875;    0.000
1015.464; 3398.825;  210.875;    0.000
1015.623; 3344.825;  219.875;    0.000
1015.783; 3614.825;  216.875;    0.000
1015.942; 3885.825;  267.875;    0.000
1016.102; 3810.825;  234.875;    0.000
1016.261; 3597.825;  230.875;    0.000
1016.420; 4208.825;  225.875;    0.000
1016.580; 4599.825;  205.875;    0.000
1016.739; 4474.825;  199.875;    0.000
1016.899; 4329.825;  218.875;    0.000
1017.058; 4580.825;  204.875;    0.000
1017.217; 4956.825;  196.875;    0.000
1017.376; 4749.825;  204.875;    0.000
1017.536; 4137.825;  195.875;    0.000
1017.695; 4344.825;  216.875;    0.000
1017.854; 4450.825;  235.875;    0.000
1018.013; 4318.825;  189.875;    0.000
1018.172; 3808.825;  217.875;    0.000
1018.331; 3934.825;  215.875;    0.000
1018.490; 4164.825;  233.875;    0.000
1018.649; 4441.825;  211.875;    0.000
1018.808; 4567.825;  196.875;    0.000
1018.967; 4476.825;  222.875;    0.000
1019.126; 4541.825;  221.875;    0.000
1019.285; 4724.825;  212.875;    0.000
1019.444; 4720.825;  231.875;    0.000
1019.603; 4405.825;  227.875;    0.000
1019.762; 4336.825;  192.875;    0.000
1019.921; 4346.825;  240.875;    0.000
1020.079; 4658.825;  209.875;    0.000
1020.238; 4752.825;  211.875;    0.000
1020.397; 4638.825;  253.875;    0.000
1020.555; 4540.825;  179.875;    0.000
1020.714; 4561.825;  225.875;    0.000
1020.873; 4751.825;  232.875;    0.000
1021.031; 4950.825;  245.875;    0.000
1021.190; 4571.825;  230.875;    0.000
1021.348; 4488.825;  221.875;    0.000
1021.507; 4872.825;  212.875;    0.000
1021.665; 5183.825;  211.875;    0.000
1021.824; 4895.825;  206.875;    0.000
1021.982; 4533.825;  218.875;    0.000
1022.141; 4510.825;  232.875;    0.000
1022.299; 5190.825;  193.875;    0.000
1022.457; 5275.825;  217.875;    0.000
1022.616; 4827.825;  248.875;    0.000
1022.774; 4508.825;  222.875;    0.000
1022.932; 4711.825;  211.875;    0.000
1023.090; 5351.825;  288.875;    0.000
1023.249; 5403.825;  214.875;    0.000
1023.407; 4973.825;  233.875;    0.000
1023.565; 4564.825;  208.875;    0.000
1023.723; 4739.825;  217.875;    0.000
1023.881; 5279.825;  235.875;    0.000
1024.039; 5345.825;  228.875;    0.000
1024.197; 4962.825;  216.875;    0.000
1024.355; 4794.825;  251.875;    0.000
1024.513; 4873.825;  232.875;    0.000
1024.671; 5517.825;  217.875;    0.000
1024.829; 5432.825;  255.875;    0.000
1024.987; 5173.825;  203.875;    0.000
1025.145; 4735.825;  239.875;    0.000
1025.302; 4900.825;  209.875;    0.000
1025.460; 5486.825;  224.875;    0.000
1025.618; 5606.825;  193.875;    0.000
1025.776; 5298.825;  209.875;    0.000
1025.933; 4805.825;  229.875;    0.000
1026.091; 4974.825;  218.875;    0.000
1026.249; 5533.825;  269.875;    0.000
1026.406; 5811.825;  264.875;    0.000
1026.564; 5403.825;  230.875;    0.000
1026.721; 5148.825;  198.875;    0.000
1026.879; 4837.825;  216.875;    0.000
1027.036; 5484.825;  226.875;    0.000
1027.194; 5795.825;  245.875;    0.000
1027.351; 5873.825;  236.875;    0.000
1027.509; 5374.825;  262.875;    0.000
1027.666; 5102.825;  227.875;    0.000
1027.823; 5470.825;  214.875;    0.000
1027.981; 5803.825;  258.875;    0.000
1028.138; 6072.825;  239.875;    0.000
1028.295; 5665.825;  226.875;    0.000
1028.452; 5247.825;  225.875;    0.000
1028.609; 5297.825;  276.875;    0.000
1028.767; 5823.825;  228.875;    0.000
1028.924; 5884.825;  213.875;    0.000
1029.081; 5874.825;  232.875;    0.000
1029.238; 5861.825;  250.875;    0.000
1029.395; 5348.825;  255.875;    0.000
1029.552; 5527.825;  217.875;    0.000
1029.709; 5992.825;  210.875;    0.000
1029.866; 6257.825;  243.875;    0.000
1030.023; 6014.825;  202.875;    0.000
1030.180; 5430.825;  233.875;    0.000
1030.337; 5385.825;  234.875;    0.000
1030.494; 5752.825;  222.875;    0.000
1030.650; 6040.825;  241.875;    0.000
1030.807; 6423.825;  206.875;    0.000
1030.964; 5985.825;  206.875;    0.000
1031.121; 5842.825;  228.875;    0.000
1031.277; 5484.825;  228.875;    0.000
1031.434; 5662.825;  234.875;    0.000
1031.591; 6309.825;  250.875;    0.000
1031.747; 6504.825;  246.875;    0.000
1031.904; 6295.825;  201.875;    0.000
1032.060; 6170.825;  237.875;    0.000
1032.217; 5865.825;  232.875;    0.000
1032.373; 6392.825;  210.875;    0.000
1032.530; 6500.825;  246.875;    0.000
1032.686; 7281.825;  196.875;    0.000
1032.843; 7347.825;  212.875;    0.000
1032.999; 7050.825;  243.875;    0.000
1033.155; 7038.825;  234.875;    0.000
1033.312; 6794.825;  246.875;    0.000
1033.468; 8182.825;  233.875;    0.000
1033.624; 8629.825;  237.875;    0.000
1033.780; 9115.825;  263.875;    0.000
1033.937; 9013.825;  214.875;    0.000
1034.093; 8533.825;  230.875;    0.000
1034.249; 8757.825;  206.875;    0.000
1034.405; 8754.825;  238.875;    0.000
1034.561; 9321.825;  231.875;    0.000
1034.717; 9932.825;  228.875;    0.000
1034.873; 9552.825;  262.875;    0.000
1035.029;10208.825;  252.875;    0.000
1035.185; 9587.825;  232.875;    0.000
1035.341; 9238.825;  245.875;    0.000
1035.497; 9936.825;  253.875;    0.000
1035.653; 9994.825;  252.875;    0.000
1035.809;10732.825;  245.875;    0.000
1035.964;11641.825;  229.875;    0.000
1036.120;10859.825;  226.875;    0.000
1036.276;10896.825;  236.875;    0.000
1036.432;10945.825;  203.875;    0.000
1036.587;10044.825;  228.875;    0.000
1036.743;11054.825;  240.875;    0.000
1036.899;11559.825;  220.875;    0.000
1037.054;11800.825;  153.875;    0.000
1037.210;12714.825;  219.875;    0.000
1037.365;13316.825;  229.875;    0.000
1037.521;12603.825;  257.875;    0.000
1037.676;12617.825;  211.875;    0.000
1037.832;11512.825;  234.875;    0.000
1037.987;11683.825;  235.875;    0.000
1038.143;11862.825;  176.875;    0.000
1038.298;13485.825;  262.875;    0.000
1038.453;13090.825;  209.875;    0.000
1038.609;15000.825;  230.875;    0.000
1038.764;14549.825;  253.875;    0.000
1038.919;13239.825;  195.875;    0.000
1039.074;13442.825;  234.875;    0.000
1039.229;12333.825;  234.875;    0.000
1039.385;12538.825;  266.875;    0.000
1039.540;12682.825;  252.875;    0.000
1039.695;14299.825;  231.875;    0.000
1039.850;15763.825;  208.875;    0.000
1040.005;16180.825;  232.875;    0.000
1040.160;17377.824;  214.875;    0.000
1040.315;16641.824;  221.875;    0.000
1040.470;16219.825;  207.875;    0.000
1040.625;15159.825;  249.875;    0.000
1040.780;14744.825;  251.875;    0.000
1040.935;15068.825;  254.875;    0.000
1041.089;15236.825;  210.875;    0.000
1041.244;17667.824;  225.875;    0.000
1041.399;18011.824;  208.875;    0.000
1041.554;19556.824;  249.875;    0.000
1041.708;21510.824;  254.875;    0.000
1041.863;20926.824;  248.875;    0.000
1042.018;20045.824;  280.875;    0.000
1042.172;19831.824;  233.875;    0.000
1042.327;18490.824;  256.875;    0.000
1042.481;18461.824;  210.875;    0.000
1042.636;19111.824;  229.875;    0.000
1042.791;18714.824;  215.875;    0.000
1042.945;22459.824;  256.875;    0.000
1043.099;23553.824;  251.875;    0.000
1043.254;23990.824;  204.875;    0.000
1043.408;25641.824;  278.875;    0.000
1043.563;26845.824;  211.875;    0.000
1043.717;24737.824;  259.875;    0.000
1043.871;23480.824;  233.875;    0.000
1044.025;24225.824;  221.875;    0.000
1044.180;22582.824;  208.875;    0.000
1044.334;22460.824;  255.875;    0.000
1044.488;24236.824;  269.875;    0.000
1044.642;25400.824;  228.875;    0.000
1044.796;27236.824;  232.875;    0.000
1044.950;31735.824;  249.875;    0.000
1045.104;34090.824;  205.875;    0.000
1045.258;34382.824;  206.875;    0.000
1045.412;33302.824;  251.875;    0.000
1045.566;32898.824;  249.875;    0.000
1045.720;31043.824;  206.875;    0.000
1045.874;28811.824;  232.875;    0.000
1046.028;25899.824;  266.875;    0.000
1046.182;27375.824;  217.875;    0.000
1046.336;28661.824;  216.875;    0.000
1046.489;27773.824;  236.875;    0.000
1046.643;29107.824;  253.875;    0.000
1046.797;32001.824;  244.875;    0.000
1046.951;33159.824;  234.875;    0.000
1047.104;34668.824;  281.875;    0.000
1047.258;36862.824;  253.875;    0.000
1047.411;38103.824;  228.875;    0.000
1047.565;38420.824;  273.875;    0.000
1047.719;35055.824;  232.875;    0.000
1047.872;34690.824;  230.875;    0.000
1048.026;33177.824;  282.875;    0.000
1048.179;33283.824;  225.875;    0.000
1048.332;34752.824;  234.875;    0.000
1048.486;33057.824;  223.875;    0.000
1048.639;32453.824;  248.875;    0.000
1048.792;33482.824;  244.875;    0.000
1048.946;36235.824;  210.875;    0.000
1049.099;40422.824;  242.875;    0.000
1049.252;40578.824;  269.875;    0.000
1049.406;37554.824;  285.875;    0.000
1049.559;41055.824;  277.875;    0.000
1049.712;43433.824;  254.875;    0.000
1049.865;46145.824;  252.875;    0.000
1050.018;45003.824;  270.875;    0.000
1050.171;39787.824;  230.875;    0.000
1050.324;39537.824;  268.875;    0.000
1050.477;41720.824;  262.875;    0.000
1050.630;44876.824;  243.875;    0.000
1050.783;44135.824;  216.875;    0.000
1050.936;40319.824;  250.875;    0.000
1051.089;39582.824;  247.875;    0.000
1051.242;42382.824;  300.875;    0.000
1051.394;46654.824;  233.875;    0.000
1051.547;48139.824;  263.875;    0.000
1051.700;46113.824;  238.875;    0.000
1051.853;44571.824;  299.875;    0.000
1052.005;46201.824;  275.875;    0.000
1052.158;50821.824;  304.875;    0.000
1052.311;56001.824;  251.875;    0.000
1052.463;52904.824;  276.875;    0.000
1052.616;48799.824;  271.875;    0.000
1052.768;44090.824;  285.875;    0.000
1052.921;42194.824;  261.875;    0.000
1053.073;45236.824;  333.875;    0.000
1053.226;50356.824;  271.875;    0.000
1053.378;57535.824;  309.875;    0.000
1053.531;60713.824;  266.875;    0.000
1053.683;57131.824;  278.875;    0.000
1053.835;48584.824;  274.875;    0.000
1053.988;38312.824;  287.875;    0.000
1054.140; 6993.825;  350.875;    0.000
1054.292; 1588.825;  338.875;    0.000
1054.444; 1345.825;  270.875;    0.000
1054.596; 1194.825;  294.875;    0.000
1054.749; 1034.825;  285.875;    0.000
1054.901;  978.825;  254.875;    0.000
1055.053;  928.825;  320.875;    0.000
1055.205;  890.825;  284.875;    0.000
1055.357;  813.825;  298.875;    0.000
1055.509;  799.825;  304.875;    0.000
1055.661;  821.825;  350.875;    0.000
1055.813;  802.825;  289.875;    0.000
1055.965;  793.825;  277.875;    0.000
1056.116;  776.825;  288.875;    0.000
1056.268;  797.825;  311.875;    0.000
1056.420;  816.825;  308.875;    0.000

