
Integration time [ms]:   0.300
Averaging Nr. [scans]: 1
Smoothing Nr. [pixels]: 0
Data measured with spectrometer [name]: UV2
Wave   ;Sample   ;Dark     ;Reference
[nm]   ;[counts] ;[counts] ;[counts] 

353.533;  217.100;  235.675;    0.000
353.597;  222.100;  239.675;    0.000
353.660;  214.100;  203.675;    0.000
353.723;  198.100;  225.675;    0.000
353.786;  170.100;  178.675;    0.000
353.850;  229.100;  199.675;    0.000
353.913;  185.100;  179.675;    0.000
353.976;  191.100;  209.675;    0.000
354.039;  185.100;  188.675;    0.000
354.102;  215.100;  219.675;    0.000
354.166;  215.100;  237.675;    0.000
354.229;  213.100;  179.675;    0.000
354.292;  162.100;  210.675;    0.000
354.355;  195.100;  214.675;    0.000
354.418;  190.100;  173.675;    0.000
354.481;  180.100;  170.675;    0.000
354.545;  573.100;  229.675;    0.000
354.608;  599.100;  233.675;    0.000
354.671;  582.100;  183.675;    0.000
354.734;  575.100;  208.675;    0.000
354.797;  590.100;  263.675;    0.000
354.860;  583.100;  208.675;    0.000
354.923;  598.100;  202.675;    0.000
354.986;  593.100;  207.675;    0.000
355.050;  662.100;  180.675;    0.000
355.113;  647.100;  189.675;    0.000
355.176;  672.100;  214.675;    0.000
355.239;  667.100;  199.675;    0.000
355.302;  651.100;  229.675;    0.000
355.365;  693.100;  220.675;    0.000
355.428;  704.100;  196.675;    0.000
355.491;  690.100;  243.675;    0.000
355.554;  692.100;  191.675;    0.000
355.617;  688.100;  200.675;    0.000
355.680;  721.100;  190.675;    0.000
355.743;  720.100;  236.675;    0.000
355.806;  699.100;  193.675;    0.000
355.869;  706.100;  223.675;    0.000
355.932;  706.100;  208.675;    0.000
355.995;  733.100;  231.675;    0.000
356.058;  778.100;  202.675;    0.000
356.121;  766.100;  198.675;    0.000
356.184;  785.100;  209.675;    0.000
356.247;  741.100;  224.675;    0.000
356.310;  773.100;  149.675;    0.000
356.373;  743.100;  211.675;    0.000
356.436;  781.100;  195.675;    0.000
356.498;  749.100;  176.675;    0.000
356.561;  733.100;  186.675;    0.000
356.624;  725.100;  184.675;    0.000
356.687;  760.100;  179.675;    0.000
356.750;  809.100;  213.675;    0.000
356.813;  787.100;  172.675;    0.000
356.876;  789.100;  189.675;    0.000
356.939;  737.100;  204.675;    0.000
357.001;  812.100;  195.675;    0.000
357.064;  743.100;  202.675;    0.000
357.127;  764.100;  176.675;    0.000
357.190;  831.100;  186.675;    0.000
357.253;  783.100;  178.675;    0.000
357.316;  854.100;  187.675;    0.000
357.378;  834.100;  181.675;    0.000
357.441;  800.100;  142.675;    0.000
357.504;  852.100;  161.675;    0.000
357.567;  768.100;  113.675;    0.000
357.629;  819.100;  193.675;    0.000
357.692;  811.100;  144.675;    0.000
357.755;  802.100;  177.675;    0.000
357.818;  756.100;  144.675;    0.000
357.880;  808.100;  182.675;    0.000
357.943;  806.100;  166.675;    0.000
358.006;  820.100;  184.675;    0.000
358.069;  833.100;  200.675;    0.000
358.131;  820.100;  148.675;    0.000
358.194;  822.100;  155.675;    0.000
358.257;  833.100;  173.675;    0.000
358.319;  776.100;  178.675;    0.000
358.382;  827.100;  184.675;    0.000
358.445;  786.100;  156.675;    0.000
358.507;  793.100;  199.675;    0.000
358.570;  791.100;  182.675;    0.000
358.633;  828.100;  167.675;    0.000
358.695;  822.100;  124.675;    0.000
358.758;  905.100;  164.675;    0.000
358.821;  827.100;  147.675;    0.000
358.883;  854.100;  153.675;    0.000
358.946;  810.100;  171.675;    0.000
359.008;  883.100;  196.675;    0.000
359.071;  839.100;  178.675;    0.000
359.134;  814.100;  123.675;    0.000
359.196;  811.100;  166.675;    0.000
359.259;  783.100;  173.675;    0.000
359.321;  876.100;  164.675;    0.000
359.384;  880.100;  155.675;    0.000
359.446;  853.100;  157.675;    0.000
359.509;  846.100;  153.675;    0.000
359.571;  874.100;  184.675;    0.000
359.634;  900.100;  138.675;    0.000
359.696;  856.100;  169.675;    0.000
359.759;  885.100;  152.675;    0.000
359.821;  827.100;  150.675;    0.000
359.884;  845.100;  166.675;    0.000
359.946;  900.100;  165.675;    0.000
360.009;  838.100;  176.675;    0.000
360.071;  935.100;  148.675;    0.000
360.134;  898.100;  193.675;    0.000
360.196;  843.100;  151.675;    0.000
360.259;  888.100;  182.675;    0.000
360.321;  835.100;  168.675;    0.000
360.384;  872.100;  176.675;    0.000
360.446;  897.100;  156.675;    0.000
360.508;  928.100;  183.675;    0.000
360.571;  896.100;  193.675;    0.000
360.633;  876.100;  184.675;    0.000
360.696;  854.100;  136.675;    0.000
360.758;  911.100;  186.675;    0.000
360.820;  914.100;  127.675;    0.000
360.883;  930.100;  146.675;    0.000
360.945;  930.100;  144.675;    0.000
361.007;  953.100;  160.675;    0.000
361.070;  962.100;  175.675;    0.000
361.132;  983.100;  195.675;    0.000
361.194;  891.100;  167.675;    0.000
361.257;  913.100;  140.675;    0.000
361.319;  949.100;  154.675;    0.000
361.381;  981.100;  181.675;    0.000
361.443;  882.100;  137.675;    0.000
361.506;  886.100;  159.675;    0.000
361.568;  857.100;  144.675;    0.000
361.630;  935.100;  189.675;    0.000
361.693;  953.100;  162.675;    0.000
361.755;  939.100;  156.675;    0.000
361.817;  957.100;  225.675;    0.000
361.879;  931.100;  172.675;    0.000
361.941;  860.100;  138.675;    0.000
362.004;  873.100;  163.675;    0.000
362.066;  886.100;  164.675;    0.000
362.128;  979.100;  160.675;    0.000
362.190;  938.100;  168.675;    0.000
362.252;  924.100;  177.675;    0.000
362.315;  973.100;  169.675;    0.000
362.377;  943.100;  188.675;    0.000
362.439; 1004.100;  158.675;    0.000
362.501;  937.100;  168.675;    0.000
362.563;  906.100;  168.675;    0.000
362.625;  947.100;  188.675;    0.000
362.688;  966.100;  162.675;    0.000
362.750; 1006.100;  209.675;    0.000
362.812;  887.100;  154.675;    0.000
362.874;  983.100;  190.675;    0.000
362.936; 1024.100;  190.675;    0.000
362.998;  933.100;  143.675;    0.000
363.060;  947.100;  186.675;    0.000
363.122;  974.100;  167.675;    0.000
363.184; 1018.100;  163.675;    0.000
363.246; 1038.100;  169.675;    0.000
363.308; 1023.100;  165.675;    0.000
363.370; 1024.100;  177.675;    0.000
363.432;  973.100;  139.675;    0.000
363.494;  999.100;  177.675;    0.000
363.556;  999.100;  164.675;    0.000
363.618; 1006.100;  170.675;    0.000
363.680;  994.100;  146.675;    0.000
363.742;  993.100;  179.675;    0.000
363.804; 1012.100;  188.675;    0.000
363.866;  984.100;  186.675;    0.000
363.928;  917.100;  147.675;    0.000
363.990;  975.100;  185.675;    0.000
364.052; 1031.100;  197.675;    0.000
364.114; 1012.100;  150.675;    0.000
364.176;  988.100;  217.675;    0.000
364.238; 1037.100;  159.675;    0.000
364.300;  938.100;  192.675;    0.000
364.362;  926.100;  130.675;    0.000
364.424;  952.100;  131.675;    0.000
364.486;  974.100;  178.675;    0.000
364.548; 1023.100;  203.675;    0.000
364.609; 1001.100;  192.675;    0.000
364.671; 1077.100;  169.675;    0.000
364.733;  962.100;  169.675;    0.000
364.795; 1031.100;  157.675;    0.000
364.857;  952.100;  171.675;    0.000
364.919;  967.100;  134.675;    0.000
364.981; 1027.100;  162.675;    0.000
365.042; 1045.100;  136.675;    0.000
365.104; 1014.100;  152.675;    0.000
365.166; 1058.100;  149.675;    0.000
365.228; 1074.100;  195.675;    0.000
365.290; 1032.100;  147.675;    0.000
365.351; 1023.100;  138.675;    0.000
365.413; 1067.100;  168.675;    0.000
365.475; 1041.100;  150.675;    0.000
365.537; 1015.100;  179.675;    0.000
365.598; 1062.100;  177.675;    0.000
365.660; 1010.100;  149.675;    0.000
365.722; 1062.100;  160.675;    0.000
365.784; 1061.100;  175.675;    0.000
365.845; 1000.100;  149.675;    0.000
365.907; 1005.100;  154.675;    0.000
365.969; 1017.100;  128.675;    0.000
366.030; 1107.100;  176.675;    0.000
366.092; 1001.100;  181.675;    0.000
366.154; 1022.100;  194.675;    0.000
366.215; 1061.100;  149.675;    0.000
366.277; 1021.100;  144.675;    0.000
366.339; 1040.100;  160.675;    0.000
366.400;  969.100;  144.675;    0.000
366.462; 1005.100;  145.675;    0.000
366.524; 1017.100;  148.675;    0.000
366.585; 1015.100;  128.675;    0.000
366.647; 1070.100;  156.675;    0.000
366.708;  957.100;  128.675;    0.000
366.770;  997.100;  188.675;    0.000
366.832; 1081.100;  170.675;    0.000
366.893; 1072.100;  158.675;    0.000
366.955; 1049.100;  150.675;    0.000
367.016; 1043.100;  160.675;    0.000
367.078;  981.100;  144.675;    0.000
367.139; 1059.100;  109.675;    0.000
367.201; 1070.100;  155.675;    0.000
367.262; 1067.100;  165.675;    0.000
367.324; 1076.100;  180.675;    0.000
367.385; 1007.100;  150.675;    0.000
367.447; 1068.100;  164.675;    0.000
367.508; 1027.100;  137.675;    0.000
367.570; 1070.100;  174.675;    0.000
367.631; 1024.100;  126.675;    0.000
367.693; 1070.100;  153.675;    0.000
367.754; 1068.100;  194.675;    0.000
367.816; 1048.100;  154.675;    0.000
367.877; 1073.100;  183.675;    0.000
367.939; 1046.100;  179.675;    0.000
368.000; 1031.100;  142.675;    0.000
368.062; 1120.100;  147.675;    0.000
368.123; 1050.100;  155.675;    0.000
368.184; 1035.100;  169.675;    0.000
368.246; 1033.100;  145.675;    0.000
368.307; 1116.100;  165.675;    0.000
368.369; 1034.100;  177.675;    0.000
368.430; 1085.100;  161.675;    0.000
368.491; 1022.100;  156.675;    0.000
368.553; 1077.100;  156.675;    0.000
368.614; 1110.100;  186.675;    0.000
368.675; 1055.100;  154.675;    0.000
368.737; 1145.100;  162.675;    0.000
368.798; 1051.100;  202.675;    0.000
368.859; 1055.100;  162.675;    0.000
368.921; 1073.100;  171.675;    0.000
368.982; 1084.100;  193.675;    0.000
369.043; 1089.100;  207.675;    0.000
369.104; 1038.100;  143.675;    0.000
369.166; 1112.100;  203.675;    0.000
369.227; 1143.100;  125.675;    0.000
369.288; 1114.100;  154.675;    0.000
369.349; 1123.100;  187.675;    0.000
369.411; 1125.100;  191.675;    0.000
369.472; 1040.100;  175.675;    0.000
369.533; 1108.100;  180.675;    0.000
369.594; 1069.100;  161.675;    0.000
369.656; 1118.100;  169.675;    0.000
369.717; 1065.100;  103.675;    0.000
369.778; 1108.100;  159.675;    0.000
369.839; 1110.100;  146.675;    0.000
369.900; 1151.100;  218.675;    0.000
369.961; 1067.100;  200.675;    0.000
370.023; 1089.100;  177.675;    0.000
370.084; 1104.100;  149.675;    0.000
370.145; 1137.100;  179.675;    0.000
370.206; 1112.100;  179.675;    0.000
370.267; 1144.100;  166.675;    0.000
370.328; 1123.100;  164.675;    0.000
370.389; 1130.100;  162.675;    0.000
370.451; 1123.100;  179.675;    0.000
370.512; 1116.100;  181.675;    0.000
370.573; 1178.100;  173.675;    0.000
370.634; 1128.100;  162.675;    0.000
370.695; 1115.100;  167.675;    0.000
370.756; 1158.100;  177.675;    0.000
370.817; 1102.100;  178.675;    0.000
370.878; 1143.100;  152.675;    0.000
370.939; 1124.100;  185.675;    0.000
371.000; 1170.100;  173.675;    0.000
371.061; 1149.100;  176.675;    0.000
371.122; 1137.100;  169.675;    0.000
371.183; 1080.100;  116.675;    0.000
371.244; 1146.100;  174.675;    0.000
371.305; 1095.100;  152.675;    0.000
371.366; 1131.100;  168.675;    0.000
371.427; 1119.100;  188.675;    0.000
371.488; 1174.100;  180.675;    0.000
371.549; 1141.100;  145.675;    0.000
371.610; 1080.100;  160.675;    0.000
371.671; 1114.100;  164.675;    0.000
371.732; 1190.100;  158.675;    0.000
371.793; 1179.100;  162.675;    0.000
371.853; 1135.100;  130.675;    0.000
371.914; 1168.100;  172.675;    0.000
371.975; 1107.100;   98.675;    0.000
372.036; 1143.100;  161.675;    0.000
372.097; 1164.100;  143.675;    0.000
372.158; 1054.100;  175.675;    0.000
372.219; 1120.100;  196.675;    0.000
372.280; 1182.100;  175.675;    0.000
372.340; 1172.100;  160.675;    0.000
372.401; 1170.100;  163.675;    0.000
372.462; 1173.100;  147.675;    0.000
372.523; 1222.100;  146.675;    0.000
372.584; 1139.100;  173.675;    0.000
372.645; 1158.100;  126.675;    0.000
372.705; 1187.100;  179.675;    0.000
372.766; 1173.100;  173.675;    0.000
372.827; 1125.100;  171.675;    0.000
372.888; 1150.100;  134.675;    0.000
372.948; 1115.100;  167.675;    0.000
373.009; 1180.100;  167.675;    0.000
373.070; 1187.100;  152.675;    0.000
373.131; 1199.100;  177.675;    0.000
373.191; 1193.100;  225.675;    0.000
373.252; 1254.100;  165.675;    0.000
373.313; 1208.100;  171.675;    0.000
373.373; 1088.100;  160.675;    0.000
373.434; 1236.100;  172.675;    0.000
373.495; 1201.100;  150.675;    0.000
373.555; 1143.100;  130.675;    0.000
373.616; 1142.100;  155.675;    0.000
373.677; 1114.100;  212.675;    0.000
373.737; 1142.100;  188.675;    0.000
373.798; 1171.100;  203.675;    0.000
373.859; 1218.100;  169.675;    0.000
373.919; 1161.100;  197.675;    0.000
373.980; 1183.100;  134.675;    0.000
374.041; 1137.100;  186.675;    0.000
374.101; 1242.100;  207.675;    0.000
374.162; 1223.100;  190.675;    0.000
374.222; 1197.100;  182.675;    0.000
374.283; 1174.100;  213.675;    0.000
374.343; 1189.100;  191.675;    0.000
374.404; 1221.100;  181.675;    0.000
374.465; 1244.100;  193.675;    0.000
374.525; 1153.100;  153.675;    0.000
374.586; 1173.100;  190.675;    0.000
374.646; 1255.100;  173.675;    0.000
374.707; 1273.100;  210.675;    0.000
374.767; 1234.100;  218.675;    0.000
374.828; 1225.100;  174.675;    0.000
374.888; 1139.100;  197.675;    0.000
374.949; 1262.100;  196.675;    0.000
375.009; 1251.100;  169.675;    0.000
375.070; 1229.100;  157.675;    0.000
375.130; 1241.100;  203.675;    0.000
375.190; 1300.100;  174.675;    0.000
375.251; 1279.100;  230.675;    0.000
375.311; 1240.100;  198.675;    0.000
375.372; 1239.100;  160.675;    0.000
375.432; 1191.100;  169.675;    0.000
375.493; 1224.100;  159.675;    0.000
375.553; 1228.100;  179.675;    0.000
375.613; 1236.100;  157.675;    0.000
375.674; 1262.100;  174.675;    0.000
375.734; 1196.100;  180.675;    0.000
375.794; 1182.100;  175.675;    0.000
375.855; 1176.100;  193.675;    0.000
375.915; 1220.100;  148.675;    0.000
375.975; 1147.100;  183.675;    0.000
376.036; 1160.100;  144.675;    0.000
376.096; 1243.100;  195.675;    0.000
376.156; 1222.100;  200.675;    0.000
376.217; 1270.100;  160.675;    0.000
376.277; 1224.100;  193.675;    0.000
376.337; 1234.100;  168.675;    0.000
376.398; 1198.100;  183.675;    0.000
376.458; 1199.100;  168.675;    0.000
376.518; 1251.100;  184.675;    0.000
376.578; 1254.100;  176.675;    0.000
376.639; 1249.100;  158.675;    0.000
376.699; 1231.100;  157.675;    0.000
376.759; 1292.100;  184.675;    0.000
376.819; 1272.100;  166.675;    0.000
376.880; 1223.100;  220.675;    0.000
376.940; 1279.100;  195.675;    0.000
377.000; 1234.100;  178.675;    0.000
377.060; 1276.100;  212.675;    0.000
377.120; 1258.100;  161.675;    0.000
377.180; 1258.100;  168.675;    0.000
377.241; 1220.100;  167.675;    0.000
377.301; 1301.100;  171.675;    0.000
377.361; 1240.100;  174.675;    0.000
377.421; 1267.100;  216.675;    0.000
377.481; 1297.100;  164.675;    0.000
377.541; 1214.100;  163.675;    0.000
377.601; 1239.100;  197.675;    0.000
377.661; 1296.100;  175.675;    0.000
377.722; 1304.100;  196.675;    0.000
377.782; 1239.100;  162.675;    0.000
377.842; 1289.100;  179.675;    0.000
377.902; 1264.100;  140.675;    0.000
377.962; 1210.100;  121.675;    0.000
378.022; 1272.100;  174.675;    0.000
378.082; 1318.100;  167.675;    0.000
378.142; 1269.100;  151.675;    0.000
378.202; 1292.100;  174.675;    0.000
378.262; 1251.100;  168.675;    0.000
378.322; 1294.100;  183.675;    0.000
378.382; 1255.100;  159.675;    0.000
378.442; 1337.100;  177.675;    0.000
378.502; 1272.100;  137.675;    0.000
378.562; 1212.100;  140.675;    0.000
378.622; 1299.100;  197.675;    0.000
378.682; 1270.100;  205.675;    0.000
378.742; 1223.100;  160.675;    0.000
378.802; 1288.100;  132.675;    0.000
378.862; 1362.100;  222.675;    0.000
378.921; 1336.100;  178.675;    0.000
378.981; 1337.100;  160.675;    0.000
379.041; 1266.100;  136.675;    0.000
379.101; 1332.100;  184.675;    0.000
379.161; 1297.100;  147.675;    0.000
379.221; 1336.100;  139.675;    0.000
379.281; 1369.100;  204.675;    0.000
379.341; 1325.100;  142.675;    0.000
379.401; 1310.100;  136.675;    0.000
379.460; 1335.100;  161.675;    0.000
379.520; 1420.100;  171.675;    0.000
379.580; 1365.100;  168.675;    0.000
379.640; 1339.100;  183.675;    0.000
379.700; 1339.100;  182.675;    0.000
379.759; 1362.100;  190.675;    0.000
379.819; 1346.100;  149.675;    0.000
379.879; 1411.100;  140.675;    0.000
379.939; 1390.100;  155.675;    0.000
379.999; 1370.100;  199.675;    0.000
380.058; 1367.100;  163.675;    0.000
380.118; 1435.100;  190.675;    0.000
380.178; 1440.100;  220.675;    0.000
380.237; 1399.100;  181.675;    0.000
380.297; 1417.100;  187.675;    0.000
380.357; 1396.100;  193.675;    0.000
380.417; 1412.100;  157.675;    0.000
380.476; 1408.100;  176.675;    0.000
380.536; 1442.100;  180.675;    0.000
380.596; 1365.100;  191.675;    0.000
380.655; 1436.100;  190.675;    0.000
380.715; 1406.100;  180.675;    0.000
380.775; 1426.100;  202.675;    0.000
380.834; 1469.100;  190.675;    0.000
380.894; 1427.100;  163.675;    0.000
380.954; 1428.100;  181.675;    0.000
381.013; 1487.100;  218.675;    0.000
381.073; 1387.100;  181.675;    0.000
381.132; 1457.100;  193.675;    0.000
381.192; 1328.100;  209.675;    0.000
381.252; 1488.100;  206.675;    0.000
381.311; 1412.100;  173.675;    0.000
381.371; 1484.100;  188.675;    0.000
381.430; 1533.100;  162.675;    0.000
381.490; 1466.100;  168.675;    0.000
381.549; 1440.100;  213.675;    0.000
381.609; 1530.100;  194.675;    0.000
381.668; 1440.100;  190.675;    0.000
381.728; 1543.100;  183.675;    0.000
381.787; 1497.100;  172.675;    0.000
381.847; 1542.100;  198.675;    0.000
381.906; 1549.100;  197.675;    0.000
381.966; 1540.100;  201.675;    0.000
382.025; 1592.100;  219.675;    0.000
382.085; 1587.100;  194.675;    0.000
382.144; 1585.100;  187.675;    0.000
382.204; 1637.100;  196.675;    0.000
382.263; 1602.100;  168.675;    0.000
382.323; 1606.100;  135.675;    0.000
382.382; 1676.100;  173.675;    0.000
382.441; 1649.100;  155.675;    0.000
382.501; 1683.100;  168.675;    0.000
382.560; 1763.100;  200.675;    0.000
382.619; 1769.100;  155.675;    0.000
382.679; 1868.100;  198.675;    0.000
382.738; 1881.100;  211.675;    0.000
382.798; 1954.100;  214.675;    0.000
382.857; 2012.100;  146.675;    0.000
382.916; 2247.100;  183.675;    0.000
382.976; 2178.100;  173.675;    0.000
383.035; 2207.100;  165.675;    0.000
383.094; 2255.100;  173.675;    0.000
383.154; 2482.100;  143.675;    0.000
383.213; 2658.100;  173.675;    0.000
383.272; 2529.100;  166.675;    0.000
383.331; 2314.100;  154.675;    0.000
383.391; 2234.100;  232.675;    0.000
383.450; 2205.100;  185.675;    0.000
383.509; 2089.100;  204.675;    0.000
383.568; 2209.100;  197.675;    0.000
383.628; 2295.100;  171.675;    0.000
383.687; 2393.100;  202.675;    0.000
383.746; 2679.100;  116.675;    0.000
383.805; 3021.100;  156.675;    0.000
383.864; 2959.100;  150.675;    0.000
383.924; 2492.100;  195.675;    0.000
383.983; 2151.100;  157.675;    0.000
384.042; 2010.100;  184.675;    0.000
384.101; 1987.100;  210.675;    0.000
384.160; 1840.100;  123.675;    0.000
384.219; 1806.100;  191.675;    0.000
384.279; 1728.100;  184.675;    0.000
384.338; 1735.100;  172.675;    0.000
384.397; 1720.100;  153.675;    0.000
384.456; 1636.100;  181.675;    0.000
384.515; 1701.100;  171.675;    0.000
384.574; 1646.100;  172.675;    0.000
384.633; 1696.100;  174.675;    0.000
384.692; 1608.100;  178.675;    0.000
384.751; 1584.100;  180.675;    0.000
384.810; 1687.100;  161.675;    0.000
384.869; 1607.100;  162.675;    0.000
384.929; 1586.100;  157.675;    0.000
384.988; 1608.100;  153.675;    0.000
385.047; 1630.100;  178.675;    0.000
385.106; 1646.100;  164.675;    0.000
385.165; 1550.100;  127.675;    0.000
385.224; 1603.100;  156.675;    0.000
385.283; 1546.100;  178.675;    0.000
385.342; 1621.100;  177.675;    0.000
385.401; 1615.100;  178.675;    0.000
385.459; 1587.100;  177.675;    0.000
385.518; 1628.100;  152.675;    0.000
385.577; 1555.100;  133.675;    0.000
385.636; 1623.100;  204.675;    0.000
385.695; 1582.100;  161.675;    0.000
385.754; 1580.100;  190.675;    0.000
385.813; 1546.100;  160.675;    0.000
385.872; 1490.100;  138.675;    0.000
385.931; 1592.100;  192.675;    0.000
385.990; 1609.100;  158.675;    0.000
386.049; 1626.100;  187.675;    0.000
386.107; 1535.100;  140.675;    0.000
386.166; 1603.100;  139.675;    0.000
386.225; 1630.100;  182.675;    0.000
386.284; 1495.100;  123.675;    0.000
386.343; 1621.100;  207.675;    0.000
386.402; 1548.100;  150.675;    0.000
386.460; 1510.100;  185.675;    0.000
386.519; 1589.100;  145.675;    0.000
386.578; 1560.100;  153.675;    0.000
386.637; 1591.100;  153.675;    0.000
386.696; 1600.100;  189.675;    0.000
386.754; 1525.100;  128.675;    0.000
386.813; 1521.100;  202.675;    0.000
386.872; 1516.100;  152.675;    0.000
386.931; 1544.100;  166.675;    0.000
386.989; 1578.100;  194.675;    0.000
387.048; 1579.100;  176.675;    0.000
387.107; 1597.100;  203.675;    0.000
387.165; 1496.100;  136.675;    0.000
387.224; 1520.100;  193.675;    0.000
387.283; 1543.100;  157.675;    0.000
387.342; 1660.100;  194.675;    0.000
387.400; 1551.100;  191.675;    0.000
387.459; 1550.100;  142.675;    0.000
387.517; 1564.100;  202.675;    0.000
387.576; 1528.100;  164.675;    0.000
387.635; 1542.100;  147.675;    0.000
387.693; 1594.100;  199.675;    0.000
387.752; 1565.100;  181.675;    0.000
387.811; 1532.100;  161.675;    0.000
387.869; 1608.100;  184.675;    0.000
387.928; 1557.100;  175.675;    0.000
387.986; 1501.100;  143.675;    0.000
388.045; 1509.100;  146.675;    0.000
388.103; 1510.100;  164.675;    0.000
388.162; 1508.100;  170.675;    0.000
388.221; 1525.100;  169.675;    0.000
388.279; 1491.100;  151.675;    0.000
388.338; 1639.100;  175.675;    0.000
388.396; 1525.100;  170.675;    0.000
388.455; 1574.100;  193.675;    0.000
388.513; 1587.100;  134.675;    0.000
388.572; 1542.100;  201.675;    0.000
388.630; 1500.100;  181.675;    0.000
388.689; 1511.100;  165.675;    0.000
388.747; 1525.100;  164.675;    0.000
388.806; 1532.100;  155.675;    0.000
388.864; 1515.100;  172.675;    0.000
388.922; 1532.100;  190.675;    0.000
388.981; 1598.100;  170.675;    0.000
389.039; 1509.100;  142.675;    0.000
389.098; 1618.100;  177.675;    0.000
389.156; 1590.100;  184.675;    0.000
389.214; 1588.100;  197.675;    0.000
389.273; 1633.100;  141.675;    0.000
389.331; 1549.100;  145.675;    0.000
389.390; 1551.100;  160.675;    0.000
389.448; 1545.100;  142.675;    0.000
389.506; 1568.100;  192.675;    0.000
389.565; 1569.100;  176.675;    0.000
389.623; 1547.100;  174.675;    0.000
389.681; 1580.100;  184.675;    0.000
389.740; 1609.100;  193.675;    0.000
389.798; 1592.100;  130.675;    0.000
389.856; 1567.100;  224.675;    0.000
389.914; 1554.100;  223.675;    0.000
389.973; 1504.100;  164.675;    0.000
390.031; 1595.100;  198.675;    0.000
390.089; 1596.100;  177.675;    0.000
390.147; 1552.100;  158.675;    0.000
390.206; 1589.100;  213.675;    0.000
390.264; 1606.100;  178.675;    0.000
390.322; 1586.100;  181.675;    0.000
390.380; 1558.100;  148.675;    0.000
390.439; 1540.100;  185.675;    0.000
390.497; 1617.100;  208.675;    0.000
390.555; 1511.100;  175.675;    0.000
390.613; 1587.100;  178.675;    0.000
390.671; 1651.100;  190.675;    0.000
390.729; 1600.100;  172.675;    0.000
390.788; 1545.100;  194.675;    0.000
390.846; 1538.100;  187.675;    0.000
390.904; 1610.100;  207.675;    0.000
390.962; 1600.100;  211.675;    0.000
391.020; 1680.100;  218.675;    0.000
391.078; 1607.100;  179.675;    0.000
391.136; 1623.100;  223.675;    0.000
391.194; 1575.100;  209.675;    0.000
391.253; 1656.100;  217.675;    0.000
391.311; 1560.100;  217.675;    0.000
391.369; 1658.100;  217.675;    0.000
391.427; 1612.100;  253.675;    0.000
391.485; 1602.100;  176.675;    0.000
391.543; 1702.100;  252.675;    0.000
391.601; 1538.100;  168.675;    0.000
391.659; 1575.100;  206.675;    0.000
391.717; 1694.100;  172.675;    0.000
391.775; 1623.100;  170.675;    0.000
391.833; 1613.100;  196.675;    0.000
391.891; 1667.100;  180.675;    0.000
391.949; 1638.100;  201.675;    0.000
392.007; 1611.100;  196.675;    0.000
392.065; 1646.100;  191.675;    0.000
392.123; 1661.100;  158.675;    0.000
392.180; 1630.100;  192.675;    0.000
392.238; 1701.100;  186.675;    0.000
392.296; 1590.100;  150.675;    0.000
392.354; 1613.100;  175.675;    0.000
392.412; 1615.100;  219.675;    0.000
392.470; 1695.100;  200.675;    0.000
392.528; 1595.100;  177.675;    0.000
392.586; 1619.100;  169.675;    0.000
392.644; 1629.100;  155.675;    0.000
392.701; 1752.100;  215.675;    0.000
392.759; 1618.100;  218.675;    0.000
392.817; 1588.100;  178.675;    0.000
392.875; 1658.100;  190.675;    0.000
392.933; 1665.100;  197.675;    0.000
392.991; 1680.100;  179.675;    0.000
393.048; 1741.100;  205.675;    0.000
393.106; 1710.100;  229.675;    0.000
393.164; 1673.100;  167.675;    0.000
393.222; 1689.100;  156.675;    0.000
393.279; 1766.100;  203.675;    0.000
393.337; 1797.100;  216.675;    0.000
393.395; 1879.100;  180.675;    0.000
393.453; 1733.100;  163.675;    0.000
393.510; 1687.100;  194.675;    0.000
393.568; 1695.100;  207.675;    0.000
393.626; 1715.100;  200.675;    0.000
393.684; 1766.100;  234.675;    0.000
393.741; 1621.100;  197.675;    0.000
393.799; 1770.100;  201.675;    0.000
393.857; 1660.100;  185.675;    0.000
393.914; 1778.100;  200.675;    0.000
393.972; 1699.100;  181.675;    0.000
394.030; 1677.100;  188.675;    0.000
394.087; 1665.100;  202.675;    0.000
394.145; 1730.100;  214.675;    0.000
394.202; 1659.100;  204.675;    0.000
394.260; 1740.100;  178.675;    0.000
394.318; 1767.100;  208.675;    0.000
394.375; 1719.100;  183.675;    0.000
394.433; 1709.100;  175.675;    0.000
394.490; 1656.100;  170.675;    0.000
394.548; 1740.100;  161.675;    0.000
394.605; 1676.100;  196.675;    0.000
394.663; 1710.100;  191.675;    0.000
394.720; 1759.100;  179.675;    0.000
394.778; 1706.100;  193.675;    0.000
394.836; 1768.100;  160.675;    0.000
394.893; 1734.100;  152.675;    0.000
394.951; 1625.100;  179.675;    0.000
395.008; 1686.100;  185.675;    0.000
395.065; 1721.100;  154.675;    0.000
395.123; 1734.100;  176.675;    0.000
395.180; 1675.100;  202.675;    0.000
395.238; 1773.100;  135.675;    0.000
395.295; 1769.100;  178.675;    0.000
395.353; 1767.100;  181.675;    0.000
395.410; 1841.100;  160.675;    0.000
395.468; 1794.100;  179.675;    0.000
395.525; 1749.100;  187.675;    0.000
395.582; 1741.100;  221.675;    0.000
395.640; 1740.100;  220.675;    0.000
395.697; 1817.100;  174.675;    0.000
395.754; 1759.100;  177.675;    0.000
395.812; 1787.100;  193.675;    0.000
395.869; 1833.100;  220.675;    0.000
395.927; 1834.100;  206.675;    0.000
395.984; 1847.100;  213.675;    0.000
396.041; 1846.100;  194.675;    0.000
396.098; 1798.100;  144.675;    0.000
396.156; 1781.100;  168.675;    0.000
396.213; 1839.100;  181.675;    0.000
396.270; 1806.100;  186.675;    0.000
396.328; 1775.100;  165.675;    0.000
396.385; 1711.100;  192.675;    0.000
396.442; 1781.100;  196.675;    0.000
396.499; 1792.100;  162.675;    0.000
396.557; 1799.100;  177.675;    0.000
396.614; 1816.100;  184.675;    0.000
396.671; 1864.100;  180.675;    0.000
396.728; 1835.100;  194.675;    0.000
396.785; 1890.100;  173.675;    0.000
396.843; 1864.100;  154.675;    0.000
396.900; 1878.100;  200.675;    0.000
396.957; 1900.100;  158.675;    0.000
397.014; 1910.100;  203.675;    0.000
397.071; 1851.100;  178.675;    0.000
397.128; 1892.100;  201.675;    0.000
397.186; 1857.100;  200.675;    0.000
397.243; 1844.100;  187.675;    0.000
397.300; 1831.100;  173.675;    0.000
397.357; 1912.100;  189.675;    0.000
397.414; 1910.100;  202.675;    0.000
397.471; 1833.100;  156.675;    0.000
397.528; 1844.100;  197.675;    0.000
397.585; 1914.100;  174.675;    0.000
397.642; 1880.100;  202.675;    0.000
397.699; 1883.100;  197.675;    0.000
397.756; 1883.100;  188.675;    0.000
397.814; 1904.100;  210.675;    0.000
397.871; 1853.100;  203.675;    0.000
397.928; 1944.100;  189.675;    0.000
397.985; 1896.100;  192.675;    0.000
398.042; 1962.100;  198.675;    0.000
398.099; 1892.100;  181.675;    0.000
398.156; 1837.100;  201.675;    0.000
398.212; 1938.100;  216.675;    0.000
398.269; 1898.100;  206.675;    0.000
398.326; 1881.100;  213.675;    0.000
398.383; 1924.100;  168.675;    0.000
398.440; 1927.100;  184.675;    0.000
398.497; 1971.100;  194.675;    0.000
398.554; 1935.100;  219.675;    0.000
398.611; 1997.100;  190.675;    0.000
398.668; 1910.100;  138.675;    0.000
398.725; 1934.100;  170.675;    0.000
398.782; 2000.100;  223.675;    0.000
398.839; 2000.100;  211.675;    0.000
398.895; 1981.100;  173.675;    0.000
398.952; 1911.100;  207.675;    0.000
399.009; 2025.100;  173.675;    0.000
399.066; 2004.100;  171.675;    0.000
399.123; 2026.100;  189.675;    0.000
399.180; 2023.100;  170.675;    0.000
399.236; 2032.100;  193.675;    0.000
399.293; 2015.100;  222.675;    0.000
399.350; 2100.100;  195.675;    0.000
399.407; 2117.100;  214.675;    0.000
399.463; 2052.100;  181.675;    0.000
399.520; 2078.100;  168.675;    0.000
399.577; 2156.100;  231.675;    0.000
399.634; 2174.100;  215.675;    0.000
399.690; 2133.100;  177.675;    0.000
399.747; 2170.100;  212.675;    0.000
399.804; 2135.100;  208.675;    0.000
399.861; 2138.100;  225.675;    0.000
399.917; 2173.100;  191.675;    0.000
399.974; 2025.100;  182.675;    0.000
400.031; 2069.100;  218.675;    0.000
400.087; 2054.100;  202.675;    0.000
400.144; 2143.100;  192.675;    0.000
400.201; 2127.100;  187.675;    0.000
400.257; 2057.100;  193.675;    0.000
400.314; 2141.100;  185.675;    0.000
400.370; 2197.100;  201.675;    0.000
400.427; 2182.100;  208.675;    0.000
400.484; 2112.100;  201.675;    0.000
400.540; 2089.100;  204.675;    0.000
400.597; 2135.100;  210.675;    0.000
400.653; 2149.100;  224.675;    0.000
400.710; 2083.100;  196.675;    0.000
400.766; 2102.100;  224.675;    0.000
400.823; 2133.100;  210.675;    0.000
400.879; 2086.100;  213.675;    0.000
400.936; 2107.100;  182.675;    0.000
400.993; 2078.100;  184.675;    0.000
401.049; 2033.100;  216.675;    0.000
401.105; 2107.100;  235.675;    0.000
401.162; 2055.100;  196.675;    0.000
401.218; 2126.100;  221.675;    0.000
401.275; 2071.100;  216.675;    0.000
401.331; 2059.100;  198.675;    0.000
401.388; 2086.100;  205.675;    0.000
401.444; 2030.100;  154.675;    0.000
401.501; 2055.100;  208.675;    0.000
401.557; 2010.100;  162.675;    0.000
401.614; 1990.100;  157.675;    0.000
401.670; 2015.100;  198.675;    0.000
401.726; 1993.100;  195.675;    0.000
401.783; 2048.100;  186.675;    0.000
401.839; 2057.100;  205.675;    0.000
401.895; 2061.100;  202.675;    0.000
401.952; 2066.100;  143.675;    0.000
402.008; 1969.100;  177.675;    0.000
402.064; 2084.100;  177.675;    0.000
402.121; 2001.100;  194.675;    0.000
402.177; 2077.100;  181.675;    0.000
402.233; 2051.100;  205.675;    0.000
402.290; 2075.100;  190.675;    0.000
402.346; 2128.100;  190.675;    0.000
402.402; 2009.100;  151.675;    0.000
402.458; 2035.100;  194.675;    0.000
402.515; 2032.100;  212.675;    0.000
402.571; 2068.100;  209.675;    0.000
402.627; 2000.100;  199.675;    0.000
402.683; 2093.100;  213.675;    0.000
402.740; 1988.100;  165.675;    0.000
402.796; 2116.100;  168.675;    0.000
402.852; 2056.100;  200.675;    0.000
402.908; 2108.100;  193.675;    0.000
402.964; 2083.100;  166.675;    0.000
403.021; 2070.100;  196.675;    0.000
403.077; 2054.100;  212.675;    0.000
403.133; 1976.100;  186.675;    0.000
403.189; 2130.100;  206.675;    0.000
403.245; 2084.100;  207.675;    0.000
403.301; 2125.100;  204.675;    0.000
403.357; 2143.100;  246.675;    0.000
403.414; 2140.100;  227.675;    0.000
403.470; 2175.100;  207.675;    0.000
403.526; 2054.100;  171.675;    0.000
403.582; 2133.100;  200.675;    0.000
403.638; 2206.100;  213.675;    0.000
403.694; 2156.100;  239.675;    0.000
403.750; 2212.100;  221.675;    0.000
403.806; 2233.100;  197.675;    0.000
403.862; 2191.100;  222.675;    0.000
403.918; 2145.100;  174.675;    0.000
403.974; 2092.100;  183.675;    0.000
404.030; 2168.100;  184.675;    0.000
404.086; 2077.100;  170.675;    0.000
404.142; 2084.100;  215.675;    0.000
404.198; 2183.100;  189.675;    0.000
404.254; 2218.100;  195.675;    0.000
404.310; 2130.100;  206.675;    0.000
404.366; 2147.100;  179.675;    0.000
404.422; 2116.100;  197.675;    0.000
404.478; 2218.100;  176.675;    0.000
404.534; 2209.100;  165.675;    0.000
404.590; 2197.100;  203.675;    0.000
404.646; 2204.100;  195.675;    0.000
404.701; 2198.100;  180.675;    0.000
404.757; 2197.100;  218.675;    0.000
404.813; 2149.100;  160.675;    0.000
404.869; 2261.100;  213.675;    0.000
404.925; 2106.100;  171.675;    0.000
404.981; 2193.100;  194.675;    0.000
405.037; 2227.100;  211.675;    0.000
405.092; 2159.100;  158.675;    0.000
405.148; 2117.100;  140.675;    0.000
405.204; 2193.100;  161.675;    0.000
405.260; 2175.100;  161.675;    0.000
405.316; 2196.100;  155.675;    0.000
405.371; 2220.100;  151.675;    0.000
405.427; 2191.100;  186.675;    0.000
405.483; 2275.100;  206.675;    0.000
405.539; 2154.100;  162.675;    0.000
405.594; 2248.100;  205.675;    0.000
405.650; 2154.100;  153.675;    0.000
405.706; 2256.100;  185.675;    0.000
405.761; 2254.100;  205.675;    0.000
405.817; 2153.100;  185.675;    0.000
405.873; 2154.100;  160.675;    0.000
405.928; 2211.100;  182.675;    0.000
405.984; 2244.100;  206.675;    0.000
406.040; 2193.100;  200.675;    0.000
406.095; 2211.100;  138.675;    0.000
406.151; 2259.100;  178.675;    0.000
406.207; 2264.100;  225.675;    0.000
406.262; 2202.100;  161.675;    0.000
406.318; 2281.100;  186.675;    0.000
406.374; 2192.100;  173.675;    0.000
406.429; 2274.100;  197.675;    0.000
406.485; 2360.100;  260.675;    0.000
406.540; 2317.100;  184.675;    0.000
406.596; 2269.100;  193.675;    0.000
406.651; 2368.100;  176.675;    0.000
406.707; 2303.100;  158.675;    0.000
406.763; 2266.100;  174.675;    0.000
406.818; 2343.100;  188.675;    0.000
406.874; 2325.100;  176.675;    0.000
406.929; 2402.100;  220.675;    0.000
406.985; 2394.100;  167.675;    0.000
407.040; 2387.100;  191.675;    0.000
407.095; 2390.100;  190.675;    0.000
407.151; 2381.100;  196.675;    0.000
407.206; 2329.100;  184.675;    0.000
407.262; 2415.100;  167.675;    0.000
407.317; 2524.100;  199.675;    0.000
407.373; 2455.100;  211.675;    0.000
407.428; 2421.100;  202.675;    0.000
407.484; 2433.100;  172.675;    0.000
407.539; 2446.100;  171.675;    0.000
407.594; 2436.100;  219.675;    0.000
407.650; 2544.100;  179.675;    0.000
407.705; 2441.100;  141.675;    0.000
407.760; 2481.100;  182.675;    0.000
407.816; 2479.100;  203.675;    0.000
407.871; 2416.100;  219.675;    0.000
407.926; 2482.100;  197.675;    0.000
407.982; 2491.100;  176.675;    0.000
408.037; 2343.100;  187.675;    0.000
408.092; 2370.100;  161.675;    0.000
408.148; 2484.100;  185.675;    0.000
408.203; 2457.100;  196.675;    0.000
408.258; 2474.100;  188.675;    0.000
408.314; 2452.100;  225.675;    0.000
408.369; 2355.100;  172.675;    0.000
408.424; 2398.100;  204.675;    0.000
408.479; 2429.100;  182.675;    0.000
408.534; 2485.100;  220.675;    0.000
408.590; 2442.100;  196.675;    0.000
408.645; 2430.100;  170.675;    0.000
408.700; 2437.100;  204.675;    0.000
408.755; 2509.100;  219.675;    0.000
408.810; 2425.100;  174.675;    0.000
408.866; 2373.100;  212.675;    0.000
408.921; 2471.100;  233.675;    0.000
408.976; 2349.100;  198.675;    0.000
409.031; 2431.100;  179.675;    0.000
409.086; 2477.100;  181.675;    0.000
409.141; 2379.100;  192.675;    0.000
409.196; 2380.100;  172.675;    0.000
409.252; 2411.100;  199.675;    0.000
409.307; 2376.100;  159.675;    0.000
409.362; 2359.100;  158.675;    0.000
409.417; 2414.100;  164.675;    0.000
409.472; 2420.100;  186.675;    0.000
409.527; 2444.100;  215.675;    0.000
409.582; 2442.100;  227.675;    0.000
409.637; 2384.100;  211.675;    0.000
409.692; 2373.100;  224.675;    0.000
409.747; 2402.100;  147.675;    0.000
409.802; 2440.100;  203.675;    0.000
409.857; 2439.100;  203.675;    0.000
409.912; 2416.100;  219.675;    0.000
409.967; 2291.100;  200.675;    0.000
410.022; 2411.100;  199.675;    0.000
410.077; 2348.100;  171.675;    0.000
410.132; 2410.100;  193.675;    0.000
410.187; 2344.100;  167.675;    0.000
410.242; 2510.100;  188.675;    0.000
410.297; 2450.100;  195.675;    0.000
410.351; 2454.100;  225.675;    0.000
410.406; 2395.100;  188.675;    0.000
410.461; 2406.100;  197.675;    0.000
410.516; 2379.100;  212.675;    0.000
410.571; 2395.100;  173.675;    0.000
410.626; 2341.100;  180.675;    0.000
410.681; 2396.100;  198.675;    0.000
410.736; 2407.100;  190.675;    0.000
410.790; 2396.100;  204.675;    0.000
410.845; 2440.100;  214.675;    0.000
410.900; 2413.100;  184.675;    0.000
410.955; 2480.100;  231.675;    0.000
411.010; 2452.100;  211.675;    0.000
411.064; 2398.100;  204.675;    0.000
411.119; 2362.100;  219.675;    0.000
411.174; 2467.100;  208.675;    0.000
411.229; 2468.100;  207.675;    0.000
411.283; 2484.100;  199.675;    0.000
411.338; 2417.100;  198.675;    0.000
411.393; 2371.100;  155.675;    0.000
411.447; 2426.100;  200.675;    0.000
411.502; 2372.100;  229.675;    0.000
411.557; 2450.100;  197.675;    0.000
411.612; 2429.100;  171.675;    0.000
411.666; 2484.100;  201.675;    0.000
411.721; 2433.100;  174.675;    0.000
411.776; 2372.100;  222.675;    0.000
411.830; 2395.100;  150.675;    0.000
411.885; 2399.100;  169.675;    0.000
411.939; 2404.100;  216.675;    0.000
411.994; 2501.100;  215.675;    0.000
412.049; 2468.100;  219.675;    0.000
412.103; 2470.100;  225.675;    0.000
412.158; 2488.100;  216.675;    0.000
412.212; 2428.100;  218.675;    0.000
412.267; 2419.100;  219.675;    0.000
412.322; 2450.100;  235.675;    0.000
412.376; 2451.100;  208.675;    0.000
412.431; 2418.100;  232.675;    0.000
412.485; 2470.100;  223.675;    0.000
412.540; 2450.100;  217.675;    0.000
412.594; 2483.100;  195.675;    0.000
412.649; 2490.100;  236.675;    0.000
412.703; 2429.100;  216.675;    0.000
412.758; 2517.100;  201.675;    0.000
412.812; 2427.100;  176.675;    0.000
412.866; 2396.100;  179.675;    0.000
412.921; 2407.100;  196.675;    0.000
412.975; 2413.100;  238.675;    0.000
413.030; 2391.100;  272.675;    0.000
413.084; 2422.100;  208.675;    0.000
413.139; 2452.100;  201.675;    0.000
413.193; 2434.100;  198.675;    0.000
413.247; 2523.100;  213.675;    0.000
413.302; 2434.100;  202.675;    0.000
413.356; 2413.100;  184.675;    0.000
413.410; 2392.100;  202.675;    0.000
413.465; 2509.100;  145.675;    0.000
413.519; 2330.100;  200.675;    0.000
413.573; 2447.100;  197.675;    0.000
413.628; 2485.100;  224.675;    0.000
413.682; 2416.100;  211.675;    0.000
413.736; 2425.100;  202.675;    0.000
413.791; 2477.100;  228.675;    0.000
413.845; 2392.100;  184.675;    0.000
413.899; 2339.100;  226.675;    0.000
413.953; 2462.100;  213.675;    0.000
414.008; 2413.100;  175.675;    0.000
414.062; 2353.100;  216.675;    0.000
414.116; 2458.100;  206.675;    0.000
414.170; 2490.100;  229.675;    0.000
414.225; 2447.100;  196.675;    0.000
414.279; 2357.100;  199.675;    0.000
414.333; 2457.100;  220.675;    0.000
414.387; 2469.100;  217.675;    0.000
414.441; 2473.100;  206.675;    0.000
414.496; 2402.100;  264.675;    0.000
414.550; 2447.100;  217.675;    0.000
414.604; 2459.100;  224.675;    0.000
414.658; 2335.100;  156.675;    0.000
414.712; 2423.100;  203.675;    0.000
414.766; 2387.100;  216.675;    0.000
414.820; 2416.100;  218.675;    0.000
414.874; 2510.100;  240.675;    0.000
414.928; 2474.100;  204.675;    0.000
414.982; 2440.100;  195.675;    0.000
415.037; 2408.100;  212.675;    0.000
415.091; 2446.100;  211.675;    0.000
415.145; 2427.100;  230.675;    0.000
415.199; 2361.100;  208.675;    0.000
415.253; 2398.100;  213.675;    0.000
415.307; 2412.100;  208.675;    0.000
415.361; 2427.100;  193.675;    0.000
415.415; 2378.100;  207.675;    0.000
415.469; 2499.100;  214.675;    0.000
415.523; 2463.100;  226.675;    0.000
415.577; 2418.100;  194.675;    0.000
415.631; 2444.100;  258.675;    0.000
415.684; 2431.100;  239.675;    0.000
415.738; 2458.100;  191.675;    0.000
415.792; 2454.100;  185.675;    0.000
415.846; 2429.100;  239.675;    0.000
415.900; 2472.100;  209.675;    0.000
415.954; 2408.100;  215.675;    0.000
416.008; 2411.100;  229.675;    0.000
416.062; 2465.100;  200.675;    0.000
416.116; 2457.100;  195.675;    0.000
416.169; 2428.100;  238.675;    0.000
416.223; 2478.100;  271.675;    0.000
416.277; 2448.100;  232.675;    0.000
416.331; 2459.100;  226.675;    0.000
416.385; 2405.100;  207.675;    0.000
416.439; 2460.100;  221.675;    0.000
416.492; 2387.100;  269.675;    0.000
416.546; 2482.100;  254.675;    0.000
416.600; 2332.100;  225.675;    0.000
416.654; 2467.100;  269.675;    0.000
416.707; 2372.100;  232.675;    0.000
416.761; 2368.100;  226.675;    0.000
416.815; 2439.100;  219.675;    0.000
416.869; 2480.100;  234.675;    0.000
416.922; 2456.100;  230.675;    0.000
416.976; 2390.100;  216.675;    0.000
417.030; 2390.100;  271.675;    0.000
417.083; 2370.100;  229.675;    0.000
417.137; 2382.100;  249.675;    0.000
417.191; 2438.100;  241.675;    0.000
417.244; 2421.100;  230.675;    0.000
417.298; 2377.100;  215.675;    0.000
417.352; 2327.100;  188.675;    0.000
417.405; 2479.100;  248.675;    0.000
417.459; 2441.100;  256.675;    0.000
417.512; 2403.100;  263.675;    0.000
417.566; 2475.100;  227.675;    0.000
417.620; 2440.100;  270.675;    0.000
417.673; 2336.100;  216.675;    0.000
417.727; 2415.100;  234.675;    0.000
417.780; 2436.100;  215.675;    0.000
417.834; 2416.100;  203.675;    0.000
417.887; 2454.100;  257.675;    0.000
417.941; 2448.100;  216.675;    0.000
417.994; 2396.100;  245.675;    0.000
418.048; 2416.100;  209.675;    0.000
418.101; 2492.100;  207.675;    0.000
418.155; 2441.100;  204.675;    0.000
418.208; 2422.100;  270.675;    0.000
418.262; 2394.100;  228.675;    0.000
418.315; 2368.100;  254.675;    0.000
418.369; 2424.100;  245.675;    0.000
418.422; 2419.100;  224.675;    0.000
418.476; 2371.100;  221.675;    0.000
418.529; 2425.100;  234.675;    0.000
418.582; 2342.100;  249.675;    0.000
418.636; 2328.100;  224.675;    0.000
418.689; 2408.100;  228.675;    0.000
418.743; 2436.100;  240.675;    0.000
418.796; 2381.100;  197.675;    0.000
418.849; 2467.100;  220.675;    0.000
418.903; 2392.100;  246.675;    0.000
418.956; 2388.100;  250.675;    0.000
419.009; 2452.100;  276.675;    0.000
419.063; 2373.100;  232.675;    0.000
419.116; 2420.100;  228.675;    0.000
419.169; 2404.100;  249.675;    0.000
419.222; 2426.100;  215.675;    0.000
419.276; 2424.100;  228.675;    0.000
419.329; 2349.100;  246.675;    0.000
419.382; 2350.100;  188.675;    0.000
419.435; 2366.100;  240.675;    0.000
419.489; 2417.100;  261.675;    0.000
419.542; 2362.100;  224.675;    0.000
419.595; 2469.100;  251.675;    0.000
419.648; 2495.100;  236.675;    0.000
419.701; 2369.100;  244.675;    0.000
419.755; 2261.100;  242.675;    0.000
419.808; 2379.100;  242.675;    0.000
419.861; 2337.100;  189.675;    0.000
419.914; 2382.100;  258.675;    0.000
419.967; 2349.100;  230.675;    0.000
420.020; 2287.100;  223.675;    0.000
420.073; 2336.100;  221.675;    0.000
420.127; 2393.100;  252.675;    0.000
420.180; 2335.100;  219.675;    0.000
420.233; 2325.100;  201.675;    0.000
420.286; 2344.100;  221.675;    0.000
420.339; 2320.100;  250.675;    0.000
420.392; 2299.100;  268.675;    0.000
420.445; 2372.100;  223.675;    0.000
420.498; 2313.100;  240.675;    0.000
420.551; 2252.100;  220.675;    0.000
420.604; 2354.100;  231.675;    0.000
420.657; 2400.100;  228.675;    0.000
420.710; 2264.100;  219.675;    0.000
420.763; 2379.100;  280.675;    0.000
420.816; 2278.100;  202.675;    0.000
420.869; 2319.100;  219.675;    0.000
420.922; 2288.100;  218.675;    0.000
420.975; 2312.100;  237.675;    0.000
421.028; 2328.100;  242.675;    0.000
421.081; 2231.100;  247.675;    0.000
421.134; 2286.100;  239.675;    0.000
421.187; 2266.100;  229.675;    0.000
421.239; 2322.100;  200.675;    0.000
421.292; 2296.100;  205.675;    0.000
421.345; 2308.100;  219.675;    0.000
421.398; 2253.100;  187.675;    0.000
421.451; 2321.100;  226.675;    0.000
421.504; 2251.100;  206.675;    0.000
421.557; 2238.100;  226.675;    0.000
421.609; 2244.100;  209.675;    0.000
421.662; 2253.100;  229.675;    0.000
421.715; 2211.100;  231.675;    0.000
421.768; 2306.100;  215.675;    0.000
421.821; 2217.100;  211.675;    0.000
421.873; 2328.100;  220.675;    0.000
421.926; 2273.100;  212.675;    0.000
421.979; 2306.100;  209.675;    0.000
422.032; 2215.100;  203.675;    0.000
422.084; 2303.100;  213.675;    0.000
422.137; 2258.100;  196.675;    0.000
422.190; 2207.100;  246.675;    0.000
422.243; 2255.100;  194.675;    0.000
422.295; 2162.100;  225.675;    0.000
422.348; 2258.100;  248.675;    0.000
422.401; 2261.100;  252.675;    0.000
422.453; 2314.100;  249.675;    0.000
422.506; 2262.100;  233.675;    0.000
422.559; 2279.100;  228.675;    0.000
422.611; 2217.100;  224.675;    0.000
422.664; 2275.100;  226.675;    0.000
422.716; 2479.100;  226.675;    0.000
422.769; 2257.100;  216.675;    0.000
422.822; 2230.100;  256.675;    0.000
422.874; 2197.100;  206.675;    0.000
422.927; 2306.100;  257.675;    0.000
422.979; 2240.100;  209.675;    0.000
423.032; 2275.100;  244.675;    0.000
423.084; 2243.100;  244.675;    0.000
423.137; 2235.100;  213.675;    0.000
423.189; 2263.100;  208.675;    0.000
423.242; 2206.100;  226.675;    0.000
423.294; 2260.100;  250.675;    0.000
423.347; 2160.100;  206.675;    0.000
423.399; 2300.100;  268.675;    0.000
423.452; 2208.100;  262.675;    0.000
423.504; 2261.100;  237.675;    0.000
423.557; 2218.100;  245.675;    0.000
423.609; 2184.100;  211.675;    0.000
423.662; 2200.100;  222.675;    0.000
423.714; 2150.100;  219.675;    0.000
423.766; 2263.100;  250.675;    0.000
423.819; 2073.100;  220.675;    0.000
423.871; 2172.100;  229.675;    0.000
423.923; 2228.100;  219.675;    0.000
423.976; 2225.100;  221.675;    0.000
424.028; 2218.100;  211.675;    0.000
424.081; 2207.100;  254.675;    0.000
424.133; 2170.100;  230.675;    0.000
424.185; 2230.100;  241.675;    0.000
424.238; 2269.100;  182.675;    0.000
424.290; 2211.100;  215.675;    0.000
424.342; 2172.100;  235.675;    0.000
424.394; 2165.100;  225.675;    0.000
424.447; 2231.100;  264.675;    0.000
424.499; 2191.100;  225.675;    0.000
424.551; 2250.100;  237.675;    0.000
424.603; 2184.100;  219.675;    0.000
424.656; 2217.100;  240.675;    0.000
424.708; 2190.100;  266.675;    0.000
424.760; 2268.100;  230.675;    0.000
424.812; 2273.100;  284.675;    0.000
424.864; 2192.100;  189.675;    0.000
424.917; 2135.100;  226.675;    0.000
424.969; 2145.100;  253.675;    0.000
425.021; 2218.100;  233.675;    0.000
425.073; 2219.100;  246.675;    0.000
425.125; 2132.100;  238.675;    0.000
425.177; 2086.100;  253.675;    0.000
425.229; 2135.100;  254.675;    0.000
425.282; 2131.100;  252.675;    0.000
425.334; 2136.100;  261.675;    0.000
425.386; 2174.100;  227.675;    0.000
425.438; 2141.100;  246.675;    0.000
425.490; 2074.100;  249.675;    0.000
425.542; 2164.100;  236.675;    0.000
425.594; 2028.100;  236.675;    0.000
425.646; 2127.100;  237.675;    0.000
425.698; 2099.100;  271.675;    0.000
425.750; 2119.100;  240.675;    0.000
425.802; 2166.100;  238.675;    0.000
425.854; 2104.100;  256.675;    0.000
425.906; 2112.100;  230.675;    0.000
425.958; 2084.100;  231.675;    0.000
426.010; 2130.100;  268.675;    0.000
426.062; 2043.100;  227.675;    0.000
426.114; 2168.100;  234.675;    0.000
426.166; 2086.100;  239.675;    0.000
426.218; 2088.100;  255.675;    0.000
426.270; 2177.100;  196.675;    0.000
426.321; 2084.100;  231.675;    0.000
426.373; 2080.100;  199.675;    0.000
426.425; 2035.100;  245.675;    0.000
426.477; 2194.100;  259.675;    0.000
426.529; 2117.100;  274.675;    0.000
426.581; 2130.100;  221.675;    0.000
426.633; 2162.100;  231.675;    0.000
426.684; 2054.100;  248.675;    0.000
426.736; 2101.100;  237.675;    0.000
426.788; 2121.100;  191.675;    0.000
426.840; 2055.100;  180.675;    0.000
426.892; 2051.100;  259.675;    0.000
426.943; 2073.100;  256.675;    0.000
426.995; 2063.100;  212.675;    0.000
427.047; 2051.100;  233.675;    0.000
427.099; 2142.100;  222.675;    0.000
427.150; 2058.100;  203.675;    0.000
427.202; 2075.100;  218.675;    0.000
427.254; 2036.100;  198.675;    0.000
427.306; 2012.100;  248.675;    0.000
427.357; 2123.100;  239.675;    0.000
427.409; 2089.100;  193.675;    0.000
427.461; 2066.100;  215.675;    0.000
427.512; 2052.100;  251.675;    0.000
427.564; 2058.100;  210.675;    0.000
427.616; 2022.100;  251.675;    0.000
427.667; 2101.100;  246.675;    0.000
427.719; 1985.100;  227.675;    0.000
427.770; 2060.100;  247.675;    0.000
427.822; 2103.100;  261.675;    0.000
427.874; 2055.100;  231.675;    0.000
427.925; 2095.100;  231.675;    0.000
427.977; 2077.100;  243.675;    0.000
428.028; 2110.100;  249.675;    0.000
428.080; 2072.100;  224.675;    0.000
428.131; 2052.100;  247.675;    0.000
428.183; 2064.100;  213.675;    0.000
428.234; 1963.100;  213.675;    0.000
428.286; 2033.100;  224.675;    0.000
428.337; 1984.100;  212.675;    0.000
428.389; 1974.100;  231.675;    0.000
428.440; 2022.100;  248.675;    0.000
428.492; 2084.100;  242.675;    0.000
428.543; 2053.100;  220.675;    0.000
428.595; 2026.100;  212.675;    0.000
428.646; 2035.100;  231.675;    0.000
428.697; 1967.100;  232.675;    0.000
428.749; 2104.100;  231.675;    0.000
428.800; 1981.100;  270.675;    0.000
428.852; 1983.100;  266.675;    0.000
428.903; 1970.100;  215.675;    0.000
428.954; 2010.100;  200.675;    0.000
429.006; 2070.100;  247.675;    0.000
429.057; 2015.100;  247.675;    0.000
429.108; 1970.100;  193.675;    0.000
429.160; 1985.100;  249.675;    0.000
429.211; 1987.100;  228.675;    0.000
429.262; 2005.100;  243.675;    0.000
429.314; 1938.100;  227.675;    0.000
429.365; 1983.100;  242.675;    0.000
429.416; 1953.100;  240.675;    0.000
429.467; 2000.100;  222.675;    0.000
429.519; 1969.100;  233.675;    0.000
429.570; 2011.100;  223.675;    0.000
429.621; 1948.100;  257.675;    0.000
429.672; 2027.100;  220.675;    0.000
429.724; 1940.100;  203.675;    0.000
429.775; 2067.100;  242.675;    0.000
429.826; 2006.100;  195.675;    0.000
429.877; 1990.100;  248.675;    0.000
429.928; 1990.100;  226.675;    0.000
429.980; 2052.100;  189.675;    0.000
430.031; 2014.100;  223.675;    0.000
430.082; 1955.100;  217.675;    0.000
430.133; 1993.100;  210.675;    0.000
430.184; 1957.100;  271.675;    0.000
430.235; 1916.100;  190.675;    0.000
430.286; 2019.100;  233.675;    0.000
430.337; 1936.100;  232.675;    0.000
430.388; 1923.100;  221.675;    0.000
430.439; 1943.100;  221.675;    0.000
430.490; 1924.100;  229.675;    0.000
430.542; 1960.100;  196.675;    0.000
430.593; 1958.100;  214.675;    0.000
430.644; 1898.100;  224.675;    0.000
430.695; 2026.100;  216.675;    0.000
430.746; 1888.100;  228.675;    0.000
430.797; 1942.100;  190.675;    0.000
430.848; 1979.100;  231.675;    0.000
430.898; 2011.100;  232.675;    0.000
430.949; 1897.100;  224.675;    0.000
431.000; 1886.100;  236.675;    0.000
431.051; 1945.100;  251.675;    0.000
431.102; 1838.100;  205.675;    0.000
431.153; 1936.100;  212.675;    0.000
431.204; 2001.100;  200.675;    0.000
431.255; 1921.100;  220.675;    0.000
431.306; 1943.100;  223.675;    0.000
431.357; 1903.100;  240.675;    0.000
431.408; 1922.100;  232.675;    0.000
431.458; 2005.100;  204.675;    0.000
431.509; 1939.100;  196.675;    0.000
431.560; 1984.100;  243.675;    0.000
431.611; 1872.100;  222.675;    0.000
431.662; 2019.100;  246.675;    0.000
431.713; 1961.100;  188.675;    0.000
431.763; 1986.100;  226.675;    0.000
431.814; 1950.100;  239.675;    0.000
431.865; 1950.100;  245.675;    0.000
431.916; 1896.100;  173.675;    0.000
431.966; 1909.100;  220.675;    0.000
432.017; 1951.100;  247.675;    0.000
432.068; 1971.100;  241.675;    0.000
432.118; 2049.100;  220.675;    0.000
432.169; 1946.100;  244.675;    0.000
432.220; 1999.100;  246.675;    0.000
432.271; 1898.100;  203.675;    0.000
432.321; 1972.100;  244.675;    0.000
432.372; 2003.100;  254.675;    0.000
432.423; 1927.100;  224.675;    0.000
432.473; 1882.100;  211.675;    0.000
432.524; 1935.100;  227.675;    0.000
432.574; 1942.100;  228.675;    0.000
432.625; 1956.100;  223.675;    0.000
432.676; 1878.100;  220.675;    0.000
432.726; 1957.100;  257.675;    0.000
432.777; 1868.100;  257.675;    0.000
432.827; 1917.100;  240.675;    0.000
432.878; 1910.100;  219.675;    0.000
432.928; 1941.100;  234.675;    0.000
432.979; 1899.100;  226.675;    0.000
433.029; 1946.100;  216.675;    0.000
433.080; 1907.100;  232.675;    0.000
433.130; 1857.100;  257.675;    0.000
433.181; 1911.100;  243.675;    0.000
433.231; 1952.100;  239.675;    0.000
433.282; 1973.100;  232.675;    0.000
433.332; 1952.100;  256.675;    0.000
433.383; 1947.100;  268.675;    0.000
433.433; 2018.100;  291.675;    0.000
433.484; 1968.100;  263.675;    0.000
433.534; 1973.100;  248.675;    0.000
433.585; 1878.100;  244.675;    0.000
433.635; 1960.100;  242.675;    0.000
433.685; 2013.100;  243.675;    0.000
433.736; 1894.100;  283.675;    0.000
433.786; 1869.100;  264.675;    0.000
433.836; 1947.100;  282.675;    0.000
433.887; 1860.100;  265.675;    0.000
433.937; 2011.100;  255.675;    0.000
433.987; 1899.100;  245.675;    0.000
434.038; 1913.100;  276.675;    0.000
434.088; 1898.100;  249.675;    0.000
434.138; 1988.100;  260.675;    0.000
434.189; 1906.100;  241.675;    0.000
434.239; 1874.100;  232.675;    0.000
434.289; 1969.100;  272.675;    0.000
434.339; 1963.100;  288.675;    0.000
434.389; 1888.100;  258.675;    0.000
434.440; 1931.100;  244.675;    0.000
434.490; 2043.100;  288.675;    0.000
434.540; 1939.100;  252.675;    0.000
434.590; 1924.100;  256.675;    0.000
434.640; 1914.100;  259.675;    0.000
434.691; 2020.100;  220.675;    0.000
434.741; 1952.100;  238.675;    0.000
434.791; 2012.100;  276.675;    0.000
434.841; 1980.100;  256.675;    0.000
434.891; 2025.100;  297.675;    0.000
434.941; 1950.100;  290.675;    0.000
434.991; 1990.100;  261.675;    0.000
435.042; 1930.100;  300.675;    0.000
435.092; 1948.100;  248.675;    0.000
435.142; 1949.100;  246.675;    0.000
435.192; 1961.100;  201.675;    0.000
435.242; 1979.100;  234.675;    0.000
435.292; 1967.100;  266.675;    0.000
435.342; 1880.100;  250.675;    0.000
435.392; 1925.100;  279.675;    0.000
435.442; 1869.100;  242.675;    0.000
435.492; 1878.100;  265.675;    0.000
435.542; 1858.100;  243.675;    0.000
435.592; 1840.100;  243.675;    0.000
435.642; 1859.100;  241.675;    0.000
435.692; 1927.100;  263.675;    0.000
435.742; 1917.100;  264.675;    0.000
435.792; 1947.100;  291.675;    0.000
435.842; 1856.100;  257.675;    0.000
435.891; 1878.100;  224.675;    0.000
435.941; 1884.100;  243.675;    0.000
435.991; 1861.100;  300.675;    0.000
436.041; 1874.100;  197.675;    0.000
436.091; 1946.100;  238.675;    0.000
436.141; 1763.100;  222.675;    0.000
436.191; 1886.100;  249.675;    0.000
436.241; 1807.100;  208.675;    0.000
436.290; 1803.100;  282.675;    0.000
436.340; 1831.100;  233.675;    0.000
436.390; 1866.100;  223.675;    0.000
436.440; 1857.100;  252.675;    0.000
436.490; 1866.100;  254.675;    0.000
436.539; 1882.100;  271.675;    0.000
436.589; 1890.100;  248.675;    0.000
436.639; 1835.100;  235.675;    0.000
436.689; 1821.100;  238.675;    0.000
436.738; 1833.100;  267.675;    0.000
436.788; 1781.100;  239.675;    0.000
436.838; 1853.100;  244.675;    0.000
436.887; 1900.100;  265.675;    0.000
436.937; 1787.100;  261.675;    0.000
436.987; 1823.100;  235.675;    0.000
437.036; 1875.100;  267.675;    0.000
437.086; 1829.100;  258.675;    0.000
437.136; 1784.100;  250.675;    0.000
437.185; 1810.100;  214.675;    0.000
437.235; 1830.100;  257.675;    0.000
437.285; 1764.100;  259.675;    0.000
437.334; 1761.100;  241.675;    0.000
437.384; 1824.100;  231.675;    0.000
437.433; 1813.100;  239.675;    0.000
437.483; 1805.100;  260.675;    0.000
437.532; 1790.100;  277.675;    0.000
437.582; 1845.100;  268.675;    0.000
437.631; 1816.100;  239.675;    0.000
437.681; 1827.100;  251.675;    0.000
437.730; 1869.100;  246.675;    0.000
437.780; 1671.100;  226.675;    0.000
437.829; 1807.100;  256.675;    0.000
437.879; 1798.100;  239.675;    0.000
437.928; 1752.100;  253.675;    0.000
437.978; 1793.100;  245.675;    0.000
438.027; 1794.100;  277.675;    0.000
438.077; 1794.100;  248.675;    0.000
438.126; 1787.100;  201.675;    0.000
438.176; 1782.100;  220.675;    0.000
438.225; 1855.100;  250.675;    0.000
438.274; 1801.100;  234.675;    0.000
438.324; 1779.100;  276.675;    0.000
438.373; 1676.100;  226.675;    0.000
438.422; 1771.100;  228.675;    0.000
438.472; 1718.100;  225.675;    0.000
438.521; 1745.100;  227.675;    0.000
438.570; 1800.100;  242.675;    0.000
438.620; 1782.100;  277.675;    0.000
438.669; 1772.100;  256.675;    0.000
438.718; 1777.100;  248.675;    0.000
438.768; 1725.100;  225.675;    0.000
438.817; 1772.100;  229.675;    0.000
438.866; 1715.100;  218.675;    0.000
438.915; 1776.100;  256.675;    0.000
438.965; 1771.100;  242.675;    0.000
439.014; 1775.100;  260.675;    0.000
439.063; 1790.100;  238.675;    0.000
439.112; 1768.100;  209.675;    0.000
439.162; 1754.100;  258.675;    0.000
439.211; 1766.100;  275.675;    0.000
439.260; 1772.100;  238.675;    0.000
439.309; 1765.100;  237.675;    0.000
439.358; 1782.100;  252.675;    0.000
439.407; 1841.100;  239.675;    0.000
439.456; 1779.100;  211.675;    0.000
439.506; 1722.100;  261.675;    0.000
439.555; 1817.100;  274.675;    0.000
439.604; 1793.100;  262.675;    0.000
439.653; 1779.100;  245.675;    0.000
439.702; 1816.100;  247.675;    0.000
439.751; 1705.100;  228.675;    0.000
439.800; 1761.100;  253.675;    0.000
439.849; 1739.100;  219.675;    0.000
439.898; 1820.100;  246.675;    0.000
439.947; 1770.100;  229.675;    0.000
439.996; 1773.100;  274.675;    0.000
440.045; 1727.100;  224.675;    0.000
440.094; 1784.100;  225.675;    0.000
440.143; 1750.100;  277.675;    0.000
440.192; 1775.100;  252.675;    0.000
440.241; 1737.100;  253.675;    0.000
440.290; 1760.100;  242.675;    0.000
440.339; 1772.100;  220.675;    0.000
440.388; 1755.100;  244.675;    0.000
440.437; 1800.100;  268.675;    0.000
440.486; 1717.100;  242.675;    0.000
440.535; 1794.100;  269.675;    0.000
440.583; 1744.100;  258.675;    0.000
440.632; 1788.100;  286.675;    0.000
440.681; 1802.100;  238.675;    0.000
440.730; 1765.100;  271.675;    0.000
440.779; 1801.100;  226.675;    0.000
440.828; 1676.100;  213.675;    0.000
440.876; 1766.100;  207.675;    0.000
440.925; 1783.100;  247.675;    0.000
440.974; 1821.100;  229.675;    0.000
441.023; 1739.100;  227.675;    0.000
441.072; 1762.100;  222.675;    0.000
441.120; 1799.100;  273.675;    0.000
441.169; 1782.100;  263.675;    0.000
441.218; 1759.100;  264.675;    0.000
441.267; 1864.100;  287.675;    0.000
441.315; 1789.100;  251.675;    0.000
441.364; 1854.100;  252.675;    0.000
441.413; 1839.100;  227.675;    0.000
441.461; 1738.100;  198.675;    0.000
441.510; 1788.100;  273.675;    0.000
441.559; 1889.100;  245.675;    0.000
441.607; 1797.100;  218.675;    0.000
441.656; 1776.100;  261.675;    0.000
441.705; 1885.100;  259.675;    0.000
441.753; 1812.100;  272.675;    0.000
441.802; 1825.100;  246.675;    0.000
441.850; 1773.100;  255.675;    0.000
441.899; 1814.100;  236.675;    0.000
441.948; 1751.100;  267.675;    0.000
441.996; 1854.100;  246.675;    0.000
442.045; 1805.100;  279.675;    0.000
442.093; 1793.100;  251.675;    0.000
442.142; 1893.100;  274.675;    0.000
442.190; 1798.100;  279.675;    0.000
442.239; 1777.100;  295.675;    0.000
442.287; 1829.100;  229.675;    0.000
442.336; 1879.100;  265.675;    0.000
442.384; 1811.100;  219.675;    0.000
442.433; 1793.100;  287.675;    0.000
442.481; 1807.100;  271.675;    0.000
442.529; 1843.100;  262.675;    0.000
442.578; 1830.100;  282.675;    0.000
442.626; 1850.100;  245.675;    0.000
442.675; 1907.100;  283.675;    0.000
442.723; 1760.100;  247.675;    0.000
442.771; 1736.100;  221.675;    0.000
442.820; 1801.100;  253.675;    0.000
442.868; 1817.100;  204.675;    0.000
442.917; 1740.100;  263.675;    0.000
442.965; 1830.100;  255.675;    0.000
443.013; 1738.100;  282.675;    0.000
443.062; 1795.100;  258.675;    0.000
443.110; 1755.100;  268.675;    0.000
443.158; 1782.100;  247.675;    0.000
443.206; 1815.100;  243.675;    0.000
443.255; 1855.100;  271.675;    0.000
443.303; 1800.100;  279.675;    0.000
443.351; 1756.100;  264.675;    0.000
443.399; 1809.100;  245.675;    0.000
443.448; 1830.100;  259.675;    0.000
443.496; 1804.100;  281.675;    0.000
443.544; 1736.100;  213.675;    0.000
443.592; 1808.100;  290.675;    0.000
443.640; 1823.100;  270.675;    0.000
443.689; 1901.100;  229.675;    0.000
443.737; 1804.100;  254.675;    0.000
443.785; 1894.100;  234.675;    0.000
443.833; 1878.100;  287.675;    0.000
443.881; 1838.100;  229.675;    0.000
443.929; 1849.100;  260.675;    0.000
443.977; 1860.100;  265.675;    0.000
444.025; 1787.100;  257.675;    0.000
444.074; 1891.100;  245.675;    0.000
444.122; 1855.100;  282.675;    0.000
444.170; 1865.100;  240.675;    0.000
444.218; 1852.100;  270.675;    0.000
444.266; 1832.100;  254.675;    0.000
444.314; 1840.100;  264.675;    0.000
444.362; 1842.100;  287.675;    0.000
444.410; 1939.100;  236.675;    0.000
444.458; 1918.100;  273.675;    0.000
444.506; 1894.100;  235.675;    0.000
444.554; 1864.100;  242.675;    0.000
444.602; 1933.100;  283.675;    0.000
444.650; 1902.100;  266.675;    0.000
444.698; 1847.100;  248.675;    0.000
444.746; 1881.100;  247.675;    0.000
444.793; 1892.100;  211.675;    0.000
444.841; 1861.100;  259.675;    0.000
444.889; 1847.100;  253.675;    0.000
444.937; 1802.100;  248.675;    0.000
444.985; 1879.100;  233.675;    0.000
445.033; 1930.100;  245.675;    0.000
445.081; 1849.100;  243.675;    0.000
445.129; 1890.100;  238.675;    0.000
445.176; 1791.100;  204.675;    0.000
445.224; 1898.100;  262.675;    0.000
445.272; 1847.100;  256.675;    0.000
445.320; 1931.100;  235.675;    0.000
445.368; 1833.100;  251.675;    0.000
445.415; 1806.100;  250.675;    0.000
445.463; 1947.100;  225.675;    0.000
445.511; 1842.100;  226.675;    0.000
445.559; 1868.100;  251.675;    0.000
445.606; 1879.100;  213.675;    0.000
445.654; 1883.100;  261.675;    0.000
445.702; 1872.100;  222.675;    0.000
445.749; 1795.100;  257.675;    0.000
445.797; 1880.100;  263.675;    0.000
445.845; 1886.100;  218.675;    0.000
445.892; 1818.100;  228.675;    0.000
445.940; 1878.100;  249.675;    0.000
445.988; 1870.100;  276.675;    0.000
446.035; 1894.100;  229.675;    0.000
446.083; 1869.100;  255.675;    0.000
446.130; 1875.100;  200.675;    0.000
446.178; 1877.100;  256.675;    0.000
446.226; 1881.100;  238.675;    0.000
446.273; 1851.100;  250.675;    0.000
446.321; 1905.100;  233.675;    0.000
446.368; 1864.100;  244.675;    0.000
446.416; 1871.100;  214.675;    0.000
446.463; 1841.100;  225.675;    0.000
446.511; 1892.100;  253.675;    0.000
446.558; 1859.100;  246.675;    0.000
446.606; 1914.100;  238.675;    0.000
446.653; 1948.100;  215.675;    0.000
446.701; 1901.100;  248.675;    0.000
446.748; 1928.100;  258.675;    0.000
446.796; 1912.100;  259.675;    0.000
446.843; 1883.100;  269.675;    0.000
446.891; 1914.100;  259.675;    0.000
446.938; 1881.100;  226.675;    0.000
446.985; 1954.100;  225.675;    0.000
447.033; 1944.100;  269.675;    0.000
447.080; 1920.100;  258.675;    0.000
447.128; 1907.100;  225.675;    0.000
447.175; 1941.100;  259.675;    0.000
447.222; 1847.100;  238.675;    0.000
447.270; 2060.100;  250.675;    0.000
447.317; 2052.100;  217.675;    0.000
447.364; 2040.100;  262.675;    0.000
447.411; 2005.100;  269.675;    0.000
447.459; 1916.100;  251.675;    0.000
447.506; 1960.100;  227.675;    0.000
447.553; 2004.100;  250.675;    0.000
447.601; 2068.100;  251.675;    0.000
447.648; 2027.100;  276.675;    0.000
447.695; 2060.100;  229.675;    0.000
447.742; 2038.100;  245.675;    0.000
447.789; 2114.100;  243.675;    0.000
447.837; 2096.100;  267.675;    0.000
447.884; 2090.100;  246.675;    0.000
447.931; 2122.100;  266.675;    0.000
447.978; 2113.100;  242.675;    0.000
448.025; 2145.100;  267.675;    0.000
448.072; 2146.100;  257.675;    0.000
448.120; 2153.100;  279.675;    0.000
448.167; 2189.100;  275.675;    0.000
448.214; 2205.100;  241.675;    0.000
448.261; 2135.100;  271.675;    0.000
448.308; 2011.100;  256.675;    0.000
448.355; 2081.100;  253.675;    0.000
448.402; 2083.100;  267.675;    0.000
448.449; 2069.100;  252.675;    0.000
448.496; 2016.100;  241.675;    0.000
448.543; 2024.100;  250.675;    0.000
448.590; 2001.100;  288.675;    0.000
448.637; 1996.100;  255.675;    0.000
448.684; 1895.100;  284.675;    0.000
448.731; 1968.100;  244.675;    0.000
448.778; 1966.100;  257.675;    0.000
448.825; 2009.100;  252.675;    0.000
448.872; 1936.100;  205.675;    0.000
448.919; 1892.100;  244.675;    0.000
448.966; 1956.100;  278.675;    0.000
449.013; 1881.100;  262.675;    0.000
449.060; 1967.100;  278.675;    0.000
449.107; 1892.100;  248.675;    0.000
449.154; 1908.100;  230.675;    0.000
449.200; 1880.100;  211.675;    0.000
449.247; 1931.100;  283.675;    0.000
449.294; 1886.100;  251.675;    0.000
449.341; 1942.100;  280.675;    0.000
449.388; 1844.100;  247.675;    0.000
449.435; 1752.100;  267.675;    0.000
449.481; 1918.100;  303.675;    0.000
449.528; 1793.100;  279.675;    0.000
449.575; 1827.100;  226.675;    0.000
449.622; 1836.100;  263.675;    0.000
449.668; 1852.100;  249.675;    0.000
449.715; 1831.100;  257.675;    0.000
449.762; 1873.100;  251.675;    0.000
449.809; 1870.100;  289.675;    0.000
449.855; 1854.100;  239.675;    0.000
449.902; 1852.100;  262.675;    0.000
449.949; 1798.100;  262.675;    0.000
449.995; 1837.100;  265.675;    0.000
450.042; 1841.100;  280.675;    0.000
450.089; 1867.100;  277.675;    0.000
450.135; 1804.100;  285.675;    0.000
450.182; 1829.100;  275.675;    0.000
450.229; 1759.100;  278.675;    0.000
450.275; 1771.100;  288.675;    0.000
450.322; 1726.100;  238.675;    0.000
450.368; 1798.100;  276.675;    0.000
450.415; 1847.100;  295.675;    0.000
450.462; 1834.100;  283.675;    0.000
450.508; 1784.100;  264.675;    0.000
450.555; 1737.100;  275.675;    0.000
450.601; 1775.100;  278.675;    0.000
450.648; 1786.100;  251.675;    0.000
450.694; 1733.100;  237.675;    0.000
450.741; 1796.100;  280.675;    0.000
450.787; 1729.100;  279.675;    0.000
450.834; 1726.100;  287.675;    0.000
450.880; 1769.100;  265.675;    0.000
450.927; 1749.100;  270.675;    0.000
450.973; 1728.100;  308.675;    0.000
451.019; 1747.100;  253.675;    0.000
451.066; 1777.100;  261.675;    0.000
451.112; 1745.100;  276.675;    0.000
451.159; 1781.100;  235.675;    0.000
451.205; 1824.100;  284.675;    0.000
451.251; 1792.100;  264.675;    0.000
451.298; 1779.100;  262.675;    0.000
451.344; 1799.100;  278.675;    0.000
451.390; 1817.100;  273.675;    0.000
451.437; 1740.100;  272.675;    0.000
451.483; 1796.100;  302.675;    0.000
451.529; 1782.100;  255.675;    0.000
451.576; 1726.100;  287.675;    0.000
451.622; 1709.100;  254.675;    0.000
451.668; 1750.100;  260.675;    0.000
451.714; 1780.100;  289.675;    0.000
451.761; 1731.100;  273.675;    0.000
451.807; 1783.100;  307.675;    0.000
451.853; 1723.100;  281.675;    0.000
451.899; 1773.100;  246.675;    0.000
451.945; 1724.100;  258.675;    0.000
451.992; 1750.100;  276.675;    0.000
452.038; 1646.100;  287.675;    0.000
452.084; 1724.100;  288.675;    0.000
452.130; 1745.100;  259.675;    0.000
452.176; 1690.100;  265.675;    0.000
452.222; 1661.100;  222.675;    0.000
452.268; 1765.100;  271.675;    0.000
452.315; 1678.100;  258.675;    0.000
452.361; 1743.100;  233.675;    0.000
452.407; 1677.100;  270.675;    0.000
452.453; 1667.100;  261.675;    0.000
452.499; 1671.100;  279.675;    0.000
452.545; 1675.100;  269.675;    0.000
452.591; 1746.100;  288.675;    0.000
452.637; 1645.100;  279.675;    0.000
452.683; 1660.100;  232.675;    0.000
452.729; 1738.100;  285.675;    0.000
452.775; 1742.100;  280.675;    0.000
452.821; 1665.100;  260.675;    0.000
452.867; 1735.100;  239.675;    0.000
452.913; 1714.100;  240.675;    0.000
452.959; 1719.100;  214.675;    0.000
453.005; 1785.100;  266.675;    0.000
453.051; 1771.100;  258.675;    0.000
453.097; 1708.100;  253.675;    0.000
453.142; 1679.100;  244.675;    0.000
453.188; 1728.100;  241.675;    0.000
453.234; 1689.100;  257.675;    0.000
453.280; 1648.100;  231.675;    0.000
453.326; 1660.100;  240.675;    0.000
453.372; 1678.100;  208.675;    0.000
453.418; 1716.100;  266.675;    0.000
453.463; 1657.100;  232.675;    0.000
453.509; 1720.100;  221.675;    0.000
453.555; 1650.100;  268.675;    0.000
453.601; 1613.100;  242.675;    0.000
453.647; 1738.100;  283.675;    0.000
453.692; 1639.100;  242.675;    0.000
453.738; 1680.100;  294.675;    0.000
453.784; 1659.100;  256.675;    0.000
453.829; 1609.100;  267.675;    0.000
453.875; 1653.100;  233.675;    0.000
453.921; 1580.100;  247.675;    0.000
453.967; 1646.100;  249.675;    0.000
454.012; 1706.100;  274.675;    0.000
454.058; 1709.100;  249.675;    0.000
454.104; 1659.100;  272.675;    0.000
454.149; 1714.100;  277.675;    0.000
454.195; 1735.100;  256.675;    0.000
454.240; 1733.100;  263.675;    0.000
454.286; 1659.100;  276.675;    0.000
454.332; 1704.100;  290.675;    0.000
454.377; 1759.100;  274.675;    0.000
454.423; 1668.100;  282.675;    0.000
454.468; 1713.100;  275.675;    0.000
454.514; 1646.100;  270.675;    0.000
454.559; 1678.100;  249.675;    0.000
454.605; 1676.100;  241.675;    0.000
454.650; 1646.100;  269.675;    0.000
454.696; 1645.100;  253.675;    0.000
454.741; 1725.100;  279.675;    0.000
454.787; 1701.100;  252.675;    0.000
454.832; 1626.100;  246.675;    0.000
454.878; 1617.100;  264.675;    0.000
454.923; 1679.100;  268.675;    0.000
454.969; 1699.100;  253.675;    0.000
455.014; 1659.100;  264.675;    0.000
455.060; 1685.100;  265.675;    0.000
455.105; 1621.100;  270.675;    0.000
455.150; 1660.100;  284.675;    0.000
455.196; 1582.100;  278.675;    0.000
455.241; 1706.100;  248.675;    0.000
455.286; 1629.100;  274.675;    0.000
455.332; 1703.100;  269.675;    0.000
455.377; 1662.100;  218.675;    0.000
455.422; 1707.100;  261.675;    0.000
455.468; 1733.100;  278.675;    0.000
455.513; 1657.100;  235.675;    0.000
455.558; 1610.100;  232.675;    0.000
455.604; 1717.100;  285.675;    0.000
455.649; 1680.100;  264.675;    0.000
455.694; 1599.100;  235.675;    0.000
455.739; 1641.100;  265.675;    0.000
455.785; 1679.100;  266.675;    0.000
455.830; 1659.100;  272.675;    0.000
455.875; 1736.100;  256.675;    0.000
455.920; 1662.100;  191.675;    0.000
455.965; 1757.100;  280.675;    0.000
456.010; 1678.100;  267.675;    0.000
456.056; 1634.100;  270.675;    0.000
456.101; 1682.100;  248.675;    0.000
456.146; 1659.100;  287.675;    0.000
456.191; 1647.100;  280.675;    0.000
456.236; 1707.100;  229.675;    0.000
456.281; 1669.100;  241.675;    0.000
456.326; 1681.100;  248.675;    0.000
456.371; 1668.100;  233.675;    0.000
456.416; 1682.100;  284.675;    0.000
456.461; 1654.100;  256.675;    0.000
456.507; 1659.100;  250.675;    0.000
456.552; 1693.100;  290.675;    0.000
456.597; 1652.100;  260.675;    0.000
456.642; 1641.100;  252.675;    0.000
456.687; 1621.100;  272.675;    0.000
456.732; 1724.100;  303.675;    0.000
456.776; 1699.100;  269.675;    0.000
456.821; 1692.100;  256.675;    0.000
456.866; 1633.100;  278.675;    0.000
456.911; 1605.100;  230.675;    0.000
456.956; 1574.100;  275.675;    0.000
457.001; 1638.100;  248.675;    0.000
457.046; 1684.100;  222.675;    0.000
457.091; 1667.100;  251.675;    0.000
457.136; 1625.100;  231.675;    0.000
457.181; 1677.100;  245.675;    0.000
457.225; 1653.100;  262.675;    0.000
457.270; 1658.100;  277.675;    0.000
457.315; 1682.100;  235.675;    0.000
457.360; 1659.100;  231.675;    0.000
457.405; 1695.100;  214.675;    0.000
457.450; 1723.100;  255.675;    0.000
457.494; 1639.100;  220.675;    0.000
457.539; 1663.100;  257.675;    0.000
457.584; 1666.100;  279.675;    0.000
457.629; 1598.100;  249.675;    0.000
457.673; 1692.100;  237.675;    0.000
457.718; 1704.100;  232.675;    0.000
457.763; 1746.100;  278.675;    0.000
457.807; 1689.100;  279.675;    0.000
457.852; 1689.100;  246.675;    0.000
457.897; 1730.100;  284.675;    0.000
457.941; 1702.100;  272.675;    0.000
457.986; 1691.100;  285.675;    0.000
458.031; 1681.100;  235.675;    0.000
458.075; 1709.100;  299.675;    0.000
458.120; 1775.100;  284.675;    0.000
458.165; 1749.100;  212.675;    0.000
458.209; 1702.100;  254.675;    0.000
458.254; 1699.100;  257.675;    0.000
458.298; 1703.100;  265.675;    0.000
458.343; 1742.100;  278.675;    0.000
458.387; 1785.100;  316.675;    0.000
458.432; 1753.100;  279.675;    0.000
458.476; 1724.100;  272.675;    0.000
458.521; 1716.100;  240.675;    0.000
458.565; 1757.100;  307.675;    0.000
458.610; 1765.100;  246.675;    0.000
458.654; 1715.100;  275.675;    0.000
458.699; 1750.100;  288.675;    0.000
458.743; 1736.100;  244.675;    0.000
458.788; 1733.100;  245.675;    0.000
458.832; 1769.100;  277.675;    0.000
458.877; 1816.100;  285.675;    0.000
458.921; 1751.100;  216.675;    0.000
458.965; 1734.100;  260.675;    0.000
459.010; 1827.100;  284.675;    0.000
459.054; 1811.100;  272.675;    0.000
459.099; 1824.100;  262.675;    0.000
459.143; 1764.100;  276.675;    0.000
459.187; 1683.100;  258.675;    0.000
459.231; 1792.100;  278.675;    0.000
459.276; 1782.100;  262.675;    0.000
459.320; 1812.100;  291.675;    0.000
459.364; 1882.100;  294.675;    0.000
459.409; 1858.100;  269.675;    0.000
459.453; 1794.100;  257.675;    0.000
459.497; 1829.100;  283.675;    0.000
459.541; 1812.100;  275.675;    0.000
459.586; 1857.100;  261.675;    0.000
459.630; 1775.100;  284.675;    0.000
459.674; 1791.100;  244.675;    0.000
459.718; 1833.100;  309.675;    0.000
459.762; 1834.100;  281.675;    0.000
459.807; 1847.100;  250.675;    0.000
459.851; 1912.100;  286.675;    0.000
459.895; 1766.100;  230.675;    0.000
459.939; 1879.100;  262.675;    0.000
459.983; 1811.100;  250.675;    0.000
460.027; 1848.100;  275.675;    0.000
460.071; 1866.100;  301.675;    0.000
460.115; 1815.100;  279.675;    0.000
460.159; 1892.100;  301.675;    0.000
460.204; 1860.100;  287.675;    0.000
460.248; 1858.100;  293.675;    0.000
460.292; 1887.100;  310.675;    0.000
460.336; 1830.100;  263.675;    0.000
460.380; 1828.100;  268.675;    0.000
460.424; 1866.100;  281.675;    0.000
460.468; 1923.100;  310.675;    0.000
460.512; 1926.100;  273.675;    0.000
460.556; 1923.100;  291.675;    0.000
460.599; 1866.100;  240.675;    0.000
460.643; 1839.100;  260.675;    0.000
460.687; 1936.100;  283.675;    0.000
460.731; 1845.100;  254.675;    0.000
460.775; 1820.100;  265.675;    0.000
460.819; 1885.100;  280.675;    0.000
460.863; 1816.100;  316.675;    0.000
460.907; 1820.100;  231.675;    0.000
460.951; 1875.100;  275.675;    0.000
460.995; 1882.100;  290.675;    0.000
461.038; 1833.100;  284.675;    0.000
461.082; 1900.100;  278.675;    0.000
461.126; 1932.100;  321.675;    0.000
461.170; 1930.100;  273.675;    0.000
461.214; 1837.100;  289.675;    0.000
461.257; 1847.100;  296.675;    0.000
461.301; 1954.100;  287.675;    0.000
461.345; 1906.100;  290.675;    0.000
461.389; 1865.100;  260.675;    0.000
461.432; 1857.100;  262.675;    0.000
461.476; 1814.100;  254.675;    0.000
461.520; 1853.100;  305.675;    0.000
461.563; 1841.100;  289.675;    0.000
461.607; 1929.100;  286.675;    0.000
461.651; 1807.100;  271.675;    0.000
461.694; 1835.100;  245.675;    0.000
461.738; 1859.100;  278.675;    0.000
461.782; 1917.100;  284.675;    0.000
461.825; 1893.100;  305.675;    0.000
461.869; 1916.100;  293.675;    0.000
461.913; 1874.100;  280.675;    0.000
461.956; 1858.100;  237.675;    0.000
462.000; 1861.100;  288.675;    0.000
462.043; 1959.100;  282.675;    0.000
462.087; 1894.100;  268.675;    0.000
462.130; 1935.100;  286.675;    0.000
462.174; 1961.100;  312.675;    0.000
462.217; 1919.100;  270.675;    0.000
462.261; 1928.100;  281.675;    0.000
462.304; 1935.100;  248.675;    0.000
462.348; 1882.100;  267.675;    0.000
462.391; 1991.100;  270.675;    0.000
462.435; 1888.100;  287.675;    0.000
462.478; 1944.100;  290.675;    0.000
462.522; 1952.100;  296.675;    0.000
462.565; 2003.100;  275.675;    0.000
462.608; 2062.100;  325.675;    0.000
462.652; 1970.100;  303.675;    0.000
462.695; 2146.100;  355.675;    0.000
462.739; 1954.100;  272.675;    0.000
462.782; 2058.100;  295.675;    0.000
462.825; 2023.100;  300.675;    0.000
462.869; 2039.100;  319.675;    0.000
462.912; 2043.100;  363.675;    0.000
462.955; 2021.100;  298.675;    0.000
462.998; 2045.100;  321.675;    0.000
463.042; 2056.100;  310.675;    0.000
463.085; 2138.100;  305.675;    0.000
463.128; 2022.100;  345.675;    0.000
463.172; 2037.100;  341.675;    0.000
463.215;  383.100;  300.675;    0.000
463.258;  322.100;  287.675;    0.000
463.301;  277.100;  290.675;    0.000
463.344;  303.100;  320.675;    0.000
463.388;  347.100;  340.675;    0.000
463.431;  306.100;  278.675;    0.000
463.474;  339.100;  353.675;    0.000
463.517;  331.100;  295.675;    0.000
463.560;  314.100;  328.675;    0.000
463.603;  342.100;  316.675;    0.000
463.646;  333.100;  295.675;    0.000
463.690;  292.100;  334.675;    0.000
463.733;  316.100;  343.675;    0.000
463.776;  289.100;  300.675;    0.000
463.819;  333.100;  368.675;    0.000
463.862;  341.100;  327.675;    0.000

