
Integration time [ms]:   0.300
Averaging Nr. [scans]: 1
Smoothing Nr. [pixels]: 0
Data measured with spectrometer [name]: UV1
Wave   ;Sample   ;Dark     ;Reference
[nm]   ;[counts] ;[counts] ;[counts] 

236.381;  156.925;  149.925;    0.000
236.451;  183.925;  206.925;    0.000
236.520;  170.925;  212.925;    0.000
236.590;  211.925;  189.925;    0.000
236.660;  171.925;  184.925;    0.000
236.730;  170.925;  186.925;    0.000
236.799;  199.925;  191.925;    0.000
236.869;  171.925;  184.925;    0.000
236.939;  215.925;  176.925;    0.000
237.009;  173.925;  184.925;    0.000
237.078;  203.925;  189.925;    0.000
237.148;  155.925;  217.925;    0.000
237.218;  225.925;  192.925;    0.000
237.287;  185.925;  182.925;    0.000
237.357;  172.925;  196.925;    0.000
237.427;  191.925;  144.925;    0.000
237.496;  873.925;  224.925;    0.000
237.566;  888.925;  210.925;    0.000
237.636;  844.925;  165.925;    0.000
237.705;  872.925;  214.925;    0.000
237.775;  833.925;  194.925;    0.000
237.845;  862.925;  214.925;    0.000
237.914;  826.925;  191.925;    0.000
237.984;  886.925;  218.925;    0.000
238.054;  814.925;  187.925;    0.000
238.123;  852.925;  179.925;    0.000
238.193;  827.925;  177.925;    0.000
238.263;  887.925;  225.925;    0.000
238.332;  827.925;  197.925;    0.000
238.402;  843.925;  183.925;    0.000
238.471;  802.925;  181.925;    0.000
238.541;  785.925;  200.925;    0.000
238.611;  895.925;  170.925;    0.000
238.680;  803.925;  170.925;    0.000
238.750;  851.925;  175.925;    0.000
238.819;  845.925;  180.925;    0.000
238.889;  868.925;  190.925;    0.000
238.958;  809.925;  207.925;    0.000
239.028;  835.925;  201.925;    0.000
239.097;  859.925;  181.925;    0.000
239.167;  860.925;  222.925;    0.000
239.237;  878.925;  221.925;    0.000
239.306;  806.925;  147.925;    0.000
239.376;  821.925;  188.925;    0.000
239.445;  877.925;  198.925;    0.000
239.515;  812.925;  191.925;    0.000
239.584;  811.925;  178.925;    0.000
239.654;  757.925;  147.925;    0.000
239.723;  826.925;  212.925;    0.000
239.793;  798.925;  185.925;    0.000
239.862;  836.925;  157.925;    0.000
239.932;  839.925;  181.925;    0.000
240.001;  790.925;  163.925;    0.000
240.070;  793.925;  194.925;    0.000
240.140;  811.925;  202.925;    0.000
240.209;  794.925;  180.925;    0.000
240.279;  793.925;  188.925;    0.000
240.348;  813.925;  189.925;    0.000
240.418;  828.925;  143.925;    0.000
240.487;  825.925;  195.925;    0.000
240.556;  829.925;  170.925;    0.000
240.626;  788.925;  172.925;    0.000
240.695;  770.925;  202.925;    0.000
240.765;  782.925;  191.925;    0.000
240.834;  742.925;  177.925;    0.000
240.903;  762.925;  189.925;    0.000
240.973;  824.925;  196.925;    0.000
241.042;  789.925;  183.925;    0.000
241.112;  809.925;  189.925;    0.000
241.181;  863.925;  186.925;    0.000
241.250;  749.925;  168.925;    0.000
241.320;  870.925;  200.925;    0.000
241.389;  778.925;  185.925;    0.000
241.458;  846.925;  194.925;    0.000
241.528;  819.925;  165.925;    0.000
241.597;  782.925;  200.925;    0.000
241.666;  787.925;  184.925;    0.000
241.736;  791.925;  176.925;    0.000
241.805;  811.925;  165.925;    0.000
241.874;  813.925;  200.925;    0.000
241.943;  805.925;  184.925;    0.000
242.013;  835.925;  212.925;    0.000
242.082;  771.925;  200.925;    0.000
242.151;  823.925;  196.925;    0.000
242.221;  784.925;  182.925;    0.000
242.290;  808.925;  222.925;    0.000
242.359;  769.925;  142.925;    0.000
242.428;  807.925;  180.925;    0.000
242.498;  749.925;  180.925;    0.000
242.567;  820.925;  181.925;    0.000
242.636;  784.925;  203.925;    0.000
242.705;  800.925;  209.925;    0.000
242.774;  763.925;  172.925;    0.000
242.844;  780.925;  218.925;    0.000
242.913;  838.925;  188.925;    0.000
242.982;  800.925;  193.925;    0.000
243.051;  726.925;  202.925;    0.000
243.120;  775.925;  174.925;    0.000
243.190;  766.925;  165.925;    0.000
243.259;  807.925;  206.925;    0.000
243.328;  770.925;  166.925;    0.000
243.397;  777.925;  167.925;    0.000
243.466;  809.925;  163.925;    0.000
243.535;  723.925;  162.925;    0.000
243.605;  693.925;  159.925;    0.000
243.674;  753.925;  171.925;    0.000
243.743;  788.925;  189.925;    0.000
243.812;  756.925;  169.925;    0.000
243.881;  745.925;  145.925;    0.000
243.950;  760.925;  197.925;    0.000
244.019;  766.925;  189.925;    0.000
244.088;  786.925;  200.925;    0.000
244.158;  776.925;  208.925;    0.000
244.227;  742.925;  154.925;    0.000
244.296;  760.925;  142.925;    0.000
244.365;  799.925;  198.925;    0.000
244.434;  737.925;  162.925;    0.000
244.503;  792.925;  186.925;    0.000
244.572;  721.925;  143.925;    0.000
244.641;  714.925;  145.925;    0.000
244.710;  781.925;  159.925;    0.000
244.779;  722.925;  175.925;    0.000
244.848;  778.925;  163.925;    0.000
244.917;  796.925;  157.925;    0.000
244.986;  813.925;  166.925;    0.000
245.055;  770.925;  211.925;    0.000
245.124;  759.925;  155.925;    0.000
245.193;  795.925;  187.925;    0.000
245.262;  736.925;  152.925;    0.000
245.331;  790.925;  177.925;    0.000
245.400;  775.925;  157.925;    0.000
245.469;  799.925;  195.925;    0.000
245.538;  681.925;  199.925;    0.000
245.607;  772.925;  194.925;    0.000
245.676;  703.925;  170.925;    0.000
245.745;  695.925;  208.925;    0.000
245.814;  709.925;  185.925;    0.000
245.883;  680.925;  165.925;    0.000
245.952;  712.925;  151.925;    0.000
246.021;  675.925;  171.925;    0.000
246.090;  681.925;  174.925;    0.000
246.159;  736.925;  192.925;    0.000
246.227;  710.925;  178.925;    0.000
246.296;  672.925;  159.925;    0.000
246.365;  679.925;  189.925;    0.000
246.434;  766.925;  205.925;    0.000
246.503;  672.925;  174.925;    0.000
246.572;  699.925;  203.925;    0.000
246.641;  684.925;  169.925;    0.000
246.710;  705.925;  186.925;    0.000
246.779;  685.925;  196.925;    0.000
246.847;  658.925;  209.925;    0.000
246.916;  695.925;  177.925;    0.000
246.985;  712.925;  188.925;    0.000
247.054;  620.925;  189.925;    0.000
247.123;  656.925;  196.925;    0.000
247.192;  719.925;  210.925;    0.000
247.260;  709.925;  164.925;    0.000
247.329;  670.925;  204.925;    0.000
247.398;  652.925;  204.925;    0.000
247.467;  668.925;  160.925;    0.000
247.536;  677.925;  193.925;    0.000
247.604;  670.925;  208.925;    0.000
247.673;  639.925;  168.925;    0.000
247.742;  634.925;  182.925;    0.000
247.811;  670.925;  186.925;    0.000
247.879;  664.925;  166.925;    0.000
247.948;  631.925;  192.925;    0.000
248.017;  623.925;  178.925;    0.000
248.086;  679.925;  193.925;    0.000
248.154;  629.925;  191.925;    0.000
248.223;  698.925;  207.925;    0.000
248.292;  705.925;  168.925;    0.000
248.361;  649.925;  211.925;    0.000
248.429;  609.925;  196.925;    0.000
248.498;  642.925;  163.925;    0.000
248.567;  645.925;  159.925;    0.000
248.635;  680.925;  194.925;    0.000
248.704;  700.925;  205.925;    0.000
248.773;  682.925;  190.925;    0.000
248.841;  621.925;  179.925;    0.000
248.910;  672.925;  193.925;    0.000
248.979;  670.925;  167.925;    0.000
249.047;  608.925;  166.925;    0.000
249.116;  633.925;  191.925;    0.000
249.185;  704.925;  203.925;    0.000
249.253;  648.925;  140.925;    0.000
249.322;  691.925;  173.925;    0.000
249.390;  616.925;  165.925;    0.000
249.459;  634.925;  173.925;    0.000
249.528;  670.925;  203.925;    0.000
249.596;  684.925;  204.925;    0.000
249.665;  633.925;  176.925;    0.000
249.733;  626.925;  178.925;    0.000
249.802;  661.925;  190.925;    0.000
249.871;  643.925;  171.925;    0.000
249.939;  592.925;  160.925;    0.000
250.008;  652.925;  220.925;    0.000
250.076;  671.925;  211.925;    0.000
250.145;  646.925;  145.925;    0.000
250.213;  649.925;  177.925;    0.000
250.282;  608.925;  186.925;    0.000
250.350;  626.925;  170.925;    0.000
250.419;  627.925;  195.925;    0.000
250.487;  655.925;  194.925;    0.000
250.556;  606.925;  178.925;    0.000
250.624;  666.925;  193.925;    0.000
250.693;  617.925;  167.925;    0.000
250.761;  579.925;  253.925;    0.000
250.830;  625.925;  241.925;    0.000
250.898;  615.925;  161.925;    0.000
250.967;  621.925;  178.925;    0.000
251.035;  606.925;  189.925;    0.000
251.104;  571.925;  166.925;    0.000
251.172;  556.925;  178.925;    0.000
251.241;  603.925;  174.925;    0.000
251.309;  602.925;  197.925;    0.000
251.378;  617.925;  172.925;    0.000
251.446;  581.925;  157.925;    0.000
251.514;  630.925;  197.925;    0.000
251.583;  615.925;  191.925;    0.000
251.651;  633.925;  154.925;    0.000
251.720;  602.925;  198.925;    0.000
251.788;  632.925;  226.925;    0.000
251.856;  567.925;  164.925;    0.000
251.925;  561.925;  181.925;    0.000
251.993;  644.925;  203.925;    0.000
252.062;  647.925;  211.925;    0.000
252.130;  634.925;  185.925;    0.000
252.198;  625.925;  190.925;    0.000
252.267;  570.925;  176.925;    0.000
252.335;  612.925;  179.925;    0.000
252.403;  609.925;  173.925;    0.000
252.472;  581.925;  172.925;    0.000
252.540;  564.925;  187.925;    0.000
252.608;  607.925;  204.925;    0.000
252.677;  622.925;  179.925;    0.000
252.745;  570.925;  192.925;    0.000
252.813;  634.925;  168.925;    0.000
252.881;  558.925;  157.925;    0.000
252.950;  533.925;  188.925;    0.000
253.018;  559.925;  191.925;    0.000
253.086;  561.925;  164.925;    0.000
253.155;  555.925;  172.925;    0.000
253.223;  515.925;  168.925;    0.000
253.291;  556.925;  190.925;    0.000
253.359;  521.925;  205.925;    0.000
253.428;  580.925;  228.925;    0.000
253.496;  475.925;  170.925;    0.000
253.564;  483.925;  164.925;    0.000
253.632;  476.925;  159.925;    0.000
253.700;  474.925;  166.925;    0.000
253.769;  502.925;  172.925;    0.000
253.837;  529.925;  157.925;    0.000
253.905;  491.925;  168.925;    0.000
253.973;  508.925;  179.925;    0.000
254.041;  487.925;  187.925;    0.000
254.110;  413.925;  186.925;    0.000
254.178;  440.925;  156.925;    0.000
254.246;  453.925;  132.925;    0.000
254.314;  482.925;  191.925;    0.000
254.382;  475.925;  189.925;    0.000
254.450;  468.925;  163.925;    0.000
254.518;  490.925;  172.925;    0.000
254.587;  468.925;  162.925;    0.000
254.655;  489.925;  191.925;    0.000
254.723;  487.925;  184.925;    0.000
254.791;  550.925;  169.925;    0.000
254.859;  485.925;  186.925;    0.000
254.927;  532.925;  207.925;    0.000
254.995;  468.925;  143.925;    0.000
255.063;  477.925;  198.925;    0.000
255.131;  487.925;  168.925;    0.000
255.199;  486.925;  183.925;    0.000
255.267;  466.925;  159.925;    0.000
255.336;  502.925;  197.925;    0.000
255.404;  546.925;  177.925;    0.000
255.472;  489.925;  204.925;    0.000
255.540;  497.925;  169.925;    0.000
255.608;  477.925;  141.925;    0.000
255.676;  495.925;  176.925;    0.000
255.744;  521.925;  184.925;    0.000
255.812;  492.925;  158.925;    0.000
255.880;  532.925;  202.925;    0.000
255.948;  514.925;  184.925;    0.000
256.016;  519.925;  192.925;    0.000
256.084;  532.925;  204.925;    0.000
256.152;  506.925;  191.925;    0.000
256.220;  498.925;  187.925;    0.000
256.288;  505.925;  176.925;    0.000
256.356;  571.925;  146.925;    0.000
256.424;  524.925;  164.925;    0.000
256.491;  517.925;  161.925;    0.000
256.559;  539.925;  167.925;    0.000
256.627;  564.925;  180.925;    0.000
256.695;  569.925;  159.925;    0.000
256.763;  568.925;  166.925;    0.000
256.831;  578.925;  166.925;    0.000
256.899;  575.925;  161.925;    0.000
256.967;  516.925;  116.925;    0.000
257.035;  540.925;  195.925;    0.000
257.103;  624.925;  227.925;    0.000
257.171;  541.925;  147.925;    0.000
257.238;  579.925;  158.925;    0.000
257.306;  574.925;  188.925;    0.000
257.374;  548.925;  153.925;    0.000
257.442;  576.925;  159.925;    0.000
257.510;  584.925;  201.925;    0.000
257.578;  563.925;  137.925;    0.000
257.646;  619.925;  172.925;    0.000
257.713;  622.925;  164.925;    0.000
257.781;  630.925;  163.925;    0.000
257.849;  658.925;  174.925;    0.000
257.917;  633.925;  164.925;    0.000
257.985;  587.925;  126.925;    0.000
258.052;  615.925;  158.925;    0.000
258.120;  671.925;  151.925;    0.000
258.188;  671.925;  169.925;    0.000
258.256;  680.925;  110.925;    0.000
258.324;  673.925;  193.925;    0.000
258.391;  689.925;  157.925;    0.000
258.459;  731.925;  193.925;    0.000
258.527;  749.925;  150.925;    0.000
258.595;  748.925;  173.925;    0.000
258.662;  674.925;  168.925;    0.000
258.730;  752.925;  190.925;    0.000
258.798;  757.925;  164.925;    0.000
258.865;  706.925;  165.925;    0.000
258.933;  736.925;  162.925;    0.000
259.001;  753.925;  174.925;    0.000
259.069;  724.925;  139.925;    0.000
259.136;  784.925;  160.925;    0.000
259.204;  821.925;  174.925;    0.000
259.272;  782.925;  161.925;    0.000
259.339;  786.925;  157.925;    0.000
259.407;  840.925;  159.925;    0.000
259.475;  766.925;  134.925;    0.000
259.542;  782.925;  179.925;    0.000
259.610;  797.925;  172.925;    0.000
259.677;  799.925;  152.925;    0.000
259.745;  824.925;  131.925;    0.000
259.813;  865.925;  185.925;    0.000
259.880;  925.925;  183.925;    0.000
259.948;  944.925;  168.925;    0.000
260.016;  959.925;  160.925;    0.000
260.083;  938.925;  163.925;    0.000
260.151;  874.925;  162.925;    0.000
260.218;  906.925;  171.925;    0.000
260.286;  898.925;  154.925;    0.000
260.353;  955.925;  182.925;    0.000
260.421;  879.925;  187.925;    0.000
260.489;  947.925;  185.925;    0.000
260.556;  969.925;  165.925;    0.000
260.624;  915.925;  185.925;    0.000
260.691;  975.925;  175.925;    0.000
260.759;  985.925;  201.925;    0.000
260.826;  913.925;  150.925;    0.000
260.894; 1054.925;  142.925;    0.000
260.961; 1015.925;  156.925;    0.000
261.029; 1035.925;  161.925;    0.000
261.096; 1074.925;  172.925;    0.000
261.164; 1002.925;  149.925;    0.000
261.231; 1005.925;  191.925;    0.000
261.299;  999.925;  182.925;    0.000
261.366; 1057.925;  156.925;    0.000
261.434;  983.925;  188.925;    0.000
261.501; 1101.925;  170.925;    0.000
261.568; 1060.925;  167.925;    0.000
261.636; 1073.925;  169.925;    0.000
261.703; 1186.925;  200.925;    0.000
261.771; 1135.925;  170.925;    0.000
261.838; 1134.925;  175.925;    0.000
261.906; 1102.925;  135.925;    0.000
261.973; 1174.925;  184.925;    0.000
262.040; 1113.925;  176.925;    0.000
262.108; 1155.925;  201.925;    0.000
262.175; 1163.925;  141.925;    0.000
262.243; 1223.925;  175.925;    0.000
262.310; 1217.925;  112.925;    0.000
262.377; 1222.925;  158.925;    0.000
262.445; 1265.925;  162.925;    0.000
262.512; 1141.925;  184.925;    0.000
262.579; 1239.925;  185.925;    0.000
262.647; 1246.925;  158.925;    0.000
262.714; 1257.925;  197.925;    0.000
262.781; 1354.925;  133.925;    0.000
262.849; 1220.925;  146.925;    0.000
262.916; 1345.925;  204.925;    0.000
262.983; 1233.925;  191.925;    0.000
263.051; 1226.925;  140.925;    0.000
263.118; 1301.925;  154.925;    0.000
263.185; 1272.925;  169.925;    0.000
263.252; 1296.925;  150.925;    0.000
263.320; 1272.925;  145.925;    0.000
263.387; 1303.925;  144.925;    0.000
263.454; 1358.925;  193.925;    0.000
263.522; 1328.925;  160.925;    0.000
263.589; 1446.925;  153.925;    0.000
263.656; 1326.925;  178.925;    0.000
263.723; 1317.925;  136.925;    0.000
263.790; 1397.925;  162.925;    0.000
263.858; 1318.925;  164.925;    0.000
263.925; 1485.925;  146.925;    0.000
263.992; 1411.925;  191.925;    0.000
264.059; 1454.925;  180.925;    0.000
264.126; 1408.925;  183.925;    0.000
264.194; 1419.925;  174.925;    0.000
264.261; 1478.925;  187.925;    0.000
264.328; 1445.925;  179.925;    0.000
264.395; 1459.925;  166.925;    0.000
264.462; 1420.925;  197.925;    0.000
264.529; 1465.925;  209.925;    0.000
264.597; 1487.925;  173.925;    0.000
264.664; 1494.925;  193.925;    0.000
264.731; 1445.925;  165.925;    0.000
264.798; 1478.925;  148.925;    0.000
264.865; 1480.925;  186.925;    0.000
264.932; 1441.925;  152.925;    0.000
264.999; 1523.925;  166.925;    0.000
265.066; 1510.925;  186.925;    0.000
265.133; 1467.925;  172.925;    0.000
265.201; 1562.925;  159.925;    0.000
265.268; 1500.925;  164.925;    0.000
265.335; 1563.925;  161.925;    0.000
265.402; 1603.925;  157.925;    0.000
265.469; 1561.925;  134.925;    0.000
265.536; 1603.925;  191.925;    0.000
265.603; 1634.925;  170.925;    0.000
265.670; 1575.925;  162.925;    0.000
265.737; 1559.925;  172.925;    0.000
265.804; 1550.925;  151.925;    0.000
265.871; 1635.925;  191.925;    0.000
265.938; 1653.925;  173.925;    0.000
266.005; 1575.925;  201.925;    0.000
266.072; 1631.925;  156.925;    0.000
266.139; 1661.925;  191.925;    0.000
266.206; 1687.925;  151.925;    0.000
266.273; 1626.925;  194.925;    0.000
266.340; 1713.925;  120.925;    0.000
266.407; 1671.925;  130.925;    0.000
266.474; 1658.925;  137.925;    0.000
266.541; 1673.925;  139.925;    0.000
266.608; 1641.925;  139.925;    0.000
266.675; 1698.925;  198.925;    0.000
266.742; 1665.925;  165.925;    0.000
266.808; 1659.925;  174.925;    0.000
266.875; 1638.925;  169.925;    0.000
266.942; 1710.925;  137.925;    0.000
267.009; 1751.925;  181.925;    0.000
267.076; 1770.925;  204.925;    0.000
267.143; 1797.925;  179.925;    0.000
267.210; 1655.925;  160.925;    0.000
267.277; 1679.925;  154.925;    0.000
267.344; 1691.925;  178.925;    0.000
267.410; 1737.925;  190.925;    0.000
267.477; 1766.925;  193.925;    0.000
267.544; 1687.925;  168.925;    0.000
267.611; 1811.925;  177.925;    0.000
267.678; 1783.925;  205.925;    0.000
267.745; 1778.925;  205.925;    0.000
267.811; 1847.925;  164.925;    0.000
267.878; 1711.925;  166.925;    0.000
267.945; 1747.925;  160.925;    0.000
268.012; 1807.925;  172.925;    0.000
268.079; 1841.925;  186.925;    0.000
268.145; 1811.925;  188.925;    0.000
268.212; 1763.925;  181.925;    0.000
268.279; 1753.925;  158.925;    0.000
268.346; 1775.925;  192.925;    0.000
268.412; 1752.925;  159.925;    0.000
268.479; 1859.925;  176.925;    0.000
268.546; 1823.925;  170.925;    0.000
268.613; 1832.925;  133.925;    0.000
268.679; 1835.925;  170.925;    0.000
268.746; 1846.925;  185.925;    0.000
268.813; 1805.925;  170.925;    0.000
268.879; 1773.925;  149.925;    0.000
268.946; 1850.925;  176.925;    0.000
269.013; 1743.925;  153.925;    0.000
269.079; 1721.925;  156.925;    0.000
269.146; 1770.925;  143.925;    0.000
269.213; 1834.925;  170.925;    0.000
269.280; 1823.925;  202.925;    0.000
269.346; 1815.925;  180.925;    0.000
269.413; 1734.925;  162.925;    0.000
269.479; 1735.925;  175.925;    0.000
269.546; 1737.925;  151.925;    0.000
269.613; 1727.925;  159.925;    0.000
269.679; 1795.925;  190.925;    0.000
269.746; 1679.925;  159.925;    0.000
269.813; 1679.925;  151.925;    0.000
269.879; 1788.925;  169.925;    0.000
269.946; 1761.925;  169.925;    0.000
270.012; 1839.925;  185.925;    0.000
270.079; 1735.925;  133.925;    0.000
270.145; 1799.925;  161.925;    0.000
270.212; 1746.925;  156.925;    0.000
270.279; 1802.925;  176.925;    0.000
270.345; 1789.925;  140.925;    0.000
270.412; 1739.925;  162.925;    0.000
270.478; 1701.925;  148.925;    0.000
270.545; 1795.925;  146.925;    0.000
270.611; 1743.925;  168.925;    0.000
270.678; 1758.925;  164.925;    0.000
270.744; 1761.925;  117.925;    0.000
270.811; 1742.925;  196.925;    0.000
270.877; 1627.925;  151.925;    0.000
270.944; 1703.925;  174.925;    0.000
271.010; 1721.925;  180.925;    0.000
271.077; 1762.925;  162.925;    0.000
271.143; 1707.925;  178.925;    0.000
271.210; 1729.925;  159.925;    0.000
271.276; 1727.925;  143.925;    0.000
271.342; 1712.925;  196.925;    0.000
271.409; 1669.925;  161.925;    0.000
271.475; 1679.925;  153.925;    0.000
271.542; 1636.925;  147.925;    0.000
271.608; 1785.925;  175.925;    0.000
271.675; 1762.925;  134.925;    0.000
271.741; 1742.925;  182.925;    0.000
271.807; 1761.925;  174.925;    0.000
271.874; 1810.925;  169.925;    0.000
271.940; 1772.925;  179.925;    0.000
272.007; 1697.925;  173.925;    0.000
272.073; 1771.925;  133.925;    0.000
272.139; 1780.925;  191.925;    0.000
272.206; 1733.925;  168.925;    0.000
272.272; 1770.925;  179.925;    0.000
272.338; 1770.925;  224.925;    0.000
272.405; 1657.925;  156.925;    0.000
272.471; 1724.925;  175.925;    0.000
272.537; 1758.925;  190.925;    0.000
272.604; 1723.925;  199.925;    0.000
272.670; 1695.925;  156.925;    0.000
272.736; 1782.925;  198.925;    0.000
272.802; 1776.925;  169.925;    0.000
272.869; 1791.925;  141.925;    0.000
272.935; 1791.925;  145.925;    0.000
273.001; 1675.925;  156.925;    0.000
273.068; 1763.925;  157.925;    0.000
273.134; 1758.925;  184.925;    0.000
273.200; 1837.925;  158.925;    0.000
273.266; 1767.925;  150.925;    0.000
273.333; 1699.925;  176.925;    0.000
273.399; 1769.925;  118.925;    0.000
273.465; 1859.925;  184.925;    0.000
273.531; 1798.925;  179.925;    0.000
273.597; 1783.925;  167.925;    0.000
273.664; 1831.925;  186.925;    0.000
273.730; 1790.925;  137.925;    0.000
273.796; 1773.925;  148.925;    0.000
273.862; 1811.925;  183.925;    0.000
273.928; 1841.925;  179.925;    0.000
273.995; 1899.925;  189.925;    0.000
274.061; 1905.925;  188.925;    0.000
274.127; 1876.925;  132.925;    0.000
274.193; 1803.925;  135.925;    0.000
274.259; 1848.925;  177.925;    0.000
274.325; 1807.925;  178.925;    0.000
274.391; 1726.925;  140.925;    0.000
274.457; 1932.925;  158.925;    0.000
274.524; 1843.925;  175.925;    0.000
274.590; 1890.925;  182.925;    0.000
274.656; 1825.925;  165.925;    0.000
274.722; 1843.925;  152.925;    0.000
274.788; 1862.925;  159.925;    0.000
274.854; 1963.925;  143.925;    0.000
274.920; 1907.925;  117.925;    0.000
274.986; 1894.925;  140.925;    0.000
275.052; 1877.925;  174.925;    0.000
275.118; 1923.925;  129.925;    0.000
275.184; 1963.925;  173.925;    0.000
275.250; 2033.925;  196.925;    0.000
275.316; 2031.925;  142.925;    0.000
275.382; 1976.925;  149.925;    0.000
275.448; 2041.925;  178.925;    0.000
275.514; 1985.925;  136.925;    0.000
275.580; 2010.925;  140.925;    0.000
275.646; 2019.925;  133.925;    0.000
275.712; 2010.925;  162.925;    0.000
275.778; 2032.925;  129.925;    0.000
275.844; 2014.925;  156.925;    0.000
275.910; 2211.925;  172.925;    0.000
275.976; 2195.925;  158.925;    0.000
276.042; 2083.925;  141.925;    0.000
276.108; 2222.925;  212.925;    0.000
276.174; 2223.925;  148.925;    0.000
276.240; 2191.925;  134.925;    0.000
276.306; 2217.925;  149.925;    0.000
276.372; 2219.925;  126.925;    0.000
276.437; 2319.925;  168.925;    0.000
276.503; 2265.925;  158.925;    0.000
276.569; 2323.925;  191.925;    0.000
276.635; 2414.925;  130.925;    0.000
276.701; 2355.925;  161.925;    0.000
276.767; 2331.925;  148.925;    0.000
276.833; 2332.925;  147.925;    0.000
276.899; 2527.925;  149.925;    0.000
276.964; 2605.925;  181.925;    0.000
277.030; 2593.925;  186.925;    0.000
277.096; 2613.925;  132.925;    0.000
277.162; 2688.925;  181.925;    0.000
277.228; 2781.925;  166.925;    0.000
277.293; 2894.925;  154.925;    0.000
277.359; 2946.925;  181.925;    0.000
277.425; 3132.925;  184.925;    0.000
277.491; 3290.925;  150.925;    0.000
277.557; 3842.925;  159.925;    0.000
277.622; 4995.925;  129.925;    0.000
277.688; 4979.925;  184.925;    0.000
277.754; 5020.925;  182.925;    0.000
277.820; 5547.925;  149.925;    0.000
277.885; 6483.925;  185.925;    0.000
277.951; 8431.925;  164.925;    0.000
278.017; 6963.925;  162.925;    0.000
278.083; 6250.925;  189.925;    0.000
278.148; 5749.925;  184.925;    0.000
278.214; 5971.925;  188.925;    0.000
278.280; 6333.925;  206.925;    0.000
278.345; 5571.925;  187.925;    0.000
278.411; 5321.925;  174.925;    0.000
278.477; 5466.925;  190.925;    0.000
278.542; 5873.925;  154.925;    0.000
278.608; 6154.925;  191.925;    0.000
278.674; 6827.925;  243.925;    0.000
278.739; 7648.925;  141.925;    0.000
278.805; 8637.925;  171.925;    0.000
278.871; 9990.925;  181.925;    0.000
278.936;12935.925;  191.925;    0.000
279.002;19627.926;  201.925;    0.000
279.067;26392.926;  174.925;    0.000
279.133;25846.926;  165.925;    0.000
279.199;22849.926;  122.925;    0.000
279.264;23943.926;  159.925;    0.000
279.330;29119.926;  170.925;    0.000
279.395;39672.926;  173.925;    0.000
279.461;54467.926;  200.925;    0.000
279.527;62618.926;  199.925;    0.000
279.592;56873.926;  203.925;    0.000
279.658;45091.926;  209.925;    0.000
279.723;42536.926;  188.925;    0.000
279.789;44805.926;  180.925;    0.000
279.854;39357.926;  137.925;    0.000
279.920;31744.926;  223.925;    0.000
279.985;28217.926;  186.925;    0.000
280.051;28548.926;  198.925;    0.000
280.116;35026.926;  178.925;    0.000
280.182;49486.926;  176.925;    0.000
280.247;58060.926;  195.925;    0.000
280.313;47850.926;  165.925;    0.000
280.378;31368.926;  153.925;    0.000
280.444;21997.926;  181.925;    0.000
280.509;16901.926;  188.925;    0.000
280.574;14142.925;  149.925;    0.000
280.640;12045.925;  164.925;    0.000
280.705;10596.925;  166.925;    0.000
280.771; 9706.925;  188.925;    0.000
280.836; 9006.925;  188.925;    0.000
280.902; 8199.925;  168.925;    0.000
280.967; 7806.925;  202.925;    0.000
281.032; 7166.925;  197.925;    0.000
281.098; 6895.925;  138.925;    0.000
281.163; 6501.925;  160.925;    0.000
281.229; 6211.925;  212.925;    0.000
281.294; 6201.925;  227.925;    0.000
281.359; 5695.925;  200.925;    0.000
281.425; 5519.925;  189.925;    0.000
281.490; 5266.925;  176.925;    0.000
281.555; 5097.925;  182.925;    0.000
281.621; 4976.925;  169.925;    0.000
281.686; 4735.925;  182.925;    0.000
281.751; 4711.925;  208.925;    0.000
281.816; 4513.925;  166.925;    0.000
281.882; 4554.925;  181.925;    0.000
281.947; 4332.925;  178.925;    0.000
282.012; 4193.925;  167.925;    0.000
282.078; 4223.925;  170.925;    0.000
282.143; 4022.925;  157.925;    0.000
282.208; 4063.925;  158.925;    0.000
282.273; 4072.925;  187.925;    0.000
282.339; 3804.925;  185.925;    0.000
282.404; 3819.925;  201.925;    0.000
282.469; 3851.925;  202.925;    0.000
282.534; 3739.925;  185.925;    0.000
282.600; 3556.925;  125.925;    0.000
282.665; 3550.925;  162.925;    0.000
282.730; 3597.925;  174.925;    0.000
282.795; 3537.925;  179.925;    0.000
282.860; 3503.925;  190.925;    0.000
282.926; 3508.925;  200.925;    0.000
282.991; 3417.925;  161.925;    0.000
283.056; 3512.925;  175.925;    0.000
283.121; 3414.925;  181.925;    0.000
283.186; 3389.925;  221.925;    0.000
283.251; 3346.925;  168.925;    0.000
283.316; 3330.925;  156.925;    0.000
283.382; 3392.925;  197.925;    0.000
283.447; 3347.925;  210.925;    0.000
283.512; 3338.925;  164.925;    0.000
283.577; 3417.925;  212.925;    0.000
283.642; 3269.925;  186.925;    0.000
283.707; 3208.925;  182.925;    0.000
283.772; 3273.925;  127.925;    0.000
283.837; 3135.925;  160.925;    0.000
283.902; 3156.925;  162.925;    0.000
283.967; 3140.925;  151.925;    0.000
284.032; 3184.925;  175.925;    0.000
284.097; 3254.925;  235.925;    0.000
284.163; 3157.925;  136.925;    0.000
284.228; 3270.925;  209.925;    0.000
284.293; 3122.925;  163.925;    0.000
284.358; 3254.925;  169.925;    0.000
284.423; 3287.925;  145.925;    0.000
284.488; 3392.925;  134.925;    0.000
284.553; 3409.925;  158.925;    0.000
284.618; 3371.925;  163.925;    0.000
284.683; 3441.925;  168.925;    0.000
284.748; 3519.925;  170.925;    0.000
284.812; 3826.925;  151.925;    0.000
284.877; 4014.925;  169.925;    0.000
284.942; 4647.925;  179.925;    0.000
285.007; 5646.925;  202.925;    0.000
285.072; 7821.925;  171.925;    0.000
285.137;13881.925;  173.925;    0.000
285.202;18707.926;  196.925;    0.000
285.267;15017.925;  193.925;    0.000
285.332; 9491.925;  151.925;    0.000
285.397; 6702.925;  183.925;    0.000
285.462; 5608.925;  168.925;    0.000
285.527; 4881.925;  166.925;    0.000
285.591; 4438.925;  124.925;    0.000
285.656; 4225.925;  145.925;    0.000
285.721; 3931.925;  155.925;    0.000
285.786; 3612.925;  170.925;    0.000
285.851; 3610.925;  175.925;    0.000
285.916; 3477.925;  186.925;    0.000
285.981; 3408.925;  204.925;    0.000
286.045; 3347.925;  237.925;    0.000
286.110; 3258.925;  197.925;    0.000
286.175; 3233.925;  143.925;    0.000
286.240; 3082.925;  167.925;    0.000
286.305; 3184.925;  202.925;    0.000
286.369; 3243.925;  214.925;    0.000
286.434; 3199.925;  206.925;    0.000
286.499; 3044.925;  177.925;    0.000
286.564; 3105.925;  201.925;    0.000
286.628; 3002.925;  153.925;    0.000
286.693; 3103.925;  161.925;    0.000
286.758; 3013.925;  181.925;    0.000
286.823; 3042.925;  176.925;    0.000
286.887; 3034.925;  158.925;    0.000
286.952; 3005.925;  198.925;    0.000
287.017; 3019.925;  196.925;    0.000
287.082; 2990.925;  154.925;    0.000
287.146; 2989.925;  178.925;    0.000
287.211; 2977.925;  165.925;    0.000
287.276; 2940.925;  165.925;    0.000
287.340; 2877.925;  178.925;    0.000
287.405; 2907.925;  177.925;    0.000
287.470; 2898.925;  141.925;    0.000
287.534; 2948.925;  224.925;    0.000
287.599; 2914.925;  184.925;    0.000
287.663; 2814.925;  177.925;    0.000
287.728; 2877.925;  144.925;    0.000
287.793; 3049.925;  210.925;    0.000
287.857; 2982.925;  198.925;    0.000
287.922; 2899.925;  168.925;    0.000
287.987; 2961.925;  168.925;    0.000
288.051; 2894.925;  200.925;    0.000
288.116; 2944.925;  199.925;    0.000
288.180; 2923.925;  211.925;    0.000
288.245; 2979.925;  182.925;    0.000
288.309; 2910.925;  180.925;    0.000
288.374; 2875.925;  196.925;    0.000
288.439; 2894.925;  187.925;    0.000
288.503; 2811.925;  159.925;    0.000
288.568; 2867.925;  207.925;    0.000
288.632; 2909.925;  210.925;    0.000
288.697; 2885.925;  196.925;    0.000
288.761; 2835.925;  175.925;    0.000
288.826; 2709.925;  159.925;    0.000
288.890; 2897.925;  183.925;    0.000
288.955; 2822.925;  149.925;    0.000
289.019; 2806.925;  194.925;    0.000
289.084; 2859.925;  171.925;    0.000
289.148; 2802.925;  191.925;    0.000
289.212; 2788.925;  217.925;    0.000
289.277; 2695.925;  196.925;    0.000
289.341; 2689.925;  211.925;    0.000
289.406; 2799.925;  165.925;    0.000
289.470; 2791.925;  197.925;    0.000
289.535; 2880.925;  208.925;    0.000
289.599; 2745.925;  192.925;    0.000
289.663; 2710.925;  169.925;    0.000
289.728; 2733.925;  168.925;    0.000
289.792; 2779.925;  192.925;    0.000
289.857; 2702.925;  202.925;    0.000
289.921; 2762.925;  176.925;    0.000
289.985; 2755.925;  164.925;    0.000
290.050; 2712.925;  166.925;    0.000
290.114; 2745.925;  192.925;    0.000
290.178; 2735.925;  155.925;    0.000
290.243; 2587.925;  158.925;    0.000
290.307; 2803.925;  192.925;    0.000
290.371; 2726.925;  161.925;    0.000
290.436; 2804.925;  182.925;    0.000
290.500; 2757.925;  147.925;    0.000
290.564; 2823.925;  209.925;    0.000
290.629; 2765.925;  172.925;    0.000
290.693; 2779.925;  192.925;    0.000
290.757; 2788.925;  147.925;    0.000
290.821; 2880.925;  139.925;    0.000
290.886; 2755.925;  186.925;    0.000
290.950; 2798.925;  196.925;    0.000
291.014; 2773.925;  166.925;    0.000
291.078; 2810.925;  143.925;    0.000
291.143; 2782.925;  171.925;    0.000
291.207; 2869.925;  187.925;    0.000
291.271; 2863.925;  208.925;    0.000
291.335; 2764.925;  195.925;    0.000
291.399; 2899.925;  139.925;    0.000
291.464; 3009.925;  139.925;    0.000
291.528; 3116.925;  183.925;    0.000
291.592; 3023.925;  152.925;    0.000
291.656; 2916.925;  155.925;    0.000
291.720; 2925.925;  191.925;    0.000
291.784; 2930.925;  185.925;    0.000
291.849; 2980.925;  175.925;    0.000
291.913; 2901.925;  152.925;    0.000
291.977; 2974.925;  203.925;    0.000
292.041; 3006.925;  181.925;    0.000
292.105; 3005.925;  168.925;    0.000
292.169; 2972.925;  133.925;    0.000
292.233; 2974.925;  156.925;    0.000
292.297; 2995.925;  173.925;    0.000
292.361; 3045.925;  124.925;    0.000
292.425; 3010.925;  138.925;    0.000
292.490; 3114.925;  110.925;    0.000
292.554; 3191.925;  180.925;    0.000
292.618; 3343.925;  178.925;    0.000
292.682; 3694.925;  156.925;    0.000
292.746; 4025.925;  151.925;    0.000
292.810; 5113.925;  183.925;    0.000
292.874; 6193.925;  156.925;    0.000
292.938; 6211.925;  195.925;    0.000
293.002; 5555.925;  200.925;    0.000
293.066; 5162.925;  171.925;    0.000
293.130; 4806.925;  163.925;    0.000
293.194; 4610.925;  174.925;    0.000
293.258; 4411.925;  167.925;    0.000
293.322; 4331.925;  212.925;    0.000
293.386; 4499.925;  189.925;    0.000
293.450; 4553.925;  169.925;    0.000
293.514; 5199.925;  175.925;    0.000
293.577; 6701.925;  169.925;    0.000
293.641; 8803.925;  186.925;    0.000
293.705; 9397.925;  222.925;    0.000
293.769; 8606.925;  150.925;    0.000
293.833; 7363.925;  165.925;    0.000
293.897; 6438.925;  152.925;    0.000
293.961; 5813.925;  179.925;    0.000
294.025; 5238.925;  159.925;    0.000
294.089; 4995.925;  181.925;    0.000
294.152; 4741.925;  188.925;    0.000
294.216; 4401.925;  170.925;    0.000
294.280; 4192.925;  167.925;    0.000
294.344; 4129.925;  151.925;    0.000
294.408; 3845.925;  180.925;    0.000
294.472; 3684.925;  144.925;    0.000
294.536; 3678.925;  171.925;    0.000
294.599; 3606.925;  157.925;    0.000
294.663; 3358.925;  139.925;    0.000
294.727; 3378.925;  208.925;    0.000
294.791; 3298.925;  152.925;    0.000
294.855; 3265.925;  181.925;    0.000
294.918; 3275.925;  136.925;    0.000
294.982; 3189.925;  155.925;    0.000
295.046; 3257.925;  200.925;    0.000
295.110; 3093.925;  190.925;    0.000
295.173; 3100.925;  156.925;    0.000
295.237; 3147.925;  160.925;    0.000
295.301; 3012.925;  145.925;    0.000
295.364; 2916.925;  166.925;    0.000
295.428; 2998.925;  125.925;    0.000
295.492; 2958.925;  154.925;    0.000
295.556; 2963.925;  172.925;    0.000
295.619; 3008.925;  210.925;    0.000
295.683; 2900.925;  181.925;    0.000
295.747; 2755.925;  176.925;    0.000
295.810; 2879.925;  181.925;    0.000
295.874; 2819.925;  160.925;    0.000
295.938; 2856.925;  119.925;    0.000
296.001; 2788.925;  206.925;    0.000
296.065; 2813.925;  136.925;    0.000
296.128; 2743.925;  156.925;    0.000
296.192; 2803.925;  174.925;    0.000
296.256; 2828.925;  145.925;    0.000
296.319; 2702.925;  167.925;    0.000
296.383; 2768.925;  168.925;    0.000
296.447; 2791.925;  190.925;    0.000
296.510; 2629.925;  165.925;    0.000
296.574; 2686.925;  184.925;    0.000
296.637; 2717.925;  155.925;    0.000
296.701; 2662.925;  168.925;    0.000
296.764; 2535.925;  161.925;    0.000
296.828; 2730.925;  218.925;    0.000
296.891; 2549.925;  176.925;    0.000
296.955; 2648.925;  169.925;    0.000
297.018; 2677.925;  168.925;    0.000
297.082; 2569.925;  176.925;    0.000
297.145; 2591.925;  171.925;    0.000
297.209; 2620.925;  196.925;    0.000
297.272; 2576.925;  170.925;    0.000
297.336; 2616.925;  156.925;    0.000
297.399; 2472.925;  168.925;    0.000
297.463; 2489.925;  203.925;    0.000
297.526; 2656.925;  164.925;    0.000
297.590; 2660.925;  175.925;    0.000
297.653; 2514.925;  170.925;    0.000
297.717; 2454.925;  156.925;    0.000
297.780; 2564.925;  149.925;    0.000
297.843; 2564.925;  156.925;    0.000
297.907; 2588.925;  129.925;    0.000
297.970; 2513.925;  163.925;    0.000
298.034; 2585.925;  162.925;    0.000
298.097; 2496.925;  182.925;    0.000
298.160; 2454.925;  194.925;    0.000
298.224; 2528.925;  178.925;    0.000
298.287; 2532.925;  147.925;    0.000
298.350; 2456.925;  187.925;    0.000
298.414; 2452.925;  193.925;    0.000
298.477; 2439.925;  127.925;    0.000
298.540; 2432.925;  181.925;    0.000
298.604; 2486.925;  163.925;    0.000
298.667; 2386.925;  177.925;    0.000
298.730; 2488.925;  192.925;    0.000
298.794; 2427.925;  183.925;    0.000
298.857; 2550.925;  194.925;    0.000
298.920; 2419.925;  147.925;    0.000
298.984; 2403.925;  184.925;    0.000
299.047; 2348.925;  218.925;    0.000
299.110; 2365.925;  171.925;    0.000
299.173; 2359.925;  177.925;    0.000
299.237; 2437.925;  181.925;    0.000
299.300; 2357.925;  170.925;    0.000
299.363; 2230.925;  185.925;    0.000
299.426; 2358.925;  193.925;    0.000
299.489; 2351.925;  184.925;    0.000
299.553; 2372.925;  194.925;    0.000
299.616; 2430.925;  171.925;    0.000
299.679; 2255.925;  182.925;    0.000
299.742; 2329.925;  138.925;    0.000
299.805; 2303.925;  172.925;    0.000
299.868; 2240.925;  191.925;    0.000
299.932; 2359.925;  193.925;    0.000
299.995; 2269.925;  201.925;    0.000
300.058; 2274.925;  177.925;    0.000
300.121; 2311.925;  178.925;    0.000
300.184; 2318.925;  171.925;    0.000
300.247; 2219.925;  184.925;    0.000
300.310; 2316.925;  200.925;    0.000
300.374; 2363.925;  172.925;    0.000
300.437; 2281.925;  187.925;    0.000
300.500; 2285.925;  211.925;    0.000
300.563; 2319.925;  190.925;    0.000
300.626; 2254.925;  196.925;    0.000
300.689; 2267.925;  162.925;    0.000
300.752; 2238.925;  163.925;    0.000
300.815; 2184.925;  207.925;    0.000
300.878; 2301.925;  221.925;    0.000
300.941; 2209.925;  176.925;    0.000
301.004; 2163.925;  193.925;    0.000
301.067; 2211.925;  165.925;    0.000
301.130; 2158.925;  179.925;    0.000
301.193; 2202.925;  196.925;    0.000
301.256; 2248.925;  210.925;    0.000
301.319; 2225.925;  196.925;    0.000
301.382; 2305.925;  162.925;    0.000
301.445; 2145.925;  233.925;    0.000
301.508; 2131.925;  176.925;    0.000
301.571; 2096.925;  185.925;    0.000
301.634; 2202.925;  202.925;    0.000
301.697; 2184.925;  189.925;    0.000
301.760; 2194.925;  224.925;    0.000
301.823; 2233.925;  212.925;    0.000
301.885; 2142.925;  196.925;    0.000
301.948; 2263.925;  169.925;    0.000
302.011; 2164.925;  160.925;    0.000
302.074; 2189.925;  202.925;    0.000
302.137; 2198.925;  130.925;    0.000
302.200; 2265.925;  188.925;    0.000
302.263; 2185.925;  196.925;    0.000
302.326; 2136.925;  172.925;    0.000
302.388; 2216.925;  197.925;    0.000
302.451; 2113.925;  203.925;    0.000
302.514; 2220.925;  164.925;    0.000
302.577; 2170.925;  170.925;    0.000
302.640; 2220.925;  156.925;    0.000
302.703; 2080.925;  188.925;    0.000
302.765; 2172.925;  213.925;    0.000
302.828; 2222.925;  212.925;    0.000
302.891; 2197.925;  203.925;    0.000
302.954; 2154.925;  148.925;    0.000
303.016; 2156.925;  168.925;    0.000
303.079; 2132.925;  206.925;    0.000
303.142; 2213.925;  210.925;    0.000
303.205; 2232.925;  189.925;    0.000
303.267; 2093.925;  174.925;    0.000
303.330; 2186.925;  198.925;    0.000
303.393; 2090.925;  207.925;    0.000
303.456; 2136.925;  177.925;    0.000
303.518; 2178.925;  192.925;    0.000
303.581; 2166.925;  171.925;    0.000
303.644; 2251.925;  193.925;    0.000
303.706; 2085.925;  185.925;    0.000
303.769; 2150.925;  198.925;    0.000
303.832; 2103.925;  192.925;    0.000
303.894; 2219.925;  199.925;    0.000
303.957; 2161.925;  160.925;    0.000
304.020; 2194.925;  184.925;    0.000
304.082; 2179.925;  191.925;    0.000
304.145; 2213.925;  216.925;    0.000
304.207; 2225.925;  175.925;    0.000
304.270; 2246.925;  192.925;    0.000
304.333; 2157.925;  218.925;    0.000
304.395; 2153.925;  195.925;    0.000
304.458; 2130.925;  206.925;    0.000
304.520; 2228.925;  229.925;    0.000
304.583; 2239.925;  202.925;    0.000
304.646; 2222.925;  159.925;    0.000
304.708; 2136.925;  167.925;    0.000
304.771; 2117.925;  141.925;    0.000
304.833; 2106.925;  184.925;    0.000
304.896; 2171.925;  197.925;    0.000
304.958; 2171.925;  179.925;    0.000
305.021; 2184.925;  175.925;    0.000
305.083; 2228.925;  182.925;    0.000
305.146; 2203.925;  182.925;    0.000
305.208; 2127.925;  174.925;    0.000
305.271; 2089.925;  157.925;    0.000
305.333; 2180.925;  185.925;    0.000
305.396; 2134.925;  199.925;    0.000
305.458; 2215.925;  203.925;    0.000
305.520; 2219.925;  195.925;    0.000
305.583; 2176.925;  152.925;    0.000
305.645; 2186.925;  200.925;    0.000
305.708; 2179.925;  149.925;    0.000
305.770; 2191.925;  211.925;    0.000
305.833; 2195.925;  189.925;    0.000
305.895; 2154.925;  200.925;    0.000
305.957; 2229.925;  166.925;    0.000
306.020; 2227.925;  186.925;    0.000
306.082; 2175.925;  197.925;    0.000
306.144; 2185.925;  200.925;    0.000
306.207; 2199.925;  180.925;    0.000
306.269; 2208.925;  209.925;    0.000
306.331; 2157.925;  205.925;    0.000
306.394; 2193.925;  176.925;    0.000
306.456; 2128.925;  184.925;    0.000
306.518; 2167.925;  210.925;    0.000
306.581; 2244.925;  162.925;    0.000
306.643; 2214.925;  196.925;    0.000
306.705; 2204.925;  204.925;    0.000
306.768; 2262.925;  158.925;    0.000
306.830; 2165.925;  205.925;    0.000
306.892; 2256.925;  189.925;    0.000
306.954; 2221.925;  188.925;    0.000
307.017; 2174.925;  180.925;    0.000
307.079; 2255.925;  197.925;    0.000
307.141; 2232.925;  184.925;    0.000
307.203; 2234.925;  182.925;    0.000
307.266; 2298.925;  166.925;    0.000
307.328; 2213.925;  186.925;    0.000
307.390; 2355.925;  176.925;    0.000
307.452; 2286.925;  194.925;    0.000
307.514; 2307.925;  225.925;    0.000
307.577; 2323.925;  209.925;    0.000
307.639; 2252.925;  203.925;    0.000
307.701; 2275.925;  214.925;    0.000
307.763; 2265.925;  203.925;    0.000
307.825; 2383.925;  202.925;    0.000
307.887; 2301.925;  244.925;    0.000
307.949; 2318.925;  173.925;    0.000
308.012; 2341.925;  219.925;    0.000
308.074; 2408.925;  157.925;    0.000
308.136; 2341.925;  215.925;    0.000
308.198; 2280.925;  186.925;    0.000
308.260; 2411.925;  186.925;    0.000
308.322; 2360.925;  201.925;    0.000
308.384; 2304.925;  218.925;    0.000
308.446; 2312.925;  159.925;    0.000
308.508; 2418.925;  191.925;    0.000
308.570; 2335.925;  185.925;    0.000
308.632; 2458.925;  208.925;    0.000
308.694; 2402.925;  161.925;    0.000
308.756; 2414.925;  169.925;    0.000
308.818; 2499.925;  187.925;    0.000
308.880; 2437.925;  192.925;    0.000
308.942; 2411.925;  194.925;    0.000
309.004; 2441.925;  206.925;    0.000
309.066; 2575.925;  204.925;    0.000
309.128; 2453.925;  181.925;    0.000
309.190; 2636.925;  166.925;    0.000
309.252; 2633.925;  213.925;    0.000
309.314; 2556.925;  249.925;    0.000
309.376; 2673.925;  238.925;    0.000
309.438; 2666.925;  206.925;    0.000
309.500; 2612.925;  185.925;    0.000
309.562; 2626.925;  214.925;    0.000
309.624; 2632.925;  216.925;    0.000
309.686; 2650.925;  197.925;    0.000
309.747; 2659.925;  171.925;    0.000
309.809; 2628.925;  198.925;    0.000
309.871; 2509.925;  185.925;    0.000
309.933; 2572.925;  172.925;    0.000
309.995; 2473.925;  168.925;    0.000
310.057; 2515.925;  177.925;    0.000
310.119; 2438.925;  207.925;    0.000
310.180; 2474.925;  180.925;    0.000
310.242; 2432.925;  202.925;    0.000
310.304; 2422.925;  200.925;    0.000
310.366; 2449.925;  222.925;    0.000
310.428; 2369.925;  179.925;    0.000
310.489; 2377.925;  196.925;    0.000
310.551; 2366.925;  203.925;    0.000
310.613; 2453.925;  198.925;    0.000
310.675; 2466.925;  203.925;    0.000
310.737; 2446.925;  195.925;    0.000
310.798; 2408.925;  204.925;    0.000
310.860; 2387.925;  195.925;    0.000
310.922; 2404.925;  195.925;    0.000
310.983; 2377.925;  225.925;    0.000
311.045; 2377.925;  203.925;    0.000
311.107; 2446.925;  194.925;    0.000
311.169; 2327.925;  185.925;    0.000
311.230; 2412.925;  175.925;    0.000
311.292; 2416.925;  220.925;    0.000
311.354; 2334.925;  189.925;    0.000
311.415; 2437.925;  187.925;    0.000
311.477; 2261.925;  180.925;    0.000
311.539; 2308.925;  175.925;    0.000
311.600; 2360.925;  192.925;    0.000
311.662; 2387.925;  212.925;    0.000
311.724; 2344.925;  217.925;    0.000
311.785; 2326.925;  218.925;    0.000
311.847; 2268.925;  219.925;    0.000
311.908; 2388.925;  202.925;    0.000
311.970; 2479.925;  186.925;    0.000
312.032; 2340.925;  212.925;    0.000
312.093; 2375.925;  203.925;    0.000
312.155; 2330.925;  165.925;    0.000
312.216; 2374.925;  183.925;    0.000
312.278; 2317.925;  167.925;    0.000
312.339; 2434.925;  190.925;    0.000
312.401; 2425.925;  219.925;    0.000
312.462; 2393.925;  190.925;    0.000
312.524; 2397.925;  203.925;    0.000
312.585; 2342.925;  191.925;    0.000
312.647; 2277.925;  197.925;    0.000
312.708; 2330.925;  203.925;    0.000
312.770; 2462.925;  203.925;    0.000
312.831; 2418.925;  155.925;    0.000
312.893; 2401.925;  189.925;    0.000
312.954; 2402.925;  212.925;    0.000
313.016; 2461.925;  179.925;    0.000
313.077; 2475.925;  209.925;    0.000
313.139; 2433.925;  185.925;    0.000
313.200; 2368.925;  180.925;    0.000
313.261; 2499.925;  220.925;    0.000
313.323; 2394.925;  171.925;    0.000
313.384; 2403.925;  180.925;    0.000
313.446; 2512.925;  202.925;    0.000
313.507; 2350.925;  172.925;    0.000
313.568; 2425.925;  192.925;    0.000
313.630; 2489.925;  191.925;    0.000
313.691; 2407.925;  176.925;    0.000
313.752; 2348.925;  175.925;    0.000
313.814; 2355.925;  202.925;    0.000
313.875; 2472.925;  186.925;    0.000
313.936; 2492.925;  199.925;    0.000
313.998; 2363.925;  164.925;    0.000
314.059; 2364.925;  159.925;    0.000
314.120; 2383.925;  175.925;    0.000
314.182; 2396.925;  181.925;    0.000
314.243; 2384.925;  157.925;    0.000
314.304; 2415.925;  168.925;    0.000
314.365; 2436.925;  203.925;    0.000
314.427; 2381.925;  151.925;    0.000
314.488; 2480.925;  174.925;    0.000
314.549; 2446.925;  184.925;    0.000
314.610; 2371.925;  198.925;    0.000
314.672; 2396.925;  193.925;    0.000
314.733; 2360.925;  171.925;    0.000
314.794; 2356.925;  141.925;    0.000
314.855; 2387.925;  184.925;    0.000
314.917; 2429.925;  175.925;    0.000
314.978; 2466.925;  190.925;    0.000
315.039; 2414.925;  183.925;    0.000
315.100; 2454.925;  204.925;    0.000
315.161; 2389.925;  202.925;    0.000
315.222; 2392.925;  177.925;    0.000
315.283; 2383.925;  191.925;    0.000
315.345; 2411.925;  185.925;    0.000
315.406; 2291.925;  194.925;    0.000
315.467; 2368.925;  167.925;    0.000
315.528; 2404.925;  174.925;    0.000
315.589; 2419.925;  197.925;    0.000
315.650; 2403.925;  192.925;    0.000
315.711; 2343.925;  181.925;    0.000
315.772; 2394.925;  157.925;    0.000
315.833; 2272.925;  189.925;    0.000
315.894; 2417.925;  184.925;    0.000
315.955; 2369.925;  202.925;    0.000
316.016; 2359.925;  220.925;    0.000
316.078; 2405.925;  180.925;    0.000
316.139; 2436.925;  240.925;    0.000
316.200; 2328.925;  190.925;    0.000
316.261; 2406.925;  179.925;    0.000
316.322; 2425.925;  176.925;    0.000
316.383; 2354.925;  188.925;    0.000
316.444; 2352.925;  228.925;    0.000
316.504; 2348.925;  199.925;    0.000
316.565; 2361.925;  221.925;    0.000
316.626; 2298.925;  204.925;    0.000
316.687; 2345.925;  192.925;    0.000
316.748; 2372.925;  220.925;    0.000
316.809; 2356.925;  175.925;    0.000
316.870; 2352.925;  164.925;    0.000
316.931; 2355.925;  208.925;    0.000
316.992; 2320.925;  224.925;    0.000
317.053; 2356.925;  204.925;    0.000
317.114; 2334.925;  199.925;    0.000
317.175; 2392.925;  230.925;    0.000
317.235; 2389.925;  186.925;    0.000
317.296; 2360.925;  224.925;    0.000
317.357; 2344.925;  154.925;    0.000
317.418; 2439.925;  219.925;    0.000
317.479; 2346.925;  229.925;    0.000
317.540; 2328.925;  201.925;    0.000
317.601; 2356.925;  180.925;    0.000
317.661; 2330.925;  179.925;    0.000
317.722; 2361.925;  193.925;    0.000
317.783; 2349.925;  164.925;    0.000
317.844; 2398.925;  232.925;    0.000
317.904; 2336.925;  222.925;    0.000
317.965; 2385.925;  199.925;    0.000
318.026; 2402.925;  200.925;    0.000
318.087; 2390.925;  182.925;    0.000
318.148; 2325.925;  216.925;    0.000
318.208; 2330.925;  239.925;    0.000
318.269; 2292.925;  163.925;    0.000
318.330; 2367.925;  204.925;    0.000
318.390; 2331.925;  191.925;    0.000
318.451; 2354.925;  200.925;    0.000
318.512; 2347.925;  181.925;    0.000
318.572; 2310.925;  233.925;    0.000
318.633; 2401.925;  220.925;    0.000
318.694; 2371.925;  179.925;    0.000
318.754; 2381.925;  214.925;    0.000
318.815; 2365.925;  214.925;    0.000
318.876; 2359.925;  220.925;    0.000
318.936; 2384.925;  212.925;    0.000
318.997; 2351.925;  201.925;    0.000
319.058; 2422.925;  215.925;    0.000
319.118; 2454.925;  251.925;    0.000
319.179; 2319.925;  240.925;    0.000
319.239; 2358.925;  240.925;    0.000
319.300; 2347.925;  232.925;    0.000
319.361; 2319.925;  211.925;    0.000
319.421; 2333.925;  219.925;    0.000
319.482; 2307.925;  228.925;    0.000
319.542; 2347.925;  216.925;    0.000
319.603; 2313.925;  190.925;    0.000
319.663; 2273.925;  227.925;    0.000
319.724; 2286.925;  191.925;    0.000
319.784; 2305.925;  196.925;    0.000
319.845; 2327.925;  190.925;    0.000
319.905; 2390.925;  221.925;    0.000
319.966; 2268.925;  219.925;    0.000
320.026; 2355.925;  233.925;    0.000
320.087; 2340.925;  204.925;    0.000
320.147; 2339.925;  189.925;    0.000
320.208; 2379.925;  200.925;    0.000
320.268; 2246.925;  217.925;    0.000
320.329; 2293.925;  216.925;    0.000
320.389; 2282.925;  228.925;    0.000
320.449; 2349.925;  236.925;    0.000
320.510; 2351.925;  234.925;    0.000
320.570; 2403.925;  176.925;    0.000
320.631; 2254.925;  228.925;    0.000
320.691; 2287.925;  228.925;    0.000
320.751; 2296.925;  188.925;    0.000
320.812; 2307.925;  223.925;    0.000
320.872; 2347.925;  268.925;    0.000
320.932; 2327.925;  226.925;    0.000
320.993; 2421.925;  216.925;    0.000
321.053; 2286.925;  236.925;    0.000
321.113; 2407.925;  197.925;    0.000
321.174; 2293.925;  218.925;    0.000
321.234; 2387.925;  229.925;    0.000
321.294; 2330.925;  208.925;    0.000
321.355; 2327.925;  248.925;    0.000
321.415; 2385.925;  218.925;    0.000
321.475; 2268.925;  173.925;    0.000
321.535; 2347.925;  234.925;    0.000
321.596; 2329.925;  202.925;    0.000
321.656; 2333.925;  246.925;    0.000
321.716; 2230.925;  235.925;    0.000
321.776; 2384.925;  210.925;    0.000
321.837; 2353.925;  217.925;    0.000
321.897; 2382.925;  215.925;    0.000
321.957; 2328.925;  239.925;    0.000
322.017; 2363.925;  173.925;    0.000
322.077; 2368.925;  263.925;    0.000
322.138; 2346.925;  232.925;    0.000
322.198; 2327.925;  211.925;    0.000
322.258; 2404.925;  213.925;    0.000
322.318; 2253.925;  168.925;    0.000
322.378; 2342.925;  251.925;    0.000
322.438; 2283.925;  212.925;    0.000
322.499; 2275.925;  265.925;    0.000
322.559; 2242.925;  210.925;    0.000
322.619; 2326.925;  242.925;    0.000
322.679; 2337.925;  229.925;    0.000
322.739; 2241.925;  216.925;    0.000
322.799; 2281.925;  238.925;    0.000
322.859; 2375.925;  249.925;    0.000
322.919; 2279.925;  211.925;    0.000
322.979; 2226.925;  244.925;    0.000
323.039; 2338.925;  226.925;    0.000
323.099; 2298.925;  223.925;    0.000
323.159; 2275.925;  232.925;    0.000
323.219; 2239.925;  203.925;    0.000
323.279; 2311.925;  218.925;    0.000
323.339; 2253.925;  231.925;    0.000
323.399; 2225.925;  255.925;    0.000
323.459; 2341.925;  244.925;    0.000
323.519; 2311.925;  213.925;    0.000
323.579; 2279.925;  193.925;    0.000
323.639; 2308.925;  191.925;    0.000
323.699; 2278.925;  199.925;    0.000
323.759; 2332.925;  246.925;    0.000
323.819; 2309.925;  206.925;    0.000
323.879; 2271.925;  238.925;    0.000
323.939; 2218.925;  229.925;    0.000
323.999; 2233.925;  219.925;    0.000
324.059; 2300.925;  177.925;    0.000
324.119; 2240.925;  235.925;    0.000
324.178; 2269.925;  211.925;    0.000
324.238; 2225.925;  168.925;    0.000
324.298; 2300.925;  205.925;    0.000
324.358; 2334.925;  224.925;    0.000
324.418; 2346.925;  235.925;    0.000
324.478; 2226.925;  187.925;    0.000
324.538; 2254.925;  230.925;    0.000
324.597; 2242.925;  206.925;    0.000
324.657; 2305.925;  180.925;    0.000
324.717; 2313.925;  175.925;    0.000
324.777; 2297.925;  169.925;    0.000
324.837; 2265.925;  165.925;    0.000
324.896; 2297.925;  205.925;    0.000
324.956; 2286.925;  216.925;    0.000
325.016; 2222.925;  197.925;    0.000
325.076; 2300.925;  220.925;    0.000
325.135; 2274.925;  242.925;    0.000
325.195; 2326.925;  186.925;    0.000
325.255; 2265.925;  160.925;    0.000
325.315; 2387.925;  198.925;    0.000
325.374; 2300.925;  208.925;    0.000
325.434; 2257.925;  209.925;    0.000
325.494; 2267.925;  191.925;    0.000
325.553; 2274.925;  190.925;    0.000
325.613; 2259.925;  229.925;    0.000
325.673; 2272.925;  172.925;    0.000
325.732; 2300.925;  160.925;    0.000
325.792; 2177.925;  177.925;    0.000
325.852; 2247.925;  201.925;    0.000
325.911; 2271.925;  226.925;    0.000
325.971; 2308.925;  224.925;    0.000
326.031; 2320.925;  202.925;    0.000
326.090; 2252.925;  232.925;    0.000
326.150; 2247.925;  230.925;    0.000
326.209; 2299.925;  201.925;    0.000
326.269; 2244.925;  202.925;    0.000
326.328; 2276.925;  203.925;    0.000
326.388; 2222.925;  194.925;    0.000
326.448; 2335.925;  233.925;    0.000
326.507; 2299.925;  192.925;    0.000
326.567; 2242.925;  163.925;    0.000
326.626; 2222.925;  227.925;    0.000
326.686; 2233.925;  177.925;    0.000
326.745; 2143.925;  210.925;    0.000
326.805; 2259.925;  198.925;    0.000
326.864; 2233.925;  185.925;    0.000
326.924; 2165.925;  255.925;    0.000
326.983; 2232.925;  208.925;    0.000
327.043; 2257.925;  241.925;    0.000
327.102; 2285.925;  183.925;    0.000
327.161; 2296.925;  210.925;    0.000
327.221; 2288.925;  213.925;    0.000
327.280; 2118.925;  194.925;    0.000
327.340; 2160.925;  212.925;    0.000
327.399; 2284.925;  209.925;    0.000
327.459; 2188.925;  229.925;    0.000
327.518; 2228.925;  196.925;    0.000
327.577; 2175.925;  197.925;    0.000
327.637; 2264.925;  210.925;    0.000
327.696; 2150.925;  196.925;    0.000
327.755; 2224.925;  216.925;    0.000
327.815; 2228.925;  240.925;    0.000
327.874; 2227.925;  250.925;    0.000
327.933; 2342.925;  229.925;    0.000
327.993; 2217.925;  202.925;    0.000
328.052; 2254.925;  178.925;    0.000
328.111; 2182.925;  230.925;    0.000
328.171; 2219.925;  207.925;    0.000
328.230; 2185.925;  170.925;    0.000
328.289; 2172.925;  205.925;    0.000
328.349; 2191.925;  235.925;    0.000
328.408; 2235.925;  231.925;    0.000
328.467; 2199.925;  217.925;    0.000
328.526; 2206.925;  239.925;    0.000
328.586; 2228.925;  214.925;    0.000
328.645; 2175.925;  205.925;    0.000
328.704; 2255.925;  211.925;    0.000
328.763; 2189.925;  208.925;    0.000
328.822; 2195.925;  251.925;    0.000
328.882; 2176.925;  211.925;    0.000
328.941; 2203.925;  232.925;    0.000
329.000; 2261.925;  235.925;    0.000
329.059; 2240.925;  222.925;    0.000
329.118; 2187.925;  265.925;    0.000
329.177; 2222.925;  237.925;    0.000
329.237; 2225.925;  258.925;    0.000
329.296; 2242.925;  225.925;    0.000
329.355; 2194.925;  227.925;    0.000
329.414; 2255.925;  212.925;    0.000
329.473; 2217.925;  250.925;    0.000
329.532; 2208.925;  263.925;    0.000
329.591; 2237.925;  212.925;    0.000
329.650; 2287.925;  219.925;    0.000
329.709; 2225.925;  218.925;    0.000
329.768; 2388.925;  195.925;    0.000
329.827; 2306.925;  223.925;    0.000
329.886; 2412.925;  230.925;    0.000
329.945; 2479.925;  211.925;    0.000
330.004; 2506.925;  247.925;    0.000
330.063; 2590.925;  193.925;    0.000
330.122; 2755.925;  229.925;    0.000
330.181; 3028.925;  223.925;    0.000
330.240; 3153.925;  199.925;    0.000
330.299; 2973.925;  211.925;    0.000
330.358; 2555.925;  198.925;    0.000
330.417; 2407.925;  190.925;    0.000
330.476; 2320.925;  237.925;    0.000
330.535; 2274.925;  239.925;    0.000
330.594; 2310.925;  207.925;    0.000
330.653; 2211.925;  193.925;    0.000
330.712; 2097.925;  225.925;    0.000
330.771; 2184.925;  236.925;    0.000
330.830; 2157.925;  219.925;    0.000
330.889; 2181.925;  211.925;    0.000
330.948; 2229.925;  194.925;    0.000
331.006; 2130.925;  190.925;    0.000
331.065; 2170.925;  192.925;    0.000
331.124; 2186.925;  195.925;    0.000
331.183; 2110.925;  191.925;    0.000
331.242; 2192.925;  203.925;    0.000
331.301; 2187.925;  183.925;    0.000
331.359; 2077.925;  196.925;    0.000
331.418; 2163.925;  209.925;    0.000
331.477; 2173.925;  255.925;    0.000
331.536; 2120.925;  237.925;    0.000
331.595; 2061.925;  217.925;    0.000
331.653; 2060.925;  198.925;    0.000
331.712; 2069.925;  194.925;    0.000
331.771; 2130.925;  229.925;    0.000
331.830; 2182.925;  254.925;    0.000
331.888; 2142.925;  218.925;    0.000
331.947; 2160.925;  211.925;    0.000
332.006; 2196.925;  261.925;    0.000
332.065; 2101.925;  204.925;    0.000
332.123; 2145.925;  225.925;    0.000
332.182; 2167.925;  193.925;    0.000
332.241; 2190.925;  201.925;    0.000
332.299; 2084.925;  182.925;    0.000
332.358; 2144.925;  244.925;    0.000
332.417; 2200.925;  218.925;    0.000
332.475; 2095.925;  218.925;    0.000
332.534; 2169.925;  228.925;    0.000
332.592; 2118.925;  199.925;    0.000
332.651; 2164.925;  204.925;    0.000
332.710; 2120.925;  217.925;    0.000
332.768; 2185.925;  195.925;    0.000
332.827; 2122.925;  182.925;    0.000
332.885; 2185.925;  247.925;    0.000
332.944; 2094.925;  170.925;    0.000
333.003; 2158.925;  200.925;    0.000
333.061; 2172.925;  243.925;    0.000
333.120; 2213.925;  235.925;    0.000
333.178; 2264.925;  195.925;    0.000
333.237; 2261.925;  217.925;    0.000
333.295; 2357.925;  252.925;    0.000
333.354; 2232.925;  201.925;    0.000
333.412; 2190.925;  181.925;    0.000
333.471; 2160.925;  239.925;    0.000
333.529; 2248.925;  214.925;    0.000
333.588; 2346.925;  232.925;    0.000
333.646; 2336.925;  202.925;    0.000
333.705; 2393.925;  232.925;    0.000
333.763; 2316.925;  215.925;    0.000
333.822; 2226.925;  187.925;    0.000
333.880; 2193.925;  186.925;    0.000
333.938; 2268.925;  185.925;    0.000
333.997; 2166.925;  234.925;    0.000
334.055; 2320.925;  255.925;    0.000
334.114; 2189.925;  225.925;    0.000
334.172; 2266.925;  209.925;    0.000
334.230; 2256.925;  194.925;    0.000
334.289; 2235.925;  213.925;    0.000
334.347; 2266.925;  235.925;    0.000
334.405; 2268.925;  242.925;    0.000
334.464; 2217.925;  208.925;    0.000
334.522; 2202.925;  197.925;    0.000
334.580; 2219.925;  204.925;    0.000
334.639; 2255.925;  217.925;    0.000
334.697; 2112.925;  183.925;    0.000
334.755; 2138.925;  196.925;    0.000
334.814; 2199.925;  216.925;    0.000
334.872; 2199.925;  190.925;    0.000
334.930; 2179.925;  162.925;    0.000
334.988; 2234.925;  261.925;    0.000
335.047; 2253.925;  220.925;    0.000
335.105; 2233.925;  190.925;    0.000
335.163; 2279.925;  201.925;    0.000
335.221; 2159.925;  213.925;    0.000
335.280; 2247.925;  202.925;    0.000
335.338; 2182.925;  210.925;    0.000
335.396; 2274.925;  255.925;    0.000
335.454; 2163.925;  216.925;    0.000
335.512; 2151.925;  242.925;    0.000
335.570; 2205.925;  227.925;    0.000
335.629; 2259.925;  225.925;    0.000
335.687; 2247.925;  227.925;    0.000
335.745; 2277.925;  194.925;    0.000
335.803; 2287.925;  221.925;    0.000
335.861; 2308.925;  217.925;    0.000
335.919; 2293.925;  214.925;    0.000
335.977; 2189.925;  209.925;    0.000
336.035; 2206.925;  215.925;    0.000
336.094; 2227.925;  198.925;    0.000
336.152; 2092.925;  222.925;    0.000
336.210; 2206.925;  225.925;    0.000
336.268; 2226.925;  234.925;    0.000
336.326; 2221.925;  209.925;    0.000
336.384; 2305.925;  271.925;    0.000
336.442; 2162.925;  207.925;    0.000
336.500; 2217.925;  226.925;    0.000
336.558; 2229.925;  219.925;    0.000
336.616; 2274.925;  260.925;    0.000
336.674; 2174.925;  205.925;    0.000
336.732; 2199.925;  225.925;    0.000
336.790; 2190.925;  191.925;    0.000
336.848; 2160.925;  219.925;    0.000
336.906; 2219.925;  230.925;    0.000
336.964; 2299.925;  226.925;    0.000
337.022; 2239.925;  266.925;    0.000
337.080; 2331.925;  231.925;    0.000
337.138; 2180.925;  249.925;    0.000
337.195; 2175.925;  207.925;    0.000
337.253; 2197.925;  207.925;    0.000
337.311; 2245.925;  225.925;    0.000
337.369; 2081.925;  211.925;    0.000
337.427; 2086.925;  196.925;    0.000
337.485; 2167.925;  269.925;    0.000
337.543; 2118.925;  227.925;    0.000
337.601; 2162.925;  260.925;    0.000
337.658; 2220.925;  237.925;    0.000
337.716; 2103.925;  222.925;    0.000
337.774; 2191.925;  256.925;    0.000
337.832; 2207.925;  223.925;    0.000
337.890; 2091.925;  188.925;    0.000
337.947; 2124.925;  212.925;    0.000
338.005; 2229.925;  217.925;    0.000
338.063; 2095.925;  200.925;    0.000
338.121; 2097.925;  217.925;    0.000
338.178; 2163.925;  236.925;    0.000
338.236; 2210.925;  218.925;    0.000
338.294; 2080.925;  238.925;    0.000
338.352; 2183.925;  266.925;    0.000
338.409; 2184.925;  240.925;    0.000
338.467; 2139.925;  210.925;    0.000
338.525; 2093.925;  255.925;    0.000
338.583; 2006.925;  239.925;    0.000
338.640; 2017.925;  243.925;    0.000
338.698; 2072.925;  204.925;    0.000
338.756; 2121.925;  219.925;    0.000
338.813; 2136.925;  227.925;    0.000
338.871; 2111.925;  227.925;    0.000
338.928; 2176.925;  211.925;    0.000
338.986; 2206.925;  254.925;    0.000
339.044; 2162.925;  207.925;    0.000
339.101; 2088.925;  229.925;    0.000
339.159; 2103.925;  237.925;    0.000
339.216; 2176.925;  231.925;    0.000
339.274; 2113.925;  301.925;    0.000
339.332; 2199.925;  259.925;    0.000
339.389; 2074.925;  258.925;    0.000
339.447; 2113.925;  226.925;    0.000
339.504; 2122.925;  229.925;    0.000
339.562; 2130.925;  244.925;    0.000
339.619; 2159.925;  265.925;    0.000
339.677; 2161.925;  253.925;    0.000
339.734; 2136.925;  191.925;    0.000
339.792; 2113.925;  238.925;    0.000
339.849; 2105.925;  236.925;    0.000
339.907; 2117.925;  254.925;    0.000
339.964; 2134.925;  196.925;    0.000
340.022; 2116.925;  247.925;    0.000
340.079; 2142.925;  275.925;    0.000
340.137; 2080.925;  248.925;    0.000
340.194; 2042.925;  263.925;    0.000
340.252; 2149.925;  266.925;    0.000
340.309; 2046.925;  211.925;    0.000
340.366; 2083.925;  237.925;    0.000
340.424; 2126.925;  260.925;    0.000
340.481; 2053.925;  255.925;    0.000
340.538; 2058.925;  235.925;    0.000
340.596; 2067.925;  225.925;    0.000
340.653; 2149.925;  230.925;    0.000
340.711; 2171.925;  272.925;    0.000
340.768; 2166.925;  253.925;    0.000
340.825; 2087.925;  201.925;    0.000
340.883; 2101.925;  232.925;    0.000
340.940; 2064.925;  247.925;    0.000
340.997; 2061.925;  244.925;    0.000
341.054; 2129.925;  244.925;    0.000
341.112; 2111.925;  258.925;    0.000
341.169; 2178.925;  238.925;    0.000
341.226; 2116.925;  213.925;    0.000
341.284; 2150.925;  240.925;    0.000
341.341; 2092.925;  194.925;    0.000
341.398; 2149.925;  191.925;    0.000
341.455; 2145.925;  227.925;    0.000
341.512; 2156.925;  238.925;    0.000
341.570; 2169.925;  236.925;    0.000
341.627; 2090.925;  241.925;    0.000
341.684; 2080.925;  225.925;    0.000
341.741; 2184.925;  299.925;    0.000
341.798; 2166.925;  265.925;    0.000
341.856; 2198.925;  230.925;    0.000
341.913; 2119.925;  234.925;    0.000
341.970; 2066.925;  260.925;    0.000
342.027; 2138.925;  255.925;    0.000
342.084; 2193.925;  260.925;    0.000
342.141; 2133.925;  263.925;    0.000
342.198; 2129.925;  245.925;    0.000
342.255; 2093.925;  210.925;    0.000
342.313; 2067.925;  251.925;    0.000
342.370; 2100.925;  234.925;    0.000
342.427; 2108.925;  249.925;    0.000
342.484; 2166.925;  254.925;    0.000
342.541; 2034.925;  229.925;    0.000
342.598; 2093.925;  255.925;    0.000
342.655; 2146.925;  225.925;    0.000
342.712; 2104.925;  224.925;    0.000
342.769; 2171.925;  215.925;    0.000
342.826; 2131.925;  240.925;    0.000
342.883; 2160.925;  233.925;    0.000
342.940; 2115.925;  212.925;    0.000
342.997; 2126.925;  236.925;    0.000
343.054; 2107.925;  255.925;    0.000
343.111; 2133.925;  228.925;    0.000
343.168; 2160.925;  230.925;    0.000
343.225; 2075.925;  258.925;    0.000
343.282; 2235.925;  202.925;    0.000
343.339; 2165.925;  253.925;    0.000
343.395; 2292.925;  232.925;    0.000
343.452; 2188.925;  253.925;    0.000
343.509; 2155.925;  213.925;    0.000
343.566; 2253.925;  259.925;    0.000
343.623; 2202.925;  244.925;    0.000
343.680; 2210.925;  232.925;    0.000
343.737; 2230.925;  222.925;    0.000
343.794; 2297.925;  204.925;    0.000
343.850; 2270.925;  249.925;    0.000
343.907; 2183.925;  212.925;    0.000
343.964; 2273.925;  226.925;    0.000
344.021; 2233.925;  251.925;    0.000
344.078; 2314.925;  246.925;    0.000
344.134; 2331.925;  218.925;    0.000
344.191; 2231.925;  244.925;    0.000
344.248; 2302.925;  211.925;    0.000
344.305; 2208.925;  221.925;    0.000
344.361; 2313.925;  247.925;    0.000
344.418; 2369.925;  265.925;    0.000
344.475; 2231.925;  254.925;    0.000
344.532; 2205.925;  233.925;    0.000
344.588; 2278.925;  236.925;    0.000
344.645; 2248.925;  249.925;    0.000
344.702; 2280.925;  220.925;    0.000
344.758; 2241.925;  255.925;    0.000
344.815; 2218.925;  236.925;    0.000
344.872; 2197.925;  218.925;    0.000
344.928; 2298.925;  230.925;    0.000
344.985; 2288.925;  222.925;    0.000
345.042; 2248.925;  199.925;    0.000
345.098; 2211.925;  226.925;    0.000
345.155; 2246.925;  245.925;    0.000
345.212; 2303.925;  225.925;    0.000
345.268; 2248.925;  237.925;    0.000
345.325; 2178.925;  213.925;    0.000
345.381; 2281.925;  267.925;    0.000
345.438; 2221.925;  240.925;    0.000
345.495; 2279.925;  254.925;    0.000
345.551; 2188.925;  248.925;    0.000
345.608; 2261.925;  196.925;    0.000
345.664; 2252.925;  245.925;    0.000
345.721; 2244.925;  252.925;    0.000
345.777; 2315.925;  245.925;    0.000
345.834; 2112.925;  210.925;    0.000
345.890; 2132.925;  244.925;    0.000
345.947; 2222.925;  238.925;    0.000
346.003; 2204.925;  224.925;    0.000
346.060; 2241.925;  206.925;    0.000
346.116; 2198.925;  237.925;    0.000
346.173; 2244.925;  242.925;    0.000
346.229; 2285.925;  269.925;    0.000
346.285; 2250.925;  262.925;    0.000
346.342; 2266.925;  263.925;    0.000
346.398; 2285.925;  224.925;    0.000
346.455; 2328.925;  237.925;    0.000
346.511; 2344.925;  216.925;    0.000
346.567; 2303.925;  211.925;    0.000
346.624; 2277.925;  225.925;    0.000
346.680; 2286.925;  242.925;    0.000
346.737; 2282.925;  244.925;    0.000
346.793; 2278.925;  260.925;    0.000
346.849; 2251.925;  251.925;    0.000
346.906; 2332.925;  260.925;    0.000
346.962; 2315.925;  267.925;    0.000
347.018; 2341.925;  246.925;    0.000
347.074; 2311.925;  272.925;    0.000
347.131; 2299.925;  211.925;    0.000
347.187; 2286.925;  240.925;    0.000
347.243; 2327.925;  233.925;    0.000
347.300; 2310.925;  225.925;    0.000
347.356; 2267.925;  236.925;    0.000
347.412; 2351.925;  237.925;    0.000
347.468; 2287.925;  284.925;    0.000
347.524; 2339.925;  252.925;    0.000
347.581; 2373.925;  278.925;    0.000
347.637; 2371.925;  262.925;    0.000
347.693; 2293.925;  268.925;    0.000
347.749; 2357.925;  260.925;    0.000
347.805; 2229.925;  224.925;    0.000
347.862; 2330.925;  243.925;    0.000
347.918; 2241.925;  257.925;    0.000
347.974; 2318.925;  248.925;    0.000
348.030; 2324.925;  242.925;    0.000
348.086; 2258.925;  234.925;    0.000
348.142; 2305.925;  239.925;    0.000
348.198; 2318.925;  260.925;    0.000
348.254; 2377.925;  262.925;    0.000
348.311; 2280.925;  263.925;    0.000
348.367; 2323.925;  235.925;    0.000
348.423; 2300.925;  205.925;    0.000
348.479; 2255.925;  234.925;    0.000
348.535; 2266.925;  257.925;    0.000
348.591; 2290.925;  267.925;    0.000
348.647; 2347.925;  243.925;    0.000
348.703; 2318.925;  278.925;    0.000
348.759; 2303.925;  259.925;    0.000
348.815; 2317.925;  288.925;    0.000
348.871; 2283.925;  269.925;    0.000
348.927; 2261.925;  239.925;    0.000
348.983; 2367.925;  289.925;    0.000
349.039; 2269.925;  221.925;    0.000
349.095; 2416.925;  252.925;    0.000
349.151; 2383.925;  226.925;    0.000
349.207; 2324.925;  263.925;    0.000
349.263; 2401.925;  194.925;    0.000
349.319; 2324.925;  212.925;    0.000
349.374; 2352.925;  236.925;    0.000
349.430; 2301.925;  229.925;    0.000
349.486; 2416.925;  247.925;    0.000
349.542; 2414.925;  263.925;    0.000
349.598; 2458.925;  248.925;    0.000
349.654; 2422.925;  252.925;    0.000
349.710; 2272.925;  230.925;    0.000
349.766; 2378.925;  201.925;    0.000
349.821; 2321.925;  229.925;    0.000
349.877; 2419.925;  282.925;    0.000
349.933; 2407.925;  240.925;    0.000
349.989; 2390.925;  251.925;    0.000
350.045; 2321.925;  240.925;    0.000
350.100; 2354.925;  256.925;    0.000
350.156; 2377.925;  243.925;    0.000
350.212; 2413.925;  250.925;    0.000
350.268; 2281.925;  251.925;    0.000
350.323; 2402.925;  208.925;    0.000
350.379; 2339.925;  244.925;    0.000
350.435; 2318.925;  237.925;    0.000
350.491; 2382.925;  201.925;    0.000
350.546; 2400.925;  225.925;    0.000
350.602; 2375.925;  260.925;    0.000
350.658; 2303.925;  224.925;    0.000
350.713; 2355.925;  264.925;    0.000
350.769; 2353.925;  196.925;    0.000
350.825; 2300.925;  202.925;    0.000
350.880; 2281.925;  232.925;    0.000
350.936; 2353.925;  242.925;    0.000
350.992; 2315.925;  238.925;    0.000
351.047; 2348.925;  242.925;    0.000
351.103; 2348.925;  199.925;    0.000
351.158; 2374.925;  242.925;    0.000
351.214; 2368.925;  225.925;    0.000
351.270; 2357.925;  197.925;    0.000
351.325; 2346.925;  231.925;    0.000
351.381; 2312.925;  215.925;    0.000
351.436; 2419.925;  233.925;    0.000
351.492; 2468.925;  216.925;    0.000
351.547; 2468.925;  244.925;    0.000
351.603; 2361.925;  249.925;    0.000
351.658; 2460.925;  249.925;    0.000
351.714; 2339.925;  222.925;    0.000
351.769; 2352.925;  222.925;    0.000
351.825; 2406.925;  226.925;    0.000
351.880; 2462.925;  238.925;    0.000
351.936; 2460.925;  230.925;    0.000
351.991; 2289.925;  243.925;    0.000
352.047; 2400.925;  201.925;    0.000
352.102; 2369.925;  243.925;    0.000
352.158; 2343.925;  193.925;    0.000
352.213; 2356.925;  219.925;    0.000
352.268; 2386.925;  205.925;    0.000
352.324; 2418.925;  246.925;    0.000
352.379; 2446.925;  247.925;    0.000
352.434; 2383.925;  252.925;    0.000
352.490; 2442.925;  205.925;    0.000
352.545; 2399.925;  262.925;    0.000
352.601; 2471.925;  229.925;    0.000
352.656; 2369.925;  207.925;    0.000
352.711; 2357.925;  228.925;    0.000
352.767; 2411.925;  216.925;    0.000
352.822; 2401.925;  219.925;    0.000
352.877; 2367.925;  234.925;    0.000
352.932; 2400.925;  249.925;    0.000
352.988; 2390.925;  196.925;    0.000
353.043; 2361.925;  228.925;    0.000
353.098; 2410.925;  231.925;    0.000
353.153; 2383.925;  235.925;    0.000
353.209; 2372.925;  250.925;    0.000
353.264; 2337.925;  212.925;    0.000
353.319; 2394.925;  234.925;    0.000
353.374; 2369.925;  245.925;    0.000
353.430; 2339.925;  261.925;    0.000
353.485; 2388.925;  249.925;    0.000
353.540; 2434.925;  260.925;    0.000
353.595; 2317.925;  219.925;    0.000
353.650; 2262.925;  242.925;    0.000
353.705; 2483.925;  244.925;    0.000
353.761; 2370.925;  242.925;    0.000
353.816; 2375.925;  214.925;    0.000
353.871; 2472.925;  237.925;    0.000
353.926; 2361.925;  233.925;    0.000
353.981; 2423.925;  250.925;    0.000
354.036; 2355.925;  239.925;    0.000
354.091; 2353.925;  289.925;    0.000
354.146; 2416.925;  282.925;    0.000
354.201; 2408.925;  244.925;    0.000
354.256; 2365.925;  257.925;    0.000
354.311; 2469.925;  305.925;    0.000
354.367; 2350.925;  220.925;    0.000
354.422; 2366.925;  261.925;    0.000
354.477; 2396.925;  212.925;    0.000
354.532; 2434.925;  254.925;    0.000
354.587; 2474.925;  252.925;    0.000
354.642; 2429.925;  210.925;    0.000
354.697; 2465.925;  232.925;    0.000
354.751; 2436.925;  254.925;    0.000
354.806; 2381.925;  233.925;    0.000
354.861; 2317.925;  244.925;    0.000
354.916; 2438.925;  235.925;    0.000
354.971; 2496.925;  258.925;    0.000
355.026; 2422.925;  251.925;    0.000
355.081; 2444.925;  254.925;    0.000
355.136; 2456.925;  212.925;    0.000
355.191; 2395.925;  211.925;    0.000
355.246; 2356.925;  237.925;    0.000
355.301; 2419.925;  255.925;    0.000
355.355; 2524.925;  231.925;    0.000
355.410; 2432.925;  224.925;    0.000
355.465; 2359.925;  235.925;    0.000
355.520; 2446.925;  244.925;    0.000
355.575; 2445.925;  267.925;    0.000
355.630; 2388.925;  255.925;    0.000
355.684; 2454.925;  254.925;    0.000
355.739; 2387.925;  217.925;    0.000
355.794; 2407.925;  206.925;    0.000
355.849; 2414.925;  221.925;    0.000
355.904; 2376.925;  257.925;    0.000
355.958; 2457.925;  221.925;    0.000
356.013; 2379.925;  192.925;    0.000
356.068; 2399.925;  267.925;    0.000
356.123; 2429.925;  218.925;    0.000
356.177; 2426.925;  236.925;    0.000
356.232; 2412.925;  236.925;    0.000
356.287; 2505.925;  246.925;    0.000
356.341; 2459.925;  241.925;    0.000
356.396; 2334.925;  219.925;    0.000
356.451; 2387.925;  244.925;    0.000
356.505; 2432.925;  248.925;    0.000
356.560; 2388.925;  267.925;    0.000
356.615; 2415.925;  258.925;    0.000
356.669; 2371.925;  291.925;    0.000
356.724; 2469.925;  272.925;    0.000
356.778; 2394.925;  244.925;    0.000
356.833; 2396.925;  223.925;    0.000
356.888; 2383.925;  245.925;    0.000
356.942; 2413.925;  221.925;    0.000
356.997; 2444.925;  254.925;    0.000
357.051; 2435.925;  244.925;    0.000
357.106; 2484.925;  227.925;    0.000
357.160; 2409.925;  176.925;    0.000
357.215; 2326.925;  234.925;    0.000
357.269; 2492.925;  233.925;    0.000
357.324; 2347.925;  232.925;    0.000
357.378; 2490.925;  211.925;    0.000
357.433; 2388.925;  252.925;    0.000
357.487; 2467.925;  227.925;    0.000
357.542; 2390.925;  246.925;    0.000
357.596; 2437.925;  260.925;    0.000
357.651; 2433.925;  301.925;    0.000
357.705; 2388.925;  230.925;    0.000
357.760; 2393.925;  211.925;    0.000
357.814; 2491.925;  265.925;    0.000
357.868; 2484.925;  220.925;    0.000
357.923; 2378.925;  220.925;    0.000
357.977; 2470.925;  245.925;    0.000
358.032; 2424.925;  247.925;    0.000
358.086; 2513.925;  242.925;    0.000
358.140; 2432.925;  270.925;    0.000
358.195; 2443.925;  242.925;    0.000
358.249; 2347.925;  238.925;    0.000
358.303; 2374.925;  285.925;    0.000
358.358; 2474.925;  265.925;    0.000
358.412; 2394.925;  265.925;    0.000
358.466; 2403.925;  257.925;    0.000
358.521; 2409.925;  251.925;    0.000
358.575; 2371.925;  254.925;    0.000
358.629; 2379.925;  278.925;    0.000
358.683; 2411.925;  288.925;    0.000
358.738; 2439.925;  302.925;    0.000
358.792; 2298.925;  239.925;    0.000
358.846; 2333.925;  293.925;    0.000
358.900; 2405.925;  271.925;    0.000
358.954; 2315.925;  300.925;    0.000
359.009; 2425.925;  279.925;    0.000
359.063; 2483.925;  249.925;    0.000
359.117; 2480.925;  264.925;    0.000
359.171; 2490.925;  279.925;    0.000
359.225; 2475.925;  276.925;    0.000
359.280; 2488.925;  237.925;    0.000
359.334; 2473.925;  280.925;    0.000
359.388; 2516.925;  282.925;    0.000
359.442; 2489.925;  243.925;    0.000
359.496; 2349.925;  204.925;    0.000
359.550; 2386.925;  308.925;    0.000
359.604; 2390.925;  264.925;    0.000
359.658; 2362.925;  247.925;    0.000
359.712; 2404.925;  273.925;    0.000
359.766; 2418.925;  212.925;    0.000
359.820; 2447.925;  228.925;    0.000
359.875; 2457.925;  248.925;    0.000
359.929; 2379.925;  271.925;    0.000
359.983; 2478.925;  274.925;    0.000
360.037; 2457.925;  262.925;    0.000
360.091; 2429.925;  302.925;    0.000
360.145; 2430.925;  244.925;    0.000
360.199; 2383.925;  253.925;    0.000
360.253; 2389.925;  285.925;    0.000
360.306; 2448.925;  287.925;    0.000
360.360; 2424.925;  267.925;    0.000
360.414; 2419.925;  250.925;    0.000
360.468; 2343.925;  270.925;    0.000
360.522; 2364.925;  276.925;    0.000
360.576; 2380.925;  269.925;    0.000
360.630; 2478.925;  281.925;    0.000
360.684; 2519.925;  291.925;    0.000
360.738; 2465.925;  325.925;    0.000
360.792; 2416.925;  320.925;    0.000
360.846; 2420.925;  276.925;    0.000
360.899; 2449.925;  314.925;    0.000
360.953; 2471.925;  275.925;    0.000
361.007; 2398.925;  292.925;    0.000
361.061; 2378.925;  278.925;    0.000
361.115; 2394.925;  264.925;    0.000
361.168; 2382.925;  317.925;    0.000
361.222; 2499.925;  277.925;    0.000
361.276; 2453.925;  274.925;    0.000
361.330; 2331.925;  269.925;    0.000
361.384; 2373.925;  280.925;    0.000
361.437; 2411.925;  304.925;    0.000
361.491; 2409.925;  256.925;    0.000
361.545; 2412.925;  293.925;    0.000
361.599; 2401.925;  284.925;    0.000
361.652; 2500.925;  274.925;    0.000
361.706; 2399.925;  284.925;    0.000
361.760; 2416.925;  260.925;    0.000
361.813; 2414.925;  272.925;    0.000
361.867; 2424.925;  300.925;    0.000
361.921; 2390.925;  275.925;    0.000
361.974; 2441.925;  258.925;    0.000
362.028; 2316.925;  248.925;    0.000
362.082; 2403.925;  252.925;    0.000
362.135; 2376.925;  240.925;    0.000
362.189; 2401.925;  259.925;    0.000
362.242; 2496.925;  267.925;    0.000
362.296; 2410.925;  280.925;    0.000
362.350; 2375.925;  282.925;    0.000
362.403; 2342.925;  288.925;    0.000
362.457; 2392.925;  253.925;    0.000
362.510; 2450.925;  323.925;    0.000
362.564; 2325.925;  286.925;    0.000
362.617; 2349.925;  317.925;    0.000
362.671; 2493.925;  286.925;    0.000
362.724; 2398.925;  274.925;    0.000
362.778; 2381.925;  295.925;    0.000
362.831; 2490.925;  289.925;    0.000
362.885; 2308.925;  318.925;    0.000
362.938; 2250.925;  271.925;    0.000
362.992;  337.925;  285.925;    0.000
363.045;  260.925;  291.925;    0.000
363.099;  257.925;  276.925;    0.000
363.152;  320.925;  309.925;    0.000
363.205;  295.925;  263.925;    0.000
363.259;  310.925;  288.925;    0.000
363.312;  274.925;  333.925;    0.000
363.366;  258.925;  328.925;    0.000
363.419;  304.925;  328.925;    0.000
363.472;  341.925;  295.925;    0.000
363.526;  285.925;  334.925;    0.000
363.579;  289.925;  312.925;    0.000
363.632;  281.925;  274.925;    0.000
363.686;  286.925;  282.925;    0.000
363.739;  256.925;  289.925;    0.000
363.792;  290.925;  287.925;    0.000

