
Integration time [ms]:   0.300
Averaging Nr. [scans]: 1
Smoothing Nr. [pixels]: 0
Data measured with spectrometer [name]: VIS
Wave   ;Sample   ;Dark     ;Reference
[nm]   ;[counts] ;[counts] ;[counts] 

450.961;  220.225;  204.350;    0.000
451.100;  242.225;  243.350;    0.000
451.239;  215.225;  228.350;    0.000
451.377;  254.225;  250.350;    0.000
451.516;  193.225;  189.350;    0.000
451.655;  225.225;  235.350;    0.000
451.794;  242.225;  223.350;    0.000
451.932;  242.225;  269.350;    0.000
452.071;  220.225;  250.350;    0.000
452.210;  231.225;  262.350;    0.000
452.348;  229.225;  259.350;    0.000
452.487;  248.225;  231.350;    0.000
452.626;  216.225;  220.350;    0.000
452.764;  267.225;  252.350;    0.000
452.903;  220.225;  236.350;    0.000
453.042;  269.225;  217.350;    0.000
453.180; 2431.225;  273.350;    0.000
453.319; 2389.225;  261.350;    0.000
453.458; 2480.225;  219.350;    0.000
453.596; 2405.225;  307.350;    0.000
453.735; 2577.225;  246.350;    0.000
453.873; 2566.225;  270.350;    0.000
454.012; 2485.225;  232.350;    0.000
454.150; 2589.225;  211.350;    0.000
454.289; 2615.225;  245.350;    0.000
454.427; 2619.225;  224.350;    0.000
454.566; 2654.225;  252.350;    0.000
454.704; 2611.225;  225.350;    0.000
454.843; 2605.225;  195.350;    0.000
454.981; 2682.225;  258.350;    0.000
455.120; 2684.225;  191.350;    0.000
455.258; 2812.225;  243.350;    0.000
455.397; 2782.225;  188.350;    0.000
455.535; 2817.225;  219.350;    0.000
455.674; 2826.225;  184.350;    0.000
455.812; 2859.225;  225.350;    0.000
455.951; 2797.225;  201.350;    0.000
456.089; 2924.225;  187.350;    0.000
456.227; 2961.225;  199.350;    0.000
456.366; 3040.225;  235.350;    0.000
456.504; 2924.225;  216.350;    0.000
456.642; 2971.225;  256.350;    0.000
456.781; 3029.225;  201.350;    0.000
456.919; 3071.225;  231.350;    0.000
457.057; 3033.225;  181.350;    0.000
457.196; 3161.225;  231.350;    0.000
457.334; 3120.225;  229.350;    0.000
457.472; 3111.225;  242.350;    0.000
457.610; 3282.225;  221.350;    0.000
457.749; 3333.225;  218.350;    0.000
457.887; 3267.225;  213.350;    0.000
458.025; 3381.225;  228.350;    0.000
458.163; 3378.225;  204.350;    0.000
458.301; 3532.225;  230.350;    0.000
458.440; 3493.225;  200.350;    0.000
458.578; 3568.225;  222.350;    0.000
458.716; 3563.225;  137.350;    0.000
458.854; 3616.225;  259.350;    0.000
458.992; 3721.225;  172.350;    0.000
459.130; 3707.225;  253.350;    0.000
459.269; 3731.225;  212.350;    0.000
459.407; 3732.225;  212.350;    0.000
459.545; 3765.225;  225.350;    0.000
459.683; 3739.225;  225.350;    0.000
459.821; 3948.225;  192.350;    0.000
459.959; 3854.225;  205.350;    0.000
460.097; 3911.225;  199.350;    0.000
460.235; 3849.225;  232.350;    0.000
460.373; 3934.225;  248.350;    0.000
460.511; 3971.225;  225.350;    0.000
460.649; 4046.225;  204.350;    0.000
460.787; 4068.225;  221.350;    0.000
460.925; 4029.225;  181.350;    0.000
461.063; 4034.225;  243.350;    0.000
461.201; 4066.225;  212.350;    0.000
461.339; 4122.225;  229.350;    0.000
461.477; 4097.225;  162.350;    0.000
461.615; 4163.225;  232.350;    0.000
461.753; 4194.225;  193.350;    0.000
461.891; 4208.225;  217.350;    0.000
462.029; 4372.225;  224.350;    0.000
462.166; 4321.225;  222.350;    0.000
462.304; 4430.225;  185.350;    0.000
462.442; 4424.225;  246.350;    0.000
462.580; 4515.225;  246.350;    0.000
462.718; 4401.225;  235.350;    0.000
462.856; 4413.225;  230.350;    0.000
462.993; 4454.225;  266.350;    0.000
463.131; 4437.225;  208.350;    0.000
463.269; 4396.225;  218.350;    0.000
463.407; 4321.225;  215.350;    0.000
463.545; 4345.225;  200.350;    0.000
463.682; 4494.225;  206.350;    0.000
463.820; 4547.225;  211.350;    0.000
463.958; 4723.225;  206.350;    0.000
464.095; 4765.225;  193.350;    0.000
464.233; 4839.225;  203.350;    0.000
464.371; 4718.225;  258.350;    0.000
464.509; 4802.225;  219.350;    0.000
464.646; 4764.225;  210.350;    0.000
464.784; 4757.225;  206.350;    0.000
464.921; 4732.225;  233.350;    0.000
465.059; 4586.225;  186.350;    0.000
465.197; 4630.225;  213.350;    0.000
465.334; 4507.225;  202.350;    0.000
465.472; 4569.225;  236.350;    0.000
465.609; 4495.225;  206.350;    0.000
465.747; 4518.225;  208.350;    0.000
465.885; 4508.225;  198.350;    0.000
466.022; 4344.225;  210.350;    0.000
466.160; 4449.225;  245.350;    0.000
466.297; 4444.225;  226.350;    0.000
466.435; 4358.225;  235.350;    0.000
466.572; 4437.225;  226.350;    0.000
466.710; 4499.225;  266.350;    0.000
466.847; 4507.225;  258.350;    0.000
466.985; 4355.225;  228.350;    0.000
467.122; 4362.225;  201.350;    0.000
467.260; 4397.225;  170.350;    0.000
467.397; 4428.225;  174.350;    0.000
467.534; 4358.225;  244.350;    0.000
467.672; 4386.225;  247.350;    0.000
467.809; 4338.225;  182.350;    0.000
467.947; 4359.225;  208.350;    0.000
468.084; 4423.225;  206.350;    0.000
468.221; 4338.225;  249.350;    0.000
468.359; 4270.225;  253.350;    0.000
468.496; 4330.225;  208.350;    0.000
468.633; 4332.225;  189.350;    0.000
468.771; 4312.225;  216.350;    0.000
468.908; 4276.225;  240.350;    0.000
469.045; 4426.225;  234.350;    0.000
469.183; 4374.225;  203.350;    0.000
469.320; 4337.225;  230.350;    0.000
469.457; 4467.225;  219.350;    0.000
469.594; 4477.225;  233.350;    0.000
469.732; 4482.225;  230.350;    0.000
469.869; 4504.225;  239.350;    0.000
470.006; 4523.225;  224.350;    0.000
470.143; 4600.225;  241.350;    0.000
470.280; 4467.225;  234.350;    0.000
470.417; 4486.225;  236.350;    0.000
470.555; 4653.225;  207.350;    0.000
470.692; 4630.225;  251.350;    0.000
470.829; 4683.225;  238.350;    0.000
470.966; 4424.225;  242.350;    0.000
471.103; 4640.225;  215.350;    0.000
471.240; 4525.225;  237.350;    0.000
471.377; 4560.225;  235.350;    0.000
471.514; 4620.225;  256.350;    0.000
471.651; 4571.225;  198.350;    0.000
471.789; 4567.225;  215.350;    0.000
471.926; 4407.225;  210.350;    0.000
472.063; 4555.225;  237.350;    0.000
472.200; 4527.225;  265.350;    0.000
472.337; 4508.225;  240.350;    0.000
472.474; 4500.225;  195.350;    0.000
472.611; 4414.225;  228.350;    0.000
472.748; 4430.225;  234.350;    0.000
472.884; 4570.225;  230.350;    0.000
473.021; 4411.225;  219.350;    0.000
473.158; 4415.225;  253.350;    0.000
473.295; 4378.225;  207.350;    0.000
473.432; 4452.225;  238.350;    0.000
473.569; 4564.225;  236.350;    0.000
473.706; 4520.225;  203.350;    0.000
473.843; 4464.225;  232.350;    0.000
473.980; 4500.225;  207.350;    0.000
474.117; 4439.225;  182.350;    0.000
474.253; 4447.225;  261.350;    0.000
474.390; 4597.225;  211.350;    0.000
474.527; 4397.225;  229.350;    0.000
474.664; 4515.225;  181.350;    0.000
474.801; 4614.225;  250.350;    0.000
474.937; 4482.225;  196.350;    0.000
475.074; 4457.225;  213.350;    0.000
475.211; 4593.225;  232.350;    0.000
475.348; 4618.225;  228.350;    0.000
475.484; 4558.225;  240.350;    0.000
475.621; 4652.225;  235.350;    0.000
475.758; 4575.225;  232.350;    0.000
475.894; 4587.225;  227.350;    0.000
476.031; 4504.225;  233.350;    0.000
476.168; 4512.225;  205.350;    0.000
476.304; 4545.225;  263.350;    0.000
476.441; 4570.225;  255.350;    0.000
476.578; 4534.225;  191.350;    0.000
476.714; 4603.225;  218.350;    0.000
476.851; 4573.225;  224.350;    0.000
476.987; 4717.225;  225.350;    0.000
477.124; 4638.225;  231.350;    0.000
477.261; 4678.225;  291.350;    0.000
477.397; 4752.225;  218.350;    0.000
477.534; 4575.225;  209.350;    0.000
477.670; 4641.225;  210.350;    0.000
477.807; 4702.225;  199.350;    0.000
477.943; 4734.225;  219.350;    0.000
478.080; 4919.225;  234.350;    0.000
478.216; 4746.225;  196.350;    0.000
478.353; 4857.225;  234.350;    0.000
478.489; 4794.225;  219.350;    0.000
478.626; 4888.225;  209.350;    0.000
478.762; 4788.225;  206.350;    0.000
478.898; 4820.225;  209.350;    0.000
479.035; 4977.225;  232.350;    0.000
479.171; 4822.225;  219.350;    0.000
479.308; 4919.225;  226.350;    0.000
479.444; 4871.225;  184.350;    0.000
479.580; 4911.225;  192.350;    0.000
479.717; 4943.225;  247.350;    0.000
479.853; 4922.225;  181.350;    0.000
479.989; 4878.225;  212.350;    0.000
480.126; 4988.225;  187.350;    0.000
480.262; 5006.225;  217.350;    0.000
480.398; 4932.225;  249.350;    0.000
480.535; 5020.225;  196.350;    0.000
480.671; 5018.225;  199.350;    0.000
480.807; 5023.225;  231.350;    0.000
480.943; 4936.225;  192.350;    0.000
481.080; 4907.225;  206.350;    0.000
481.216; 4933.225;  189.350;    0.000
481.352; 5078.225;  215.350;    0.000
481.488; 4968.225;  223.350;    0.000
481.624; 5039.225;  235.350;    0.000
481.760; 4944.225;  218.350;    0.000
481.897; 4855.225;  204.350;    0.000
482.033; 4904.225;  243.350;    0.000
482.169; 4983.225;  239.350;    0.000
482.305; 4894.225;  221.350;    0.000
482.441; 4919.225;  162.350;    0.000
482.577; 4960.225;  241.350;    0.000
482.713; 4981.225;  223.350;    0.000
482.849; 4956.225;  195.350;    0.000
482.985; 4896.225;  230.350;    0.000
483.121; 4974.225;  230.350;    0.000
483.258; 4945.225;  254.350;    0.000
483.394; 4855.225;  199.350;    0.000
483.530; 4953.225;  209.350;    0.000
483.665; 5029.225;  196.350;    0.000
483.801; 4894.225;  208.350;    0.000
483.937; 5021.225;  202.350;    0.000
484.073; 5060.225;  247.350;    0.000
484.209; 4863.225;  188.350;    0.000
484.345; 4979.225;  241.350;    0.000
484.481; 5042.225;  247.350;    0.000
484.617; 4935.225;  248.350;    0.000
484.753; 5003.225;  255.350;    0.000
484.889; 4950.225;  253.350;    0.000
485.025; 4966.225;  226.350;    0.000
485.161; 4982.225;  207.350;    0.000
485.296; 5008.225;  247.350;    0.000
485.432; 5114.225;  255.350;    0.000
485.568; 5046.225;  216.350;    0.000
485.704; 5042.225;  232.350;    0.000
485.840; 4998.225;  231.350;    0.000
485.975; 5109.225;  233.350;    0.000
486.111; 5030.225;  207.350;    0.000
486.247; 5048.225;  211.350;    0.000
486.383; 5006.225;  219.350;    0.000
486.518; 5014.225;  213.350;    0.000
486.654; 5181.225;  216.350;    0.000
486.790; 5080.225;  253.350;    0.000
486.926; 5173.225;  229.350;    0.000
487.061; 5088.225;  241.350;    0.000
487.197; 5052.225;  218.350;    0.000
487.333; 5011.225;  221.350;    0.000
487.468; 5015.225;  206.350;    0.000
487.604; 5189.225;  254.350;    0.000
487.740; 5109.225;  240.350;    0.000
487.875; 5065.225;  260.350;    0.000
488.011; 5080.225;  232.350;    0.000
488.146; 5136.225;  206.350;    0.000
488.282; 5007.225;  236.350;    0.000
488.417; 5001.225;  255.350;    0.000
488.553; 5085.225;  221.350;    0.000
488.688; 5119.225;  233.350;    0.000
488.824; 5109.225;  246.350;    0.000
488.960; 5126.225;  267.350;    0.000
489.095; 5057.225;  217.350;    0.000
489.230; 5327.225;  226.350;    0.000
489.366; 5186.225;  232.350;    0.000
489.501; 5261.225;  220.350;    0.000
489.637; 5256.225;  245.350;    0.000
489.772; 5263.225;  228.350;    0.000
489.908; 5226.225;  250.350;    0.000
490.043; 5132.225;  239.350;    0.000
490.178; 5217.225;  213.350;    0.000
490.314; 5207.225;  270.350;    0.000
490.449; 5238.225;  245.350;    0.000
490.585; 5196.225;  218.350;    0.000
490.720; 5187.225;  243.350;    0.000
490.855; 5223.225;  196.350;    0.000
490.991; 5236.225;  208.350;    0.000
491.126; 5268.225;  268.350;    0.000
491.261; 5151.225;  226.350;    0.000
491.396; 5212.225;  201.350;    0.000
491.532; 5196.225;  213.350;    0.000
491.667; 5277.225;  183.350;    0.000
491.802; 5261.225;  239.350;    0.000
491.937; 5306.225;  228.350;    0.000
492.073; 5311.225;  258.350;    0.000
492.208; 5371.225;  218.350;    0.000
492.343; 5325.225;  205.350;    0.000
492.478; 5429.225;  247.350;    0.000
492.613; 5442.225;  217.350;    0.000
492.749; 5336.225;  258.350;    0.000
492.884; 5282.225;  208.350;    0.000
493.019; 5305.225;  248.350;    0.000
493.154; 5227.225;  231.350;    0.000
493.289; 5292.225;  226.350;    0.000
493.424; 5239.225;  216.350;    0.000
493.559; 5256.225;  205.350;    0.000
493.694; 5269.225;  203.350;    0.000
493.829; 5332.225;  231.350;    0.000
493.964; 5261.225;  200.350;    0.000
494.099; 5414.225;  253.350;    0.000
494.234; 5293.225;  244.350;    0.000
494.369; 5333.225;  239.350;    0.000
494.504; 5349.225;  223.350;    0.000
494.639; 5395.225;  263.350;    0.000
494.774; 5312.225;  240.350;    0.000
494.909; 5291.225;  231.350;    0.000
495.044; 5259.225;  195.350;    0.000
495.179; 5367.225;  231.350;    0.000
495.314; 5378.225;  231.350;    0.000
495.449; 5343.225;  239.350;    0.000
495.584; 5308.225;  201.350;    0.000
495.719; 5316.225;  201.350;    0.000
495.854; 5534.225;  201.350;    0.000
495.988; 5410.225;  239.350;    0.000
496.123; 5386.225;  199.350;    0.000
496.258; 5463.225;  256.350;    0.000
496.393; 5583.225;  214.350;    0.000
496.528; 5446.225;  220.350;    0.000
496.663; 5420.225;  207.350;    0.000
496.797; 5550.225;  241.350;    0.000
496.932; 5584.225;  215.350;    0.000
497.067; 5662.225;  240.350;    0.000
497.202; 5676.225;  177.350;    0.000
497.336; 5749.225;  221.350;    0.000
497.471; 5814.225;  228.350;    0.000
497.606; 5935.225;  213.350;    0.000
497.740; 6156.225;  217.350;    0.000
497.875; 6183.225;  182.350;    0.000
498.010; 6357.225;  230.350;    0.000
498.144; 6374.225;  217.350;    0.000
498.279; 6468.225;  194.350;    0.000
498.414; 6661.225;  270.350;    0.000
498.548; 6602.225;  184.350;    0.000
498.683; 6655.225;  188.350;    0.000
498.817; 6664.225;  216.350;    0.000
498.952; 6747.225;  208.350;    0.000
499.087; 7055.225;  236.350;    0.000
499.221; 7024.225;  219.350;    0.000
499.356; 7040.225;  263.350;    0.000
499.490; 7137.225;  221.350;    0.000
499.625; 7254.225;  233.350;    0.000
499.759; 7252.225;  245.350;    0.000
499.894; 7559.225;  241.350;    0.000
500.028; 7795.225;  237.350;    0.000
500.162; 7855.225;  282.350;    0.000
500.297; 7848.225;  232.350;    0.000
500.431; 7789.225;  266.350;    0.000
500.566; 7946.225;  254.350;    0.000
500.700; 7888.225;  238.350;    0.000
500.835; 7800.225;  264.350;    0.000
500.969; 7499.225;  165.350;    0.000
501.103; 7455.225;  190.350;    0.000
501.238; 7258.225;  274.350;    0.000
501.372; 7109.225;  270.350;    0.000
501.506; 6941.225;  231.350;    0.000
501.641; 6694.225;  224.350;    0.000
501.775; 6620.225;  224.350;    0.000
501.909; 6512.225;  218.350;    0.000
502.043; 6485.225;  238.350;    0.000
502.178; 6441.225;  289.350;    0.000
502.312; 6150.225;  225.350;    0.000
502.446; 6123.225;  295.350;    0.000
502.580; 6147.225;  200.350;    0.000
502.715; 6001.225;  256.350;    0.000
502.849; 5927.225;  226.350;    0.000
502.983; 6076.225;  250.350;    0.000
503.117; 5814.225;  229.350;    0.000
503.251; 5742.225;  267.350;    0.000
503.385; 5663.225;  237.350;    0.000
503.520; 5712.225;  210.350;    0.000
503.654; 5465.225;  204.350;    0.000
503.788; 5492.225;  236.350;    0.000
503.922; 5372.225;  225.350;    0.000
504.056; 5390.225;  222.350;    0.000
504.190; 5279.225;  220.350;    0.000
504.324; 5199.225;  257.350;    0.000
504.458; 5283.225;  223.350;    0.000
504.592; 5201.225;  252.350;    0.000
504.726; 5128.225;  216.350;    0.000
504.860; 5028.225;  231.350;    0.000
504.994; 5082.225;  228.350;    0.000
505.128; 5036.225;  239.350;    0.000
505.262; 4903.225;  245.350;    0.000
505.396; 4867.225;  231.350;    0.000
505.530; 4715.225;  211.350;    0.000
505.664; 4750.225;  223.350;    0.000
505.798; 4749.225;  239.350;    0.000
505.932; 4694.225;  232.350;    0.000
506.066; 4666.225;  263.350;    0.000
506.199; 4688.225;  231.350;    0.000
506.333; 4586.225;  213.350;    0.000
506.467; 4687.225;  241.350;    0.000
506.601; 4430.225;  233.350;    0.000
506.735; 4442.225;  235.350;    0.000
506.869; 4525.225;  269.350;    0.000
507.002; 4382.225;  244.350;    0.000
507.136; 4414.225;  258.350;    0.000
507.270; 4398.225;  218.350;    0.000
507.404; 4348.225;  191.350;    0.000
507.537; 4323.225;  226.350;    0.000
507.671; 4306.225;  243.350;    0.000
507.805; 4362.225;  234.350;    0.000
507.939; 4286.225;  234.350;    0.000
508.072; 4301.225;  261.350;    0.000
508.206; 4242.225;  220.350;    0.000
508.340; 4280.225;  241.350;    0.000
508.473; 4218.225;  214.350;    0.000
508.607; 4248.225;  232.350;    0.000
508.740; 4155.225;  222.350;    0.000
508.874; 4168.225;  225.350;    0.000
509.008; 4213.225;  258.350;    0.000
509.141; 4216.225;  210.350;    0.000
509.275; 4297.225;  199.350;    0.000
509.408; 4148.225;  260.350;    0.000
509.542; 4155.225;  252.350;    0.000
509.675; 4249.225;  276.350;    0.000
509.809; 4123.225;  266.350;    0.000
509.942; 4177.225;  227.350;    0.000
510.076; 4129.225;  243.350;    0.000
510.209; 3954.225;  221.350;    0.000
510.343; 4087.225;  229.350;    0.000
510.476; 3968.225;  246.350;    0.000
510.610; 4081.225;  211.350;    0.000
510.743; 3967.225;  279.350;    0.000
510.877; 4112.225;  274.350;    0.000
511.010; 3958.225;  252.350;    0.000
511.143; 4033.225;  228.350;    0.000
511.277; 3991.225;  261.350;    0.000
511.410; 4002.225;  217.350;    0.000
511.543; 3911.225;  230.350;    0.000
511.677; 3966.225;  245.350;    0.000
511.810; 3967.225;  237.350;    0.000
511.943; 3880.225;  224.350;    0.000
512.077; 3966.225;  194.350;    0.000
512.210; 3976.225;  212.350;    0.000
512.343; 3984.225;  236.350;    0.000
512.476; 4102.225;  248.350;    0.000
512.610; 3921.225;  249.350;    0.000
512.743; 3958.225;  224.350;    0.000
512.876; 3947.225;  277.350;    0.000
513.009; 4065.225;  261.350;    0.000
513.142; 3956.225;  213.350;    0.000
513.276; 3831.225;  192.350;    0.000
513.409; 3944.225;  267.350;    0.000
513.542; 4002.225;  224.350;    0.000
513.675; 3817.225;  244.350;    0.000
513.808; 3825.225;  218.350;    0.000
513.941; 3914.225;  237.350;    0.000
514.074; 3891.225;  257.350;    0.000
514.207; 3938.225;  245.350;    0.000
514.340; 3861.225;  195.350;    0.000
514.474; 3943.225;  244.350;    0.000
514.607; 3984.225;  230.350;    0.000
514.740; 3972.225;  246.350;    0.000
514.873; 4070.225;  268.350;    0.000
515.006; 4049.225;  253.350;    0.000
515.139; 4074.225;  235.350;    0.000
515.272; 4169.225;  214.350;    0.000
515.404; 4165.225;  228.350;    0.000
515.537; 4188.225;  263.350;    0.000
515.670; 4127.225;  270.350;    0.000
515.803; 4076.225;  243.350;    0.000
515.936; 4125.225;  226.350;    0.000
516.069; 4095.225;  227.350;    0.000
516.202; 4261.225;  259.350;    0.000
516.335; 4252.225;  260.350;    0.000
516.468; 4371.225;  243.350;    0.000
516.600; 4639.225;  258.350;    0.000
516.733; 5392.225;  235.350;    0.000
516.866; 5529.225;  267.350;    0.000
516.999; 5183.225;  251.350;    0.000
517.132; 6010.225;  261.350;    0.000
517.264; 7734.225;  260.350;    0.000
517.397; 7761.225;  231.350;    0.000
517.530; 6307.225;  257.350;    0.000
517.663; 5584.225;  263.350;    0.000
517.795; 5208.225;  250.350;    0.000
517.928; 5092.225;  257.350;    0.000
518.061; 5031.225;  227.350;    0.000
518.193; 6014.225;  252.350;    0.000
518.326; 8941.225;  227.350;    0.000
518.459; 9663.225;  210.350;    0.000
518.591; 7759.225;  214.350;    0.000
518.724; 6068.225;  269.350;    0.000
518.857; 5472.225;  215.350;    0.000
518.989; 5065.225;  259.350;    0.000
519.122; 4824.225;  238.350;    0.000
519.254; 4708.225;  248.350;    0.000
519.387; 4421.225;  246.350;    0.000
519.519; 4315.225;  239.350;    0.000
519.652; 4309.225;  249.350;    0.000
519.784; 4175.225;  238.350;    0.000
519.917; 4117.225;  231.350;    0.000
520.049; 4143.225;  244.350;    0.000
520.182; 4082.225;  205.350;    0.000
520.314; 4079.225;  262.350;    0.000
520.447; 3972.225;  234.350;    0.000
520.579; 3927.225;  273.350;    0.000
520.712; 3932.225;  215.350;    0.000
520.844; 3886.225;  258.350;    0.000
520.976; 3874.225;  242.350;    0.000
521.109; 3815.225;  232.350;    0.000
521.241; 3808.225;  236.350;    0.000
521.373; 3765.225;  227.350;    0.000
521.506; 3740.225;  212.350;    0.000
521.638; 3880.225;  292.350;    0.000
521.770; 3758.225;  259.350;    0.000
521.903; 3719.225;  263.350;    0.000
522.035; 3709.225;  269.350;    0.000
522.167; 3653.225;  289.350;    0.000
522.300; 3697.225;  255.350;    0.000
522.432; 3622.225;  247.350;    0.000
522.564; 3608.225;  239.350;    0.000
522.696; 3555.225;  246.350;    0.000
522.828; 3499.225;  230.350;    0.000
522.961; 3551.225;  239.350;    0.000
523.093; 3456.225;  269.350;    0.000
523.225; 3539.225;  251.350;    0.000
523.357; 3502.225;  244.350;    0.000
523.489; 3500.225;  266.350;    0.000
523.621; 3510.225;  267.350;    0.000
523.753; 3487.225;  234.350;    0.000
523.885; 3364.225;  229.350;    0.000
524.018; 3386.225;  221.350;    0.000
524.150; 3475.225;  264.350;    0.000
524.282; 3378.225;  283.350;    0.000
524.414; 3418.225;  258.350;    0.000
524.546; 3369.225;  286.350;    0.000
524.678; 3326.225;  274.350;    0.000
524.810; 3314.225;  253.350;    0.000
524.942; 3216.225;  183.350;    0.000
525.074; 3294.225;  232.350;    0.000
525.206; 3283.225;  250.350;    0.000
525.338; 3374.225;  228.350;    0.000
525.469; 3232.225;  224.350;    0.000
525.601; 3227.225;  247.350;    0.000
525.733; 3196.225;  199.350;    0.000
525.865; 3210.225;  230.350;    0.000
525.997; 3302.225;  209.350;    0.000
526.129; 3257.225;  211.350;    0.000
526.261; 3304.225;  233.350;    0.000
526.393; 3209.225;  261.350;    0.000
526.524; 3172.225;  206.350;    0.000
526.656; 3172.225;  260.350;    0.000
526.788; 3341.225;  293.350;    0.000
526.920; 3133.225;  208.350;    0.000
527.052; 3193.225;  204.350;    0.000
527.183; 3099.225;  244.350;    0.000
527.315; 3137.225;  237.350;    0.000
527.447; 3111.225;  236.350;    0.000
527.578; 3349.225;  235.350;    0.000
527.710; 3157.225;  253.350;    0.000
527.842; 3156.225;  231.350;    0.000
527.973; 3185.225;  224.350;    0.000
528.105; 3232.225;  237.350;    0.000
528.237; 3175.225;  213.350;    0.000
528.368; 3207.225;  194.350;    0.000
528.500; 3137.225;  195.350;    0.000
528.632; 3203.225;  201.350;    0.000
528.763; 3231.225;  196.350;    0.000
528.895; 3156.225;  204.350;    0.000
529.026; 3172.225;  214.350;    0.000
529.158; 3207.225;  197.350;    0.000
529.289; 3262.225;  230.350;    0.000
529.421; 3204.225;  247.350;    0.000
529.552; 3185.225;  255.350;    0.000
529.684; 3249.225;  270.350;    0.000
529.815; 3264.225;  248.350;    0.000
529.947; 3180.225;  234.350;    0.000
530.078; 3175.225;  223.350;    0.000
530.210; 3045.225;  243.350;    0.000
530.341; 3219.225;  222.350;    0.000
530.472; 3043.225;  217.350;    0.000
530.604; 3173.225;  242.350;    0.000
530.735; 3202.225;  249.350;    0.000
530.867; 3153.225;  257.350;    0.000
530.998; 3216.225;  250.350;    0.000
531.129; 3218.225;  244.350;    0.000
531.260; 3207.225;  276.350;    0.000
531.392; 3128.225;  220.350;    0.000
531.523; 3249.225;  262.350;    0.000
531.654; 3293.225;  264.350;    0.000
531.786; 3280.225;  225.350;    0.000
531.917; 3226.225;  285.350;    0.000
532.048; 3237.225;  239.350;    0.000
532.179; 3179.225;  248.350;    0.000
532.311; 3285.225;  219.350;    0.000
532.442; 3267.225;  264.350;    0.000
532.573; 3270.225;  230.350;    0.000
532.704; 3201.225;  253.350;    0.000
532.835; 3236.225;  239.350;    0.000
532.966; 3131.225;  247.350;    0.000
533.097; 3200.225;  225.350;    0.000
533.229; 3138.225;  282.350;    0.000
533.360; 3221.225;  236.350;    0.000
533.491; 3197.225;  247.350;    0.000
533.622; 3100.225;  265.350;    0.000
533.753; 3207.225;  226.350;    0.000
533.884; 3128.225;  294.350;    0.000
534.015; 3137.225;  215.350;    0.000
534.146; 3207.225;  223.350;    0.000
534.277; 3229.225;  264.350;    0.000
534.408; 3194.225;  232.350;    0.000
534.539; 3303.225;  274.350;    0.000
534.670; 3225.225;  275.350;    0.000
534.801; 3158.225;  261.350;    0.000
534.932; 3141.225;  225.350;    0.000
535.063; 3042.225;  235.350;    0.000
535.194; 3274.225;  300.350;    0.000
535.324; 3139.225;  249.350;    0.000
535.455; 3104.225;  260.350;    0.000
535.586; 3169.225;  288.350;    0.000
535.717; 3062.225;  237.350;    0.000
535.848; 3116.225;  271.350;    0.000
535.979; 3112.225;  234.350;    0.000
536.109; 3147.225;  255.350;    0.000
536.240; 3139.225;  269.350;    0.000
536.371; 3076.225;  232.350;    0.000
536.502; 3031.225;  253.350;    0.000
536.632; 3111.225;  240.350;    0.000
536.763; 3132.225;  251.350;    0.000
536.894; 3108.225;  256.350;    0.000
537.025; 3073.225;  247.350;    0.000
537.155; 3116.225;  272.350;    0.000
537.286; 2982.225;  241.350;    0.000
537.417; 2997.225;  279.350;    0.000
537.547; 3025.225;  229.350;    0.000
537.678; 3105.225;  227.350;    0.000
537.808; 3107.225;  225.350;    0.000
537.939; 3074.225;  250.350;    0.000
538.070; 3037.225;  263.350;    0.000
538.200; 3019.225;  270.350;    0.000
538.331; 3083.225;  249.350;    0.000
538.461; 3030.225;  230.350;    0.000
538.592; 2996.225;  282.350;    0.000
538.722; 3009.225;  253.350;    0.000
538.853; 3040.225;  240.350;    0.000
538.983; 2972.225;  232.350;    0.000
539.114; 3062.225;  248.350;    0.000
539.244; 3021.225;  256.350;    0.000
539.375; 3105.225;  248.350;    0.000
539.505; 3005.225;  235.350;    0.000
539.636; 3061.225;  237.350;    0.000
539.766; 3042.225;  263.350;    0.000
539.896; 2995.225;  217.350;    0.000
540.027; 3065.225;  217.350;    0.000
540.157; 3083.225;  231.350;    0.000
540.287; 3017.225;  210.350;    0.000
540.418; 3132.225;  239.350;    0.000
540.548; 3054.225;  260.350;    0.000
540.678; 3051.225;  228.350;    0.000
540.809; 3074.225;  241.350;    0.000
540.939; 3105.225;  238.350;    0.000
541.069; 3165.225;  245.350;    0.000
541.200; 3072.225;  225.350;    0.000
541.330; 3070.225;  219.350;    0.000
541.460; 3062.225;  254.350;    0.000
541.590; 3051.225;  234.350;    0.000
541.720; 3167.225;  196.350;    0.000
541.851; 3141.225;  200.350;    0.000
541.981; 3098.225;  235.350;    0.000
542.111; 3144.225;  246.350;    0.000
542.241; 3188.225;  214.350;    0.000
542.371; 3174.225;  221.350;    0.000
542.501; 3221.225;  259.350;    0.000
542.631; 3382.225;  213.350;    0.000
542.761; 3259.225;  240.350;    0.000
542.891; 3301.225;  242.350;    0.000
543.021; 3264.225;  230.350;    0.000
543.151; 3367.225;  261.350;    0.000
543.281; 3380.225;  212.350;    0.000
543.411; 3292.225;  229.350;    0.000
543.542; 3135.225;  204.350;    0.000
543.671; 3195.225;  260.350;    0.000
543.801; 3166.225;  236.350;    0.000
543.931; 3275.225;  243.350;    0.000
544.061; 3195.225;  262.350;    0.000
544.191; 3178.225;  223.350;    0.000
544.321; 3310.225;  217.350;    0.000
544.451; 3254.225;  209.350;    0.000
544.581; 3276.225;  213.350;    0.000
544.711; 3286.225;  256.350;    0.000
544.841; 3280.225;  235.350;    0.000
544.970; 3390.225;  260.350;    0.000
545.100; 3284.225;  236.350;    0.000
545.230; 3401.225;  220.350;    0.000
545.360; 3432.225;  219.350;    0.000
545.490; 3283.225;  217.350;    0.000
545.619; 3264.225;  199.350;    0.000
545.749; 3261.225;  183.350;    0.000
545.879; 3291.225;  169.350;    0.000
546.009; 3269.225;  215.350;    0.000
546.138; 3296.225;  228.350;    0.000
546.268; 3201.225;  209.350;    0.000
546.398; 3197.225;  167.350;    0.000
546.527; 3138.225;  178.350;    0.000
546.657; 3171.225;  175.350;    0.000
546.786; 3201.225;  225.350;    0.000
546.916; 3189.225;  196.350;    0.000
547.046; 3193.225;  185.350;    0.000
547.175; 3232.225;  184.350;    0.000
547.305; 3248.225;  197.350;    0.000
547.434; 3243.225;  168.350;    0.000
547.564; 3121.225;  183.350;    0.000
547.693; 3171.225;  204.350;    0.000
547.823; 3187.225;  211.350;    0.000
547.953; 3211.225;  174.350;    0.000
548.082; 3120.225;  217.350;    0.000
548.211; 3159.225;  201.350;    0.000
548.341; 3154.225;  195.350;    0.000
548.470; 3140.225;  225.350;    0.000
548.600; 3252.225;  194.350;    0.000
548.729; 3109.225;  218.350;    0.000
548.859; 3104.225;  202.350;    0.000
548.988; 3176.225;  193.350;    0.000
549.117; 3131.225;  182.350;    0.000
549.247; 3289.225;  198.350;    0.000
549.376; 3263.225;  200.350;    0.000
549.505; 3163.225;  200.350;    0.000
549.635; 3277.225;  224.350;    0.000
549.764; 3166.225;  200.350;    0.000
549.893; 3207.225;  224.350;    0.000
550.023; 3212.225;  207.350;    0.000
550.152; 3240.225;  167.350;    0.000
550.281; 3203.225;  219.350;    0.000
550.410; 3244.225;  217.350;    0.000
550.539; 3262.225;  211.350;    0.000
550.669; 3273.225;  173.350;    0.000
550.798; 3303.225;  211.350;    0.000
550.927; 3314.225;  195.350;    0.000
551.056; 3149.225;  176.350;    0.000
551.185; 3312.225;  203.350;    0.000
551.314; 3189.225;  178.350;    0.000
551.443; 3354.225;  185.350;    0.000
551.573; 3290.225;  167.350;    0.000
551.702; 3161.225;  193.350;    0.000
551.831; 3253.225;  245.350;    0.000
551.960; 3375.225;  190.350;    0.000
552.089; 3244.225;  202.350;    0.000
552.218; 3346.225;  211.350;    0.000
552.347; 3253.225;  184.350;    0.000
552.476; 3317.225;  200.350;    0.000
552.605; 3340.225;  174.350;    0.000
552.734; 3397.225;  206.350;    0.000
552.863; 3364.225;  189.350;    0.000
552.992; 3451.225;  209.350;    0.000
553.121; 3505.225;  201.350;    0.000
553.249; 3457.225;  208.350;    0.000
553.378; 3371.225;  142.350;    0.000
553.507; 3403.225;  208.350;    0.000
553.636; 3314.225;  192.350;    0.000
553.765; 3377.225;  182.350;    0.000
553.894; 3265.225;  183.350;    0.000
554.023; 3282.225;  182.350;    0.000
554.151; 3310.225;  211.350;    0.000
554.280; 3270.225;  179.350;    0.000
554.409; 3375.225;  182.350;    0.000
554.538; 3277.225;  209.350;    0.000
554.666; 3278.225;  182.350;    0.000
554.795; 3344.225;  179.350;    0.000
554.924; 3248.225;  217.350;    0.000
555.052; 3370.225;  220.350;    0.000
555.181; 3303.225;  228.350;    0.000
555.310; 3224.225;  212.350;    0.000
555.439; 3195.225;  199.350;    0.000
555.567; 3325.225;  220.350;    0.000
555.696; 3164.225;  187.350;    0.000
555.824; 3222.225;  189.350;    0.000
555.953; 3385.225;  217.350;    0.000
556.082; 3196.225;  187.350;    0.000
556.210; 3321.225;  245.350;    0.000
556.339; 3139.225;  195.350;    0.000
556.467; 3270.225;  218.350;    0.000
556.596; 3255.225;  198.350;    0.000
556.724; 3223.225;  201.350;    0.000
556.853; 3277.225;  196.350;    0.000
556.981; 3202.225;  175.350;    0.000
557.110; 3182.225;  210.350;    0.000
557.238; 3188.225;  190.350;    0.000
557.367; 3202.225;  192.350;    0.000
557.495; 3185.225;  219.350;    0.000
557.623; 3210.225;  203.350;    0.000
557.752; 3264.225;  166.350;    0.000
557.880; 3293.225;  172.350;    0.000
558.008; 3302.225;  221.350;    0.000
558.137; 3249.225;  211.350;    0.000
558.265; 3284.225;  157.350;    0.000
558.393; 3215.225;  198.350;    0.000
558.522; 3141.225;  209.350;    0.000
558.650; 3216.225;  260.350;    0.000
558.778; 3185.225;  203.350;    0.000
558.906; 3261.225;  210.350;    0.000
559.035; 3234.225;  194.350;    0.000
559.163; 3243.225;  192.350;    0.000
559.291; 3235.225;  215.350;    0.000
559.419; 3235.225;  197.350;    0.000
559.548; 3169.225;  160.350;    0.000
559.676; 3202.225;  200.350;    0.000
559.804; 3312.225;  223.350;    0.000
559.932; 3328.225;  213.350;    0.000
560.060; 3420.225;  224.350;    0.000
560.188; 3313.225;  221.350;    0.000
560.316; 3330.225;  223.350;    0.000
560.444; 3307.225;  159.350;    0.000
560.572; 3423.225;  204.350;    0.000
560.700; 3417.225;  213.350;    0.000
560.828; 3473.225;  216.350;    0.000
560.956; 3440.225;  207.350;    0.000
561.085; 3540.225;  231.350;    0.000
561.212; 3456.225;  197.350;    0.000
561.340; 3489.225;  192.350;    0.000
561.468; 3469.225;  215.350;    0.000
561.596; 3423.225;  215.350;    0.000
561.724; 3429.225;  181.350;    0.000
561.852; 3427.225;  184.350;    0.000
561.980; 3387.225;  217.350;    0.000
562.108; 3511.225;  199.350;    0.000
562.236; 3568.225;  181.350;    0.000
562.364; 3539.225;  234.350;    0.000
562.492; 3492.225;  225.350;    0.000
562.619; 3650.225;  204.350;    0.000
562.747; 3588.225;  223.350;    0.000
562.875; 3543.225;  210.350;    0.000
563.003; 3644.225;  232.350;    0.000
563.130; 3579.225;  224.350;    0.000
563.258; 3682.225;  213.350;    0.000
563.386; 3651.225;  191.350;    0.000
563.514; 3794.225;  252.350;    0.000
563.641; 3859.225;  201.350;    0.000
563.769; 3922.225;  201.350;    0.000
563.897; 3892.225;  176.350;    0.000
564.024; 3924.225;  167.350;    0.000
564.152; 3960.225;  205.350;    0.000
564.280; 3952.225;  222.350;    0.000
564.407; 4050.225;  192.350;    0.000
564.535; 3969.225;  231.350;    0.000
564.662; 3991.225;  197.350;    0.000
564.790; 4017.225;  200.350;    0.000
564.917; 4063.225;  172.350;    0.000
565.045; 4126.225;  187.350;    0.000
565.173; 4073.225;  173.350;    0.000
565.300; 4126.225;  196.350;    0.000
565.428; 4247.225;  195.350;    0.000
565.555; 4374.225;  191.350;    0.000
565.682; 4234.225;  169.350;    0.000
565.810; 4423.225;  198.350;    0.000
565.937; 4446.225;  213.350;    0.000
566.065; 4480.225;  221.350;    0.000
566.192; 4578.225;  173.350;    0.000
566.320; 4696.225;  214.350;    0.000
566.447; 4764.225;  214.350;    0.000
566.574; 4684.225;  188.350;    0.000
566.702; 4879.225;  198.350;    0.000
566.829; 4906.225;  200.350;    0.000
566.956; 4919.225;  194.350;    0.000
567.083; 4921.225;  176.350;    0.000
567.211; 4907.225;  189.350;    0.000
567.338; 5060.225;  184.350;    0.000
567.465; 5046.225;  181.350;    0.000
567.593; 5122.225;  194.350;    0.000
567.720; 5099.225;  193.350;    0.000
567.847; 5012.225;  196.350;    0.000
567.974; 5065.225;  199.350;    0.000
568.101; 5360.225;  150.350;    0.000
568.228; 6104.225;  174.350;    0.000
568.356; 6418.225;  164.350;    0.000
568.483; 6381.225;  163.350;    0.000
568.610; 6249.225;  187.350;    0.000
568.737; 7149.225;  192.350;    0.000
568.864; 8039.225;  218.350;    0.000
568.991; 7536.225;  169.350;    0.000
569.118; 6951.225;  161.350;    0.000
569.245; 6265.225;  161.350;    0.000
569.372; 5919.225;  187.350;    0.000
569.499; 5630.225;  146.350;    0.000
569.626; 5351.225;  172.350;    0.000
569.753; 5206.225;  188.350;    0.000
569.880; 5043.225;  180.350;    0.000
570.007; 4948.225;  187.350;    0.000
570.134; 4830.225;  196.350;    0.000
570.261; 4782.225;  127.350;    0.000
570.388; 4708.225;  189.350;    0.000
570.515; 4494.225;  219.350;    0.000
570.642; 4607.225;  187.350;    0.000
570.768; 4486.225;  175.350;    0.000
570.895; 4386.225;  165.350;    0.000
571.022; 4345.225;  180.350;    0.000
571.149; 4310.225;  209.350;    0.000
571.276; 4268.225;  187.350;    0.000
571.402; 4212.225;  227.350;    0.000
571.529; 4134.225;  166.350;    0.000
571.656; 4095.225;  203.350;    0.000
571.783; 4200.225;  156.350;    0.000
571.909; 4023.225;  195.350;    0.000
572.036; 4087.225;  165.350;    0.000
572.163; 3978.225;  156.350;    0.000
572.289; 3992.225;  193.350;    0.000
572.416; 3995.225;  199.350;    0.000
572.543; 3948.225;  185.350;    0.000
572.669; 3820.225;  180.350;    0.000
572.796; 3918.225;  173.350;    0.000
572.922; 3801.225;  186.350;    0.000
573.049; 3764.225;  185.350;    0.000
573.176; 3845.225;  196.350;    0.000
573.302; 3817.225;  189.350;    0.000
573.429; 3768.225;  186.350;    0.000
573.555; 3767.225;  220.350;    0.000
573.682; 3773.225;  196.350;    0.000
573.808; 3711.225;  201.350;    0.000
573.935; 3737.225;  188.350;    0.000
574.061; 3607.225;  216.350;    0.000
574.188; 3736.225;  161.350;    0.000
574.314; 3637.225;  189.350;    0.000
574.440; 3754.225;  190.350;    0.000
574.567; 3661.225;  201.350;    0.000
574.693; 3696.225;  175.350;    0.000
574.820; 3765.225;  188.350;    0.000
574.946; 3683.225;  182.350;    0.000
575.072; 3782.225;  188.350;    0.000
575.198; 3741.225;  232.350;    0.000
575.325; 3691.225;  159.350;    0.000
575.451; 3657.225;  231.350;    0.000
575.577; 3660.225;  196.350;    0.000
575.704; 3628.225;  177.350;    0.000
575.830; 3693.225;  171.350;    0.000
575.956; 3718.225;  163.350;    0.000
576.082; 3721.225;  197.350;    0.000
576.208; 3677.225;  181.350;    0.000
576.335; 3655.225;  218.350;    0.000
576.461; 3721.225;  207.350;    0.000
576.587; 3722.225;  173.350;    0.000
576.713; 3631.225;  170.350;    0.000
576.839; 3683.225;  186.350;    0.000
576.965; 3766.225;  194.350;    0.000
577.091; 3589.225;  167.350;    0.000
577.217; 3744.225;  212.350;    0.000
577.343; 3604.225;  214.350;    0.000
577.469; 3768.225;  208.350;    0.000
577.596; 3630.225;  188.350;    0.000
577.722; 3627.225;  221.350;    0.000
577.848; 3691.225;  197.350;    0.000
577.974; 3669.225;  222.350;    0.000
578.099; 3621.225;  187.350;    0.000
578.225; 3722.225;  213.350;    0.000
578.351; 3728.225;  190.350;    0.000
578.477; 3782.225;  212.350;    0.000
578.603; 3585.225;  178.350;    0.000
578.729; 3703.225;  193.350;    0.000
578.855; 3624.225;  194.350;    0.000
578.981; 3809.225;  152.350;    0.000
579.107; 3764.225;  175.350;    0.000
579.232; 3829.225;  192.350;    0.000
579.358; 3654.225;  186.350;    0.000
579.484; 3877.225;  186.350;    0.000
579.610; 3791.225;  199.350;    0.000
579.735; 3869.225;  197.350;    0.000
579.861; 3887.225;  203.350;    0.000
579.987; 3862.225;  220.350;    0.000
580.113; 3847.225;  210.350;    0.000
580.238; 3840.225;  189.350;    0.000
580.364; 3899.225;  214.350;    0.000
580.490; 3946.225;  205.350;    0.000
580.615; 3870.225;  231.350;    0.000
580.741; 3994.225;  212.350;    0.000
580.867; 3971.225;  196.350;    0.000
580.992; 4004.225;  214.350;    0.000
581.118; 4020.225;  178.350;    0.000
581.243; 3966.225;  209.350;    0.000
581.369; 4042.225;  173.350;    0.000
581.494; 4018.225;  209.350;    0.000
581.620; 4051.225;  204.350;    0.000
581.745; 4073.225;  168.350;    0.000
581.871; 4114.225;  236.350;    0.000
581.996; 4168.225;  212.350;    0.000
582.122; 4294.225;  192.350;    0.000
582.247; 4220.225;  179.350;    0.000
582.373; 4215.225;  189.350;    0.000
582.498; 4314.225;  217.350;    0.000
582.624; 4331.225;  231.350;    0.000
582.749; 4444.225;  237.350;    0.000
582.874; 4463.225;  205.350;    0.000
583.000; 4538.225;  204.350;    0.000
583.125; 4448.225;  192.350;    0.000
583.250; 4564.225;  229.350;    0.000
583.376; 4587.225;  256.350;    0.000
583.501; 4572.225;  200.350;    0.000
583.626; 4680.225;  207.350;    0.000
583.751; 4751.225;  215.350;    0.000
583.877; 4859.225;  212.350;    0.000
584.002; 4988.225;  227.350;    0.000
584.127; 4927.225;  153.350;    0.000
584.252; 5079.225;  197.350;    0.000
584.377; 5108.225;  183.350;    0.000
584.503; 5174.225;  211.350;    0.000
584.628; 5245.225;  215.350;    0.000
584.753; 5458.225;  194.350;    0.000
584.878; 5534.225;  154.350;    0.000
585.003; 5627.225;  213.350;    0.000
585.128; 5666.225;  199.350;    0.000
585.253; 6037.225;  219.350;    0.000
585.378; 6014.225;  174.350;    0.000
585.503; 6070.225;  202.350;    0.000
585.628; 6184.225;  186.350;    0.000
585.753; 6468.225;  209.350;    0.000
585.878; 6553.225;  167.350;    0.000
586.003; 6754.225;  226.350;    0.000
586.128; 6984.225;  206.350;    0.000
586.253; 7185.225;  198.350;    0.000
586.378; 7369.225;  180.350;    0.000
586.503; 7817.225;  201.350;    0.000
586.628; 8282.225;  206.350;    0.000
586.753; 8389.225;  178.350;    0.000
586.878; 8877.225;  228.350;    0.000
587.003; 9329.225;  199.350;    0.000
587.127; 9753.225;  194.350;    0.000
587.252;10300.225;  212.350;    0.000
587.377;10951.225;  172.350;    0.000
587.502;11635.225;  219.350;    0.000
587.627;12509.225;  247.350;    0.000
587.751;13455.225;  184.350;    0.000
587.876;14569.225;  215.350;    0.000
588.001;15766.225;  163.350;    0.000
588.125;17296.225;  185.350;    0.000
588.250;19293.225;  171.350;    0.000
588.375;22152.225;  255.350;    0.000
588.499;24987.225;  185.350;    0.000
588.624;28862.225;  167.350;    0.000
588.749;34463.227;  170.350;    0.000
588.873;38441.227;  173.350;    0.000
588.998;41521.227;  203.350;    0.000
589.122;44950.227;  184.350;    0.000
589.247;44204.227;  217.350;    0.000
589.372;41518.227;  250.350;    0.000
589.496;40533.227;  200.350;    0.000
589.621;41449.227;  199.350;    0.000
589.745;41490.227;  235.350;    0.000
589.870;37097.227;  206.350;    0.000
589.994;31404.225;  194.350;    0.000
590.118;27147.225;  177.350;    0.000
590.243;23555.225;  231.350;    0.000
590.367;21140.225;  173.350;    0.000
590.492;18737.225;  170.350;    0.000
590.616;17051.225;  182.350;    0.000
590.740;15666.225;  178.350;    0.000
590.865;14474.225;  219.350;    0.000
590.989;13525.225;  210.350;    0.000
591.114;12651.225;  194.350;    0.000
591.238;11902.225;  154.350;    0.000
591.362;11250.225;  210.350;    0.000
591.486;10714.225;  215.350;    0.000
591.611;10167.225;  194.350;    0.000
591.735; 9718.225;  206.350;    0.000
591.859; 9200.225;  188.350;    0.000
591.983; 8868.225;  202.350;    0.000
592.107; 8686.225;  175.350;    0.000
592.232; 8406.225;  214.350;    0.000
592.356; 8148.225;  232.350;    0.000
592.480; 7985.225;  203.350;    0.000
592.604; 7749.225;  204.350;    0.000
592.728; 7468.225;  187.350;    0.000
592.852; 7332.225;  204.350;    0.000
592.976; 7131.225;  163.350;    0.000
593.100; 6921.225;  177.350;    0.000
593.224; 6795.225;  209.350;    0.000
593.349; 6621.225;  255.350;    0.000
593.473; 6407.225;  225.350;    0.000
593.597; 6290.225;  211.350;    0.000
593.721; 6219.225;  222.350;    0.000
593.844; 6092.225;  202.350;    0.000
593.968; 6029.225;  223.350;    0.000
594.092; 5990.225;  162.350;    0.000
594.216; 5752.225;  211.350;    0.000
594.340; 5744.225;  198.350;    0.000
594.464; 5545.225;  242.350;    0.000
594.588; 5543.225;  213.350;    0.000
594.712; 5342.225;  198.350;    0.000
594.836; 5361.225;  207.350;    0.000
594.959; 5255.225;  192.350;    0.000
595.083; 5017.225;  180.350;    0.000
595.207; 5046.225;  242.350;    0.000
595.331; 4970.225;  172.350;    0.000
595.455; 4913.225;  185.350;    0.000
595.578; 4832.225;  221.350;    0.000
595.702; 4699.225;  233.350;    0.000
595.826; 4728.225;  164.350;    0.000
595.949; 4706.225;  215.350;    0.000
596.073; 4631.225;  198.350;    0.000
596.197; 4523.225;  266.350;    0.000
596.320; 4540.225;  236.350;    0.000
596.444; 4451.225;  215.350;    0.000
596.568; 4358.225;  213.350;    0.000
596.691; 4302.225;  198.350;    0.000
596.815; 4300.225;  210.350;    0.000
596.938; 4325.225;  207.350;    0.000
597.062; 4192.225;  187.350;    0.000
597.186; 4294.225;  234.350;    0.000
597.309; 4126.225;  176.350;    0.000
597.433; 4123.225;  222.350;    0.000
597.556; 4017.225;  219.350;    0.000
597.680; 4081.225;  227.350;    0.000
597.803; 4014.225;  240.350;    0.000
597.926; 3934.225;  227.350;    0.000
598.050; 3960.225;  198.350;    0.000
598.173; 3929.225;  235.350;    0.000
598.297; 3931.225;  233.350;    0.000
598.420; 3796.225;  211.350;    0.000
598.543; 3856.225;  207.350;    0.000
598.667; 3847.225;  232.350;    0.000
598.790; 3821.225;  205.350;    0.000
598.913; 3678.225;  200.350;    0.000
599.037; 3699.225;  193.350;    0.000
599.160; 3705.225;  199.350;    0.000
599.283; 3756.225;  237.350;    0.000
599.406; 3615.225;  168.350;    0.000
599.530; 3678.225;  231.350;    0.000
599.653; 3582.225;  220.350;    0.000
599.776; 3651.225;  203.350;    0.000
599.899; 3579.225;  202.350;    0.000
600.022; 3518.225;  189.350;    0.000
600.145; 3550.225;  175.350;    0.000
600.269; 3538.225;  235.350;    0.000
600.392; 3378.225;  213.350;    0.000
600.515; 3544.225;  236.350;    0.000
600.638; 3398.225;  198.350;    0.000
600.761; 3488.225;  195.350;    0.000
600.884; 3418.225;  221.350;    0.000
601.007; 3380.225;  236.350;    0.000
601.130; 3381.225;  223.350;    0.000
601.253; 3436.225;  250.350;    0.000
601.376; 3337.225;  195.350;    0.000
601.499; 3352.225;  168.350;    0.000
601.622; 3447.225;  221.350;    0.000
601.745; 3249.225;  223.350;    0.000
601.868; 3313.225;  204.350;    0.000
601.991; 3279.225;  207.350;    0.000
602.113; 3285.225;  223.350;    0.000
602.236; 3274.225;  182.350;    0.000
602.359; 3351.225;  235.350;    0.000
602.482; 3357.225;  173.350;    0.000
602.605; 3268.225;  227.350;    0.000
602.728; 3329.225;  227.350;    0.000
602.850; 3244.225;  250.350;    0.000
602.973; 3184.225;  195.350;    0.000
603.096; 3229.225;  270.350;    0.000
603.219; 3223.225;  197.350;    0.000
603.341; 3189.225;  195.350;    0.000
603.464; 3295.225;  204.350;    0.000
603.587; 3283.225;  243.350;    0.000
603.709; 3083.225;  188.350;    0.000
603.832; 3232.225;  214.350;    0.000
603.955; 3195.225;  213.350;    0.000
604.077; 3128.225;  201.350;    0.000
604.200; 3148.225;  209.350;    0.000
604.323; 3258.225;  201.350;    0.000
604.445; 3109.225;  202.350;    0.000
604.568; 3148.225;  230.350;    0.000
604.690; 3009.225;  212.350;    0.000
604.813; 2997.225;  226.350;    0.000
604.935; 3102.225;  216.350;    0.000
605.058; 3057.225;  182.350;    0.000
605.180; 3117.225;  204.350;    0.000
605.303; 3191.225;  199.350;    0.000
605.425; 3059.225;  178.350;    0.000
605.547; 3036.225;  209.350;    0.000
605.670; 3017.225;  206.350;    0.000
605.792; 3037.225;  199.350;    0.000
605.915; 3038.225;  221.350;    0.000
606.037; 3072.225;  222.350;    0.000
606.159; 3083.225;  160.350;    0.000
606.282; 3021.225;  188.350;    0.000
606.404; 2975.225;  205.350;    0.000
606.526; 2990.225;  228.350;    0.000
606.648; 3021.225;  184.350;    0.000
606.771; 3050.225;  195.350;    0.000
606.893; 2989.225;  193.350;    0.000
607.015; 2980.225;  202.350;    0.000
607.137; 2868.225;  189.350;    0.000
607.260; 2901.225;  201.350;    0.000
607.382; 2938.225;  211.350;    0.000
607.504; 2945.225;  206.350;    0.000
607.626; 3071.225;  236.350;    0.000
607.748; 3085.225;  228.350;    0.000
607.870; 3009.225;  212.350;    0.000
607.992; 2916.225;  201.350;    0.000
608.114; 2907.225;  214.350;    0.000
608.237; 2944.225;  235.350;    0.000
608.359; 2971.225;  215.350;    0.000
608.481; 2935.225;  183.350;    0.000
608.603; 2855.225;  206.350;    0.000
608.725; 2856.225;  238.350;    0.000
608.847; 3019.225;  237.350;    0.000
608.969; 2918.225;  227.350;    0.000
609.090; 2958.225;  205.350;    0.000
609.212; 2852.225;  182.350;    0.000
609.334; 2829.225;  210.350;    0.000
609.456; 2892.225;  208.350;    0.000
609.578; 2882.225;  195.350;    0.000
609.700; 2812.225;  196.350;    0.000
609.822; 2835.225;  184.350;    0.000
609.944; 2981.225;  258.350;    0.000
610.065; 2855.225;  219.350;    0.000
610.187; 2800.225;  217.350;    0.000
610.309; 2799.225;  179.350;    0.000
610.431; 2878.225;  189.350;    0.000
610.552; 2849.225;  212.350;    0.000
610.674; 2746.225;  211.350;    0.000
610.796; 2915.225;  168.350;    0.000
610.918; 2848.225;  201.350;    0.000
611.039; 2878.225;  212.350;    0.000
611.161; 2765.225;  207.350;    0.000
611.282; 2810.225;  219.350;    0.000
611.404; 2842.225;  243.350;    0.000
611.526; 2837.225;  180.350;    0.000
611.647; 2788.225;  235.350;    0.000
611.769; 2839.225;  189.350;    0.000
611.890; 2874.225;  201.350;    0.000
612.012; 2822.225;  191.350;    0.000
612.133; 2855.225;  227.350;    0.000
612.255; 2855.225;  191.350;    0.000
612.377; 2756.225;  192.350;    0.000
612.498; 2782.225;  202.350;    0.000
612.619; 2794.225;  207.350;    0.000
612.741; 2706.225;  241.350;    0.000
612.862; 2778.225;  219.350;    0.000
612.984; 2743.225;  203.350;    0.000
613.105; 2832.225;  228.350;    0.000
613.226; 2712.225;  199.350;    0.000
613.348; 2884.225;  238.350;    0.000
613.469; 2792.225;  239.350;    0.000
613.590; 2744.225;  183.350;    0.000
613.712; 2805.225;  245.350;    0.000
613.833; 2743.225;  241.350;    0.000
613.954; 2783.225;  208.350;    0.000
614.076; 2693.225;  181.350;    0.000
614.197; 2765.225;  217.350;    0.000
614.318; 2783.225;  182.350;    0.000
614.439; 2672.225;  204.350;    0.000
614.560; 2826.225;  219.350;    0.000
614.682; 2795.225;  238.350;    0.000
614.803; 2681.225;  240.350;    0.000
614.924; 2780.225;  212.350;    0.000
615.045; 2819.225;  225.350;    0.000
615.166; 2880.225;  227.350;    0.000
615.287; 2992.225;  230.350;    0.000
615.408; 3387.225;  187.350;    0.000
615.529; 3489.225;  211.350;    0.000
615.650; 3332.225;  202.350;    0.000
615.771; 3035.225;  203.350;    0.000
615.892; 3239.225;  222.350;    0.000
616.013; 3762.225;  215.350;    0.000
616.134; 4229.225;  193.350;    0.000
616.255; 4061.225;  242.350;    0.000
616.376; 3536.225;  205.350;    0.000
616.497; 3226.225;  200.350;    0.000
616.618; 3198.225;  177.350;    0.000
616.739; 3105.225;  218.350;    0.000
616.860; 2943.225;  214.350;    0.000
616.981; 2989.225;  208.350;    0.000
617.102; 2932.225;  203.350;    0.000
617.222; 2890.225;  212.350;    0.000
617.343; 2889.225;  162.350;    0.000
617.464; 2824.225;  230.350;    0.000
617.585; 2783.225;  197.350;    0.000
617.705; 2809.225;  209.350;    0.000
617.826; 2796.225;  229.350;    0.000
617.947; 2773.225;  216.350;    0.000
618.068; 2741.225;  192.350;    0.000
618.188; 2804.225;  230.350;    0.000
618.309; 2845.225;  238.350;    0.000
618.430; 2805.225;  242.350;    0.000
618.550; 2791.225;  235.350;    0.000
618.671; 2735.225;  207.350;    0.000
618.791; 2759.225;  228.350;    0.000
618.912; 2639.225;  266.350;    0.000
619.033; 2715.225;  232.350;    0.000
619.153; 2650.225;  207.350;    0.000
619.274; 2670.225;  193.350;    0.000
619.394; 2752.225;  237.350;    0.000
619.515; 2600.225;  216.350;    0.000
619.635; 2682.225;  203.350;    0.000
619.756; 2668.225;  227.350;    0.000
619.876; 2584.225;  244.350;    0.000
619.996; 2657.225;  220.350;    0.000
620.117; 2661.225;  231.350;    0.000
620.237; 2596.225;  235.350;    0.000
620.358; 2621.225;  241.350;    0.000
620.478; 2653.225;  237.350;    0.000
620.598; 2563.225;  255.350;    0.000
620.719; 2617.225;  243.350;    0.000
620.839; 2601.225;  237.350;    0.000
620.959; 2617.225;  216.350;    0.000
621.079; 2613.225;  240.350;    0.000
621.200; 2614.225;  195.350;    0.000
621.320; 2635.225;  287.350;    0.000
621.440; 2587.225;  236.350;    0.000
621.560; 2561.225;  231.350;    0.000
621.681; 2497.225;  177.350;    0.000
621.801; 2552.225;  257.350;    0.000
621.921; 2556.225;  241.350;    0.000
622.041; 2566.225;  239.350;    0.000
622.161; 2647.225;  233.350;    0.000
622.281; 2613.225;  204.350;    0.000
622.401; 2585.225;  204.350;    0.000
622.521; 2577.225;  242.350;    0.000
622.641; 2470.225;  205.350;    0.000
622.761; 2544.225;  254.350;    0.000
622.882; 2509.225;  225.350;    0.000
623.002; 2553.225;  255.350;    0.000
623.121; 2525.225;  244.350;    0.000
623.241; 2586.225;  238.350;    0.000
623.361; 2541.225;  208.350;    0.000
623.481; 2493.225;  194.350;    0.000
623.601; 2475.225;  249.350;    0.000
623.721; 2497.225;  229.350;    0.000
623.841; 2514.225;  244.350;    0.000
623.961; 2455.225;  253.350;    0.000
624.081; 2555.225;  218.350;    0.000
624.201; 2502.225;  218.350;    0.000
624.320; 2519.225;  212.350;    0.000
624.440; 2490.225;  251.350;    0.000
624.560; 2468.225;  244.350;    0.000
624.680; 2530.225;  224.350;    0.000
624.799; 2426.225;  198.350;    0.000
624.919; 2476.225;  215.350;    0.000
625.039; 2438.225;  225.350;    0.000
625.159; 2411.225;  209.350;    0.000
625.278; 2474.225;  211.350;    0.000
625.398; 2444.225;  260.350;    0.000
625.518; 2445.225;  205.350;    0.000
625.637; 2502.225;  240.350;    0.000
625.757; 2408.225;  208.350;    0.000
625.876; 2454.225;  221.350;    0.000
625.996; 2465.225;  245.350;    0.000
626.115; 2433.225;  196.350;    0.000
626.235; 2428.225;  241.350;    0.000
626.354; 2409.225;  231.350;    0.000
626.474; 2514.225;  220.350;    0.000
626.594; 2425.225;  210.350;    0.000
626.713; 2427.225;  229.350;    0.000
626.832; 2489.225;  236.350;    0.000
626.952; 2461.225;  223.350;    0.000
627.071; 2508.225;  211.350;    0.000
627.191; 2455.225;  220.350;    0.000
627.310; 2460.225;  206.350;    0.000
627.429; 2421.225;  223.350;    0.000
627.549; 2389.225;  205.350;    0.000
627.668; 2405.225;  227.350;    0.000
627.787; 2396.225;  221.350;    0.000
627.907; 2347.225;  194.350;    0.000
628.026; 2395.225;  231.350;    0.000
628.145; 2403.225;  210.350;    0.000
628.264; 2341.225;  245.350;    0.000
628.384; 2397.225;  234.350;    0.000
628.503; 2434.225;  210.350;    0.000
628.622; 2358.225;  223.350;    0.000
628.741; 2416.225;  210.350;    0.000
628.860; 2371.225;  222.350;    0.000
628.980; 2385.225;  184.350;    0.000
629.099; 2498.225;  234.350;    0.000
629.218; 2356.225;  157.350;    0.000
629.337; 2387.225;  220.350;    0.000
629.456; 2490.225;  210.350;    0.000
629.575; 2341.225;  239.350;    0.000
629.694; 2318.225;  216.350;    0.000
629.813; 2387.225;  218.350;    0.000
629.932; 2312.225;  175.350;    0.000
630.051; 2372.225;  218.350;    0.000
630.170; 2347.225;  215.350;    0.000
630.289; 2300.225;  203.350;    0.000
630.408; 2352.225;  180.350;    0.000
630.527; 2355.225;  249.350;    0.000
630.646; 2299.225;  186.350;    0.000
630.764; 2298.225;  189.350;    0.000
630.883; 2419.225;  221.350;    0.000
631.002; 2315.225;  191.350;    0.000
631.121; 2300.225;  210.350;    0.000
631.240; 2398.225;  256.350;    0.000
631.359; 2412.225;  246.350;    0.000
631.477; 2288.225;  230.350;    0.000
631.596; 2354.225;  229.350;    0.000
631.715; 2359.225;  242.350;    0.000
631.834; 2350.225;  261.350;    0.000
631.952; 2311.225;  250.350;    0.000
632.071; 2361.225;  218.350;    0.000
632.190; 2336.225;  200.350;    0.000
632.308; 2396.225;  226.350;    0.000
632.427; 2284.225;  234.350;    0.000
632.546; 2372.225;  250.350;    0.000
632.664; 2295.225;  224.350;    0.000
632.783; 2309.225;  211.350;    0.000
632.901; 2337.225;  254.350;    0.000
633.020; 2285.225;  204.350;    0.000
633.138; 2233.225;  228.350;    0.000
633.257; 2306.225;  219.350;    0.000
633.375; 2271.225;  243.350;    0.000
633.494; 2257.225;  242.350;    0.000
633.612; 2273.225;  227.350;    0.000
633.731; 2199.225;  221.350;    0.000
633.849; 2296.225;  239.350;    0.000
633.968; 2262.225;  219.350;    0.000
634.086; 2273.225;  218.350;    0.000
634.204; 2277.225;  203.350;    0.000
634.323; 2298.225;  222.350;    0.000
634.441; 2251.225;  257.350;    0.000
634.559; 2188.225;  201.350;    0.000
634.678; 2271.225;  214.350;    0.000
634.796; 2219.225;  207.350;    0.000
634.914; 2294.225;  226.350;    0.000
635.032; 2224.225;  250.350;    0.000
635.151; 2241.225;  228.350;    0.000
635.269; 2234.225;  188.350;    0.000
635.387; 2200.225;  247.350;    0.000
635.505; 2176.225;  250.350;    0.000
635.623; 2239.225;  230.350;    0.000
635.742; 2237.225;  209.350;    0.000
635.860; 2234.225;  239.350;    0.000
635.978; 2243.225;  213.350;    0.000
636.096; 2229.225;  176.350;    0.000
636.214; 2198.225;  246.350;    0.000
636.332; 2173.225;  224.350;    0.000
636.450; 2276.225;  215.350;    0.000
636.568; 2158.225;  246.350;    0.000
636.686; 2203.225;  225.350;    0.000
636.804; 2240.225;  218.350;    0.000
636.922; 2185.225;  195.350;    0.000
637.040; 2203.225;  213.350;    0.000
637.158; 2176.225;  228.350;    0.000
637.276; 2276.225;  206.350;    0.000
637.394; 2249.225;  224.350;    0.000
637.512; 2143.225;  245.350;    0.000
637.629; 2206.225;  234.350;    0.000
637.747; 2159.225;  233.350;    0.000
637.865; 2253.225;  236.350;    0.000
637.983; 2141.225;  235.350;    0.000
638.101; 2208.225;  232.350;    0.000
638.218; 2132.225;  256.350;    0.000
638.336; 2212.225;  216.350;    0.000
638.454; 2215.225;  255.350;    0.000
638.572; 2221.225;  237.350;    0.000
638.689; 2261.225;  271.350;    0.000
638.807; 2117.225;  243.350;    0.000
638.925; 2239.225;  259.350;    0.000
639.042; 2128.225;  185.350;    0.000
639.160; 2161.225;  250.350;    0.000
639.278; 2143.225;  207.350;    0.000
639.395; 2221.225;  243.350;    0.000
639.513; 2206.225;  235.350;    0.000
639.630; 2141.225;  230.350;    0.000
639.748; 2121.225;  192.350;    0.000
639.865; 2216.225;  219.350;    0.000
639.983; 2235.225;  183.350;    0.000
640.100; 2242.225;  251.350;    0.000
640.218; 2215.225;  246.350;    0.000
640.335; 2079.225;  227.350;    0.000
640.453; 2127.225;  259.350;    0.000
640.570; 2166.225;  251.350;    0.000
640.688; 2074.225;  223.350;    0.000
640.805; 2140.225;  246.350;    0.000
640.922; 2192.225;  249.350;    0.000
641.040; 2222.225;  257.350;    0.000
641.157; 2048.225;  207.350;    0.000
641.274; 2052.225;  241.350;    0.000
641.391; 2231.225;  246.350;    0.000
641.509; 2251.225;  216.350;    0.000
641.626; 2132.225;  252.350;    0.000
641.743; 2157.225;  215.350;    0.000
641.860; 2069.225;  234.350;    0.000
641.978; 2092.225;  216.350;    0.000
642.095; 2162.225;  247.350;    0.000
642.212; 2139.225;  199.350;    0.000
642.329; 2121.225;  237.350;    0.000
642.446; 2091.225;  222.350;    0.000
642.563; 2139.225;  287.350;    0.000
642.681; 2110.225;  261.350;    0.000
642.798; 2046.225;  251.350;    0.000
642.915; 2193.225;  238.350;    0.000
643.032; 2132.225;  246.350;    0.000
643.149; 2128.225;  239.350;    0.000
643.266; 2144.225;  238.350;    0.000
643.383; 2090.225;  231.350;    0.000
643.500; 2107.225;  212.350;    0.000
643.617; 2097.225;  236.350;    0.000
643.734; 2133.225;  239.350;    0.000
643.850; 2077.225;  234.350;    0.000
643.967; 2136.225;  253.350;    0.000
644.084; 2134.225;  253.350;    0.000
644.201; 2157.225;  227.350;    0.000
644.318; 2095.225;  247.350;    0.000
644.435; 2159.225;  264.350;    0.000
644.552; 2169.225;  230.350;    0.000
644.668; 2186.225;  250.350;    0.000
644.785; 2191.225;  235.350;    0.000
644.902; 2136.225;  227.350;    0.000
645.019; 2128.225;  203.350;    0.000
645.135; 2097.225;  210.350;    0.000
645.252; 2154.225;  206.350;    0.000
645.369; 2128.225;  235.350;    0.000
645.485; 2107.225;  223.350;    0.000
645.602; 2079.225;  205.350;    0.000
645.719; 2103.225;  222.350;    0.000
645.835; 2136.225;  246.350;    0.000
645.952; 2115.225;  239.350;    0.000
646.068; 2150.225;  225.350;    0.000
646.185; 2188.225;  248.350;    0.000
646.302; 2202.225;  226.350;    0.000
646.418; 2223.225;  228.350;    0.000
646.535; 2196.225;  219.350;    0.000
646.651; 2190.225;  204.350;    0.000
646.768; 2157.225;  247.350;    0.000
646.884; 2106.225;  228.350;    0.000
647.000; 2232.225;  223.350;    0.000
647.117; 2161.225;  251.350;    0.000
647.233; 2144.225;  223.350;    0.000
647.350; 2165.225;  237.350;    0.000
647.466; 2228.225;  223.350;    0.000
647.582; 2143.225;  243.350;    0.000
647.699; 2227.225;  223.350;    0.000
647.815; 2215.225;  215.350;    0.000
647.931; 2241.225;  214.350;    0.000
648.047; 2115.225;  199.350;    0.000
648.164; 2220.225;  233.350;    0.000
648.280; 2218.225;  231.350;    0.000
648.396; 2194.225;  215.350;    0.000
648.512; 2273.225;  252.350;    0.000
648.629; 2204.225;  237.350;    0.000
648.745; 2225.225;  216.350;    0.000
648.861; 2168.225;  207.350;    0.000
648.977; 2188.225;  247.350;    0.000
649.093; 2181.225;  221.350;    0.000
649.209; 2293.225;  232.350;    0.000
649.325; 2199.225;  245.350;    0.000
649.441; 2291.225;  253.350;    0.000
649.557; 2255.225;  221.350;    0.000
649.673; 2245.225;  182.350;    0.000
649.789; 2231.225;  245.350;    0.000
649.905; 2156.225;  204.350;    0.000
650.021; 2224.225;  270.350;    0.000
650.137; 2198.225;  218.350;    0.000
650.253; 2219.225;  268.350;    0.000
650.369; 2190.225;  222.350;    0.000
650.485; 2171.225;  215.350;    0.000
650.601; 2229.225;  218.350;    0.000
650.717; 2222.225;  208.350;    0.000
650.833; 2266.225;  263.350;    0.000
650.948; 2220.225;  266.350;    0.000
651.064; 2188.225;  271.350;    0.000
651.180; 2199.225;  232.350;    0.000
651.296; 2166.225;  237.350;    0.000
651.411; 2212.225;  233.350;    0.000
651.527; 2253.225;  232.350;    0.000
651.643; 2305.225;  259.350;    0.000
651.759; 2300.225;  257.350;    0.000
651.874; 2274.225;  216.350;    0.000
651.990; 2267.225;  234.350;    0.000
652.105; 2251.225;  195.350;    0.000
652.221; 2275.225;  245.350;    0.000
652.337; 2193.225;  210.350;    0.000
652.452; 2282.225;  259.350;    0.000
652.568; 2304.225;  202.350;    0.000
652.683; 2320.225;  233.350;    0.000
652.799; 2302.225;  230.350;    0.000
652.914; 2291.225;  198.350;    0.000
653.030; 2296.225;  203.350;    0.000
653.145; 2443.225;  228.350;    0.000
653.261; 2457.225;  244.350;    0.000
653.376; 2456.225;  214.350;    0.000
653.492; 2412.225;  246.350;    0.000
653.607; 2411.225;  241.350;    0.000
653.722; 2436.225;  257.350;    0.000
653.838; 2503.225;  265.350;    0.000
653.953; 2457.225;  252.350;    0.000
654.068; 2535.225;  270.350;    0.000
654.184; 2486.225;  248.350;    0.000
654.299; 2529.225;  226.350;    0.000
654.414; 2506.225;  190.350;    0.000
654.530; 2531.225;  263.350;    0.000
654.645; 2654.225;  240.350;    0.000
654.760; 2660.225;  243.350;    0.000
654.875; 2719.225;  210.350;    0.000
654.990; 2740.225;  250.350;    0.000
655.106; 2822.225;  277.350;    0.000
655.221; 2920.225;  249.350;    0.000
655.336; 2805.225;  239.350;    0.000
655.451; 3022.225;  226.350;    0.000
655.566; 3029.225;  236.350;    0.000
655.681; 3108.225;  272.350;    0.000
655.796; 3187.225;  224.350;    0.000
655.911; 3277.225;  247.350;    0.000
656.026; 3334.225;  240.350;    0.000
656.141; 3403.225;  239.350;    0.000
656.256; 3573.225;  241.350;    0.000
656.371; 3530.225;  213.350;    0.000
656.486; 3651.225;  275.350;    0.000
656.601; 3578.225;  225.350;    0.000
656.716; 3404.225;  239.350;    0.000
656.831; 3405.225;  260.350;    0.000
656.946; 3312.225;  250.350;    0.000
657.060; 3212.225;  257.350;    0.000
657.175; 3190.225;  256.350;    0.000
657.290; 3143.225;  255.350;    0.000
657.405; 3045.225;  303.350;    0.000
657.520; 3079.225;  272.350;    0.000
657.634; 2991.225;  268.350;    0.000
657.749; 2974.225;  261.350;    0.000
657.864; 2864.225;  235.350;    0.000
657.979; 2929.225;  257.350;    0.000
658.093; 2800.225;  243.350;    0.000
658.208; 2760.225;  281.350;    0.000
658.323; 2656.225;  240.350;    0.000
658.437; 2757.225;  285.350;    0.000
658.552; 2631.225;  262.350;    0.000
658.666; 2637.225;  269.350;    0.000
658.781; 2609.225;  244.350;    0.000
658.895; 2597.225;  259.350;    0.000
659.010; 2613.225;  254.350;    0.000
659.125; 2586.225;  210.350;    0.000
659.239; 2475.225;  212.350;    0.000
659.353; 2483.225;  269.350;    0.000
659.468; 2487.225;  269.350;    0.000
659.582; 2533.225;  244.350;    0.000
659.697; 2458.225;  262.350;    0.000
659.811; 2350.225;  271.350;    0.000
659.926; 2464.225;  232.350;    0.000
660.040; 2440.225;  250.350;    0.000
660.154; 2381.225;  209.350;    0.000
660.269; 2338.225;  212.350;    0.000
660.383; 2362.225;  237.350;    0.000
660.497; 2279.225;  231.350;    0.000
660.612; 2359.225;  232.350;    0.000
660.726; 2321.225;  276.350;    0.000
660.840; 2204.225;  235.350;    0.000
660.954; 2244.225;  224.350;    0.000
661.068; 2302.225;  241.350;    0.000
661.183; 2356.225;  223.350;    0.000
661.297; 2277.225;  255.350;    0.000
661.411; 2207.225;  223.350;    0.000
661.525; 2241.225;  249.350;    0.000
661.639; 2242.225;  264.350;    0.000
661.753; 2163.225;  225.350;    0.000
661.867; 2171.225;  245.350;    0.000
661.981; 2184.225;  225.350;    0.000
662.095; 2151.225;  262.350;    0.000
662.209; 2128.225;  225.350;    0.000
662.323; 2068.225;  228.350;    0.000
662.437; 2144.225;  230.350;    0.000
662.551; 2091.225;  234.350;    0.000
662.665; 2066.225;  212.350;    0.000
662.779; 2063.225;  254.350;    0.000
662.893; 2111.225;  269.350;    0.000
663.007; 2059.225;  196.350;    0.000
663.121; 2068.225;  262.350;    0.000
663.235; 2026.225;  263.350;    0.000
663.349; 2062.225;  242.350;    0.000
663.462; 1970.225;  234.350;    0.000
663.576; 1974.225;  219.350;    0.000
663.690; 1945.225;  234.350;    0.000
663.804; 1992.225;  205.350;    0.000
663.917; 2008.225;  224.350;    0.000
664.031; 1956.225;  208.350;    0.000
664.145; 2062.225;  241.350;    0.000
664.258; 1921.225;  188.350;    0.000
664.372; 1971.225;  214.350;    0.000
664.486; 1931.225;  203.350;    0.000
664.599; 1965.225;  217.350;    0.000
664.713; 1990.225;  286.350;    0.000
664.827; 1937.225;  199.350;    0.000
664.940; 1998.225;  250.350;    0.000
665.054; 1954.225;  261.350;    0.000
665.167; 1931.225;  258.350;    0.000
665.281; 1954.225;  234.350;    0.000
665.394; 1949.225;  213.350;    0.000
665.508; 1924.225;  222.350;    0.000
665.621; 1942.225;  254.350;    0.000
665.735; 1888.225;  252.350;    0.000
665.848; 1876.225;  248.350;    0.000
665.961; 1871.225;  234.350;    0.000
666.075; 1917.225;  262.350;    0.000
666.188; 1910.225;  270.350;    0.000
666.301; 1827.225;  237.350;    0.000
666.415; 1927.225;  245.350;    0.000
666.528; 1896.225;  248.350;    0.000
666.641; 1887.225;  210.350;    0.000
666.755; 1864.225;  218.350;    0.000
666.868; 1858.225;  224.350;    0.000
666.981; 1888.225;  244.350;    0.000
667.094; 1837.225;  279.350;    0.000
667.207; 1808.225;  190.350;    0.000
667.321; 1771.225;  210.350;    0.000
667.434; 1782.225;  205.350;    0.000
667.547; 1897.225;  253.350;    0.000
667.660; 1819.225;  243.350;    0.000
667.773; 1877.225;  242.350;    0.000
667.886; 1794.225;  218.350;    0.000
667.999; 1874.225;  226.350;    0.000
668.112; 1821.225;  258.350;    0.000
668.225; 1828.225;  243.350;    0.000
668.338; 1817.225;  224.350;    0.000
668.451; 1732.225;  250.350;    0.000
668.564; 1812.225;  260.350;    0.000
668.677; 1763.225;  204.350;    0.000
668.790; 1757.225;  229.350;    0.000
668.903; 1855.225;  269.350;    0.000
669.016; 1699.225;  228.350;    0.000
669.129; 1765.225;  253.350;    0.000
669.242; 1710.225;  245.350;    0.000
669.354; 1767.225;  234.350;    0.000
669.467; 1790.225;  256.350;    0.000
669.580; 1812.225;  223.350;    0.000
669.693; 1819.225;  252.350;    0.000
669.806; 1774.225;  212.350;    0.000
669.918; 1802.225;  228.350;    0.000
670.031; 1800.225;  265.350;    0.000
670.144; 1737.225;  255.350;    0.000
670.256; 1758.225;  229.350;    0.000
670.369; 1718.225;  301.350;    0.000
670.482; 1688.225;  263.350;    0.000
670.594; 1741.225;  246.350;    0.000
670.707; 1779.225;  255.350;    0.000
670.820; 1634.225;  256.350;    0.000
670.932; 1736.225;  210.350;    0.000
671.045; 1733.225;  249.350;    0.000
671.157; 1759.225;  254.350;    0.000
671.270; 1740.225;  265.350;    0.000
671.382; 1734.225;  219.350;    0.000
671.495; 1697.225;  242.350;    0.000
671.607; 1837.225;  266.350;    0.000
671.720; 1724.225;  238.350;    0.000
671.832; 1705.225;  220.350;    0.000
671.944; 1714.225;  251.350;    0.000
672.057; 1691.225;  232.350;    0.000
672.169; 1697.225;  240.350;    0.000
672.281; 1661.225;  270.350;    0.000
672.394; 1771.225;  257.350;    0.000
672.506; 1726.225;  247.350;    0.000
672.618; 1698.225;  229.350;    0.000
672.731; 1729.225;  227.350;    0.000
672.843; 1723.225;  282.350;    0.000
672.955; 1752.225;  262.350;    0.000
673.067; 1666.225;  277.350;    0.000
673.180; 1684.225;  280.350;    0.000
673.292; 1627.225;  241.350;    0.000
673.404; 1720.225;  234.350;    0.000
673.516; 1655.225;  224.350;    0.000
673.628; 1680.225;  272.350;    0.000
673.740; 1653.225;  249.350;    0.000
673.852; 1770.225;  288.350;    0.000
673.964; 1699.225;  278.350;    0.000
674.076; 1640.225;  273.350;    0.000
674.188; 1663.225;  251.350;    0.000
674.300; 1665.225;  244.350;    0.000
674.412; 1730.225;  267.350;    0.000
674.524; 1734.225;  276.350;    0.000
674.636; 1729.225;  234.350;    0.000
674.748; 1674.225;  267.350;    0.000
674.860; 1769.225;  255.350;    0.000
674.972; 1746.225;  253.350;    0.000
675.084; 1706.225;  253.350;    0.000
675.196; 1659.225;  300.350;    0.000
675.307; 1612.225;  307.350;    0.000
675.419; 1663.225;  245.350;    0.000
675.531; 1694.225;  292.350;    0.000
675.643; 1622.225;  244.350;    0.000
675.755; 1610.225;  265.350;    0.000
675.866; 1559.225;  281.350;    0.000
675.978; 1658.225;  266.350;    0.000
676.090; 1566.225;  267.350;    0.000
676.201; 1648.225;  265.350;    0.000
676.313; 1576.225;  222.350;    0.000
676.425; 1674.225;  248.350;    0.000
676.536; 1644.225;  234.350;    0.000
676.648; 1612.225;  261.350;    0.000
676.759; 1619.225;  280.350;    0.000
676.871; 1583.225;  260.350;    0.000
676.983; 1636.225;  277.350;    0.000
677.094; 1625.225;  252.350;    0.000
677.206; 1685.225;  238.350;    0.000
677.317; 1562.225;  269.350;    0.000
677.429; 1618.225;  245.350;    0.000
677.540; 1605.225;  244.350;    0.000
677.651; 1583.225;  225.350;    0.000
677.763; 1599.225;  216.350;    0.000
677.874; 1576.225;  226.350;    0.000
677.986; 1608.225;  234.350;    0.000
678.097; 1611.225;  237.350;    0.000
678.208; 1696.225;  278.350;    0.000
678.320; 1576.225;  243.350;    0.000
678.431; 1605.225;  248.350;    0.000
678.542; 1525.225;  240.350;    0.000
678.653; 1582.225;  250.350;    0.000
678.765; 1643.225;  258.350;    0.000
678.876; 1605.225;  221.350;    0.000
678.987; 1561.225;  229.350;    0.000
679.098; 1585.225;  233.350;    0.000
679.209; 1620.225;  274.350;    0.000
679.320; 1566.225;  216.350;    0.000
679.432; 1593.225;  246.350;    0.000
679.543; 1427.225;  226.350;    0.000
679.654; 1543.225;  232.350;    0.000
679.765; 1531.225;  246.350;    0.000
679.876; 1574.225;  263.350;    0.000
679.987; 1541.225;  216.350;    0.000
680.098; 1544.225;  262.350;    0.000
680.209; 1560.225;  219.350;    0.000
680.320; 1568.225;  232.350;    0.000
680.431; 1606.225;  261.350;    0.000
680.542; 1565.225;  219.350;    0.000
680.653; 1577.225;  238.350;    0.000
680.763; 1513.225;  191.350;    0.000
680.874; 1531.225;  267.350;    0.000
680.985; 1564.225;  240.350;    0.000
681.096; 1547.225;  251.350;    0.000
681.207; 1527.225;  232.350;    0.000
681.318; 1573.225;  211.350;    0.000
681.428; 1522.225;  233.350;    0.000
681.539; 1563.225;  197.350;    0.000
681.650; 1508.225;  197.350;    0.000
681.760; 1562.225;  243.350;    0.000
681.871; 1509.225;  245.350;    0.000
681.982; 1542.225;  218.350;    0.000
682.093; 1516.225;  262.350;    0.000
682.203; 1503.225;  250.350;    0.000
682.314; 1500.225;  239.350;    0.000
682.424; 1531.225;  250.350;    0.000
682.535; 1542.225;  206.350;    0.000
682.646; 1603.225;  302.350;    0.000
682.756; 1568.225;  258.350;    0.000
682.867; 1499.225;  265.350;    0.000
682.977; 1544.225;  218.350;    0.000
683.088; 1520.225;  264.350;    0.000
683.198; 1510.225;  236.350;    0.000
683.308; 1567.225;  246.350;    0.000
683.419; 1528.225;  296.350;    0.000
683.529; 1455.225;  242.350;    0.000
683.640; 1545.225;  245.350;    0.000
683.750; 1552.225;  213.350;    0.000
683.860; 1556.225;  256.350;    0.000
683.971; 1529.225;  251.350;    0.000
684.081; 1520.225;  232.350;    0.000
684.191; 1553.225;  252.350;    0.000
684.301; 1543.225;  214.350;    0.000
684.412; 1531.225;  261.350;    0.000
684.522; 1519.225;  243.350;    0.000
684.632; 1519.225;  257.350;    0.000
684.742; 1559.225;  271.350;    0.000
684.852; 1518.225;  258.350;    0.000
684.963; 1572.225;  262.350;    0.000
685.073; 1506.225;  219.350;    0.000
685.183; 1502.225;  270.350;    0.000
685.293; 1492.225;  233.350;    0.000
685.403; 1494.225;  274.350;    0.000
685.513; 1549.225;  280.350;    0.000
685.623; 1476.225;  267.350;    0.000
685.733; 1502.225;  274.350;    0.000
685.843; 1541.225;  274.350;    0.000
685.953; 1512.225;  244.350;    0.000
686.063; 1539.225;  261.350;    0.000
686.173; 1517.225;  283.350;    0.000
686.283; 1542.225;  260.350;    0.000
686.393; 1497.225;  256.350;    0.000
686.503; 1589.225;  295.350;    0.000
686.612; 1528.225;  294.350;    0.000
686.722; 1535.225;  263.350;    0.000
686.832; 1518.225;  291.350;    0.000
686.942; 1491.225;  229.350;    0.000
687.052; 1521.225;  241.350;    0.000
687.161; 1561.225;  304.350;    0.000
687.271; 1480.225;  223.350;    0.000
687.381; 1534.225;  273.350;    0.000
687.491; 1520.225;  246.350;    0.000
687.600; 1517.225;  242.350;    0.000
687.710; 1425.225;  225.350;    0.000
687.820; 1493.225;  259.350;    0.000
687.929; 1518.225;  232.350;    0.000
688.039; 1473.225;  248.350;    0.000
688.148; 1461.225;  250.350;    0.000
688.258; 1461.225;  240.350;    0.000
688.367; 1485.225;  253.350;    0.000
688.477; 1532.225;  229.350;    0.000
688.586; 1453.225;  259.350;    0.000
688.696; 1507.225;  250.350;    0.000
688.805; 1467.225;  279.350;    0.000
688.915; 1481.225;  250.350;    0.000
689.024; 1495.225;  240.350;    0.000
689.134; 1539.225;  269.350;    0.000
689.243; 1430.225;  214.350;    0.000
689.352; 1474.225;  257.350;    0.000
689.462; 1499.225;  248.350;    0.000
689.571; 1426.225;  233.350;    0.000
689.680; 1498.225;  236.350;    0.000
689.790; 1510.225;  238.350;    0.000
689.899; 1460.225;  232.350;    0.000
690.008; 1500.225;  259.350;    0.000
690.117; 1542.225;  254.350;    0.000
690.227; 1552.225;  251.350;    0.000
690.336; 1514.225;  240.350;    0.000
690.445; 1461.225;  235.350;    0.000
690.554; 1421.225;  243.350;    0.000
690.663; 1490.225;  214.350;    0.000
690.772; 1461.225;  247.350;    0.000
690.881; 1488.225;  249.350;    0.000
690.990; 1465.225;  265.350;    0.000
691.099; 1487.225;  217.350;    0.000
691.209; 1538.225;  272.350;    0.000
691.318; 1449.225;  223.350;    0.000
691.427; 1433.225;  212.350;    0.000
691.536; 1485.225;  260.350;    0.000
691.644; 1410.225;  246.350;    0.000
691.753; 1532.225;  251.350;    0.000
691.862; 1433.225;  239.350;    0.000
691.971; 1441.225;  253.350;    0.000
692.080; 1481.225;  255.350;    0.000
692.189; 1516.225;  228.350;    0.000
692.298; 1519.225;  243.350;    0.000
692.406; 1507.225;  269.350;    0.000
692.515; 1457.225;  254.350;    0.000
692.624; 1413.225;  225.350;    0.000
692.733; 1451.225;  245.350;    0.000
692.842; 1438.225;  259.350;    0.000
692.950; 1472.225;  226.350;    0.000
693.059; 1521.225;  216.350;    0.000
693.168; 1449.225;  266.350;    0.000
693.276; 1464.225;  236.350;    0.000
693.385; 1478.225;  257.350;    0.000
693.494; 1519.225;  268.350;    0.000
693.602; 1431.225;  239.350;    0.000
693.711; 1449.225;  224.350;    0.000
693.819; 1487.225;  263.350;    0.000
693.928; 1494.225;  270.350;    0.000
694.036; 1422.225;  247.350;    0.000
694.145; 1520.225;  261.350;    0.000
694.253; 1481.225;  261.350;    0.000
694.362; 1442.225;  253.350;    0.000
694.470; 1508.225;  270.350;    0.000
694.579; 1448.225;  233.350;    0.000
694.687; 1471.225;  260.350;    0.000
694.795; 1495.225;  228.350;    0.000
694.904; 1444.225;  228.350;    0.000
695.012; 1527.225;  288.350;    0.000
695.120; 1433.225;  230.350;    0.000
695.229; 1510.225;  287.350;    0.000
695.337; 1420.225;  249.350;    0.000
695.445; 1455.225;  283.350;    0.000
695.553; 1466.225;  251.350;    0.000
695.662; 1485.225;  236.350;    0.000
695.770; 1438.225;  267.350;    0.000
695.878; 1543.225;  268.350;    0.000
695.986; 1510.225;  297.350;    0.000
696.094; 1470.225;  275.350;    0.000
696.202; 1405.225;  201.350;    0.000
696.310; 1512.225;  283.350;    0.000
696.419; 1466.225;  261.350;    0.000
696.527; 1482.225;  252.350;    0.000
696.635; 1458.225;  249.350;    0.000
696.743; 1417.225;  236.350;    0.000
696.851; 1497.225;  241.350;    0.000
696.959; 1436.225;  278.350;    0.000
697.067; 1468.225;  239.350;    0.000
697.174; 1430.225;  260.350;    0.000
697.282; 1473.225;  259.350;    0.000
697.390; 1481.225;  302.350;    0.000
697.498; 1487.225;  216.350;    0.000
697.606; 1463.225;  245.350;    0.000
697.714; 1486.225;  279.350;    0.000
697.822; 1475.225;  267.350;    0.000
697.929; 1437.225;  234.350;    0.000
698.037; 1364.225;  255.350;    0.000
698.145; 1424.225;  226.350;    0.000
698.253; 1456.225;  261.350;    0.000
698.360; 1494.225;  299.350;    0.000
698.468; 1505.225;  254.350;    0.000
698.576; 1459.225;  307.350;    0.000
698.683; 1491.225;  280.350;    0.000
698.791; 1433.225;  284.350;    0.000
698.899; 1398.225;  279.350;    0.000
699.006; 1499.225;  264.350;    0.000
699.114; 1442.225;  263.350;    0.000
699.221; 1530.225;  291.350;    0.000
699.329; 1479.225;  309.350;    0.000
699.436; 1444.225;  261.350;    0.000
699.544; 1450.225;  259.350;    0.000
699.651; 1444.225;  251.350;    0.000
699.759; 1432.225;  251.350;    0.000
699.866; 1420.225;  266.350;    0.000
699.974; 1435.225;  264.350;    0.000
700.081; 1422.225;  295.350;    0.000
700.188; 1501.225;  293.350;    0.000
700.296; 1491.225;  233.350;    0.000
700.403; 1423.225;  290.350;    0.000
700.510; 1506.225;  275.350;    0.000
700.618; 1468.225;  273.350;    0.000
700.725; 1363.225;  262.350;    0.000
700.832; 1444.225;  250.350;    0.000
700.940; 1474.225;  300.350;    0.000
701.047; 1432.225;  245.350;    0.000
701.154; 1421.225;  280.350;    0.000
701.261; 1356.225;  270.350;    0.000
701.368; 1453.225;  286.350;    0.000
701.475; 1390.225;  301.350;    0.000
701.582; 1477.225;  286.350;    0.000
701.690; 1437.225;  279.350;    0.000
701.797; 1435.225;  292.350;    0.000
701.904; 1481.225;  314.350;    0.000
702.011; 1510.225;  340.350;    0.000
702.118; 1485.225;  276.350;    0.000
702.225; 1499.225;  351.350;    0.000
702.332; 1542.225;  301.350;    0.000
702.439; 1471.225;  334.350;    0.000
702.546; 1448.225;  325.350;    0.000
702.652; 1489.225;  343.350;    0.000
702.759; 1524.225;  339.350;    0.000
702.866; 1530.225;  344.350;    0.000
702.973; 1506.225;  330.350;    0.000
703.080; 1521.225;  322.350;    0.000
703.187; 1503.225;  327.350;    0.000
703.294; 1519.225;  339.350;    0.000
703.400; 1422.225;  325.350;    0.000
703.507;  452.225;  372.350;    0.000
703.614;  307.225;  348.350;    0.000
703.720;  308.225;  333.350;    0.000
703.827;  298.225;  331.350;    0.000
703.934;  316.225;  330.350;    0.000
704.040;  269.225;  327.350;    0.000
704.147;  312.225;  327.350;    0.000
704.254;  365.225;  354.350;    0.000
704.360;  302.225;  337.350;    0.000
704.467;  339.225;  370.350;    0.000
704.573;  307.225;  367.350;    0.000
704.680;  341.225;  339.350;    0.000
704.786;  327.225;  356.350;    0.000
704.893;  314.225;  352.350;    0.000
704.999;  310.225;  332.350;    0.000
705.106;  350.225;  359.350;    0.000

