
Integration time [ms]:   0.300
Averaging Nr. [scans]: 1
Smoothing Nr. [pixels]: 0
Data measured with spectrometer [name]: NIR
Wave   ;Sample   ;Dark     ;Reference
[nm]   ;[counts] ;[counts] ;[counts] 

691.496;    4.500;  102.875;    0.000
691.696;   17.500;  181.875;    0.000
691.896;  -25.500;  138.875;    0.000
692.096;   35.500;  182.875;    0.000
692.296;   -6.500;  145.875;    0.000
692.496;   25.500;  154.875;    0.000
692.695;  -38.500;  108.875;    0.000
692.895;   32.500;  176.875;    0.000
693.095;   -1.500;  138.875;    0.000
693.295;    9.500;  192.875;    0.000
693.495;   17.500;  170.875;    0.000
693.695;   13.500;  147.875;    0.000
693.894;   37.500;  191.875;    0.000
694.094;   38.500;  148.875;    0.000
694.294;   -8.500;  147.875;    0.000
694.494;  293.500;  140.875;    0.000
694.693; 2539.500;  137.875;    0.000
694.893; 2827.500;  141.875;    0.000
695.093; 2790.500;  105.875;    0.000
695.293; 2850.500;  115.875;    0.000
695.492; 2787.500;   81.875;    0.000
695.692; 2820.500;  162.875;    0.000
695.891; 2746.500;  162.875;    0.000
696.091; 2816.500;  166.875;    0.000
696.291; 2826.500;  143.875;    0.000
696.490; 2894.500;  170.875;    0.000
696.690; 2869.500;  142.875;    0.000
696.889; 2914.500;  186.875;    0.000
697.089; 2911.500;  120.875;    0.000
697.288; 3000.500;  215.875;    0.000
697.488; 2998.500;  178.875;    0.000
697.687; 2941.500;  170.875;    0.000
697.887; 2860.500;  140.875;    0.000
698.086; 2894.500;  131.875;    0.000
698.286; 2905.500;  117.875;    0.000
698.485; 2946.500;  136.875;    0.000
698.684; 2939.500;  126.875;    0.000
698.884; 2997.500;  161.875;    0.000
699.083; 2828.500;   95.875;    0.000
699.282; 2905.500;  120.875;    0.000
699.482; 2966.500;  131.875;    0.000
699.681; 2996.500;  168.875;    0.000
699.880; 2973.500;  154.875;    0.000
700.080; 2959.500;  149.875;    0.000
700.279; 2957.500;   99.875;    0.000
700.478; 2966.500;  157.875;    0.000
700.677; 3011.500;  111.875;    0.000
700.877; 2881.500;  126.875;    0.000
701.076; 2988.500;  142.875;    0.000
701.275; 2953.500;  107.875;    0.000
701.474; 2888.500;   72.875;    0.000
701.673; 2996.500;   87.875;    0.000
701.872; 2957.500;  170.875;    0.000
702.071; 3083.500;  136.875;    0.000
702.271; 2965.500;  121.875;    0.000
702.470; 2965.500;  139.875;    0.000
702.669; 3097.500;  121.875;    0.000
702.868; 3035.500;  146.875;    0.000
703.067; 3048.500;  159.875;    0.000
703.266; 2969.500;  122.875;    0.000
703.465; 3095.500;  121.875;    0.000
703.664; 3067.500;  144.875;    0.000
703.863; 3058.500;  140.875;    0.000
704.062; 2997.500;  109.875;    0.000
704.260; 2997.500;  164.875;    0.000
704.459; 3128.500;  124.875;    0.000
704.658; 3028.500;  109.875;    0.000
704.857; 3098.500;  149.875;    0.000
705.056; 3061.500;  112.875;    0.000
705.255; 3013.500;   95.875;    0.000
705.454; 3035.500;  105.875;    0.000
705.652; 3091.500;  134.875;    0.000
705.851; 3032.500;   92.875;    0.000
706.050; 3113.500;  127.875;    0.000
706.249; 3073.500;  111.875;    0.000
706.447; 3138.500;   98.875;    0.000
706.646; 3024.500;  108.875;    0.000
706.845; 3181.500;   95.875;    0.000
707.043; 3031.500;   95.875;    0.000
707.242; 3143.500;   97.875;    0.000
707.441; 3168.500;  142.875;    0.000
707.639; 3189.500;  121.875;    0.000
707.838; 3125.500;  141.875;    0.000
708.037; 3146.500;  125.875;    0.000
708.235; 3154.500;  100.875;    0.000
708.434; 3159.500;  106.875;    0.000
708.632; 3115.500;   86.875;    0.000
708.831; 3251.500;  138.875;    0.000
709.029; 3144.500;   86.875;    0.000
709.228; 3158.500;  103.875;    0.000
709.426; 3176.500;  146.875;    0.000
709.625; 3096.500;  136.875;    0.000
709.823; 3136.500;  114.875;    0.000
710.022; 3151.500;  144.875;    0.000
710.220; 3232.500;  109.875;    0.000
710.418; 3259.500;  116.875;    0.000
710.617; 3179.500;   67.875;    0.000
710.815; 3307.500;  104.875;    0.000
711.013; 3188.500;  109.875;    0.000
711.212; 3233.500;  106.875;    0.000
711.410; 3328.500;   95.875;    0.000
711.608; 3194.500;  155.875;    0.000
711.807; 3284.500;  103.875;    0.000
712.005; 3287.500;  104.875;    0.000
712.203; 3299.500;   94.875;    0.000
712.401; 3243.500;  125.875;    0.000
712.599; 3314.500;  127.875;    0.000
712.798; 3407.500;  141.875;    0.000
712.996; 3256.500;   85.875;    0.000
713.194; 3384.500;   96.875;    0.000
713.392; 3290.500;   54.875;    0.000
713.590; 3348.500;  123.875;    0.000
713.788; 3362.500;  130.875;    0.000
713.986; 3405.500;  104.875;    0.000
714.184; 3423.500;   91.875;    0.000
714.382; 3410.500;  120.875;    0.000
714.580; 3485.500;   71.875;    0.000
714.778; 3610.500;   92.875;    0.000
714.976; 3525.500;  129.875;    0.000
715.174; 3638.500;   99.875;    0.000
715.372; 3786.500;  119.875;    0.000
715.570; 3895.500;   95.875;    0.000
715.768; 4190.500;  113.875;    0.000
715.966; 4247.500;   64.875;    0.000
716.164; 4132.500;  135.875;    0.000
716.362; 4038.500;  125.875;    0.000
716.560; 3888.500;  135.875;    0.000
716.758; 3958.500;   84.875;    0.000
716.955; 3860.500;  109.875;    0.000
717.153; 3777.500;   73.875;    0.000
717.351; 3746.500;  110.875;    0.000
717.549; 3675.500;  149.875;    0.000
717.746; 3704.500;  121.875;    0.000
717.944; 3697.500;  128.875;    0.000
718.142; 3759.500;  124.875;    0.000
718.340; 3630.500;   96.875;    0.000
718.537; 3610.500;  138.875;    0.000
718.735; 3653.500;  144.875;    0.000
718.933; 3641.500;   97.875;    0.000
719.130; 3620.500;  109.875;    0.000
719.328; 3726.500;  123.875;    0.000
719.525; 3714.500;  118.875;    0.000
719.723; 3693.500;  117.875;    0.000
719.920; 3707.500;   72.875;    0.000
720.118; 3657.500;   92.875;    0.000
720.316; 3684.500;  141.875;    0.000
720.513; 3614.500;   98.875;    0.000
720.711; 3685.500;  146.875;    0.000
720.908; 3622.500;  113.875;    0.000
721.105; 3683.500;  157.875;    0.000
721.303; 3603.500;  106.875;    0.000
721.500; 3692.500;   88.875;    0.000
721.698; 3609.500;   88.875;    0.000
721.895; 3666.500;   94.875;    0.000
722.092; 3668.500;   82.875;    0.000
722.290; 3674.500;  136.875;    0.000
722.487; 3717.500;   67.875;    0.000
722.684; 3603.500;  115.875;    0.000
722.882; 3530.500;  104.875;    0.000
723.079; 3647.500;  122.875;    0.000
723.276; 3654.500;   91.875;    0.000
723.473; 3727.500;   89.875;    0.000
723.671; 3646.500;   97.875;    0.000
723.868; 3622.500;  117.875;    0.000
724.065; 3700.500;  102.875;    0.000
724.262; 3896.500;  137.875;    0.000
724.459; 3658.500;   48.875;    0.000
724.656; 3760.500;  122.875;    0.000
724.854; 3732.500;   96.875;    0.000
725.051; 3761.500;  120.875;    0.000
725.248; 3811.500;  146.875;    0.000
725.445; 3808.500;  117.875;    0.000
725.642; 3711.500;  106.875;    0.000
725.839; 3707.500;  143.875;    0.000
726.036; 3719.500;   79.875;    0.000
726.233; 3760.500;   90.875;    0.000
726.430; 3737.500;  124.875;    0.000
726.627; 3758.500;   98.875;    0.000
726.824; 3778.500;   91.875;    0.000
727.021; 3854.500;  131.875;    0.000
727.218; 3709.500;  110.875;    0.000
727.414; 3743.500;   83.875;    0.000
727.611; 3836.500;   86.875;    0.000
727.808; 3916.500;  131.875;    0.000
728.005; 3816.500;  105.875;    0.000
728.202; 3857.500;  128.875;    0.000
728.399; 3766.500;  113.875;    0.000
728.595; 3811.500;  102.875;    0.000
728.792; 3777.500;   91.875;    0.000
728.989; 3897.500;  122.875;    0.000
729.186; 3865.500;  103.875;    0.000
729.382; 3794.500;  106.875;    0.000
729.579; 3826.500;  114.875;    0.000
729.776; 3857.500;  115.875;    0.000
729.972; 3839.500;  108.875;    0.000
730.169; 3833.500;  111.875;    0.000
730.366; 3846.500;  100.875;    0.000
730.562; 3774.500;   86.875;    0.000
730.759; 3847.500;   93.875;    0.000
730.955; 3804.500;  127.875;    0.000
731.152; 3903.500;   99.875;    0.000
731.348; 3870.500;   97.875;    0.000
731.545; 3814.500;   98.875;    0.000
731.741; 3852.500;  130.875;    0.000
731.938; 3871.500;  115.875;    0.000
732.134; 3784.500;  107.875;    0.000
732.331; 3850.500;   80.875;    0.000
732.527; 3904.500;  108.875;    0.000
732.724; 3871.500;  104.875;    0.000
732.920; 3906.500;  109.875;    0.000
733.116; 3857.500;  117.875;    0.000
733.313; 3882.500;   81.875;    0.000
733.509; 3851.500;   87.875;    0.000
733.705; 3918.500;  143.875;    0.000
733.902; 3866.500;   74.875;    0.000
734.098; 3837.500;   90.875;    0.000
734.294; 3860.500;  104.875;    0.000
734.490; 4074.500;  139.875;    0.000
734.687; 3914.500;  113.875;    0.000
734.883; 4028.500;   72.875;    0.000
735.079; 3923.500;  100.875;    0.000
735.275; 3947.500;  113.875;    0.000
735.471; 3924.500;   55.875;    0.000
735.667; 3904.500;  106.875;    0.000
735.863; 3951.500;  131.875;    0.000
736.060; 3994.500;  127.875;    0.000
736.256; 4060.500;   76.875;    0.000
736.452; 4011.500;  127.875;    0.000
736.648; 4083.500;  136.875;    0.000
736.844; 3938.500;  113.875;    0.000
737.040; 4110.500;  125.875;    0.000
737.236; 4169.500;   99.875;    0.000
737.432; 4100.500;   75.875;    0.000
737.628; 4040.500;  155.875;    0.000
737.824; 4112.500;  116.875;    0.000
738.019; 3978.500;   92.875;    0.000
738.215; 4089.500;  113.875;    0.000
738.411; 4159.500;  135.875;    0.000
738.607; 4215.500;   53.875;    0.000
738.803; 4085.500;   79.875;    0.000
738.999; 4134.500;  117.875;    0.000
739.195; 4105.500;  106.875;    0.000
739.390; 4212.500;  125.875;    0.000
739.586; 4320.500;  102.875;    0.000
739.782; 4293.500;  125.875;    0.000
739.978; 4206.500;  124.875;    0.000
740.173; 4261.500;   96.875;    0.000
740.369; 4083.500;  118.875;    0.000
740.565; 4321.500;  128.875;    0.000
740.760; 4329.500;  118.875;    0.000
740.956; 4204.500;  109.875;    0.000
741.152; 4407.500;  151.875;    0.000
741.347; 4404.500;  112.875;    0.000
741.543; 4399.500;  113.875;    0.000
741.738; 4503.500;  128.875;    0.000
741.934; 4599.500;  144.875;    0.000
742.129; 4880.500;  105.875;    0.000
742.325; 5539.500;  137.875;    0.000
742.520; 6104.500;  128.875;    0.000
742.716; 5750.500;  121.875;    0.000
742.911; 5416.500;   75.875;    0.000
743.107; 5213.500;  100.875;    0.000
743.302; 5216.500;   72.875;    0.000
743.498; 5183.500;  137.875;    0.000
743.693; 5276.500;  124.875;    0.000
743.888; 5487.500;  121.875;    0.000
744.084; 6517.500;   93.875;    0.000
744.279; 7919.500;   75.875;    0.000
744.474; 7944.500;  136.875;    0.000
744.670; 6987.500;  109.875;    0.000
744.865; 6414.500;  142.875;    0.000
745.060; 6133.500;   84.875;    0.000
745.255; 5838.500;  149.875;    0.000
745.451; 5707.500;  101.875;    0.000
745.646; 5664.500;  132.875;    0.000
745.841; 5478.500;  126.875;    0.000
746.036; 5589.500;  125.875;    0.000
746.231; 5702.500;  150.875;    0.000
746.426; 6150.500;  118.875;    0.000
746.622; 7237.500;  135.875;    0.000
746.817; 9450.500;  122.875;    0.000
747.012;10919.500;  134.875;    0.000
747.207; 9282.500;  124.875;    0.000
747.402; 8104.500;  122.875;    0.000
747.597; 7403.500;   95.875;    0.000
747.792; 7178.500;  168.875;    0.000
747.987; 6836.500;  110.875;    0.000
748.182; 6622.500;  119.875;    0.000
748.377; 6171.500;   70.875;    0.000
748.572; 6082.500;  113.875;    0.000
748.767; 5782.500;  123.875;    0.000
748.961; 5623.500;  110.875;    0.000
749.156; 5556.500;  135.875;    0.000
749.351; 5404.500;   98.875;    0.000
749.546; 5264.500;  126.875;    0.000
749.741; 5180.500;  129.875;    0.000
749.936; 5044.500;   86.875;    0.000
750.130; 5133.500;   97.875;    0.000
750.325; 5095.500;  110.875;    0.000
750.520; 5019.500;  120.875;    0.000
750.715; 4901.500;  122.875;    0.000
750.909; 4929.500;  120.875;    0.000
751.104; 4845.500;  118.875;    0.000
751.299; 4788.500;  122.875;    0.000
751.493; 4774.500;  129.875;    0.000
751.688; 4787.500;  138.875;    0.000
751.882; 4661.500;   87.875;    0.000
752.077; 4589.500;  142.875;    0.000
752.272; 4673.500;  110.875;    0.000
752.466; 4676.500;  154.875;    0.000
752.661; 4540.500;   96.875;    0.000
752.855; 4555.500;   93.875;    0.000
753.050; 4669.500;  122.875;    0.000
753.244; 4697.500;  110.875;    0.000
753.439; 4547.500;  116.875;    0.000
753.633; 4499.500;  131.875;    0.000
753.828; 4434.500;  130.875;    0.000
754.022; 4533.500;   96.875;    0.000
754.216; 4577.500;  114.875;    0.000
754.411; 4432.500;  145.875;    0.000
754.605; 4486.500;   65.875;    0.000
754.799; 4486.500;  116.875;    0.000
754.994; 4501.500;  117.875;    0.000
755.188; 4367.500;  124.875;    0.000
755.382; 4423.500;   80.875;    0.000
755.576; 4424.500;   90.875;    0.000
755.771; 4406.500;  115.875;    0.000
755.965; 4347.500;  106.875;    0.000
756.159; 4428.500;   87.875;    0.000
756.353; 4446.500;  125.875;    0.000
756.547; 4379.500;  146.875;    0.000
756.742; 4480.500;  111.875;    0.000
756.936; 4396.500;  108.875;    0.000
757.130; 4351.500;  101.875;    0.000
757.324; 4492.500;  114.875;    0.000
757.518; 4492.500;  136.875;    0.000
757.712; 4417.500;  123.875;    0.000
757.906; 4471.500;  115.875;    0.000
758.100; 4418.500;  186.875;    0.000
758.294; 4535.500;  118.875;    0.000
758.488; 4391.500;  167.875;    0.000
758.682; 4431.500;  137.875;    0.000
758.876; 4342.500;  135.875;    0.000
759.070; 4458.500;  132.875;    0.000
759.264; 4340.500;  118.875;    0.000
759.458; 4324.500;  111.875;    0.000
759.651; 4364.500;  142.875;    0.000
759.845; 4432.500;  105.875;    0.000
760.039; 4316.500;   73.875;    0.000
760.233; 4369.500;  156.875;    0.000
760.427; 4297.500;  119.875;    0.000
760.620; 4449.500;  136.875;    0.000
760.814; 4409.500;  126.875;    0.000
761.008; 4429.500;  126.875;    0.000
761.202; 4419.500;  123.875;    0.000
761.395; 4385.500;  141.875;    0.000
761.589; 4417.500;  107.875;    0.000
761.783; 4381.500;  122.875;    0.000
761.976; 4307.500;  120.875;    0.000
762.170; 4362.500;  147.875;    0.000
762.363; 4391.500;  144.875;    0.000
762.557; 4367.500;  119.875;    0.000
762.750; 4381.500;  118.875;    0.000
762.944; 4416.500;  145.875;    0.000
763.138; 4480.500;  123.875;    0.000
763.331; 4392.500;  129.875;    0.000
763.524; 4526.500;  109.875;    0.000
763.718; 4603.500;  150.875;    0.000
763.911; 4515.500;  140.875;    0.000
764.105; 4513.500;   97.875;    0.000
764.298; 4417.500;  128.875;    0.000
764.492; 4468.500;  132.875;    0.000
764.685; 4500.500;   92.875;    0.000
764.878; 4572.500;  111.875;    0.000
765.072; 4549.500;  116.875;    0.000
765.265; 4541.500;  135.875;    0.000
765.458; 4555.500;   69.875;    0.000
765.651; 4637.500;  145.875;    0.000
765.845; 4633.500;   95.875;    0.000
766.038; 4579.500;  147.875;    0.000
766.231; 5063.500;  119.875;    0.000
766.424; 7486.500;  126.875;    0.000
766.617; 7871.500;   92.875;    0.000
766.811; 5021.500;  109.875;    0.000
767.004; 4662.500;  107.875;    0.000
767.197; 4706.500;  171.875;    0.000
767.390; 4578.500;  114.875;    0.000
767.583; 4564.500;  109.875;    0.000
767.776; 4579.500;  130.875;    0.000
767.969; 4642.500;  103.875;    0.000
768.162; 4678.500;  139.875;    0.000
768.355; 4518.500;  142.875;    0.000
768.548; 4583.500;  140.875;    0.000
768.741; 4542.500;   82.875;    0.000
768.934; 4680.500;  107.875;    0.000
769.127; 4644.500;  121.875;    0.000
769.320; 4784.500;  106.875;    0.000
769.513; 4884.500;  145.875;    0.000
769.706; 5366.500;  120.875;    0.000
769.898; 7237.500;  135.875;    0.000
770.091; 5969.500;  146.875;    0.000
770.284; 4969.500;  108.875;    0.000
770.477; 4987.500;  148.875;    0.000
770.670; 4930.500;  163.875;    0.000
770.862; 4817.500;   97.875;    0.000
771.055; 4979.500;  116.875;    0.000
771.248; 4957.500;  143.875;    0.000
771.441; 4960.500;  125.875;    0.000
771.633; 5126.500;  125.875;    0.000
771.826; 4991.500;  132.875;    0.000
772.018; 4928.500;  123.875;    0.000
772.211; 5077.500;  143.875;    0.000
772.404; 5219.500;  144.875;    0.000
772.596; 5192.500;  130.875;    0.000
772.789; 5252.500;  109.875;    0.000
772.981; 5321.500;  151.875;    0.000
773.174; 5291.500;  119.875;    0.000
773.366; 5382.500;  179.875;    0.000
773.559; 5279.500;  106.875;    0.000
773.751; 5613.500;  120.875;    0.000
773.944; 5587.500;  159.875;    0.000
774.136; 5788.500;  131.875;    0.000
774.329; 5904.500;  141.875;    0.000
774.521; 5994.500;  114.875;    0.000
774.713; 6199.500;  169.875;    0.000
774.906; 6378.500;  151.875;    0.000
775.098; 6549.500;   99.875;    0.000
775.290; 6845.500;  166.875;    0.000
775.483; 7234.500;  146.875;    0.000
775.675; 7524.500;  106.875;    0.000
775.867; 8048.500;   91.875;    0.000
776.059; 8743.500;  137.875;    0.000
776.251; 9725.500;  124.875;    0.000
776.444;11058.500;  168.875;    0.000
776.636;13001.500;  138.875;    0.000
776.828;16681.500;  155.875;    0.000
777.020;24272.500;  160.875;    0.000
777.212;38311.500;  153.875;    0.000
777.404;42970.500;  135.875;    0.000
777.596;39459.500;  144.875;    0.000
777.788;27879.500;  127.875;    0.000
777.980;20191.500;  141.875;    0.000
778.172;16372.500;  138.875;    0.000
778.364;13950.500;  143.875;    0.000
778.556;12012.500;  123.875;    0.000
778.748;10888.500;  103.875;    0.000
778.940; 9758.500;  176.875;    0.000
779.132; 9051.500;  144.875;    0.000
779.324; 8262.500;   75.875;    0.000
779.516; 7811.500;  117.875;    0.000
779.708; 7321.500;  151.875;    0.000
779.900; 7012.500;  127.875;    0.000
780.091; 6840.500;  155.875;    0.000
780.283; 6560.500;  157.875;    0.000
780.475; 6432.500;  140.875;    0.000
780.667; 5991.500;  141.875;    0.000
780.859; 6015.500;  113.875;    0.000
781.050; 5789.500;  153.875;    0.000
781.242; 5631.500;  118.875;    0.000
781.434; 5639.500;  121.875;    0.000
781.625; 5478.500;  146.875;    0.000
781.817; 5322.500;  154.875;    0.000
782.008; 5233.500;  144.875;    0.000
782.200; 5452.500;  152.875;    0.000
782.392; 5142.500;  160.875;    0.000
782.583; 5168.500;  122.875;    0.000
782.775; 5034.500;  144.875;    0.000
782.966; 4993.500;  143.875;    0.000
783.158; 4869.500;  125.875;    0.000
783.349; 4966.500;  173.875;    0.000
783.541; 4831.500;  166.875;    0.000
783.732; 4736.500;  163.875;    0.000
783.924; 4679.500;  157.875;    0.000
784.115; 4671.500;  158.875;    0.000
784.306; 4682.500;  160.875;    0.000
784.498; 4756.500;  132.875;    0.000
784.689; 4629.500;  181.875;    0.000
784.880; 4642.500;  156.875;    0.000
785.072; 4530.500;  134.875;    0.000
785.263; 4524.500;  155.875;    0.000
785.454; 4561.500;  141.875;    0.000
785.645; 4485.500;  114.875;    0.000
785.837; 4414.500;  137.875;    0.000
786.028; 4492.500;  158.875;    0.000
786.219; 4467.500;  135.875;    0.000
786.410; 4495.500;  152.875;    0.000
786.601; 4385.500;  132.875;    0.000
786.792; 4356.500;  152.875;    0.000
786.984; 4439.500;  162.875;    0.000
787.175; 4398.500;   97.875;    0.000
787.366; 4412.500;  129.875;    0.000
787.557; 4433.500;  135.875;    0.000
787.748; 4471.500;  127.875;    0.000
787.939; 4488.500;  152.875;    0.000
788.130; 4480.500;  182.875;    0.000
788.321; 4453.500;  130.875;    0.000
788.512; 4435.500;  161.875;    0.000
788.703; 4602.500;  127.875;    0.000
788.894; 4439.500;  121.875;    0.000
789.084; 4537.500;  134.875;    0.000
789.275; 4563.500;  108.875;    0.000
789.466; 4544.500;  152.875;    0.000
789.657; 4510.500;  115.875;    0.000
789.848; 4546.500;  150.875;    0.000
790.039; 4543.500;  132.875;    0.000
790.229; 4604.500;  169.875;    0.000
790.420; 4551.500;  159.875;    0.000
790.611; 4540.500;  123.875;    0.000
790.801; 4580.500;  144.875;    0.000
790.992; 4662.500;  177.875;    0.000
791.183; 4521.500;  128.875;    0.000
791.373; 4422.500;  123.875;    0.000
791.564; 4465.500;  131.875;    0.000
791.755; 4591.500;  103.875;    0.000
791.945; 4488.500;  104.875;    0.000
792.136; 4477.500;  115.875;    0.000
792.326; 4508.500;   99.875;    0.000
792.517; 4503.500;  139.875;    0.000
792.707; 4582.500;  155.875;    0.000
792.898; 4443.500;  139.875;    0.000
793.088; 4635.500;  153.875;    0.000
793.279; 4559.500;  137.875;    0.000
793.469; 4736.500;  109.875;    0.000
793.660; 4706.500;  119.875;    0.000
793.850; 4898.500;  119.875;    0.000
794.040; 5016.500;  132.875;    0.000
794.231; 5350.500;  122.875;    0.000
794.421; 5659.500;  124.875;    0.000
794.611; 6480.500;  151.875;    0.000
794.802; 7642.500;  121.875;    0.000
794.992; 8025.500;  139.875;    0.000
795.182; 8224.500;  132.875;    0.000
795.372; 7656.500;  149.875;    0.000
795.563; 6851.500;  153.875;    0.000
795.753; 6062.500;  120.875;    0.000
795.943; 5791.500;  121.875;    0.000
796.133; 5403.500;   97.875;    0.000
796.323; 5225.500;  122.875;    0.000
796.513; 4978.500;  142.875;    0.000
796.703; 4810.500;  125.875;    0.000
796.893; 4786.500;  126.875;    0.000
797.083; 4730.500;  150.875;    0.000
797.273; 4697.500;  108.875;    0.000
797.463; 4608.500;  156.875;    0.000
797.653; 4334.500;   80.875;    0.000
797.843; 4376.500;   88.875;    0.000
798.033; 4316.500;   96.875;    0.000
798.223; 4333.500;  159.875;    0.000
798.413; 4293.500;  155.875;    0.000
798.603; 4212.500;  125.875;    0.000
798.793; 4169.500;  141.875;    0.000
798.983; 4117.500;  113.875;    0.000
799.172; 4087.500;   85.875;    0.000
799.362; 4065.500;  141.875;    0.000
799.552; 4087.500;  122.875;    0.000
799.742; 4079.500;  124.875;    0.000
799.932; 3867.500;  102.875;    0.000
800.121; 3974.500;  146.875;    0.000
800.311; 3989.500;  122.875;    0.000
800.501; 3954.500;  120.875;    0.000
800.690; 3936.500;  141.875;    0.000
800.880; 3912.500;  146.875;    0.000
801.070; 4050.500;  122.875;    0.000
801.259; 3937.500;  138.875;    0.000
801.449; 3930.500;  115.875;    0.000
801.638; 3951.500;  132.875;    0.000
801.828; 3857.500;   92.875;    0.000
802.017; 3868.500;  150.875;    0.000
802.207; 3897.500;  134.875;    0.000
802.396; 3846.500;  133.875;    0.000
802.586; 3768.500;  117.875;    0.000
802.775; 3861.500;  155.875;    0.000
802.965; 3817.500;  132.875;    0.000
803.154; 3813.500;  176.875;    0.000
803.343; 3770.500;  106.875;    0.000
803.533; 3829.500;  154.875;    0.000
803.722; 3767.500;   97.875;    0.000
803.911; 3909.500;  107.875;    0.000
804.101; 3739.500;  145.875;    0.000
804.290; 3692.500;  130.875;    0.000
804.479; 3771.500;  152.875;    0.000
804.668; 3848.500;  160.875;    0.000
804.857; 3823.500;  161.875;    0.000
805.047; 3680.500;  126.875;    0.000
805.236; 3713.500;  136.875;    0.000
805.425; 3804.500;  153.875;    0.000
805.614; 3671.500;  139.875;    0.000
805.803; 3776.500;  144.875;    0.000
805.992; 3721.500;  160.875;    0.000
806.181; 3771.500;  139.875;    0.000
806.370; 3795.500;  104.875;    0.000
806.559; 3686.500;  103.875;    0.000
806.748; 3777.500;  145.875;    0.000
806.937; 3769.500;  151.875;    0.000
807.126; 3754.500;  119.875;    0.000
807.315; 3768.500;  139.875;    0.000
807.504; 3730.500;  143.875;    0.000
807.693; 3837.500;  164.875;    0.000
807.882; 3727.500;  135.875;    0.000
808.071; 3774.500;  131.875;    0.000
808.260; 3615.500;  113.875;    0.000
808.448; 3826.500;  161.875;    0.000
808.637; 3639.500;  125.875;    0.000
808.826; 3734.500;  155.875;    0.000
809.015; 3714.500;  113.875;    0.000
809.203; 3978.500;  152.875;    0.000
809.392; 3744.500;   90.875;    0.000
809.581; 3830.500;  186.875;    0.000
809.770; 3782.500;   99.875;    0.000
809.958; 3772.500;  146.875;    0.000
810.147; 3852.500;  115.875;    0.000
810.335; 3937.500;  122.875;    0.000
810.524; 4082.500;  150.875;    0.000
810.713; 3934.500;  121.875;    0.000
810.901; 4059.500;  156.875;    0.000
811.090; 3979.500;  161.875;    0.000
811.278; 4073.500;  138.875;    0.000
811.467; 4196.500;  184.875;    0.000
811.655; 4230.500;  150.875;    0.000
811.844; 4130.500;  137.875;    0.000
812.032; 4122.500;  142.875;    0.000
812.220; 4185.500;  134.875;    0.000
812.409; 4119.500;  143.875;    0.000
812.597; 4308.500;  164.875;    0.000
812.785; 4244.500;  188.875;    0.000
812.974; 4224.500;  156.875;    0.000
813.162; 4305.500;  166.875;    0.000
813.350; 4284.500;  115.875;    0.000
813.539; 4343.500;  167.875;    0.000
813.727; 4317.500;  165.875;    0.000
813.915; 4293.500;  137.875;    0.000
814.103; 4409.500;  166.875;    0.000
814.291; 4423.500;  151.875;    0.000
814.479; 4430.500;  147.875;    0.000
814.668; 4455.500;  166.875;    0.000
814.856; 4639.500;  160.875;    0.000
815.044; 4691.500;  172.875;    0.000
815.232; 4624.500;  193.875;    0.000
815.420; 4834.500;  173.875;    0.000
815.608; 4822.500;  134.875;    0.000
815.796; 4980.500;  105.875;    0.000
815.984; 5014.500;  125.875;    0.000
816.172; 5227.500;  160.875;    0.000
816.360; 5186.500;  162.875;    0.000
816.548; 5468.500;  160.875;    0.000
816.736; 5747.500;  132.875;    0.000
816.924; 5896.500;  184.875;    0.000
817.111; 6174.500;  145.875;    0.000
817.299; 6564.500;  132.875;    0.000
817.487; 7081.500;  193.875;    0.000
817.675; 7826.500;  153.875;    0.000
817.863; 9117.500;  153.875;    0.000
818.050;12448.500;  172.875;    0.000
818.238;22835.500;  131.875;    0.000
818.426;34047.500;  160.875;    0.000
818.613;24122.500;  136.875;    0.000
818.801;19715.500;  162.875;    0.000
818.989;18669.500;  153.875;    0.000
819.176;19872.500;  181.875;    0.000
819.364;29622.500;  165.875;    0.000
819.552;44344.500;  111.875;    0.000
819.739;31392.500;  192.875;    0.000
819.927;21997.500;  146.875;    0.000
820.114;17981.500;  154.875;    0.000
820.302;15684.500;  144.875;    0.000
820.489;14051.500;  133.875;    0.000
820.677;12923.500;  135.875;    0.000
820.864;12393.500;  130.875;    0.000
821.052;12355.500;   88.875;    0.000
821.239;12735.500;  143.875;    0.000
821.426;13170.500;  186.875;    0.000
821.614;15740.500;  171.875;    0.000
821.801;16549.500;   90.875;    0.000
821.988;14304.500;  143.875;    0.000
822.176;13444.500;   95.875;    0.000
822.363;13928.500;  148.875;    0.000
822.550;12847.500;  139.875;    0.000
822.737;11091.500;  122.875;    0.000
822.924;10317.500;  171.875;    0.000
823.112; 9919.500;  147.875;    0.000
823.299; 9011.500;  111.875;    0.000
823.486; 8472.500;  161.875;    0.000
823.673; 7932.500;  124.875;    0.000
823.860; 7913.500;  151.875;    0.000
824.047; 8074.500;  145.875;    0.000
824.234; 8936.500;  139.875;    0.000
824.421; 9073.500;  110.875;    0.000
824.608; 7911.500;  145.875;    0.000
824.795; 7207.500;  115.875;    0.000
824.982; 6624.500;  148.875;    0.000
825.169; 6133.500;  135.875;    0.000
825.356; 5993.500;  122.875;    0.000
825.543; 5682.500;  142.875;    0.000
825.730; 5522.500;   89.875;    0.000
825.917; 5235.500;  127.875;    0.000
826.104; 5207.500;  187.875;    0.000
826.290; 4957.500;  138.875;    0.000
826.477; 4896.500;  140.875;    0.000
826.664; 4742.500;  106.875;    0.000
826.851; 4586.500;  155.875;    0.000
827.038; 4552.500;  125.875;    0.000
827.224; 4337.500;  126.875;    0.000
827.411; 4497.500;  163.875;    0.000
827.598; 4348.500;  140.875;    0.000
827.784; 4218.500;  117.875;    0.000
827.971; 4191.500;  114.875;    0.000
828.157; 4015.500;  146.875;    0.000
828.344; 3937.500;  161.875;    0.000
828.531; 3973.500;  155.875;    0.000
828.717; 3888.500;  130.875;    0.000
828.904; 3754.500;  138.875;    0.000
829.090; 3880.500;  176.875;    0.000
829.277; 3687.500;  152.875;    0.000
829.463; 3795.500;  139.875;    0.000
829.650; 3799.500;  168.875;    0.000
829.836; 3670.500;  176.875;    0.000
830.022; 3647.500;  159.875;    0.000
830.209; 3684.500;  135.875;    0.000
830.395; 3574.500;  177.875;    0.000
830.581; 3418.500;  125.875;    0.000
830.768; 3536.500;  155.875;    0.000
830.954; 3506.500;  187.875;    0.000
831.140; 3389.500;  135.875;    0.000
831.327; 3358.500;  158.875;    0.000
831.513; 3358.500;  126.875;    0.000
831.699; 3421.500;  167.875;    0.000
831.885; 3346.500;  165.875;    0.000
832.071; 3259.500;  167.875;    0.000
832.257; 3258.500;  144.875;    0.000
832.444; 3330.500;  158.875;    0.000
832.630; 3263.500;  167.875;    0.000
832.816; 3238.500;  150.875;    0.000
833.002; 3322.500;  157.875;    0.000
833.188; 3288.500;  169.875;    0.000
833.374; 3170.500;  144.875;    0.000
833.560; 3160.500;  179.875;    0.000
833.746; 3130.500;  134.875;    0.000
833.932; 3200.500;  150.875;    0.000
834.118; 3121.500;   98.875;    0.000
834.303; 3046.500;  121.875;    0.000
834.489; 3065.500;  179.875;    0.000
834.675; 3100.500;  136.875;    0.000
834.861; 3069.500;  130.875;    0.000
835.047; 3077.500;  132.875;    0.000
835.233; 3002.500;  104.875;    0.000
835.418; 3019.500;  143.875;    0.000
835.604; 2997.500;  127.875;    0.000
835.790; 3009.500;  138.875;    0.000
835.976; 3017.500;  137.875;    0.000
836.161; 2964.500;  155.875;    0.000
836.347; 2934.500;  101.875;    0.000
836.533; 2933.500;  121.875;    0.000
836.718; 3037.500;  150.875;    0.000
836.904; 2941.500;  168.875;    0.000
837.089; 3001.500;  169.875;    0.000
837.275; 2950.500;  172.875;    0.000
837.460; 3009.500;  140.875;    0.000
837.646; 2951.500;  144.875;    0.000
837.831; 2955.500;  137.875;    0.000
838.017; 3027.500;  176.875;    0.000
838.202; 2816.500;  107.875;    0.000
838.388; 2929.500;  181.875;    0.000
838.573; 2936.500;  151.875;    0.000
838.759; 3024.500;  160.875;    0.000
838.944; 2890.500;  121.875;    0.000
839.129; 2909.500;  145.875;    0.000
839.315; 2911.500;  166.875;    0.000
839.500; 2979.500;  143.875;    0.000
839.685; 2873.500;   93.875;    0.000
839.870; 2938.500;  160.875;    0.000
840.056; 2899.500;  132.875;    0.000
840.241; 2888.500;  154.875;    0.000
840.426; 3030.500;  161.875;    0.000
840.611; 2981.500;  186.875;    0.000
840.796; 2996.500;  135.875;    0.000
840.981; 3174.500;  147.875;    0.000
841.166; 3109.500;  138.875;    0.000
841.352; 3102.500;  156.875;    0.000
841.537; 3073.500;  170.875;    0.000
841.722; 3083.500;  143.875;    0.000
841.907; 3176.500;  143.875;    0.000
842.092; 3131.500;  166.875;    0.000
842.277; 3326.500;  113.875;    0.000
842.461; 3219.500;  126.875;    0.000
842.646; 3302.500;  145.875;    0.000
842.831; 3485.500;  193.875;    0.000
843.016; 3502.500;  162.875;    0.000
843.201; 3492.500;  144.875;    0.000
843.386; 3766.500;  160.875;    0.000
843.571; 3960.500;  136.875;    0.000
843.755; 4101.500;  134.875;    0.000
843.940; 4468.500;  136.875;    0.000
844.125; 4993.500;  169.875;    0.000
844.310; 6164.500;  189.875;    0.000
844.494; 8253.500;  167.875;    0.000
844.679;11867.500;  184.875;    0.000
844.864;11529.500;  147.875;    0.000
845.048; 9033.500;  140.875;    0.000
845.233; 7345.500;  178.875;    0.000
845.418; 6371.500;  145.875;    0.000
845.602; 5474.500;  147.875;    0.000
845.787; 4991.500;  147.875;    0.000
845.971; 4491.500;  165.875;    0.000
846.156; 4275.500;  106.875;    0.000
846.340; 4044.500;  168.875;    0.000
846.525; 3830.500;  155.875;    0.000
846.709; 3732.500;  157.875;    0.000
846.893; 3558.500;  166.875;    0.000
847.078; 3444.500;  138.875;    0.000
847.262; 3303.500;  171.875;    0.000
847.447; 3286.500;  135.875;    0.000
847.631; 3127.500;  136.875;    0.000
847.815; 3092.500;  136.875;    0.000
848.000; 3123.500;  126.875;    0.000
848.184; 2956.500;  131.875;    0.000
848.368; 3032.500;  153.875;    0.000
848.552; 2884.500;  137.875;    0.000
848.736; 2835.500;  151.875;    0.000
848.921; 2932.500;  156.875;    0.000
849.105; 2809.500;  153.875;    0.000
849.289; 2811.500;  180.875;    0.000
849.473; 2827.500;  156.875;    0.000
849.657; 2746.500;  157.875;    0.000
849.841; 2763.500;  147.875;    0.000
850.025; 2745.500;  194.875;    0.000
850.209; 2668.500;  147.875;    0.000
850.393; 2726.500;  141.875;    0.000
850.577; 2680.500;  156.875;    0.000
850.761; 2682.500;  157.875;    0.000
850.945; 2615.500;  128.875;    0.000
851.129; 2611.500;  151.875;    0.000
851.313; 2694.500;  180.875;    0.000
851.497; 2609.500;  123.875;    0.000
851.680; 2506.500;  188.875;    0.000
851.864; 2622.500;  177.875;    0.000
852.048; 2636.500;  163.875;    0.000
852.232; 2598.500;  149.875;    0.000
852.416; 2673.500;  187.875;    0.000
852.599; 2554.500;  169.875;    0.000
852.783; 2562.500;  154.875;    0.000
852.967; 2545.500;  191.875;    0.000
853.150; 2548.500;  170.875;    0.000
853.334; 2489.500;  173.875;    0.000
853.518; 2578.500;  186.875;    0.000
853.701; 2470.500;  142.875;    0.000
853.885; 2497.500;  153.875;    0.000
854.068; 2547.500;  132.875;    0.000
854.252; 2487.500;  184.875;    0.000
854.435; 2568.500;  152.875;    0.000
854.619; 2368.500;  152.875;    0.000
854.802; 2503.500;  164.875;    0.000
854.986; 2384.500;  151.875;    0.000
855.169; 2438.500;  153.875;    0.000
855.353; 2557.500;  183.875;    0.000
855.536; 2519.500;  113.875;    0.000
855.719; 2552.500;  181.875;    0.000
855.903; 2557.500;  159.875;    0.000
856.086; 2532.500;  142.875;    0.000
856.269; 2577.500;  171.875;    0.000
856.452; 2586.500;  132.875;    0.000
856.636; 2731.500;  140.875;    0.000
856.819; 2897.500;  165.875;    0.000
857.002; 2997.500;  170.875;    0.000
857.185; 2915.500;  173.875;    0.000
857.368; 2798.500;  129.875;    0.000
857.552; 2738.500;  151.875;    0.000
857.735; 2747.500;  146.875;    0.000
857.918; 2809.500;  114.875;    0.000
858.101; 2708.500;  152.875;    0.000
858.284; 2768.500;  164.875;    0.000
858.467; 2784.500;  147.875;    0.000
858.650; 2730.500;  146.875;    0.000
858.833; 2753.500;  118.875;    0.000
859.016; 2933.500;  161.875;    0.000
859.199; 3015.500;  135.875;    0.000
859.382; 3367.500;  157.875;    0.000
859.564; 3646.500;  124.875;    0.000
859.747; 3419.500;  154.875;    0.000
859.930; 3237.500;  138.875;    0.000
860.113; 3154.500;  153.875;    0.000
860.296; 3152.500;  180.875;    0.000
860.478; 3006.500;  145.875;    0.000
860.661; 2950.500;  160.875;    0.000
860.844; 2925.500;   96.875;    0.000
861.027; 2974.500;  128.875;    0.000
861.209; 2957.500;  127.875;    0.000
861.392; 2850.500;  126.875;    0.000
861.575; 3002.500;  155.875;    0.000
861.757; 2981.500;  141.875;    0.000
861.940; 3010.500;  181.875;    0.000
862.122; 3063.500;  145.875;    0.000
862.305; 3158.500;  124.875;    0.000
862.487; 3304.500;  151.875;    0.000
862.670; 3475.500;  132.875;    0.000
862.852; 4260.500;  112.875;    0.000
863.035; 5184.500;  116.875;    0.000
863.217; 5096.500;  131.875;    0.000
863.400; 4591.500;  145.875;    0.000
863.582; 4218.500;  147.875;    0.000
863.764; 3989.500;  163.875;    0.000
863.947; 3687.500;  129.875;    0.000
864.129; 3577.500;  159.875;    0.000
864.311; 3578.500;  144.875;    0.000
864.493; 3458.500;  141.875;    0.000
864.676; 3433.500;  159.875;    0.000
864.858; 3320.500;  146.875;    0.000
865.040; 3301.500;  163.875;    0.000
865.222; 3366.500;  133.875;    0.000
865.404; 3518.500;  148.875;    0.000
865.587; 3713.500;  177.875;    0.000
865.769; 3725.500;  172.875;    0.000
865.951; 3713.500;  145.875;    0.000
866.133; 3760.500;  168.875;    0.000
866.315; 3738.500;  147.875;    0.000
866.497; 3731.500;  164.875;    0.000
866.679; 3869.500;  143.875;    0.000
866.861; 3931.500;  170.875;    0.000
867.043; 4189.500;  185.875;    0.000
867.225; 4518.500;  149.875;    0.000
867.407; 4754.500;  143.875;    0.000
867.589; 5527.500;  169.875;    0.000
867.770; 6912.500;  166.875;    0.000
867.952; 9677.500;  158.875;    0.000
868.134;13014.500;  170.875;    0.000
868.316;12926.500;  157.875;    0.000
868.498;12124.500;  186.875;    0.000
868.679;10389.500;  158.875;    0.000
868.861; 8735.500;  180.875;    0.000
869.043; 7030.500;  164.875;    0.000
869.224; 6250.500;  156.875;    0.000
869.406; 5647.500;  176.875;    0.000
869.588; 5321.500;  152.875;    0.000
869.769; 4942.500;  131.875;    0.000
869.951; 4922.500;  203.875;    0.000
870.132; 4884.500;  143.875;    0.000
870.314; 5598.500;  129.875;    0.000
870.495; 5723.500;  175.875;    0.000
870.677; 5152.500;  165.875;    0.000
870.858; 4856.500;  151.875;    0.000
871.040; 5179.500;  155.875;    0.000
871.221; 5894.500;  144.875;    0.000
871.403; 5668.500;  131.875;    0.000
871.584; 5019.500;  174.875;    0.000
871.765; 5183.500;  169.875;    0.000
871.947; 5566.500;  187.875;    0.000
872.128; 4980.500;  181.875;    0.000
872.309; 4315.500;  129.875;    0.000
872.491; 3816.500;  142.875;    0.000
872.672; 3690.500;  158.875;    0.000
872.853; 3684.500;  179.875;    0.000
873.034; 3515.500;  164.875;    0.000
873.215; 3350.500;  168.875;    0.000
873.396; 3077.500;  114.875;    0.000
873.578; 2950.500;  126.875;    0.000
873.759; 3005.500;  177.875;    0.000
873.940; 2848.500;  169.875;    0.000
874.121; 2764.500;  133.875;    0.000
874.302; 2733.500;  164.875;    0.000
874.483; 2656.500;  162.875;    0.000
874.664; 2757.500;  140.875;    0.000
874.845; 2715.500;  124.875;    0.000
875.026; 2617.500;  146.875;    0.000
875.207; 2567.500;  147.875;    0.000
875.388; 2553.500;  174.875;    0.000
875.568; 2441.500;  179.875;    0.000
875.749; 2428.500;  155.875;    0.000
875.930; 2519.500;  166.875;    0.000
876.111; 2418.500;  153.875;    0.000
876.292; 2381.500;  146.875;    0.000
876.472; 2343.500;  167.875;    0.000
876.653; 2311.500;  145.875;    0.000
876.834; 2330.500;  172.875;    0.000
877.015; 2326.500;  184.875;    0.000
877.195; 2313.500;  160.875;    0.000
877.376; 2288.500;  163.875;    0.000
877.556; 2260.500;  164.875;    0.000
877.737; 2330.500;  179.875;    0.000
877.918; 2200.500;  137.875;    0.000
878.098; 2295.500;  117.875;    0.000
878.279; 2145.500;  135.875;    0.000
878.459; 2165.500;  149.875;    0.000
878.640; 2216.500;  171.875;    0.000
878.820; 2119.500;  142.875;    0.000
879.000; 2156.500;  166.875;    0.000
879.181; 2087.500;  177.875;    0.000
879.361; 2171.500;  176.875;    0.000
879.542; 2153.500;  159.875;    0.000
879.722; 2110.500;  122.875;    0.000
879.902; 2183.500;  166.875;    0.000
880.083; 2122.500;  164.875;    0.000
880.263; 2184.500;  139.875;    0.000
880.443; 2233.500;  179.875;    0.000
880.623; 2516.500;  154.875;    0.000
880.803; 2774.500;  160.875;    0.000
880.984; 2432.500;  181.875;    0.000
881.164; 2323.500;  167.875;    0.000
881.344; 2271.500;  141.875;    0.000
881.524; 2339.500;  190.875;    0.000
881.704; 2262.500;  165.875;    0.000
881.884; 2377.500;  144.875;    0.000
882.064; 2602.500;  135.875;    0.000
882.244; 2602.500;  186.875;    0.000
882.424; 2440.500;  150.875;    0.000
882.604; 2326.500;  168.875;    0.000
882.784; 2331.500;  155.875;    0.000
882.964; 2264.500;  137.875;    0.000
883.144; 2094.500;  136.875;    0.000
883.324; 2233.500;  200.875;    0.000
883.504; 2140.500;  203.875;    0.000
883.683; 2132.500;  149.875;    0.000
883.863; 1993.500;  160.875;    0.000
884.043; 2138.500;  161.875;    0.000
884.223; 2007.500;  147.875;    0.000
884.402; 2035.500;  175.875;    0.000
884.582; 2035.500;  188.875;    0.000
884.762; 2039.500;  173.875;    0.000
884.941; 2048.500;  164.875;    0.000
885.121; 1958.500;  147.875;    0.000
885.301; 2052.500;  135.875;    0.000
885.480; 2006.500;  145.875;    0.000
885.660; 1932.500;  144.875;    0.000
885.839; 2031.500;  155.875;    0.000
886.019; 2048.500;  207.875;    0.000
886.198; 1997.500;  165.875;    0.000
886.378; 1976.500;  120.875;    0.000
886.557; 1957.500;  133.875;    0.000
886.737; 1956.500;  119.875;    0.000
886.916; 1925.500;  129.875;    0.000
887.095; 1917.500;  158.875;    0.000
887.275; 1995.500;  169.875;    0.000
887.454; 1913.500;  184.875;    0.000
887.633; 1915.500;  143.875;    0.000
887.813; 1961.500;  154.875;    0.000
887.992; 1943.500;  188.875;    0.000
888.171; 1910.500;  176.875;    0.000
888.350; 1895.500;  161.875;    0.000
888.530; 1928.500;  163.875;    0.000
888.709; 1817.500;  136.875;    0.000
888.888; 1914.500;  177.875;    0.000
889.067; 1880.500;  169.875;    0.000
889.246; 1914.500;  188.875;    0.000
889.425; 1891.500;  187.875;    0.000
889.604; 1927.500;  169.875;    0.000
889.783; 1950.500;  182.875;    0.000
889.962; 1783.500;  112.875;    0.000
890.141; 1920.500;  231.875;    0.000
890.320; 1858.500;  161.875;    0.000
890.499; 1900.500;  164.875;    0.000
890.678; 1868.500;  176.875;    0.000
890.857; 1868.500;  163.875;    0.000
891.036; 1857.500;  161.875;    0.000
891.214; 1878.500;  156.875;    0.000
891.393; 1845.500;  167.875;    0.000
891.572; 1839.500;  163.875;    0.000
891.751; 1923.500;  205.875;    0.000
891.930; 1915.500;  162.875;    0.000
892.108; 1888.500;  153.875;    0.000
892.287; 1899.500;  153.875;    0.000
892.466; 1886.500;  201.875;    0.000
892.644; 1830.500;  158.875;    0.000
892.823; 1884.500;  122.875;    0.000
893.001; 1893.500;  148.875;    0.000
893.180; 1818.500;  142.875;    0.000
893.359; 1900.500;  192.875;    0.000
893.537; 1886.500;  166.875;    0.000
893.716; 1889.500;  144.875;    0.000
893.894; 1885.500;  145.875;    0.000
894.073; 1826.500;  180.875;    0.000
894.251; 1913.500;  165.875;    0.000
894.429; 1882.500;  182.875;    0.000
894.608; 1885.500;  181.875;    0.000
894.786; 1855.500;  180.875;    0.000
894.964; 1896.500;  207.875;    0.000
895.143; 1819.500;  190.875;    0.000
895.321; 1888.500;  206.875;    0.000
895.499; 1863.500;  164.875;    0.000
895.677; 1844.500;  199.875;    0.000
895.856; 1939.500;  203.875;    0.000
896.034; 1818.500;  200.875;    0.000
896.212; 1901.500;  198.875;    0.000
896.390; 1924.500;  161.875;    0.000
896.568; 1911.500;  205.875;    0.000
896.746; 1914.500;  185.875;    0.000
896.924; 1922.500;  179.875;    0.000
897.102; 1929.500;  190.875;    0.000
897.280; 1933.500;  160.875;    0.000
897.458; 1906.500;  196.875;    0.000
897.636; 1922.500;  168.875;    0.000
897.814; 1956.500;  159.875;    0.000
897.992; 1901.500;  216.875;    0.000
898.170; 1873.500;  195.875;    0.000
898.348; 1954.500;  185.875;    0.000
898.526; 1890.500;  199.875;    0.000
898.704; 2003.500;  215.875;    0.000
898.882; 1979.500;  195.875;    0.000
899.059; 1891.500;  197.875;    0.000
899.237; 1942.500;  168.875;    0.000
899.415; 1902.500;  221.875;    0.000
899.593; 1962.500;  171.875;    0.000
899.770; 1934.500;  191.875;    0.000
899.948; 2024.500;  206.875;    0.000
900.125; 2004.500;  175.875;    0.000
900.303; 1930.500;  176.875;    0.000
900.481; 1916.500;  199.875;    0.000
900.658; 2018.500;  217.875;    0.000
900.836; 1939.500;  192.875;    0.000
901.013; 2007.500;  221.875;    0.000
901.191; 2058.500;  203.875;    0.000
901.368; 1997.500;  189.875;    0.000
901.546; 2086.500;  212.875;    0.000
901.723; 2088.500;  189.875;    0.000
901.901; 2130.500;  198.875;    0.000
902.078; 2174.500;  193.875;    0.000
902.255; 2219.500;  176.875;    0.000
902.433; 2210.500;  201.875;    0.000
902.610; 2255.500;  170.875;    0.000
902.787; 2316.500;  164.875;    0.000
902.964; 2320.500;  216.875;    0.000
903.142; 2404.500;  153.875;    0.000
903.319; 2404.500;  204.875;    0.000
903.496; 2384.500;  188.875;    0.000
903.673; 2465.500;  209.875;    0.000
903.850; 2439.500;  173.875;    0.000
904.027; 2607.500;  186.875;    0.000
904.204; 2793.500;  241.875;    0.000
904.381; 2953.500;  187.875;    0.000
904.558; 3375.500;  196.875;    0.000
904.735; 3836.500;  206.875;    0.000
904.912; 3818.500;  228.875;    0.000
905.089; 3937.500;  172.875;    0.000
905.266; 3611.500;  175.875;    0.000
905.443; 3300.500;  239.875;    0.000
905.620; 3083.500;  176.875;    0.000
905.797; 2890.500;  205.875;    0.000
905.974; 2849.500;  187.875;    0.000
906.151; 2854.500;  135.875;    0.000
906.327; 2841.500;  209.875;    0.000
906.504; 2784.500;  145.875;    0.000
906.681; 2678.500;  178.875;    0.000
906.858; 2587.500;  179.875;    0.000
907.034; 2546.500;  221.875;    0.000
907.211; 2501.500;  166.875;    0.000
907.388; 2409.500;  206.875;    0.000
907.564; 2436.500;  150.875;    0.000
907.741; 2346.500;  187.875;    0.000
907.917; 2298.500;  180.875;    0.000
908.094; 2273.500;  206.875;    0.000
908.271; 2259.500;  184.875;    0.000
908.447; 2213.500;  212.875;    0.000
908.623; 2260.500;  193.875;    0.000
908.800; 2230.500;  185.875;    0.000
908.976; 2203.500;  202.875;    0.000
909.153; 2118.500;  175.875;    0.000
909.329; 2139.500;  193.875;    0.000
909.505; 2123.500;  154.875;    0.000
909.682; 2168.500;  188.875;    0.000
909.858; 2120.500;  162.875;    0.000
910.034; 2080.500;  181.875;    0.000
910.211; 2054.500;  142.875;    0.000
910.387; 2060.500;  200.875;    0.000
910.563; 2029.500;  163.875;    0.000
910.739; 2031.500;  156.875;    0.000
910.915; 2103.500;  202.875;    0.000
911.091; 2046.500;  186.875;    0.000
911.268; 2023.500;  167.875;    0.000
911.444; 2007.500;  193.875;    0.000
911.620; 1922.500;  175.875;    0.000
911.796; 2026.500;  168.875;    0.000
911.972; 1992.500;  154.875;    0.000
912.148; 2052.500;  201.875;    0.000
912.324; 2062.500;  146.875;    0.000
912.500; 2068.500;  185.875;    0.000
912.676; 1996.500;  183.875;    0.000
912.851; 2015.500;  204.875;    0.000
913.027; 2051.500;  196.875;    0.000
913.203; 2048.500;  174.875;    0.000
913.379; 1993.500;  210.875;    0.000
913.555; 1939.500;  197.875;    0.000
913.730; 1954.500;  209.875;    0.000
913.906; 2034.500;  169.875;    0.000
914.082; 2007.500;  236.875;    0.000
914.258; 1917.500;  216.875;    0.000
914.433; 1936.500;  212.875;    0.000
914.609; 1992.500;  180.875;    0.000
914.784; 1918.500;  176.875;    0.000
914.960; 2034.500;  227.875;    0.000
915.136; 2037.500;  149.875;    0.000
915.311; 2093.500;  165.875;    0.000
915.487; 1965.500;  167.875;    0.000
915.662; 2032.500;  225.875;    0.000
915.838; 2022.500;  165.875;    0.000
916.013; 2039.500;  188.875;    0.000
916.189; 2005.500;  200.875;    0.000
916.364; 2005.500;  201.875;    0.000
916.539; 2001.500;  240.875;    0.000
916.715; 2028.500;  180.875;    0.000
916.890; 2002.500;  191.875;    0.000
917.065; 1869.500;  211.875;    0.000
917.240; 1963.500;  212.875;    0.000
917.416; 2037.500;  207.875;    0.000
917.591; 2147.500;  189.875;    0.000
917.766; 1990.500;  205.875;    0.000
917.941; 1909.500;  191.875;    0.000
918.116; 1950.500;  195.875;    0.000
918.292; 1959.500;  183.875;    0.000
918.467; 2066.500;  206.875;    0.000
918.642; 2018.500;  190.875;    0.000
918.817; 2039.500;  193.875;    0.000
918.992; 1924.500;  171.875;    0.000
919.167; 2070.500;  191.875;    0.000
919.342; 2070.500;  202.875;    0.000
919.517; 2040.500;  182.875;    0.000
919.692; 2054.500;  190.875;    0.000
919.867; 2039.500;  221.875;    0.000
920.041; 2036.500;  195.875;    0.000
920.216; 2070.500;  226.875;    0.000
920.391; 2099.500;  230.875;    0.000
920.566; 2148.500;  210.875;    0.000
920.741; 2206.500;  204.875;    0.000
920.915; 2213.500;  213.875;    0.000
921.090; 2418.500;  194.875;    0.000
921.265; 2806.500;  234.875;    0.000
921.439; 3219.500;  228.875;    0.000
921.614; 2836.500;  199.875;    0.000
921.789; 2557.500;  194.875;    0.000
921.963; 2520.500;  236.875;    0.000
922.138; 2408.500;  192.875;    0.000
922.312; 2358.500;  203.875;    0.000
922.487; 2381.500;  207.875;    0.000
922.661; 2533.500;  216.875;    0.000
922.836; 2819.500;  199.875;    0.000
923.010; 2945.500;  179.875;    0.000
923.185; 2572.500;  241.875;    0.000
923.359; 2453.500;  199.875;    0.000
923.534; 2469.500;  227.875;    0.000
923.708; 2608.500;  213.875;    0.000
923.882; 2729.500;  203.875;    0.000
924.057; 2549.500;  194.875;    0.000
924.231; 2505.500;  185.875;    0.000
924.405; 2457.500;  223.875;    0.000
924.579; 2349.500;  196.875;    0.000
924.753; 2399.500;  209.875;    0.000
924.928; 2395.500;  202.875;    0.000
925.102; 2349.500;  184.875;    0.000
925.276; 2471.500;  191.875;    0.000
925.450; 2399.500;  199.875;    0.000
925.624; 2414.500;  190.875;    0.000
925.798; 2602.500;  214.875;    0.000
925.972; 2681.500;  193.875;    0.000
926.146; 2934.500;  191.875;    0.000
926.320; 3140.500;  177.875;    0.000
926.494; 3584.500;  190.875;    0.000
926.668; 3736.500;  182.875;    0.000
926.842; 3841.500;  182.875;    0.000
927.016; 3720.500;  235.875;    0.000
927.190; 3635.500;  234.875;    0.000
927.363; 3481.500;  214.875;    0.000
927.537; 3385.500;  198.875;    0.000
927.711; 3213.500;  154.875;    0.000
927.885; 3161.500;  167.875;    0.000
928.058; 3136.500;  210.875;    0.000
928.232; 3065.500;  206.875;    0.000
928.406; 2957.500;  176.875;    0.000
928.579; 2903.500;  182.875;    0.000
928.753; 2895.500;  179.875;    0.000
928.927; 2713.500;  186.875;    0.000
929.100; 2689.500;  188.875;    0.000
929.274; 2581.500;  167.875;    0.000
929.447; 2594.500;  152.875;    0.000
929.621; 2612.500;  195.875;    0.000
929.794; 2519.500;  200.875;    0.000
929.968; 2405.500;  203.875;    0.000
930.141; 2419.500;  237.875;    0.000
930.315; 2396.500;  165.875;    0.000
930.488; 2331.500;  175.875;    0.000
930.661; 2344.500;  173.875;    0.000
930.835; 2329.500;  171.875;    0.000
931.008; 2274.500;  210.875;    0.000
931.181; 2257.500;  206.875;    0.000
931.354; 2184.500;  195.875;    0.000
931.528; 2247.500;  178.875;    0.000
931.701; 2201.500;  179.875;    0.000
931.874; 2188.500;  150.875;    0.000
932.047; 2101.500;  154.875;    0.000
932.220; 2157.500;  185.875;    0.000
932.393; 2098.500;  166.875;    0.000
932.566; 2039.500;  171.875;    0.000
932.739; 2117.500;  196.875;    0.000
932.912; 2071.500;  212.875;    0.000
933.085; 1999.500;  234.875;    0.000
933.258; 2078.500;  212.875;    0.000
933.431; 1988.500;  181.875;    0.000
933.604; 1967.500;  201.875;    0.000
933.777; 2050.500;  201.875;    0.000
933.950; 2026.500;  176.875;    0.000
934.123; 2102.500;  175.875;    0.000
934.296; 2011.500;  174.875;    0.000
934.468; 1922.500;  186.875;    0.000
934.641; 1952.500;  192.875;    0.000
934.814; 1952.500;  187.875;    0.000
934.987; 1932.500;  165.875;    0.000
935.159; 1972.500;  162.875;    0.000
935.332; 1948.500;  210.875;    0.000
935.505; 1997.500;  191.875;    0.000
935.677; 1957.500;  159.875;    0.000
935.850; 2003.500;  170.875;    0.000
936.022; 1953.500;  172.875;    0.000
936.195; 2047.500;  202.875;    0.000
936.367; 1911.500;  179.875;    0.000
936.540; 2037.500;  207.875;    0.000
936.712; 2000.500;  200.875;    0.000
936.885; 2037.500;  219.875;    0.000
937.057; 2046.500;  150.875;    0.000
937.229; 2070.500;  187.875;    0.000
937.402; 2085.500;  169.875;    0.000
937.574; 2057.500;  127.875;    0.000
937.746; 2099.500;  171.875;    0.000
937.919; 2204.500;  176.875;    0.000
938.091; 2336.500;  193.875;    0.000
938.263; 2385.500;  200.875;    0.000
938.435; 2691.500;  181.875;    0.000
938.608; 3178.500;  191.875;    0.000
938.780; 3583.500;  173.875;    0.000
938.952; 3645.500;  184.875;    0.000
939.124; 3741.500;  171.875;    0.000
939.296; 4392.500;  156.875;    0.000
939.468; 4460.500;  147.875;    0.000
939.640; 3962.500;  186.875;    0.000
939.812; 3557.500;  217.875;    0.000
939.984; 3203.500;  155.875;    0.000
940.156; 2925.500;  191.875;    0.000
940.328; 2749.500;  201.875;    0.000
940.500; 2606.500;  176.875;    0.000
940.672; 2543.500;  190.875;    0.000
940.843; 2462.500;  143.875;    0.000
941.015; 2327.500;  189.875;    0.000
941.187; 2261.500;  172.875;    0.000
941.359; 2302.500;  175.875;    0.000
941.531; 2248.500;  154.875;    0.000
941.702; 2236.500;  183.875;    0.000
941.874; 2128.500;  140.875;    0.000
942.046; 2159.500;  177.875;    0.000
942.217; 2038.500;  147.875;    0.000
942.389; 2067.500;  196.875;    0.000
942.560; 2075.500;  163.875;    0.000
942.732; 1967.500;  187.875;    0.000
942.904; 1942.500;  226.875;    0.000
943.075; 1918.500;  159.875;    0.000
943.247; 1884.500;  209.875;    0.000
943.418; 1850.500;  167.875;    0.000
943.589; 1936.500;  195.875;    0.000
943.761; 1862.500;  190.875;    0.000
943.932; 1970.500;  187.875;    0.000
944.104; 1901.500;  194.875;    0.000
944.275; 1852.500;  177.875;    0.000
944.446; 1843.500;  155.875;    0.000
944.617; 1766.500;  176.875;    0.000
944.789; 1756.500;  171.875;    0.000
944.960; 1823.500;  172.875;    0.000
945.131; 1801.500;  158.875;    0.000
945.302; 1818.500;  201.875;    0.000
945.473; 1820.500;  141.875;    0.000
945.645; 1883.500;  197.875;    0.000
945.816; 1898.500;  165.875;    0.000
945.987; 1963.500;  190.875;    0.000
946.158; 1874.500;  158.875;    0.000
946.329; 1957.500;  160.875;    0.000
946.500; 1796.500;  190.875;    0.000
946.671; 1812.500;  152.875;    0.000
946.842; 1760.500;  182.875;    0.000
947.013; 1766.500;  160.875;    0.000
947.183; 1809.500;  203.875;    0.000
947.354; 1735.500;  174.875;    0.000
947.525; 1715.500;  173.875;    0.000
947.696; 1733.500;  170.875;    0.000
947.867; 1792.500;  187.875;    0.000
948.037; 1671.500;  165.875;    0.000
948.208; 1744.500;  154.875;    0.000
948.379; 1778.500;  176.875;    0.000
948.550; 1717.500;  176.875;    0.000
948.720; 1721.500;  169.875;    0.000
948.891; 1746.500;  216.875;    0.000
949.061; 1783.500;  200.875;    0.000
949.232; 1654.500;  163.875;    0.000
949.403; 1675.500;  157.875;    0.000
949.573; 1753.500;  158.875;    0.000
949.744; 1710.500;  213.875;    0.000
949.914; 1748.500;  177.875;    0.000
950.085; 1746.500;  195.875;    0.000
950.255; 1682.500;  166.875;    0.000
950.425; 1647.500;  196.875;    0.000
950.596; 1644.500;  176.875;    0.000
950.766; 1727.500;  228.875;    0.000
950.936; 1724.500;  185.875;    0.000
951.107; 1618.500;  178.875;    0.000
951.277; 1660.500;  227.875;    0.000
951.447; 1685.500;  219.875;    0.000
951.617; 1690.500;  219.875;    0.000
951.788; 1633.500;  198.875;    0.000
951.958; 1632.500;  202.875;    0.000
952.128; 1707.500;  197.875;    0.000
952.298; 1675.500;  211.875;    0.000
952.468; 1676.500;  233.875;    0.000
952.638; 1621.500;  222.875;    0.000
952.808; 1671.500;  210.875;    0.000
952.978; 1650.500;  216.875;    0.000
953.148; 1596.500;  203.875;    0.000
953.318; 1659.500;  212.875;    0.000
953.488; 1613.500;  156.875;    0.000
953.658; 1618.500;  226.875;    0.000
953.828; 1618.500;  223.875;    0.000
953.998; 1633.500;  209.875;    0.000
954.167; 1546.500;  203.875;    0.000
954.337; 1619.500;  209.875;    0.000
954.507; 1616.500;  252.875;    0.000
954.677; 1538.500;  207.875;    0.000
954.846; 1647.500;  240.875;    0.000
955.016; 1622.500;  197.875;    0.000
955.186; 1556.500;  208.875;    0.000
955.355; 1641.500;  243.875;    0.000
955.525; 1488.500;  211.875;    0.000
955.695; 1572.500;  187.875;    0.000
955.864; 1552.500;  204.875;    0.000
956.034; 1535.500;  199.875;    0.000
956.203; 1601.500;  257.875;    0.000
956.373; 1479.500;  193.875;    0.000
956.542; 1565.500;  187.875;    0.000
956.711; 1563.500;  259.875;    0.000
956.881; 1508.500;  227.875;    0.000
957.050; 1553.500;  260.875;    0.000
957.220; 1606.500;  246.875;    0.000
957.389; 1515.500;  211.875;    0.000
957.558; 1492.500;  197.875;    0.000
957.727; 1533.500;  227.875;    0.000
957.897; 1537.500;  219.875;    0.000
958.066; 1580.500;  180.875;    0.000
958.235; 1472.500;  179.875;    0.000
958.404; 1457.500;  194.875;    0.000
958.573; 1557.500;  235.875;    0.000
958.743; 1483.500;  191.875;    0.000
958.912; 1451.500;  181.875;    0.000
959.081; 1487.500;  193.875;    0.000
959.250; 1435.500;  180.875;    0.000
959.419; 1489.500;  205.875;    0.000
959.588; 1492.500;  241.875;    0.000
959.757; 1462.500;  202.875;    0.000
959.926; 1536.500;  212.875;    0.000
960.094; 1442.500;  199.875;    0.000
960.263; 1499.500;  226.875;    0.000
960.432; 1411.500;  188.875;    0.000
960.601; 1374.500;  200.875;    0.000
960.770; 1505.500;  197.875;    0.000
960.939; 1520.500;  195.875;    0.000
961.107; 1454.500;  198.875;    0.000
961.276; 1444.500;  151.875;    0.000
961.445; 1462.500;  227.875;    0.000
961.613; 1423.500;  186.875;    0.000
961.782; 1437.500;  187.875;    0.000
961.951; 1432.500;  194.875;    0.000
962.119; 1457.500;  227.875;    0.000
962.288; 1456.500;  181.875;    0.000
962.456; 1414.500;  206.875;    0.000
962.625; 1447.500;  181.875;    0.000
962.793; 1395.500;  216.875;    0.000
962.962; 1449.500;  237.875;    0.000
963.130; 1351.500;  194.875;    0.000
963.298; 1406.500;  190.875;    0.000
963.467; 1492.500;  204.875;    0.000
963.635; 1452.500;  159.875;    0.000
963.803; 1387.500;  208.875;    0.000
963.972; 1444.500;  206.875;    0.000
964.140; 1354.500;  178.875;    0.000
964.308; 1405.500;  185.875;    0.000
964.477; 1427.500;  189.875;    0.000
964.645; 1406.500;  201.875;    0.000
964.813; 1413.500;  200.875;    0.000
964.981; 1480.500;  160.875;    0.000
965.149; 1495.500;  230.875;    0.000
965.317; 1492.500;  214.875;    0.000
965.485; 1456.500;  190.875;    0.000
965.653; 1507.500;  239.875;    0.000
965.821; 1403.500;  211.875;    0.000
965.989; 1492.500;  216.875;    0.000
966.157; 1371.500;  198.875;    0.000
966.325; 1415.500;  200.875;    0.000
966.493; 1474.500;  187.875;    0.000
966.661; 1442.500;  181.875;    0.000
966.829; 1425.500;  181.875;    0.000
966.996; 1452.500;  220.875;    0.000
967.164; 1408.500;  179.875;    0.000
967.332; 1530.500;  203.875;    0.000
967.500; 1408.500;  200.875;    0.000
967.667; 1413.500;  196.875;    0.000
967.835; 1455.500;  199.875;    0.000
968.003; 1483.500;  191.875;    0.000
968.170; 1426.500;  141.875;    0.000
968.338; 1377.500;  185.875;    0.000
968.505; 1409.500;  199.875;    0.000
968.673; 1458.500;  191.875;    0.000
968.841; 1332.500;  165.875;    0.000
969.008; 1420.500;  192.875;    0.000
969.175; 1417.500;  172.875;    0.000
969.343; 1441.500;  191.875;    0.000
969.510; 1426.500;  199.875;    0.000
969.678; 1429.500;  156.875;    0.000
969.845; 1505.500;  191.875;    0.000
970.012; 1465.500;  205.875;    0.000
970.180; 1415.500;  201.875;    0.000
970.347; 1396.500;  229.875;    0.000
970.514; 1399.500;  207.875;    0.000
970.681; 1387.500;  169.875;    0.000
970.849; 1427.500;  196.875;    0.000
971.016; 1478.500;  212.875;    0.000
971.183; 1397.500;  178.875;    0.000
971.350; 1400.500;  193.875;    0.000
971.517; 1424.500;  190.875;    0.000
971.684; 1450.500;  261.875;    0.000
971.851; 1426.500;  203.875;    0.000
972.018; 1423.500;  184.875;    0.000
972.185; 1391.500;  226.875;    0.000
972.352; 1409.500;  180.875;    0.000
972.519; 1412.500;  226.875;    0.000
972.686; 1476.500;  233.875;    0.000
972.853; 1370.500;  173.875;    0.000
973.020; 1400.500;  208.875;    0.000
973.186; 1367.500;  173.875;    0.000
973.353; 1517.500;  218.875;    0.000
973.520; 1425.500;  218.875;    0.000
973.687; 1426.500;  176.875;    0.000
973.853; 1479.500;  203.875;    0.000
974.020; 1444.500;  196.875;    0.000
974.187; 1379.500;  188.875;    0.000
974.353; 1385.500;  230.875;    0.000
974.520; 1410.500;  195.875;    0.000
974.687; 1436.500;  209.875;    0.000
974.853; 1391.500;  189.875;    0.000
975.020; 1466.500;  179.875;    0.000
975.186; 1359.500;  204.875;    0.000
975.353; 1434.500;  201.875;    0.000
975.519; 1363.500;  200.875;    0.000
975.685; 1430.500;  176.875;    0.000
975.852; 1420.500;  197.875;    0.000
976.018; 1386.500;  201.875;    0.000
976.184; 1350.500;  176.875;    0.000
976.351; 1382.500;  221.875;    0.000
976.517; 1426.500;  203.875;    0.000
976.683; 1413.500;  236.875;    0.000
976.849; 1434.500;  190.875;    0.000
977.016; 1394.500;  173.875;    0.000
977.182; 1420.500;  200.875;    0.000
977.348; 1424.500;  179.875;    0.000
977.514; 1363.500;  159.875;    0.000
977.680; 1340.500;  200.875;    0.000
977.846; 1392.500;  206.875;    0.000
978.012; 1355.500;  219.875;    0.000
978.178; 1399.500;  229.875;    0.000
978.344; 1350.500;  195.875;    0.000
978.510; 1319.500;  209.875;    0.000
978.676; 1345.500;  190.875;    0.000
978.842; 1350.500;  195.875;    0.000
979.008; 1340.500;  186.875;    0.000
979.174; 1380.500;  185.875;    0.000
979.340; 1344.500;  198.875;    0.000
979.505; 1371.500;  214.875;    0.000
979.671; 1388.500;  159.875;    0.000
979.837; 1449.500;  202.875;    0.000
980.003; 1359.500;  190.875;    0.000
980.168; 1397.500;  216.875;    0.000
980.334; 1410.500;  194.875;    0.000
980.499; 1409.500;  229.875;    0.000
980.665; 1369.500;  240.875;    0.000
980.831; 1348.500;  202.875;    0.000
980.996; 1411.500;  179.875;    0.000
981.162; 1416.500;  212.875;    0.000
981.327; 1405.500;  202.875;    0.000
981.493; 1413.500;  219.875;    0.000
981.658; 1409.500;  218.875;    0.000
981.823; 1414.500;  207.875;    0.000
981.989; 1371.500;  207.875;    0.000
982.154; 1393.500;  224.875;    0.000
982.319; 1391.500;  217.875;    0.000
982.485; 1449.500;  266.875;    0.000
982.650; 1470.500;  245.875;    0.000
982.815; 1404.500;  229.875;    0.000
982.980; 1387.500;  203.875;    0.000
983.146; 1454.500;  242.875;    0.000
983.311; 1409.500;  144.875;    0.000
983.476; 1496.500;  222.875;    0.000
983.641; 1373.500;  206.875;    0.000
983.806; 1344.500;  217.875;    0.000
983.971; 1390.500;  254.875;    0.000
984.136; 1399.500;  217.875;    0.000
984.301; 1381.500;  202.875;    0.000
984.466; 1355.500;  206.875;    0.000
984.631; 1415.500;  224.875;    0.000
984.796; 1376.500;  218.875;    0.000
984.961; 1312.500;  202.875;    0.000
985.126; 1383.500;  238.875;    0.000
985.291; 1388.500;  220.875;    0.000
985.455; 1370.500;  223.875;    0.000
985.620; 1343.500;  218.875;    0.000
985.785; 1393.500;  228.875;    0.000
985.950; 1424.500;  212.875;    0.000
986.114; 1427.500;  215.875;    0.000
986.279; 1402.500;  243.875;    0.000
986.444; 1426.500;  222.875;    0.000
986.608; 1495.500;  243.875;    0.000
986.773; 1397.500;  213.875;    0.000
986.937; 1552.500;  267.875;    0.000
987.102; 1466.500;  235.875;    0.000
987.266; 1438.500;  210.875;    0.000
987.431; 1492.500;  239.875;    0.000
987.595; 1419.500;  230.875;    0.000
987.760; 1395.500;  229.875;    0.000
987.924; 1432.500;  217.875;    0.000
988.088; 1428.500;  210.875;    0.000
988.253; 1413.500;  215.875;    0.000
988.417; 1392.500;  186.875;    0.000
988.581; 1334.500;  214.875;    0.000
988.746; 1389.500;  212.875;    0.000
988.910; 1425.500;  192.875;    0.000
989.074; 1395.500;  195.875;    0.000
989.238; 1361.500;  226.875;    0.000
989.402; 1312.500;  214.875;    0.000
989.566; 1387.500;  201.875;    0.000
989.731; 1369.500;  199.875;    0.000
989.895; 1366.500;  205.875;    0.000
990.059; 1323.500;  204.875;    0.000
990.223; 1329.500;  182.875;    0.000
990.387; 1394.500;  220.875;    0.000
990.551; 1347.500;  199.875;    0.000
990.714; 1320.500;  202.875;    0.000
990.878; 1430.500;  201.875;    0.000
991.042; 1361.500;  202.875;    0.000
991.206; 1372.500;  215.875;    0.000
991.370; 1336.500;  217.875;    0.000
991.534; 1285.500;  152.875;    0.000
991.697; 1374.500;  194.875;    0.000
991.861; 1335.500;  208.875;    0.000
992.025; 1365.500;  209.875;    0.000
992.188; 1403.500;  182.875;    0.000
992.352; 1329.500;  181.875;    0.000
992.516; 1372.500;  192.875;    0.000
992.679; 1320.500;  183.875;    0.000
992.843; 1385.500;  156.875;    0.000
993.006; 1300.500;  192.875;    0.000
993.170; 1369.500;  172.875;    0.000
993.333; 1257.500;  195.875;    0.000
993.497; 1299.500;  185.875;    0.000
993.660; 1345.500;  155.875;    0.000
993.824; 1397.500;  199.875;    0.000
993.987; 1353.500;  211.875;    0.000
994.150; 1349.500;  173.875;    0.000
994.314; 1404.500;  202.875;    0.000
994.477; 1369.500;  171.875;    0.000
994.640; 1411.500;  191.875;    0.000
994.803; 1377.500;  203.875;    0.000
994.967; 1367.500;  198.875;    0.000
995.130; 1389.500;  192.875;    0.000
995.293; 1399.500;  211.875;    0.000
995.456; 1358.500;  207.875;    0.000
995.619; 1357.500;  207.875;    0.000
995.782; 1296.500;  186.875;    0.000
995.945; 1355.500;  203.875;    0.000
996.108; 1320.500;  195.875;    0.000
996.271; 1342.500;  195.875;    0.000
996.434; 1337.500;  179.875;    0.000
996.597; 1325.500;  170.875;    0.000
996.760; 1336.500;  161.875;    0.000
996.923; 1353.500;  177.875;    0.000
997.086; 1306.500;  199.875;    0.000
997.248; 1353.500;  225.875;    0.000
997.411; 1301.500;  194.875;    0.000
997.574; 1303.500;  204.875;    0.000
997.737; 1341.500;  236.875;    0.000
997.899; 1332.500;  191.875;    0.000
998.062; 1321.500;  178.875;    0.000
998.225; 1339.500;  176.875;    0.000
998.387; 1332.500;  203.875;    0.000
998.550; 1371.500;  155.875;    0.000
998.712; 1319.500;  169.875;    0.000
998.875; 1319.500;  234.875;    0.000
999.037; 1316.500;  211.875;    0.000
999.200; 1245.500;  185.875;    0.000
999.362; 1290.500;  199.875;    0.000
999.525; 1348.500;  234.875;    0.000
999.687; 1288.500;  194.875;    0.000
999.849; 1343.500;  223.875;    0.000
1000.012; 1335.500;  222.875;    0.000
1000.174; 1348.500;  187.875;    0.000
1000.336; 1283.500;  204.875;    0.000
1000.499; 1337.500;  240.875;    0.000
1000.661; 1350.500;  215.875;    0.000
1000.823; 1312.500;  206.875;    0.000
1000.985; 1297.500;  197.875;    0.000
1001.147; 1416.500;  221.875;    0.000
1001.309; 1329.500;  207.875;    0.000
1001.471; 1356.500;  227.875;    0.000
1001.633; 1371.500;  208.875;    0.000
1001.796; 1355.500;  158.875;    0.000
1001.958; 1373.500;  210.875;    0.000
1002.119; 1419.500;  223.875;    0.000
1002.281; 1497.500;  211.875;    0.000
1002.443; 1502.500;  227.875;    0.000
1002.605; 1610.500;  186.875;    0.000
1002.767; 1643.500;  242.875;    0.000
1002.929; 1644.500;  219.875;    0.000
1003.091; 1765.500;  191.875;    0.000
1003.252; 1836.500;  233.875;    0.000
1003.414; 1928.500;  214.875;    0.000
1003.576; 1906.500;  186.875;    0.000
1003.738; 2033.500;  175.875;    0.000
1003.899; 2145.500;  237.875;    0.000
1004.061; 2247.500;  220.875;    0.000
1004.222; 2347.500;  186.875;    0.000
1004.384; 2438.500;  216.875;    0.000
1004.546; 2397.500;  203.875;    0.000
1004.707; 2487.500;  216.875;    0.000
1004.869; 2552.500;  219.875;    0.000
1005.030; 2488.500;  188.875;    0.000
1005.191; 2434.500;  223.875;    0.000
1005.353; 2463.500;  227.875;    0.000
1005.514; 2260.500;  235.875;    0.000
1005.675; 2209.500;  201.875;    0.000
1005.837; 2059.500;  199.875;    0.000
1005.998; 1942.500;  219.875;    0.000
1006.159; 2024.500;  235.875;    0.000
1006.321; 2067.500;  199.875;    0.000
1006.482; 2103.500;  222.875;    0.000
1006.643; 2130.500;  195.875;    0.000
1006.804; 2210.500;  205.875;    0.000
1006.965; 2265.500;  199.875;    0.000
1007.126; 2374.500;  231.875;    0.000
1007.287; 2316.500;  208.875;    0.000
1007.448; 2324.500;  205.875;    0.000
1007.609; 2268.500;  256.875;    0.000
1007.770; 2263.500;  231.875;    0.000
1007.931; 2254.500;  223.875;    0.000
1008.092; 2195.500;  217.875;    0.000
1008.253; 2357.500;  236.875;    0.000
1008.414; 2327.500;  197.875;    0.000
1008.575; 2348.500;  233.875;    0.000
1008.736; 2376.500;  193.875;    0.000
1008.896; 2354.500;  238.875;    0.000
1009.057; 2345.500;  245.875;    0.000
1009.218; 2378.500;  240.875;    0.000
1009.379; 2305.500;  210.875;    0.000
1009.539; 2439.500;  234.875;    0.000
1009.700; 2456.500;  228.875;    0.000
1009.860; 2457.500;  238.875;    0.000
1010.021; 2404.500;  199.875;    0.000
1010.182; 2471.500;  214.875;    0.000
1010.342; 2464.500;  216.875;    0.000
1010.503; 2419.500;  207.875;    0.000
1010.663; 2633.500;  258.875;    0.000
1010.823; 2611.500;  243.875;    0.000
1010.984; 2644.500;  268.875;    0.000
1011.144; 2803.500;  217.875;    0.000
1011.305; 2914.500;  237.875;    0.000
1011.465; 3003.500;  216.875;    0.000
1011.625; 3010.500;  195.875;    0.000
1011.785; 3151.500;  201.875;    0.000
1011.946; 3024.500;  200.875;    0.000
1012.106; 2866.500;  206.875;    0.000
1012.266; 2980.500;  227.875;    0.000
1012.426; 3020.500;  221.875;    0.000
1012.586; 2952.500;  198.875;    0.000
1012.746; 2899.500;  215.875;    0.000
1012.906; 2910.500;  226.875;    0.000
1013.066; 2947.500;  221.875;    0.000
1013.226; 2943.500;  202.875;    0.000
1013.386; 2873.500;  210.875;    0.000
1013.546; 2806.500;  243.875;    0.000
1013.706; 2738.500;  200.875;    0.000
1013.866; 2836.500;  232.875;    0.000
1014.026; 2898.500;  206.875;    0.000
1014.186; 2751.500;  222.875;    0.000
1014.346; 2754.500;  233.875;    0.000
1014.505; 2822.500;  241.875;    0.000
1014.665; 2895.500;  225.875;    0.000
1014.825; 2880.500;  196.875;    0.000
1014.985; 2898.500;  234.875;    0.000
1015.144; 2964.500;  232.875;    0.000
1015.304; 3008.500;  214.875;    0.000
1015.464; 3078.500;  210.875;    0.000
1015.623; 3037.500;  219.875;    0.000
1015.783; 3142.500;  216.875;    0.000
1015.942; 3509.500;  267.875;    0.000
1016.102; 3463.500;  234.875;    0.000
1016.261; 3434.500;  230.875;    0.000
1016.420; 3463.500;  225.875;    0.000
1016.580; 3974.500;  205.875;    0.000
1016.739; 3949.500;  199.875;    0.000
1016.899; 3866.500;  218.875;    0.000
1017.058; 3992.500;  204.875;    0.000
1017.217; 4340.500;  196.875;    0.000
1017.376; 4144.500;  204.875;    0.000
1017.536; 3597.500;  195.875;    0.000
1017.695; 3712.500;  216.875;    0.000
1017.854; 3787.500;  235.875;    0.000
1018.013; 3597.500;  189.875;    0.000
1018.172; 3413.500;  217.875;    0.000
1018.331; 3411.500;  215.875;    0.000
1018.490; 3549.500;  233.875;    0.000
1018.649; 3670.500;  211.875;    0.000
1018.808; 3845.500;  196.875;    0.000
1018.967; 3869.500;  222.875;    0.000
1019.126; 3908.500;  221.875;    0.000
1019.285; 3987.500;  212.875;    0.000
1019.444; 4018.500;  231.875;    0.000
1019.603; 3839.500;  227.875;    0.000
1019.762; 3641.500;  192.875;    0.000
1019.921; 3755.500;  240.875;    0.000
1020.079; 3828.500;  209.875;    0.000
1020.238; 4086.500;  211.875;    0.000
1020.397; 3972.500;  253.875;    0.000
1020.555; 3715.500;  179.875;    0.000
1020.714; 3876.500;  225.875;    0.000
1020.873; 4151.500;  232.875;    0.000
1021.031; 4132.500;  245.875;    0.000
1021.190; 3993.500;  230.875;    0.000
1021.348; 3878.500;  221.875;    0.000
1021.507; 4129.500;  212.875;    0.000
1021.665; 4472.500;  211.875;    0.000
1021.824; 4329.500;  206.875;    0.000
1021.982; 3937.500;  218.875;    0.000
1022.141; 3834.500;  232.875;    0.000
1022.299; 4379.500;  193.875;    0.000
1022.457; 4721.500;  217.875;    0.000
1022.616; 4403.500;  248.875;    0.000
1022.774; 3675.500;  222.875;    0.000
1022.932; 3942.500;  211.875;    0.000
1023.090; 4586.500;  288.875;    0.000
1023.249; 4767.500;  214.875;    0.000
1023.407; 4324.500;  233.875;    0.000
1023.565; 3922.500;  208.875;    0.000
1023.723; 4134.500;  217.875;    0.000
1023.881; 4762.500;  235.875;    0.000
1024.039; 4822.500;  228.875;    0.000
1024.197; 4295.500;  216.875;    0.000
1024.355; 4102.500;  251.875;    0.000
1024.513; 4194.500;  232.875;    0.000
1024.671; 4872.500;  217.875;    0.000
1024.829; 4940.500;  255.875;    0.000
1024.987; 4548.500;  203.875;    0.000
1025.145; 4156.500;  239.875;    0.000
1025.302; 4250.500;  209.875;    0.000
1025.460; 4649.500;  224.875;    0.000
1025.618; 4883.500;  193.875;    0.000
1025.776; 4843.500;  209.875;    0.000
1025.933; 4233.500;  229.875;    0.000
1026.091; 4248.500;  218.875;    0.000
1026.249; 4681.500;  269.875;    0.000
1026.406; 5010.500;  264.875;    0.000
1026.564; 4856.500;  230.875;    0.000
1026.721; 4521.500;  198.875;    0.000
1026.879; 4363.500;  216.875;    0.000
1027.036; 4745.500;  226.875;    0.000
1027.194; 5088.500;  245.875;    0.000
1027.351; 5103.500;  236.875;    0.000
1027.509; 4777.500;  262.875;    0.000
1027.666; 4456.500;  227.875;    0.000
1027.823; 4737.500;  214.875;    0.000
1027.981; 5017.500;  258.875;    0.000
1028.138; 5122.500;  239.875;    0.000
1028.295; 4895.500;  226.875;    0.000
1028.452; 4675.500;  225.875;    0.000
1028.609; 4673.500;  276.875;    0.000
1028.767; 4943.500;  228.875;    0.000
1028.924; 5204.500;  213.875;    0.000
1029.081; 4998.500;  232.875;    0.000
1029.238; 4968.500;  250.875;    0.000
1029.395; 4705.500;  255.875;    0.000
1029.552; 4782.500;  217.875;    0.000
1029.709; 5111.500;  210.875;    0.000
1029.866; 5258.500;  243.875;    0.000
1030.023; 5257.500;  202.875;    0.000
1030.180; 4701.500;  233.875;    0.000
1030.337; 4744.500;  234.875;    0.000
1030.494; 4976.500;  222.875;    0.000
1030.650; 5044.500;  241.875;    0.000
1030.807; 5389.500;  206.875;    0.000
1030.964; 5045.500;  206.875;    0.000
1031.121; 4997.500;  228.875;    0.000
1031.277; 4915.500;  228.875;    0.000
1031.434; 5173.500;  234.875;    0.000
1031.591; 5467.500;  250.875;    0.000
1031.747; 5623.500;  246.875;    0.000
1031.904; 5371.500;  201.875;    0.000
1032.060; 5190.500;  237.875;    0.000
1032.217; 4925.500;  232.875;    0.000
1032.373; 5626.500;  210.875;    0.000
1032.530; 5674.500;  246.875;    0.000
1032.686; 6222.500;  196.875;    0.000
1032.843; 6328.500;  212.875;    0.000
1032.999; 5629.500;  243.875;    0.000
1033.155; 5958.500;  234.875;    0.000
1033.312; 5946.500;  246.875;    0.000
1033.468; 7014.500;  233.875;    0.000
1033.624; 7555.500;  237.875;    0.000
1033.780; 7787.500;  263.875;    0.000
1033.937; 7992.500;  214.875;    0.000
1034.093; 7216.500;  230.875;    0.000
1034.249; 7452.500;  206.875;    0.000
1034.405; 7388.500;  238.875;    0.000
1034.561; 8092.500;  231.875;    0.000
1034.717; 8747.500;  228.875;    0.000
1034.873; 8469.500;  262.875;    0.000
1035.029; 8699.500;  252.875;    0.000
1035.185; 8033.500;  232.875;    0.000
1035.341; 7619.500;  245.875;    0.000
1035.497; 8332.500;  253.875;    0.000
1035.653; 8411.500;  252.875;    0.000
1035.809; 9492.500;  245.875;    0.000
1035.964;10221.500;  229.875;    0.000
1036.120; 9530.500;  226.875;    0.000
1036.276; 9607.500;  236.875;    0.000
1036.432; 8998.500;  203.875;    0.000
1036.587; 8637.500;  228.875;    0.000
1036.743; 9167.500;  240.875;    0.000
1036.899; 9710.500;  220.875;    0.000
1037.054;10028.500;  153.875;    0.000
1037.210;11100.500;  219.875;    0.000
1037.365;11459.500;  229.875;    0.000
1037.521;10550.500;  257.875;    0.000
1037.676;10642.500;  211.875;    0.000
1037.832; 9485.500;  234.875;    0.000
1037.987; 9585.500;  235.875;    0.000
1038.143; 9590.500;  176.875;    0.000
1038.298;11140.500;  262.875;    0.000
1038.453;11174.500;  209.875;    0.000
1038.609;11843.500;  230.875;    0.000
1038.764;12435.500;  253.875;    0.000
1038.919;11434.500;  195.875;    0.000
1039.074;11675.500;  234.875;    0.000
1039.229;10834.500;  234.875;    0.000
1039.385;10268.500;  266.875;    0.000
1039.540;11000.500;  252.875;    0.000
1039.695;11946.500;  231.875;    0.000
1039.850;13174.500;  208.875;    0.000
1040.005;13534.500;  232.875;    0.000
1040.160;14601.500;  214.875;    0.000
1040.315;13817.500;  221.875;    0.000
1040.470;12816.500;  207.875;    0.000
1040.625;12310.500;  249.875;    0.000
1040.780;12136.500;  251.875;    0.000
1040.935;11851.500;  254.875;    0.000
1041.089;12015.500;  210.875;    0.000
1041.244;14107.500;  225.875;    0.000
1041.399;14950.500;  208.875;    0.000
1041.554;16417.500;  249.875;    0.000
1041.708;17828.500;  254.875;    0.000
1041.863;17474.500;  248.875;    0.000
1042.018;16556.500;  280.875;    0.000
1042.172;15898.500;  233.875;    0.000
1042.327;15301.500;  256.875;    0.000
1042.481;15377.500;  210.875;    0.000
1042.636;15900.500;  229.875;    0.000
1042.791;15855.500;  215.875;    0.000
1042.945;17758.500;  256.875;    0.000
1043.099;20225.500;  251.875;    0.000
1043.254;19827.500;  204.875;    0.000
1043.408;21079.500;  278.875;    0.000
1043.563;22134.500;  211.875;    0.000
1043.717;21018.500;  259.875;    0.000
1043.871;20411.500;  233.875;    0.000
1044.025;19434.500;  221.875;    0.000
1044.180;18508.500;  208.875;    0.000
1044.334;19650.500;  255.875;    0.000
1044.488;19856.500;  269.875;    0.000
1044.642;20802.500;  228.875;    0.000
1044.796;23416.500;  232.875;    0.000
1044.950;26387.500;  249.875;    0.000
1045.104;28282.500;  205.875;    0.000
1045.258;28641.500;  206.875;    0.000
1045.412;27964.500;  251.875;    0.000
1045.566;26987.500;  249.875;    0.000
1045.720;24842.500;  206.875;    0.000
1045.874;23968.500;  232.875;    0.000
1046.028;22167.500;  266.875;    0.000
1046.182;22627.500;  217.875;    0.000
1046.336;23654.500;  216.875;    0.000
1046.489;23596.500;  236.875;    0.000
1046.643;24221.500;  253.875;    0.000
1046.797;27488.500;  244.875;    0.000
1046.951;28934.500;  234.875;    0.000
1047.104;29092.500;  281.875;    0.000
1047.258;30773.500;  253.875;    0.000
1047.411;32773.500;  228.875;    0.000
1047.565;31895.500;  273.875;    0.000
1047.719;29692.500;  232.875;    0.000
1047.872;29107.500;  230.875;    0.000
1048.026;28215.500;  282.875;    0.000
1048.179;28315.500;  225.875;    0.000
1048.332;27126.500;  234.875;    0.000
1048.486;26377.500;  223.875;    0.000
1048.639;27724.500;  248.875;    0.000
1048.792;27206.500;  244.875;    0.000
1048.946;28640.500;  210.875;    0.000
1049.099;32142.500;  242.875;    0.000
1049.252;32781.500;  269.875;    0.000
1049.406;31277.500;  285.875;    0.000
1049.559;33128.500;  277.875;    0.000
1049.712;35603.500;  254.875;    0.000
1049.865;39498.500;  252.875;    0.000
1050.018;38787.500;  270.875;    0.000
1050.171;33655.500;  230.875;    0.000
1050.324;31827.500;  268.875;    0.000
1050.477;33604.500;  262.875;    0.000
1050.630;36112.500;  243.875;    0.000
1050.783;38930.500;  216.875;    0.000
1050.936;36510.500;  250.875;    0.000
1051.089;34180.500;  247.875;    0.000
1051.242;35039.500;  300.875;    0.000
1051.394;38649.500;  233.875;    0.000
1051.547;40126.500;  263.875;    0.000
1051.700;37176.500;  238.875;    0.000
1051.853;36527.500;  299.875;    0.000
1052.005;39206.500;  275.875;    0.000
1052.158;43625.500;  304.875;    0.000
1052.311;48468.500;  251.875;    0.000
1052.463;47659.500;  276.875;    0.000
1052.616;41298.500;  271.875;    0.000
1052.768;36780.500;  285.875;    0.000
1052.921;35939.500;  261.875;    0.000
1053.073;38783.500;  333.875;    0.000
1053.226;42666.500;  271.875;    0.000
1053.378;48870.500;  309.875;    0.000
1053.531;53277.500;  266.875;    0.000
1053.683;50692.500;  278.875;    0.000
1053.835;42722.500;  274.875;    0.000
1053.988;33318.500;  287.875;    0.000
1054.140; 5824.500;  350.875;    0.000
1054.292; 1435.500;  338.875;    0.000
1054.444; 1149.500;  270.875;    0.000
1054.596; 1080.500;  294.875;    0.000
1054.749;  970.500;  285.875;    0.000
1054.901;  923.500;  254.875;    0.000
1055.053;  842.500;  320.875;    0.000
1055.205;  815.500;  284.875;    0.000
1055.357;  745.500;  298.875;    0.000
1055.509;  716.500;  304.875;    0.000
1055.661;  746.500;  350.875;    0.000
1055.813;  656.500;  289.875;    0.000
1055.965;  650.500;  277.875;    0.000
1056.116;  657.500;  288.875;    0.000
1056.268;  669.500;  311.875;    0.000
1056.420;  676.500;  308.875;    0.000

