
Integration time [ms]:   0.300
Averaging Nr. [scans]: 1
Smoothing Nr. [pixels]: 0
Data measured with spectrometer [name]: VIS
Wave   ;Sample   ;Dark     ;Reference
[nm]   ;[counts] ;[counts] ;[counts] 

450.961;  204.150;  204.350;    0.000
451.100;  213.150;  243.350;    0.000
451.239;  215.150;  228.350;    0.000
451.377;  217.150;  250.350;    0.000
451.516;  219.150;  189.350;    0.000
451.655;  247.150;  235.350;    0.000
451.794;  220.150;  223.350;    0.000
451.932;  231.150;  269.350;    0.000
452.071;  226.150;  250.350;    0.000
452.210;  241.150;  262.350;    0.000
452.348;  243.150;  259.350;    0.000
452.487;  229.150;  231.350;    0.000
452.626;  213.150;  220.350;    0.000
452.764;  240.150;  252.350;    0.000
452.903;  220.150;  236.350;    0.000
453.042;  269.150;  217.350;    0.000
453.180; 2394.150;  273.350;    0.000
453.319; 2410.150;  261.350;    0.000
453.458; 2475.150;  219.350;    0.000
453.596; 2621.150;  307.350;    0.000
453.735; 2560.150;  246.350;    0.000
453.873; 2562.150;  270.350;    0.000
454.012; 2502.150;  232.350;    0.000
454.150; 2695.150;  211.350;    0.000
454.289; 2642.150;  245.350;    0.000
454.427; 2695.150;  224.350;    0.000
454.566; 2736.150;  252.350;    0.000
454.704; 2666.150;  225.350;    0.000
454.843; 2695.150;  195.350;    0.000
454.981; 2738.150;  258.350;    0.000
455.120; 2723.150;  191.350;    0.000
455.258; 2795.150;  243.350;    0.000
455.397; 2830.150;  188.350;    0.000
455.535; 2841.150;  219.350;    0.000
455.674; 2922.150;  184.350;    0.000
455.812; 2901.150;  225.350;    0.000
455.951; 2855.150;  201.350;    0.000
456.089; 2934.150;  187.350;    0.000
456.227; 2936.150;  199.350;    0.000
456.366; 3000.150;  235.350;    0.000
456.504; 3032.150;  216.350;    0.000
456.642; 2989.150;  256.350;    0.000
456.781; 3108.150;  201.350;    0.000
456.919; 3067.150;  231.350;    0.000
457.057; 3129.150;  181.350;    0.000
457.196; 3185.150;  231.350;    0.000
457.334; 3178.150;  229.350;    0.000
457.472; 3331.150;  242.350;    0.000
457.610; 3385.150;  221.350;    0.000
457.749; 3370.150;  218.350;    0.000
457.887; 3418.150;  213.350;    0.000
458.025; 3404.150;  228.350;    0.000
458.163; 3459.150;  204.350;    0.000
458.301; 3606.150;  230.350;    0.000
458.440; 3542.150;  200.350;    0.000
458.578; 3592.150;  222.350;    0.000
458.716; 3655.150;  137.350;    0.000
458.854; 3721.150;  259.350;    0.000
458.992; 3676.150;  172.350;    0.000
459.130; 3826.150;  253.350;    0.000
459.269; 3747.150;  212.350;    0.000
459.407; 3985.150;  212.350;    0.000
459.545; 3780.150;  225.350;    0.000
459.683; 3859.150;  225.350;    0.000
459.821; 3918.150;  192.350;    0.000
459.959; 3893.150;  205.350;    0.000
460.097; 3986.150;  199.350;    0.000
460.235; 3983.150;  232.350;    0.000
460.373; 4099.150;  248.350;    0.000
460.511; 4056.150;  225.350;    0.000
460.649; 4146.150;  204.350;    0.000
460.787; 4194.150;  221.350;    0.000
460.925; 4079.150;  181.350;    0.000
461.063; 4243.150;  243.350;    0.000
461.201; 4231.150;  212.350;    0.000
461.339; 4214.150;  229.350;    0.000
461.477; 4248.150;  162.350;    0.000
461.615; 4265.150;  232.350;    0.000
461.753; 4311.150;  193.350;    0.000
461.891; 4281.150;  217.350;    0.000
462.029; 4370.150;  224.350;    0.000
462.166; 4503.150;  222.350;    0.000
462.304; 4584.150;  185.350;    0.000
462.442; 4675.150;  246.350;    0.000
462.580; 4548.150;  246.350;    0.000
462.718; 4646.150;  235.350;    0.000
462.856; 4549.150;  230.350;    0.000
462.993; 4647.150;  266.350;    0.000
463.131; 4563.150;  208.350;    0.000
463.269; 4527.150;  218.350;    0.000
463.407; 4452.150;  215.350;    0.000
463.545; 4504.150;  200.350;    0.000
463.682; 4447.150;  206.350;    0.000
463.820; 4815.150;  211.350;    0.000
463.958; 4877.150;  206.350;    0.000
464.095; 5035.150;  193.350;    0.000
464.233; 4943.150;  203.350;    0.000
464.371; 4967.150;  258.350;    0.000
464.509; 4969.150;  219.350;    0.000
464.646; 4928.150;  210.350;    0.000
464.784; 4911.150;  206.350;    0.000
464.921; 4807.150;  233.350;    0.000
465.059; 4821.150;  186.350;    0.000
465.197; 4790.150;  213.350;    0.000
465.334; 4627.150;  202.350;    0.000
465.472; 4651.150;  236.350;    0.000
465.609; 4525.150;  206.350;    0.000
465.747; 4504.150;  208.350;    0.000
465.885; 4620.150;  198.350;    0.000
466.022; 4465.150;  210.350;    0.000
466.160; 4539.150;  245.350;    0.000
466.297; 4408.150;  226.350;    0.000
466.435; 4493.150;  235.350;    0.000
466.572; 4593.150;  226.350;    0.000
466.710; 4582.150;  266.350;    0.000
466.847; 4625.150;  258.350;    0.000
466.985; 4371.150;  228.350;    0.000
467.122; 4362.150;  201.350;    0.000
467.260; 4390.150;  170.350;    0.000
467.397; 4340.150;  174.350;    0.000
467.534; 4392.150;  244.350;    0.000
467.672; 4353.150;  247.350;    0.000
467.809; 4554.150;  182.350;    0.000
467.947; 4484.150;  208.350;    0.000
468.084; 4371.150;  206.350;    0.000
468.221; 4431.150;  249.350;    0.000
468.359; 4302.150;  253.350;    0.000
468.496; 4556.150;  208.350;    0.000
468.633; 4405.150;  189.350;    0.000
468.771; 4413.150;  216.350;    0.000
468.908; 4469.150;  240.350;    0.000
469.045; 4506.150;  234.350;    0.000
469.183; 4477.150;  203.350;    0.000
469.320; 4526.150;  230.350;    0.000
469.457; 4566.150;  219.350;    0.000
469.594; 4676.150;  233.350;    0.000
469.732; 4620.150;  230.350;    0.000
469.869; 4686.150;  239.350;    0.000
470.006; 4628.150;  224.350;    0.000
470.143; 4686.150;  241.350;    0.000
470.280; 4873.150;  234.350;    0.000
470.417; 4785.150;  236.350;    0.000
470.555; 4812.150;  207.350;    0.000
470.692; 4725.150;  251.350;    0.000
470.829; 4768.150;  238.350;    0.000
470.966; 4634.150;  242.350;    0.000
471.103; 4740.150;  215.350;    0.000
471.240; 4627.150;  237.350;    0.000
471.377; 4700.150;  235.350;    0.000
471.514; 4749.150;  256.350;    0.000
471.651; 4560.150;  198.350;    0.000
471.789; 4701.150;  215.350;    0.000
471.926; 4599.150;  210.350;    0.000
472.063; 4645.150;  237.350;    0.000
472.200; 4618.150;  265.350;    0.000
472.337; 4509.150;  240.350;    0.000
472.474; 4538.150;  195.350;    0.000
472.611; 4615.150;  228.350;    0.000
472.748; 4580.150;  234.350;    0.000
472.884; 4462.150;  230.350;    0.000
473.021; 4522.150;  219.350;    0.000
473.158; 4460.150;  253.350;    0.000
473.295; 4605.150;  207.350;    0.000
473.432; 4547.150;  238.350;    0.000
473.569; 4532.150;  236.350;    0.000
473.706; 4514.150;  203.350;    0.000
473.843; 4455.150;  232.350;    0.000
473.980; 4484.150;  207.350;    0.000
474.117; 4455.150;  182.350;    0.000
474.253; 4637.150;  261.350;    0.000
474.390; 4488.150;  211.350;    0.000
474.527; 4527.150;  229.350;    0.000
474.664; 4493.150;  181.350;    0.000
474.801; 4583.150;  250.350;    0.000
474.937; 4564.150;  196.350;    0.000
475.074; 4615.150;  213.350;    0.000
475.211; 4629.150;  232.350;    0.000
475.348; 4664.150;  228.350;    0.000
475.484; 4633.150;  240.350;    0.000
475.621; 4607.150;  235.350;    0.000
475.758; 4743.150;  232.350;    0.000
475.894; 4562.150;  227.350;    0.000
476.031; 4651.150;  233.350;    0.000
476.168; 4590.150;  205.350;    0.000
476.304; 4721.150;  263.350;    0.000
476.441; 4715.150;  255.350;    0.000
476.578; 4582.150;  191.350;    0.000
476.714; 4701.150;  218.350;    0.000
476.851; 4714.150;  224.350;    0.000
476.987; 4654.150;  225.350;    0.000
477.124; 4647.150;  231.350;    0.000
477.261; 4800.150;  291.350;    0.000
477.397; 4806.150;  218.350;    0.000
477.534; 4810.150;  209.350;    0.000
477.670; 4766.150;  210.350;    0.000
477.807; 4905.150;  199.350;    0.000
477.943; 4921.150;  219.350;    0.000
478.080; 4980.150;  234.350;    0.000
478.216; 4884.150;  196.350;    0.000
478.353; 4926.150;  234.350;    0.000
478.489; 4916.150;  219.350;    0.000
478.626; 5032.150;  209.350;    0.000
478.762; 4961.150;  206.350;    0.000
478.898; 5025.150;  209.350;    0.000
479.035; 5058.150;  232.350;    0.000
479.171; 5071.150;  219.350;    0.000
479.308; 4989.150;  226.350;    0.000
479.444; 5046.150;  184.350;    0.000
479.580; 5158.150;  192.350;    0.000
479.717; 4982.150;  247.350;    0.000
479.853; 5175.150;  181.350;    0.000
479.989; 5258.150;  212.350;    0.000
480.126; 5108.150;  187.350;    0.000
480.262; 5204.150;  217.350;    0.000
480.398; 5106.150;  249.350;    0.000
480.535; 5155.150;  196.350;    0.000
480.671; 5180.150;  199.350;    0.000
480.807; 5237.150;  231.350;    0.000
480.943; 5113.150;  192.350;    0.000
481.080; 5148.150;  206.350;    0.000
481.216; 5107.150;  189.350;    0.000
481.352; 5077.150;  215.350;    0.000
481.488; 5058.150;  223.350;    0.000
481.624; 5138.150;  235.350;    0.000
481.760; 5041.150;  218.350;    0.000
481.897; 5023.150;  204.350;    0.000
482.033; 5156.150;  243.350;    0.000
482.169; 4968.150;  239.350;    0.000
482.305; 4950.150;  221.350;    0.000
482.441; 5074.150;  162.350;    0.000
482.577; 5055.150;  241.350;    0.000
482.713; 5109.150;  223.350;    0.000
482.849; 4995.150;  195.350;    0.000
482.985; 5026.150;  230.350;    0.000
483.121; 5104.150;  230.350;    0.000
483.258; 5121.150;  254.350;    0.000
483.394; 4950.150;  199.350;    0.000
483.530; 5101.150;  209.350;    0.000
483.665; 4934.150;  196.350;    0.000
483.801; 4917.150;  208.350;    0.000
483.937; 4924.150;  202.350;    0.000
484.073; 5114.150;  247.350;    0.000
484.209; 5120.150;  188.350;    0.000
484.345; 5102.150;  241.350;    0.000
484.481; 5192.150;  247.350;    0.000
484.617; 5115.150;  248.350;    0.000
484.753; 5038.150;  255.350;    0.000
484.889; 5139.150;  253.350;    0.000
485.025; 5144.150;  226.350;    0.000
485.161; 5115.150;  207.350;    0.000
485.296; 5035.150;  247.350;    0.000
485.432; 5188.150;  255.350;    0.000
485.568; 5129.150;  216.350;    0.000
485.704; 5125.150;  232.350;    0.000
485.840; 5087.150;  231.350;    0.000
485.975; 5187.150;  233.350;    0.000
486.111; 5079.150;  207.350;    0.000
486.247; 5252.150;  211.350;    0.000
486.383; 5186.150;  219.350;    0.000
486.518; 5139.150;  213.350;    0.000
486.654; 5277.150;  216.350;    0.000
486.790; 5301.150;  253.350;    0.000
486.926; 5107.150;  229.350;    0.000
487.061; 5058.150;  241.350;    0.000
487.197; 5207.150;  218.350;    0.000
487.333; 5296.150;  221.350;    0.000
487.468; 5276.150;  206.350;    0.000
487.604; 5213.150;  254.350;    0.000
487.740; 5170.150;  240.350;    0.000
487.875; 5269.150;  260.350;    0.000
488.011; 5049.150;  232.350;    0.000
488.146; 5095.150;  206.350;    0.000
488.282; 5210.150;  236.350;    0.000
488.417; 5134.150;  255.350;    0.000
488.553; 5220.150;  221.350;    0.000
488.688; 5124.150;  233.350;    0.000
488.824; 5213.150;  246.350;    0.000
488.960; 5244.150;  267.350;    0.000
489.095; 5252.150;  217.350;    0.000
489.230; 5245.150;  226.350;    0.000
489.366; 5355.150;  232.350;    0.000
489.501; 5390.150;  220.350;    0.000
489.637; 5287.150;  245.350;    0.000
489.772; 5401.150;  228.350;    0.000
489.908; 5226.150;  250.350;    0.000
490.043; 5401.150;  239.350;    0.000
490.178; 5156.150;  213.350;    0.000
490.314; 5393.150;  270.350;    0.000
490.449; 5448.150;  245.350;    0.000
490.585; 5360.150;  218.350;    0.000
490.720; 5388.150;  243.350;    0.000
490.855; 5371.150;  196.350;    0.000
490.991; 5166.150;  208.350;    0.000
491.126; 5367.150;  268.350;    0.000
491.261; 5401.150;  226.350;    0.000
491.396; 5445.150;  201.350;    0.000
491.532; 5229.150;  213.350;    0.000
491.667; 5508.150;  183.350;    0.000
491.802; 5337.150;  239.350;    0.000
491.937; 5466.150;  228.350;    0.000
492.073; 5526.150;  258.350;    0.000
492.208; 5526.150;  218.350;    0.000
492.343; 5493.150;  205.350;    0.000
492.478; 5464.150;  247.350;    0.000
492.613; 5400.150;  217.350;    0.000
492.749; 5420.150;  258.350;    0.000
492.884; 5418.150;  208.350;    0.000
493.019; 5440.150;  248.350;    0.000
493.154; 5439.150;  231.350;    0.000
493.289; 5421.150;  226.350;    0.000
493.424; 5467.150;  216.350;    0.000
493.559; 5630.150;  205.350;    0.000
493.694; 5299.150;  203.350;    0.000
493.829; 5453.150;  231.350;    0.000
493.964; 5392.150;  200.350;    0.000
494.099; 5421.150;  253.350;    0.000
494.234; 5408.150;  244.350;    0.000
494.369; 5469.150;  239.350;    0.000
494.504; 5364.150;  223.350;    0.000
494.639; 5487.150;  263.350;    0.000
494.774; 5426.150;  240.350;    0.000
494.909; 5449.150;  231.350;    0.000
495.044; 5552.150;  195.350;    0.000
495.179; 5357.150;  231.350;    0.000
495.314; 5421.150;  231.350;    0.000
495.449; 5396.150;  239.350;    0.000
495.584; 5456.150;  201.350;    0.000
495.719; 5559.150;  201.350;    0.000
495.854; 5412.150;  201.350;    0.000
495.988; 5638.150;  239.350;    0.000
496.123; 5421.150;  199.350;    0.000
496.258; 5485.150;  256.350;    0.000
496.393; 5605.150;  214.350;    0.000
496.528; 5699.150;  220.350;    0.000
496.663; 5628.150;  207.350;    0.000
496.797; 5756.150;  241.350;    0.000
496.932; 5696.150;  215.350;    0.000
497.067; 5832.150;  240.350;    0.000
497.202; 5823.150;  177.350;    0.000
497.336; 5979.150;  221.350;    0.000
497.471; 6007.150;  228.350;    0.000
497.606; 6081.150;  213.350;    0.000
497.740; 6285.150;  217.350;    0.000
497.875; 6343.150;  182.350;    0.000
498.010; 6445.150;  230.350;    0.000
498.144; 6601.150;  217.350;    0.000
498.279; 6686.150;  194.350;    0.000
498.414; 6858.150;  270.350;    0.000
498.548; 6747.150;  184.350;    0.000
498.683; 6780.150;  188.350;    0.000
498.817; 6886.150;  216.350;    0.000
498.952; 6988.150;  208.350;    0.000
499.087; 7084.150;  236.350;    0.000
499.221; 7251.150;  219.350;    0.000
499.356; 7341.150;  263.350;    0.000
499.490; 7300.150;  221.350;    0.000
499.625; 7607.150;  233.350;    0.000
499.759; 7663.150;  245.350;    0.000
499.894; 7949.150;  241.350;    0.000
500.028; 8226.150;  237.350;    0.000
500.162; 8273.150;  282.350;    0.000
500.297; 8337.150;  232.350;    0.000
500.431; 8493.150;  266.350;    0.000
500.566; 8272.150;  254.350;    0.000
500.700; 8392.150;  238.350;    0.000
500.835; 8254.150;  264.350;    0.000
500.969; 8026.150;  165.350;    0.000
501.103; 7798.150;  190.350;    0.000
501.238; 7723.150;  274.350;    0.000
501.372; 7401.150;  270.350;    0.000
501.506; 7264.150;  231.350;    0.000
501.641; 7288.150;  224.350;    0.000
501.775; 6874.150;  224.350;    0.000
501.909; 6773.150;  218.350;    0.000
502.043; 6678.150;  238.350;    0.000
502.178; 6511.150;  289.350;    0.000
502.312; 6383.150;  225.350;    0.000
502.446; 6462.150;  295.350;    0.000
502.580; 6294.150;  200.350;    0.000
502.715; 6268.150;  256.350;    0.000
502.849; 6143.150;  226.350;    0.000
502.983; 5987.150;  250.350;    0.000
503.117; 5988.150;  229.350;    0.000
503.251; 5930.150;  267.350;    0.000
503.385; 5777.150;  237.350;    0.000
503.520; 5727.150;  210.350;    0.000
503.654; 5719.150;  204.350;    0.000
503.788; 5725.150;  236.350;    0.000
503.922; 5568.150;  225.350;    0.000
504.056; 5540.150;  222.350;    0.000
504.190; 5563.150;  220.350;    0.000
504.324; 5477.150;  257.350;    0.000
504.458; 5376.150;  223.350;    0.000
504.592; 5233.150;  252.350;    0.000
504.726; 5249.150;  216.350;    0.000
504.860; 5111.150;  231.350;    0.000
504.994; 5096.150;  228.350;    0.000
505.128; 5143.150;  239.350;    0.000
505.262; 4964.150;  245.350;    0.000
505.396; 4998.150;  231.350;    0.000
505.530; 4915.150;  211.350;    0.000
505.664; 4861.150;  223.350;    0.000
505.798; 4831.150;  239.350;    0.000
505.932; 4723.150;  232.350;    0.000
506.066; 4686.150;  263.350;    0.000
506.199; 4787.150;  231.350;    0.000
506.333; 4668.150;  213.350;    0.000
506.467; 4609.150;  241.350;    0.000
506.601; 4559.150;  233.350;    0.000
506.735; 4570.150;  235.350;    0.000
506.869; 4533.150;  269.350;    0.000
507.002; 4681.150;  244.350;    0.000
507.136; 4556.150;  258.350;    0.000
507.270; 4367.150;  218.350;    0.000
507.404; 4434.150;  191.350;    0.000
507.537; 4408.150;  226.350;    0.000
507.671; 4334.150;  243.350;    0.000
507.805; 4321.150;  234.350;    0.000
507.939; 4323.150;  234.350;    0.000
508.072; 4384.150;  261.350;    0.000
508.206; 4241.150;  220.350;    0.000
508.340; 4428.150;  241.350;    0.000
508.473; 4186.150;  214.350;    0.000
508.607; 4275.150;  232.350;    0.000
508.740; 4179.150;  222.350;    0.000
508.874; 4346.150;  225.350;    0.000
509.008; 4345.150;  258.350;    0.000
509.141; 4210.150;  210.350;    0.000
509.275; 4109.150;  199.350;    0.000
509.408; 4253.150;  260.350;    0.000
509.542; 4242.150;  252.350;    0.000
509.675; 4256.150;  276.350;    0.000
509.809; 4202.150;  266.350;    0.000
509.942; 4152.150;  227.350;    0.000
510.076; 4080.150;  243.350;    0.000
510.209; 4112.150;  221.350;    0.000
510.343; 4189.150;  229.350;    0.000
510.476; 4186.150;  246.350;    0.000
510.610; 4087.150;  211.350;    0.000
510.743; 4109.150;  279.350;    0.000
510.877; 3973.150;  274.350;    0.000
511.010; 4032.150;  252.350;    0.000
511.143; 4010.150;  228.350;    0.000
511.277; 3917.150;  261.350;    0.000
511.410; 4060.150;  217.350;    0.000
511.543; 4020.150;  230.350;    0.000
511.677; 3997.150;  245.350;    0.000
511.810; 4002.150;  237.350;    0.000
511.943; 4024.150;  224.350;    0.000
512.077; 4039.150;  194.350;    0.000
512.210; 4021.150;  212.350;    0.000
512.343; 4086.150;  236.350;    0.000
512.476; 3882.150;  248.350;    0.000
512.610; 4027.150;  249.350;    0.000
512.743; 4105.150;  224.350;    0.000
512.876; 4056.150;  277.350;    0.000
513.009; 4114.150;  261.350;    0.000
513.142; 4096.150;  213.350;    0.000
513.276; 3907.150;  192.350;    0.000
513.409; 4072.150;  267.350;    0.000
513.542; 4077.150;  224.350;    0.000
513.675; 3938.150;  244.350;    0.000
513.808; 3981.150;  218.350;    0.000
513.941; 3965.150;  237.350;    0.000
514.074; 3949.150;  257.350;    0.000
514.207; 3886.150;  245.350;    0.000
514.340; 4046.150;  195.350;    0.000
514.474; 4136.150;  244.350;    0.000
514.607; 4154.150;  230.350;    0.000
514.740; 4056.150;  246.350;    0.000
514.873; 4118.150;  268.350;    0.000
515.006; 4144.150;  253.350;    0.000
515.139; 4149.150;  235.350;    0.000
515.272; 4120.150;  214.350;    0.000
515.404; 4167.150;  228.350;    0.000
515.537; 4264.150;  263.350;    0.000
515.670; 4133.150;  270.350;    0.000
515.803; 4216.150;  243.350;    0.000
515.936; 4167.150;  226.350;    0.000
516.069; 4207.150;  227.350;    0.000
516.202; 4253.150;  259.350;    0.000
516.335; 4232.150;  260.350;    0.000
516.468; 4379.150;  243.350;    0.000
516.600; 4903.150;  258.350;    0.000
516.733; 5539.150;  235.350;    0.000
516.866; 5746.150;  267.350;    0.000
516.999; 5481.150;  251.350;    0.000
517.132; 6121.150;  261.350;    0.000
517.264; 8029.150;  260.350;    0.000
517.397; 7887.150;  231.350;    0.000
517.530; 6530.150;  257.350;    0.000
517.663; 5796.150;  263.350;    0.000
517.795; 5412.150;  250.350;    0.000
517.928; 5268.150;  257.350;    0.000
518.061; 5147.150;  227.350;    0.000
518.193; 6432.150;  252.350;    0.000
518.326; 9037.150;  227.350;    0.000
518.459; 9895.150;  210.350;    0.000
518.591; 7927.150;  214.350;    0.000
518.724; 6277.150;  269.350;    0.000
518.857; 5469.150;  215.350;    0.000
518.989; 5244.150;  259.350;    0.000
519.122; 4955.150;  238.350;    0.000
519.254; 4769.150;  248.350;    0.000
519.387; 4674.150;  246.350;    0.000
519.519; 4420.150;  239.350;    0.000
519.652; 4409.150;  249.350;    0.000
519.784; 4279.150;  238.350;    0.000
519.917; 4212.150;  231.350;    0.000
520.049; 4152.150;  244.350;    0.000
520.182; 4189.150;  205.350;    0.000
520.314; 4188.150;  262.350;    0.000
520.447; 4097.150;  234.350;    0.000
520.579; 4131.150;  273.350;    0.000
520.712; 4077.150;  215.350;    0.000
520.844; 4008.150;  258.350;    0.000
520.976; 3877.150;  242.350;    0.000
521.109; 4010.150;  232.350;    0.000
521.241; 3855.150;  236.350;    0.000
521.373; 3822.150;  227.350;    0.000
521.506; 3697.150;  212.350;    0.000
521.638; 3830.150;  292.350;    0.000
521.770; 3760.150;  259.350;    0.000
521.903; 3773.150;  263.350;    0.000
522.035; 3708.150;  269.350;    0.000
522.167; 3654.150;  289.350;    0.000
522.300; 3684.150;  255.350;    0.000
522.432; 3693.150;  247.350;    0.000
522.564; 3662.150;  239.350;    0.000
522.696; 3563.150;  246.350;    0.000
522.828; 3698.150;  230.350;    0.000
522.961; 3583.150;  239.350;    0.000
523.093; 3508.150;  269.350;    0.000
523.225; 3630.150;  251.350;    0.000
523.357; 3503.150;  244.350;    0.000
523.489; 3560.150;  266.350;    0.000
523.621; 3475.150;  267.350;    0.000
523.753; 3451.150;  234.350;    0.000
523.885; 3468.150;  229.350;    0.000
524.018; 3481.150;  221.350;    0.000
524.150; 3473.150;  264.350;    0.000
524.282; 3421.150;  283.350;    0.000
524.414; 3533.150;  258.350;    0.000
524.546; 3363.150;  286.350;    0.000
524.678; 3384.150;  274.350;    0.000
524.810; 3290.150;  253.350;    0.000
524.942; 3364.150;  183.350;    0.000
525.074; 3348.150;  232.350;    0.000
525.206; 3383.150;  250.350;    0.000
525.338; 3351.150;  228.350;    0.000
525.469; 3330.150;  224.350;    0.000
525.601; 3377.150;  247.350;    0.000
525.733; 3329.150;  199.350;    0.000
525.865; 3367.150;  230.350;    0.000
525.997; 3281.150;  209.350;    0.000
526.129; 3374.150;  211.350;    0.000
526.261; 3214.150;  233.350;    0.000
526.393; 3242.150;  261.350;    0.000
526.524; 3283.150;  206.350;    0.000
526.656; 3222.150;  260.350;    0.000
526.788; 3330.150;  293.350;    0.000
526.920; 3208.150;  208.350;    0.000
527.052; 3236.150;  204.350;    0.000
527.183; 3315.150;  244.350;    0.000
527.315; 3270.150;  237.350;    0.000
527.447; 3228.150;  236.350;    0.000
527.578; 3191.150;  235.350;    0.000
527.710; 3233.150;  253.350;    0.000
527.842; 3253.150;  231.350;    0.000
527.973; 3294.150;  224.350;    0.000
528.105; 3215.150;  237.350;    0.000
528.237; 3169.150;  213.350;    0.000
528.368; 3208.150;  194.350;    0.000
528.500; 3276.150;  195.350;    0.000
528.632; 3244.150;  201.350;    0.000
528.763; 3195.150;  196.350;    0.000
528.895; 3234.150;  204.350;    0.000
529.026; 3205.150;  214.350;    0.000
529.158; 3263.150;  197.350;    0.000
529.289; 3225.150;  230.350;    0.000
529.421; 3227.150;  247.350;    0.000
529.552; 3266.150;  255.350;    0.000
529.684; 3258.150;  270.350;    0.000
529.815; 3357.150;  248.350;    0.000
529.947; 3200.150;  234.350;    0.000
530.078; 3235.150;  223.350;    0.000
530.210; 3188.150;  243.350;    0.000
530.341; 3194.150;  222.350;    0.000
530.472; 3230.150;  217.350;    0.000
530.604; 3185.150;  242.350;    0.000
530.735; 3207.150;  249.350;    0.000
530.867; 3203.150;  257.350;    0.000
530.998; 3180.150;  250.350;    0.000
531.129; 3218.150;  244.350;    0.000
531.260; 3296.150;  276.350;    0.000
531.392; 3309.150;  220.350;    0.000
531.523; 3183.150;  262.350;    0.000
531.654; 3349.150;  264.350;    0.000
531.786; 3376.150;  225.350;    0.000
531.917; 3327.150;  285.350;    0.000
532.048; 3238.150;  239.350;    0.000
532.179; 3377.150;  248.350;    0.000
532.311; 3304.150;  219.350;    0.000
532.442; 3219.150;  264.350;    0.000
532.573; 3221.150;  230.350;    0.000
532.704; 3300.150;  253.350;    0.000
532.835; 3276.150;  239.350;    0.000
532.966; 3271.150;  247.350;    0.000
533.097; 3283.150;  225.350;    0.000
533.229; 3216.150;  282.350;    0.000
533.360; 3319.150;  236.350;    0.000
533.491; 3279.150;  247.350;    0.000
533.622; 3187.150;  265.350;    0.000
533.753; 3235.150;  226.350;    0.000
533.884; 3259.150;  294.350;    0.000
534.015; 3271.150;  215.350;    0.000
534.146; 3285.150;  223.350;    0.000
534.277; 3311.150;  264.350;    0.000
534.408; 3303.150;  232.350;    0.000
534.539; 3323.150;  274.350;    0.000
534.670; 3347.150;  275.350;    0.000
534.801; 3222.150;  261.350;    0.000
534.932; 3157.150;  225.350;    0.000
535.063; 3143.150;  235.350;    0.000
535.194; 3217.150;  300.350;    0.000
535.324; 3191.150;  249.350;    0.000
535.455; 3202.150;  260.350;    0.000
535.586; 3334.150;  288.350;    0.000
535.717; 3109.150;  237.350;    0.000
535.848; 3276.150;  271.350;    0.000
535.979; 3193.150;  234.350;    0.000
536.109; 3190.150;  255.350;    0.000
536.240; 3178.150;  269.350;    0.000
536.371; 3166.150;  232.350;    0.000
536.502; 3145.150;  253.350;    0.000
536.632; 3074.150;  240.350;    0.000
536.763; 3118.150;  251.350;    0.000
536.894; 3166.150;  256.350;    0.000
537.025; 3168.150;  247.350;    0.000
537.155; 3142.150;  272.350;    0.000
537.286; 2978.150;  241.350;    0.000
537.417; 3064.150;  279.350;    0.000
537.547; 3082.150;  229.350;    0.000
537.678; 3059.150;  227.350;    0.000
537.808; 3108.150;  225.350;    0.000
537.939; 3086.150;  250.350;    0.000
538.070; 3085.150;  263.350;    0.000
538.200; 3144.150;  270.350;    0.000
538.331; 2967.150;  249.350;    0.000
538.461; 3105.150;  230.350;    0.000
538.592; 3104.150;  282.350;    0.000
538.722; 3180.150;  253.350;    0.000
538.853; 3113.150;  240.350;    0.000
538.983; 3037.150;  232.350;    0.000
539.114; 3104.150;  248.350;    0.000
539.244; 3009.150;  256.350;    0.000
539.375; 3153.150;  248.350;    0.000
539.505; 3070.150;  235.350;    0.000
539.636; 3078.150;  237.350;    0.000
539.766; 3169.150;  263.350;    0.000
539.896; 3048.150;  217.350;    0.000
540.027; 3186.150;  217.350;    0.000
540.157; 3198.150;  231.350;    0.000
540.287; 3034.150;  210.350;    0.000
540.418; 3114.150;  239.350;    0.000
540.548; 3127.150;  260.350;    0.000
540.678; 3090.150;  228.350;    0.000
540.809; 3126.150;  241.350;    0.000
540.939; 3260.150;  238.350;    0.000
541.069; 3142.150;  245.350;    0.000
541.200; 3031.150;  225.350;    0.000
541.330; 3202.150;  219.350;    0.000
541.460; 3166.150;  254.350;    0.000
541.590; 3169.150;  234.350;    0.000
541.720; 3066.150;  196.350;    0.000
541.851; 3095.150;  200.350;    0.000
541.981; 3210.150;  235.350;    0.000
542.111; 3314.150;  246.350;    0.000
542.241; 3290.150;  214.350;    0.000
542.371; 3216.150;  221.350;    0.000
542.501; 3245.150;  259.350;    0.000
542.631; 3326.150;  213.350;    0.000
542.761; 3360.150;  240.350;    0.000
542.891; 3382.150;  242.350;    0.000
543.021; 3449.150;  230.350;    0.000
543.151; 3476.150;  261.350;    0.000
543.281; 3298.150;  212.350;    0.000
543.411; 3307.150;  229.350;    0.000
543.542; 3162.150;  204.350;    0.000
543.671; 3366.150;  260.350;    0.000
543.801; 3293.150;  236.350;    0.000
543.931; 3342.150;  243.350;    0.000
544.061; 3379.150;  262.350;    0.000
544.191; 3240.150;  223.350;    0.000
544.321; 3282.150;  217.350;    0.000
544.451; 3208.150;  209.350;    0.000
544.581; 3346.150;  213.350;    0.000
544.711; 3383.150;  256.350;    0.000
544.841; 3357.150;  235.350;    0.000
544.970; 3430.150;  260.350;    0.000
545.100; 3395.150;  236.350;    0.000
545.230; 3544.150;  220.350;    0.000
545.360; 3533.150;  219.350;    0.000
545.490; 3510.150;  217.350;    0.000
545.619; 3390.150;  199.350;    0.000
545.749; 3325.150;  183.350;    0.000
545.879; 3349.150;  169.350;    0.000
546.009; 3362.150;  215.350;    0.000
546.138; 3214.150;  228.350;    0.000
546.268; 3328.150;  209.350;    0.000
546.398; 3224.150;  167.350;    0.000
546.527; 3238.150;  178.350;    0.000
546.657; 3176.150;  175.350;    0.000
546.786; 3258.150;  225.350;    0.000
546.916; 3287.150;  196.350;    0.000
547.046; 3243.150;  185.350;    0.000
547.175; 3302.150;  184.350;    0.000
547.305; 3269.150;  197.350;    0.000
547.434; 3260.150;  168.350;    0.000
547.564; 3247.150;  183.350;    0.000
547.693; 3203.150;  204.350;    0.000
547.823; 3214.150;  211.350;    0.000
547.953; 3178.150;  174.350;    0.000
548.082; 3271.150;  217.350;    0.000
548.211; 3129.150;  201.350;    0.000
548.341; 3235.150;  195.350;    0.000
548.470; 3268.150;  225.350;    0.000
548.600; 3210.150;  194.350;    0.000
548.729; 3241.150;  218.350;    0.000
548.859; 3130.150;  202.350;    0.000
548.988; 3301.150;  193.350;    0.000
549.117; 3287.150;  182.350;    0.000
549.247; 3248.150;  198.350;    0.000
549.376; 3274.150;  200.350;    0.000
549.505; 3286.150;  200.350;    0.000
549.635; 3348.150;  224.350;    0.000
549.764; 3223.150;  200.350;    0.000
549.893; 3313.150;  224.350;    0.000
550.023; 3226.150;  207.350;    0.000
550.152; 3288.150;  167.350;    0.000
550.281; 3265.150;  219.350;    0.000
550.410; 3327.150;  217.350;    0.000
550.539; 3272.150;  211.350;    0.000
550.669; 3296.150;  173.350;    0.000
550.798; 3307.150;  211.350;    0.000
550.927; 3382.150;  195.350;    0.000
551.056; 3301.150;  176.350;    0.000
551.185; 3375.150;  203.350;    0.000
551.314; 3301.150;  178.350;    0.000
551.443; 3361.150;  185.350;    0.000
551.573; 3368.150;  167.350;    0.000
551.702; 3460.150;  193.350;    0.000
551.831; 3417.150;  245.350;    0.000
551.960; 3300.150;  190.350;    0.000
552.089; 3364.150;  202.350;    0.000
552.218; 3381.150;  211.350;    0.000
552.347; 3371.150;  184.350;    0.000
552.476; 3382.150;  200.350;    0.000
552.605; 3439.150;  174.350;    0.000
552.734; 3513.150;  206.350;    0.000
552.863; 3480.150;  189.350;    0.000
552.992; 3569.150;  209.350;    0.000
553.121; 3470.150;  201.350;    0.000
553.249; 3471.150;  208.350;    0.000
553.378; 3494.150;  142.350;    0.000
553.507; 3475.150;  208.350;    0.000
553.636; 3458.150;  192.350;    0.000
553.765; 3372.150;  182.350;    0.000
553.894; 3303.150;  183.350;    0.000
554.023; 3430.150;  182.350;    0.000
554.151; 3369.150;  211.350;    0.000
554.280; 3318.150;  179.350;    0.000
554.409; 3341.150;  182.350;    0.000
554.538; 3371.150;  209.350;    0.000
554.666; 3458.150;  182.350;    0.000
554.795; 3290.150;  179.350;    0.000
554.924; 3370.150;  217.350;    0.000
555.052; 3302.150;  220.350;    0.000
555.181; 3365.150;  228.350;    0.000
555.310; 3352.150;  212.350;    0.000
555.439; 3356.150;  199.350;    0.000
555.567; 3348.150;  220.350;    0.000
555.696; 3300.150;  187.350;    0.000
555.824; 3320.150;  189.350;    0.000
555.953; 3273.150;  217.350;    0.000
556.082; 3317.150;  187.350;    0.000
556.210; 3325.150;  245.350;    0.000
556.339; 3311.150;  195.350;    0.000
556.467; 3267.150;  218.350;    0.000
556.596; 3264.150;  198.350;    0.000
556.724; 3298.150;  201.350;    0.000
556.853; 3302.150;  196.350;    0.000
556.981; 3303.150;  175.350;    0.000
557.110; 3303.150;  210.350;    0.000
557.238; 3309.150;  190.350;    0.000
557.367; 3220.150;  192.350;    0.000
557.495; 3294.150;  219.350;    0.000
557.623; 3237.150;  203.350;    0.000
557.752; 3279.150;  166.350;    0.000
557.880; 3274.150;  172.350;    0.000
558.008; 3241.150;  221.350;    0.000
558.137; 3344.150;  211.350;    0.000
558.265; 3332.150;  157.350;    0.000
558.393; 3251.150;  198.350;    0.000
558.522; 3306.150;  209.350;    0.000
558.650; 3270.150;  260.350;    0.000
558.778; 3255.150;  203.350;    0.000
558.906; 3371.150;  210.350;    0.000
559.035; 3231.150;  194.350;    0.000
559.163; 3272.150;  192.350;    0.000
559.291; 3324.150;  215.350;    0.000
559.419; 3359.150;  197.350;    0.000
559.548; 3247.150;  160.350;    0.000
559.676; 3351.150;  200.350;    0.000
559.804; 3345.150;  223.350;    0.000
559.932; 3363.150;  213.350;    0.000
560.060; 3409.150;  224.350;    0.000
560.188; 3369.150;  221.350;    0.000
560.316; 3415.150;  223.350;    0.000
560.444; 3402.150;  159.350;    0.000
560.572; 3405.150;  204.350;    0.000
560.700; 3482.150;  213.350;    0.000
560.828; 3530.150;  216.350;    0.000
560.956; 3589.150;  207.350;    0.000
561.085; 3456.150;  231.350;    0.000
561.212; 3528.150;  197.350;    0.000
561.340; 3580.150;  192.350;    0.000
561.468; 3492.150;  215.350;    0.000
561.596; 3590.150;  215.350;    0.000
561.724; 3483.150;  181.350;    0.000
561.852; 3503.150;  184.350;    0.000
561.980; 3469.150;  217.350;    0.000
562.108; 3565.150;  199.350;    0.000
562.236; 3618.150;  181.350;    0.000
562.364; 3681.150;  234.350;    0.000
562.492; 3649.150;  225.350;    0.000
562.619; 3644.150;  204.350;    0.000
562.747; 3646.150;  223.350;    0.000
562.875; 3660.150;  210.350;    0.000
563.003; 3598.150;  232.350;    0.000
563.130; 3758.150;  224.350;    0.000
563.258; 3685.150;  213.350;    0.000
563.386; 3786.150;  191.350;    0.000
563.514; 3815.150;  252.350;    0.000
563.641; 3902.150;  201.350;    0.000
563.769; 3962.150;  201.350;    0.000
563.897; 3916.150;  176.350;    0.000
564.024; 4024.150;  167.350;    0.000
564.152; 4063.150;  205.350;    0.000
564.280; 3982.150;  222.350;    0.000
564.407; 4040.150;  192.350;    0.000
564.535; 4093.150;  231.350;    0.000
564.662; 4129.150;  197.350;    0.000
564.790; 4193.150;  200.350;    0.000
564.917; 4140.150;  172.350;    0.000
565.045; 4151.150;  187.350;    0.000
565.173; 4170.150;  173.350;    0.000
565.300; 4178.150;  196.350;    0.000
565.428; 4240.150;  195.350;    0.000
565.555; 4273.150;  191.350;    0.000
565.682; 4383.150;  169.350;    0.000
565.810; 4404.150;  198.350;    0.000
565.937; 4478.150;  213.350;    0.000
566.065; 4627.150;  221.350;    0.000
566.192; 4658.150;  173.350;    0.000
566.320; 4775.150;  214.350;    0.000
566.447; 4833.150;  214.350;    0.000
566.574; 4794.150;  188.350;    0.000
566.702; 4913.150;  198.350;    0.000
566.829; 4972.150;  200.350;    0.000
566.956; 5099.150;  194.350;    0.000
567.083; 5148.150;  176.350;    0.000
567.211; 5066.150;  189.350;    0.000
567.338; 5188.150;  184.350;    0.000
567.465; 5149.150;  181.350;    0.000
567.593; 5215.150;  194.350;    0.000
567.720; 5147.150;  193.350;    0.000
567.847; 5312.150;  196.350;    0.000
567.974; 5289.150;  199.350;    0.000
568.101; 5452.150;  150.350;    0.000
568.228; 6017.150;  174.350;    0.000
568.356; 6389.150;  164.350;    0.000
568.483; 6187.150;  163.350;    0.000
568.610; 6070.150;  187.350;    0.000
568.737; 6929.150;  192.350;    0.000
568.864; 7878.150;  218.350;    0.000
568.991; 7292.150;  169.350;    0.000
569.118; 6755.150;  161.350;    0.000
569.245; 6048.150;  161.350;    0.000
569.372; 5790.150;  187.350;    0.000
569.499; 5576.150;  146.350;    0.000
569.626; 5323.150;  172.350;    0.000
569.753; 5175.150;  188.350;    0.000
569.880; 5027.150;  180.350;    0.000
570.007; 4936.150;  187.350;    0.000
570.134; 4661.150;  196.350;    0.000
570.261; 4819.150;  127.350;    0.000
570.388; 4567.150;  189.350;    0.000
570.515; 4745.150;  219.350;    0.000
570.642; 4551.150;  187.350;    0.000
570.768; 4572.150;  175.350;    0.000
570.895; 4465.150;  165.350;    0.000
571.022; 4415.150;  180.350;    0.000
571.149; 4266.150;  209.350;    0.000
571.276; 4233.150;  187.350;    0.000
571.402; 4217.150;  227.350;    0.000
571.529; 4190.150;  166.350;    0.000
571.656; 4159.150;  203.350;    0.000
571.783; 4172.150;  156.350;    0.000
571.909; 4152.150;  195.350;    0.000
572.036; 4096.150;  165.350;    0.000
572.163; 3932.150;  156.350;    0.000
572.289; 3941.150;  193.350;    0.000
572.416; 3901.150;  199.350;    0.000
572.543; 3907.150;  185.350;    0.000
572.669; 3989.150;  180.350;    0.000
572.796; 3925.150;  173.350;    0.000
572.922; 3932.150;  186.350;    0.000
573.049; 3922.150;  185.350;    0.000
573.176; 3889.150;  196.350;    0.000
573.302; 3778.150;  189.350;    0.000
573.429; 3950.150;  186.350;    0.000
573.555; 3813.150;  220.350;    0.000
573.682; 3846.150;  196.350;    0.000
573.808; 3698.150;  201.350;    0.000
573.935; 3736.150;  188.350;    0.000
574.061; 3806.150;  216.350;    0.000
574.188; 3748.150;  161.350;    0.000
574.314; 3814.150;  189.350;    0.000
574.440; 3856.150;  190.350;    0.000
574.567; 3707.150;  201.350;    0.000
574.693; 3700.150;  175.350;    0.000
574.820; 3857.150;  188.350;    0.000
574.946; 3762.150;  182.350;    0.000
575.072; 3807.150;  188.350;    0.000
575.198; 3735.150;  232.350;    0.000
575.325; 3757.150;  159.350;    0.000
575.451; 3722.150;  231.350;    0.000
575.577; 3726.150;  196.350;    0.000
575.704; 3769.150;  177.350;    0.000
575.830; 3793.150;  171.350;    0.000
575.956; 3654.150;  163.350;    0.000
576.082; 3708.150;  197.350;    0.000
576.208; 3750.150;  181.350;    0.000
576.335; 3790.150;  218.350;    0.000
576.461; 3762.150;  207.350;    0.000
576.587; 3654.150;  173.350;    0.000
576.713; 3815.150;  170.350;    0.000
576.839; 3662.150;  186.350;    0.000
576.965; 3756.150;  194.350;    0.000
577.091; 3712.150;  167.350;    0.000
577.217; 3776.150;  212.350;    0.000
577.343; 3721.150;  214.350;    0.000
577.469; 3800.150;  208.350;    0.000
577.596; 3743.150;  188.350;    0.000
577.722; 3639.150;  221.350;    0.000
577.848; 3629.150;  197.350;    0.000
577.974; 3800.150;  222.350;    0.000
578.099; 3717.150;  187.350;    0.000
578.225; 3735.150;  213.350;    0.000
578.351; 3799.150;  190.350;    0.000
578.477; 3682.150;  212.350;    0.000
578.603; 3729.150;  178.350;    0.000
578.729; 3758.150;  193.350;    0.000
578.855; 3791.150;  194.350;    0.000
578.981; 3781.150;  152.350;    0.000
579.107; 3678.150;  175.350;    0.000
579.232; 3776.150;  192.350;    0.000
579.358; 3814.150;  186.350;    0.000
579.484; 3859.150;  186.350;    0.000
579.610; 3762.150;  199.350;    0.000
579.735; 3780.150;  197.350;    0.000
579.861; 3821.150;  203.350;    0.000
579.987; 3832.150;  220.350;    0.000
580.113; 3931.150;  210.350;    0.000
580.238; 3862.150;  189.350;    0.000
580.364; 4025.150;  214.350;    0.000
580.490; 3904.150;  205.350;    0.000
580.615; 4051.150;  231.350;    0.000
580.741; 3977.150;  212.350;    0.000
580.867; 3908.150;  196.350;    0.000
580.992; 3956.150;  214.350;    0.000
581.118; 4061.150;  178.350;    0.000
581.243; 4069.150;  209.350;    0.000
581.369; 4084.150;  173.350;    0.000
581.494; 4055.150;  209.350;    0.000
581.620; 4147.150;  204.350;    0.000
581.745; 4142.150;  168.350;    0.000
581.871; 4106.150;  236.350;    0.000
581.996; 4145.150;  212.350;    0.000
582.122; 4225.150;  192.350;    0.000
582.247; 4279.150;  179.350;    0.000
582.373; 4252.150;  189.350;    0.000
582.498; 4300.150;  217.350;    0.000
582.624; 4372.150;  231.350;    0.000
582.749; 4448.150;  237.350;    0.000
582.874; 4453.150;  205.350;    0.000
583.000; 4453.150;  204.350;    0.000
583.125; 4535.150;  192.350;    0.000
583.250; 4633.150;  229.350;    0.000
583.376; 4715.150;  256.350;    0.000
583.501; 4654.150;  200.350;    0.000
583.626; 4686.150;  207.350;    0.000
583.751; 4809.150;  215.350;    0.000
583.877; 4742.150;  212.350;    0.000
584.002; 4847.150;  227.350;    0.000
584.127; 4962.150;  153.350;    0.000
584.252; 5004.150;  197.350;    0.000
584.377; 5088.150;  183.350;    0.000
584.503; 5264.150;  211.350;    0.000
584.628; 5379.150;  215.350;    0.000
584.753; 5420.150;  194.350;    0.000
584.878; 5565.150;  154.350;    0.000
585.003; 5595.150;  213.350;    0.000
585.128; 5823.150;  199.350;    0.000
585.253; 5891.150;  219.350;    0.000
585.378; 5925.150;  174.350;    0.000
585.503; 6006.150;  202.350;    0.000
585.628; 6291.150;  186.350;    0.000
585.753; 6487.150;  209.350;    0.000
585.878; 6521.150;  167.350;    0.000
586.003; 6714.150;  226.350;    0.000
586.128; 6876.150;  206.350;    0.000
586.253; 7207.150;  198.350;    0.000
586.378; 7313.150;  180.350;    0.000
586.503; 7580.150;  201.350;    0.000
586.628; 7922.150;  206.350;    0.000
586.753; 8367.150;  178.350;    0.000
586.878; 8765.150;  228.350;    0.000
587.003; 9264.150;  199.350;    0.000
587.127; 9469.150;  194.350;    0.000
587.252; 9972.150;  212.350;    0.000
587.377;10673.150;  172.350;    0.000
587.502;11298.150;  219.350;    0.000
587.627;12251.150;  247.350;    0.000
587.751;13194.150;  184.350;    0.000
587.876;14261.150;  215.350;    0.000
588.001;15388.150;  163.350;    0.000
588.125;16920.150;  185.350;    0.000
588.250;19191.150;  171.350;    0.000
588.375;21662.150;  255.350;    0.000
588.499;25480.150;  185.350;    0.000
588.624;30041.150;  167.350;    0.000
588.749;37867.148;  170.350;    0.000
588.873;46689.148;  173.350;    0.000
588.998;54848.148;  203.350;    0.000
589.122;56493.148;  184.350;    0.000
589.247;50542.148;  217.350;    0.000
589.372;46103.148;  250.350;    0.000
589.496;47904.148;  200.350;    0.000
589.621;52575.148;  199.350;    0.000
589.745;49440.148;  235.350;    0.000
589.870;40440.148;  206.350;    0.000
589.994;32075.150;  194.350;    0.000
590.118;27343.150;  177.350;    0.000
590.243;23761.150;  231.350;    0.000
590.367;20881.150;  173.350;    0.000
590.492;18749.150;  170.350;    0.000
590.616;16961.150;  182.350;    0.000
590.740;15769.150;  178.350;    0.000
590.865;14364.150;  219.350;    0.000
590.989;13372.150;  210.350;    0.000
591.114;12436.150;  194.350;    0.000
591.238;11530.150;  154.350;    0.000
591.362;11044.150;  210.350;    0.000
591.486;10567.150;  215.350;    0.000
591.611; 9899.150;  194.350;    0.000
591.735; 9659.150;  206.350;    0.000
591.859; 9192.150;  188.350;    0.000
591.983; 8941.150;  202.350;    0.000
592.107; 8633.150;  175.350;    0.000
592.232; 8319.150;  214.350;    0.000
592.356; 8003.150;  232.350;    0.000
592.480; 7917.150;  203.350;    0.000
592.604; 7654.150;  204.350;    0.000
592.728; 7394.150;  187.350;    0.000
592.852; 7293.150;  204.350;    0.000
592.976; 7115.150;  163.350;    0.000
593.100; 6964.150;  177.350;    0.000
593.224; 6836.150;  209.350;    0.000
593.349; 6766.150;  255.350;    0.000
593.473; 6382.150;  225.350;    0.000
593.597; 6403.150;  211.350;    0.000
593.721; 6167.150;  222.350;    0.000
593.844; 6195.150;  202.350;    0.000
593.968; 6052.150;  223.350;    0.000
594.092; 6030.150;  162.350;    0.000
594.216; 5877.150;  211.350;    0.000
594.340; 5663.150;  198.350;    0.000
594.464; 5581.150;  242.350;    0.000
594.588; 5533.150;  213.350;    0.000
594.712; 5436.150;  198.350;    0.000
594.836; 5232.150;  207.350;    0.000
594.959; 5273.150;  192.350;    0.000
595.083; 5200.150;  180.350;    0.000
595.207; 5158.150;  242.350;    0.000
595.331; 4967.150;  172.350;    0.000
595.455; 4919.150;  185.350;    0.000
595.578; 4810.150;  221.350;    0.000
595.702; 4783.150;  233.350;    0.000
595.826; 4760.150;  164.350;    0.000
595.949; 4687.150;  215.350;    0.000
596.073; 4623.150;  198.350;    0.000
596.197; 4548.150;  266.350;    0.000
596.320; 4621.150;  236.350;    0.000
596.444; 4487.150;  215.350;    0.000
596.568; 4395.150;  213.350;    0.000
596.691; 4349.150;  198.350;    0.000
596.815; 4387.150;  210.350;    0.000
596.938; 4356.150;  207.350;    0.000
597.062; 4221.150;  187.350;    0.000
597.186; 4249.150;  234.350;    0.000
597.309; 4290.150;  176.350;    0.000
597.433; 4189.150;  222.350;    0.000
597.556; 4171.150;  219.350;    0.000
597.680; 4102.150;  227.350;    0.000
597.803; 4078.150;  240.350;    0.000
597.926; 4080.150;  227.350;    0.000
598.050; 4020.150;  198.350;    0.000
598.173; 3929.150;  235.350;    0.000
598.297; 3946.150;  233.350;    0.000
598.420; 3886.150;  211.350;    0.000
598.543; 3937.150;  207.350;    0.000
598.667; 3803.150;  232.350;    0.000
598.790; 3830.150;  205.350;    0.000
598.913; 3798.150;  200.350;    0.000
599.037; 3800.150;  193.350;    0.000
599.160; 3746.150;  199.350;    0.000
599.283; 3733.150;  237.350;    0.000
599.406; 3710.150;  168.350;    0.000
599.530; 3802.150;  231.350;    0.000
599.653; 3657.150;  220.350;    0.000
599.776; 3658.150;  203.350;    0.000
599.899; 3560.150;  202.350;    0.000
600.022; 3568.150;  189.350;    0.000
600.145; 3550.150;  175.350;    0.000
600.269; 3680.150;  235.350;    0.000
600.392; 3630.150;  213.350;    0.000
600.515; 3513.150;  236.350;    0.000
600.638; 3545.150;  198.350;    0.000
600.761; 3492.150;  195.350;    0.000
600.884; 3453.150;  221.350;    0.000
601.007; 3496.150;  236.350;    0.000
601.130; 3428.150;  223.350;    0.000
601.253; 3422.150;  250.350;    0.000
601.376; 3479.150;  195.350;    0.000
601.499; 3402.150;  168.350;    0.000
601.622; 3425.150;  221.350;    0.000
601.745; 3369.150;  223.350;    0.000
601.868; 3390.150;  204.350;    0.000
601.991; 3369.150;  207.350;    0.000
602.113; 3256.150;  223.350;    0.000
602.236; 3318.150;  182.350;    0.000
602.359; 3422.150;  235.350;    0.000
602.482; 3322.150;  173.350;    0.000
602.605; 3288.150;  227.350;    0.000
602.728; 3335.150;  227.350;    0.000
602.850; 3362.150;  250.350;    0.000
602.973; 3430.150;  195.350;    0.000
603.096; 3260.150;  270.350;    0.000
603.219; 3333.150;  197.350;    0.000
603.341; 3175.150;  195.350;    0.000
603.464; 3248.150;  204.350;    0.000
603.587; 3242.150;  243.350;    0.000
603.709; 3203.150;  188.350;    0.000
603.832; 3258.150;  214.350;    0.000
603.955; 3325.150;  213.350;    0.000
604.077; 3185.150;  201.350;    0.000
604.200; 3188.150;  209.350;    0.000
604.323; 3265.150;  201.350;    0.000
604.445; 3188.150;  202.350;    0.000
604.568; 3182.150;  230.350;    0.000
604.690; 3194.150;  212.350;    0.000
604.813; 3175.150;  226.350;    0.000
604.935; 3246.150;  216.350;    0.000
605.058; 3145.150;  182.350;    0.000
605.180; 3224.150;  204.350;    0.000
605.303; 3104.150;  199.350;    0.000
605.425; 3179.150;  178.350;    0.000
605.547; 3230.150;  209.350;    0.000
605.670; 3056.150;  206.350;    0.000
605.792; 3117.150;  199.350;    0.000
605.915; 3033.150;  221.350;    0.000
606.037; 3139.150;  222.350;    0.000
606.159; 3122.150;  160.350;    0.000
606.282; 3141.150;  188.350;    0.000
606.404; 3138.150;  205.350;    0.000
606.526; 3128.150;  228.350;    0.000
606.648; 3009.150;  184.350;    0.000
606.771; 2992.150;  195.350;    0.000
606.893; 3112.150;  193.350;    0.000
607.015; 3022.150;  202.350;    0.000
607.137; 3059.150;  189.350;    0.000
607.260; 3068.150;  201.350;    0.000
607.382; 3077.150;  211.350;    0.000
607.504; 3001.150;  206.350;    0.000
607.626; 3082.150;  236.350;    0.000
607.748; 2977.150;  228.350;    0.000
607.870; 2981.150;  212.350;    0.000
607.992; 3044.150;  201.350;    0.000
608.114; 3024.150;  214.350;    0.000
608.237; 2992.150;  235.350;    0.000
608.359; 3018.150;  215.350;    0.000
608.481; 2948.150;  183.350;    0.000
608.603; 2921.150;  206.350;    0.000
608.725; 2953.150;  238.350;    0.000
608.847; 2961.150;  237.350;    0.000
608.969; 3046.150;  227.350;    0.000
609.090; 2927.150;  205.350;    0.000
609.212; 2908.150;  182.350;    0.000
609.334; 2882.150;  210.350;    0.000
609.456; 2944.150;  208.350;    0.000
609.578; 2902.150;  195.350;    0.000
609.700; 2817.150;  196.350;    0.000
609.822; 2913.150;  184.350;    0.000
609.944; 2890.150;  258.350;    0.000
610.065; 3009.150;  219.350;    0.000
610.187; 2940.150;  217.350;    0.000
610.309; 2924.150;  179.350;    0.000
610.431; 2914.150;  189.350;    0.000
610.552; 2950.150;  212.350;    0.000
610.674; 2756.150;  211.350;    0.000
610.796; 2891.150;  168.350;    0.000
610.918; 2955.150;  201.350;    0.000
611.039; 2880.150;  212.350;    0.000
611.161; 2962.150;  207.350;    0.000
611.282; 2799.150;  219.350;    0.000
611.404; 2845.150;  243.350;    0.000
611.526; 2799.150;  180.350;    0.000
611.647; 3001.150;  235.350;    0.000
611.769; 2772.150;  189.350;    0.000
611.890; 2923.150;  201.350;    0.000
612.012; 2890.150;  191.350;    0.000
612.133; 2865.150;  227.350;    0.000
612.255; 2880.150;  191.350;    0.000
612.377; 2881.150;  192.350;    0.000
612.498; 2863.150;  202.350;    0.000
612.619; 2814.150;  207.350;    0.000
612.741; 2818.150;  241.350;    0.000
612.862; 2967.150;  219.350;    0.000
612.984; 2740.150;  203.350;    0.000
613.105; 2829.150;  228.350;    0.000
613.226; 2792.150;  199.350;    0.000
613.348; 2942.150;  238.350;    0.000
613.469; 2859.150;  239.350;    0.000
613.590; 2851.150;  183.350;    0.000
613.712; 2826.150;  245.350;    0.000
613.833; 2903.150;  241.350;    0.000
613.954; 2850.150;  208.350;    0.000
614.076; 2855.150;  181.350;    0.000
614.197; 2827.150;  217.350;    0.000
614.318; 2856.150;  182.350;    0.000
614.439; 2799.150;  204.350;    0.000
614.560; 2906.150;  219.350;    0.000
614.682; 2885.150;  238.350;    0.000
614.803; 2771.150;  240.350;    0.000
614.924; 2845.150;  212.350;    0.000
615.045; 2953.150;  225.350;    0.000
615.166; 2832.150;  227.350;    0.000
615.287; 2996.150;  230.350;    0.000
615.408; 3413.150;  187.350;    0.000
615.529; 3554.150;  211.350;    0.000
615.650; 3360.150;  202.350;    0.000
615.771; 3197.150;  203.350;    0.000
615.892; 3293.150;  222.350;    0.000
616.013; 3776.150;  215.350;    0.000
616.134; 4220.150;  193.350;    0.000
616.255; 3909.150;  242.350;    0.000
616.376; 3498.150;  205.350;    0.000
616.497; 3310.150;  200.350;    0.000
616.618; 3251.150;  177.350;    0.000
616.739; 3103.150;  218.350;    0.000
616.860; 3050.150;  214.350;    0.000
616.981; 3044.150;  208.350;    0.000
617.102; 2990.150;  203.350;    0.000
617.222; 2987.150;  212.350;    0.000
617.343; 2959.150;  162.350;    0.000
617.464; 3050.150;  230.350;    0.000
617.585; 2869.150;  197.350;    0.000
617.705; 2914.150;  209.350;    0.000
617.826; 2957.150;  229.350;    0.000
617.947; 2903.150;  216.350;    0.000
618.068; 2810.150;  192.350;    0.000
618.188; 2828.150;  230.350;    0.000
618.309; 2862.150;  238.350;    0.000
618.430; 2878.150;  242.350;    0.000
618.550; 2765.150;  235.350;    0.000
618.671; 2734.150;  207.350;    0.000
618.791; 2791.150;  228.350;    0.000
618.912; 2790.150;  266.350;    0.000
619.033; 2724.150;  232.350;    0.000
619.153; 2776.150;  207.350;    0.000
619.274; 2840.150;  193.350;    0.000
619.394; 2779.150;  237.350;    0.000
619.515; 2770.150;  216.350;    0.000
619.635; 2685.150;  203.350;    0.000
619.756; 2743.150;  227.350;    0.000
619.876; 2667.150;  244.350;    0.000
619.996; 2733.150;  220.350;    0.000
620.117; 2758.150;  231.350;    0.000
620.237; 2772.150;  235.350;    0.000
620.358; 2831.150;  241.350;    0.000
620.478; 2697.150;  237.350;    0.000
620.598; 2736.150;  255.350;    0.000
620.719; 2666.150;  243.350;    0.000
620.839; 2711.150;  237.350;    0.000
620.959; 2711.150;  216.350;    0.000
621.079; 2646.150;  240.350;    0.000
621.200; 2643.150;  195.350;    0.000
621.320; 2678.150;  287.350;    0.000
621.440; 2659.150;  236.350;    0.000
621.560; 2693.150;  231.350;    0.000
621.681; 2624.150;  177.350;    0.000
621.801; 2685.150;  257.350;    0.000
621.921; 2632.150;  241.350;    0.000
622.041; 2665.150;  239.350;    0.000
622.161; 2580.150;  233.350;    0.000
622.281; 2599.150;  204.350;    0.000
622.401; 2586.150;  204.350;    0.000
622.521; 2679.150;  242.350;    0.000
622.641; 2574.150;  205.350;    0.000
622.761; 2559.150;  254.350;    0.000
622.882; 2557.150;  225.350;    0.000
623.002; 2544.150;  255.350;    0.000
623.121; 2593.150;  244.350;    0.000
623.241; 2590.150;  238.350;    0.000
623.361; 2651.150;  208.350;    0.000
623.481; 2524.150;  194.350;    0.000
623.601; 2657.150;  249.350;    0.000
623.721; 2614.150;  229.350;    0.000
623.841; 2594.150;  244.350;    0.000
623.961; 2607.150;  253.350;    0.000
624.081; 2607.150;  218.350;    0.000
624.201; 2548.150;  218.350;    0.000
624.320; 2576.150;  212.350;    0.000
624.440; 2572.150;  251.350;    0.000
624.560; 2531.150;  244.350;    0.000
624.680; 2463.150;  224.350;    0.000
624.799; 2535.150;  198.350;    0.000
624.919; 2569.150;  215.350;    0.000
625.039; 2541.150;  225.350;    0.000
625.159; 2565.150;  209.350;    0.000
625.278; 2459.150;  211.350;    0.000
625.398; 2539.150;  260.350;    0.000
625.518; 2524.150;  205.350;    0.000
625.637; 2552.150;  240.350;    0.000
625.757; 2516.150;  208.350;    0.000
625.876; 2525.150;  221.350;    0.000
625.996; 2493.150;  245.350;    0.000
626.115; 2499.150;  196.350;    0.000
626.235; 2469.150;  241.350;    0.000
626.354; 2415.150;  231.350;    0.000
626.474; 2508.150;  220.350;    0.000
626.594; 2476.150;  210.350;    0.000
626.713; 2487.150;  229.350;    0.000
626.832; 2456.150;  236.350;    0.000
626.952; 2397.150;  223.350;    0.000
627.071; 2533.150;  211.350;    0.000
627.191; 2457.150;  220.350;    0.000
627.310; 2493.150;  206.350;    0.000
627.429; 2485.150;  223.350;    0.000
627.549; 2468.150;  205.350;    0.000
627.668; 2472.150;  227.350;    0.000
627.787; 2504.150;  221.350;    0.000
627.907; 2464.150;  194.350;    0.000
628.026; 2512.150;  231.350;    0.000
628.145; 2467.150;  210.350;    0.000
628.264; 2393.150;  245.350;    0.000
628.384; 2421.150;  234.350;    0.000
628.503; 2511.150;  210.350;    0.000
628.622; 2459.150;  223.350;    0.000
628.741; 2509.150;  210.350;    0.000
628.860; 2410.150;  222.350;    0.000
628.980; 2452.150;  184.350;    0.000
629.099; 2473.150;  234.350;    0.000
629.218; 2403.150;  157.350;    0.000
629.337; 2462.150;  220.350;    0.000
629.456; 2450.150;  210.350;    0.000
629.575; 2431.150;  239.350;    0.000
629.694; 2480.150;  216.350;    0.000
629.813; 2487.150;  218.350;    0.000
629.932; 2426.150;  175.350;    0.000
630.051; 2442.150;  218.350;    0.000
630.170; 2427.150;  215.350;    0.000
630.289; 2415.150;  203.350;    0.000
630.408; 2419.150;  180.350;    0.000
630.527; 2390.150;  249.350;    0.000
630.646; 2414.150;  186.350;    0.000
630.764; 2473.150;  189.350;    0.000
630.883; 2455.150;  221.350;    0.000
631.002; 2303.150;  191.350;    0.000
631.121; 2458.150;  210.350;    0.000
631.240; 2364.150;  256.350;    0.000
631.359; 2406.150;  246.350;    0.000
631.477; 2395.150;  230.350;    0.000
631.596; 2461.150;  229.350;    0.000
631.715; 2454.150;  242.350;    0.000
631.834; 2391.150;  261.350;    0.000
631.952; 2432.150;  250.350;    0.000
632.071; 2385.150;  218.350;    0.000
632.190; 2310.150;  200.350;    0.000
632.308; 2424.150;  226.350;    0.000
632.427; 2295.150;  234.350;    0.000
632.546; 2379.150;  250.350;    0.000
632.664; 2332.150;  224.350;    0.000
632.783; 2390.150;  211.350;    0.000
632.901; 2343.150;  254.350;    0.000
633.020; 2399.150;  204.350;    0.000
633.138; 2375.150;  228.350;    0.000
633.257; 2359.150;  219.350;    0.000
633.375; 2444.150;  243.350;    0.000
633.494; 2391.150;  242.350;    0.000
633.612; 2351.150;  227.350;    0.000
633.731; 2361.150;  221.350;    0.000
633.849; 2301.150;  239.350;    0.000
633.968; 2331.150;  219.350;    0.000
634.086; 2387.150;  218.350;    0.000
634.204; 2395.150;  203.350;    0.000
634.323; 2310.150;  222.350;    0.000
634.441; 2290.150;  257.350;    0.000
634.559; 2351.150;  201.350;    0.000
634.678; 2325.150;  214.350;    0.000
634.796; 2311.150;  207.350;    0.000
634.914; 2330.150;  226.350;    0.000
635.032; 2336.150;  250.350;    0.000
635.151; 2275.150;  228.350;    0.000
635.269; 2234.150;  188.350;    0.000
635.387; 2295.150;  247.350;    0.000
635.505; 2330.150;  250.350;    0.000
635.623; 2369.150;  230.350;    0.000
635.742; 2323.150;  209.350;    0.000
635.860; 2370.150;  239.350;    0.000
635.978; 2269.150;  213.350;    0.000
636.096; 2290.150;  176.350;    0.000
636.214; 2322.150;  246.350;    0.000
636.332; 2271.150;  224.350;    0.000
636.450; 2340.150;  215.350;    0.000
636.568; 2234.150;  246.350;    0.000
636.686; 2328.150;  225.350;    0.000
636.804; 2296.150;  218.350;    0.000
636.922; 2299.150;  195.350;    0.000
637.040; 2263.150;  213.350;    0.000
637.158; 2338.150;  228.350;    0.000
637.276; 2261.150;  206.350;    0.000
637.394; 2243.150;  224.350;    0.000
637.512; 2215.150;  245.350;    0.000
637.629; 2255.150;  234.350;    0.000
637.747; 2298.150;  233.350;    0.000
637.865; 2262.150;  236.350;    0.000
637.983; 2233.150;  235.350;    0.000
638.101; 2187.150;  232.350;    0.000
638.218; 2269.150;  256.350;    0.000
638.336; 2306.150;  216.350;    0.000
638.454; 2234.150;  255.350;    0.000
638.572; 2290.150;  237.350;    0.000
638.689; 2271.150;  271.350;    0.000
638.807; 2250.150;  243.350;    0.000
638.925; 2364.150;  259.350;    0.000
639.042; 2240.150;  185.350;    0.000
639.160; 2242.150;  250.350;    0.000
639.278; 2197.150;  207.350;    0.000
639.395; 2246.150;  243.350;    0.000
639.513; 2243.150;  235.350;    0.000
639.630; 2257.150;  230.350;    0.000
639.748; 2244.150;  192.350;    0.000
639.865; 2284.150;  219.350;    0.000
639.983; 2230.150;  183.350;    0.000
640.100; 2239.150;  251.350;    0.000
640.218; 2224.150;  246.350;    0.000
640.335; 2247.150;  227.350;    0.000
640.453; 2299.150;  259.350;    0.000
640.570; 2228.150;  251.350;    0.000
640.688; 2191.150;  223.350;    0.000
640.805; 2209.150;  246.350;    0.000
640.922; 2241.150;  249.350;    0.000
641.040; 2215.150;  257.350;    0.000
641.157; 2297.150;  207.350;    0.000
641.274; 2263.150;  241.350;    0.000
641.391; 2206.150;  246.350;    0.000
641.509; 2264.150;  216.350;    0.000
641.626; 2237.150;  252.350;    0.000
641.743; 2182.150;  215.350;    0.000
641.860; 2227.150;  234.350;    0.000
641.978; 2180.150;  216.350;    0.000
642.095; 2199.150;  247.350;    0.000
642.212; 2206.150;  199.350;    0.000
642.329; 2188.150;  237.350;    0.000
642.446; 2121.150;  222.350;    0.000
642.563; 2165.150;  287.350;    0.000
642.681; 2105.150;  261.350;    0.000
642.798; 2254.150;  251.350;    0.000
642.915; 2179.150;  238.350;    0.000
643.032; 2206.150;  246.350;    0.000
643.149; 2278.150;  239.350;    0.000
643.266; 2218.150;  238.350;    0.000
643.383; 2260.150;  231.350;    0.000
643.500; 2195.150;  212.350;    0.000
643.617; 2198.150;  236.350;    0.000
643.734; 2226.150;  239.350;    0.000
643.850; 2136.150;  234.350;    0.000
643.967; 2251.150;  253.350;    0.000
644.084; 2251.150;  253.350;    0.000
644.201; 2184.150;  227.350;    0.000
644.318; 2190.150;  247.350;    0.000
644.435; 2225.150;  264.350;    0.000
644.552; 2207.150;  230.350;    0.000
644.668; 2231.150;  250.350;    0.000
644.785; 2279.150;  235.350;    0.000
644.902; 2218.150;  227.350;    0.000
645.019; 2264.150;  203.350;    0.000
645.135; 2145.150;  210.350;    0.000
645.252; 2183.150;  206.350;    0.000
645.369; 2273.150;  235.350;    0.000
645.485; 2212.150;  223.350;    0.000
645.602; 2229.150;  205.350;    0.000
645.719; 2262.150;  222.350;    0.000
645.835; 2223.150;  246.350;    0.000
645.952; 2244.150;  239.350;    0.000
646.068; 2195.150;  225.350;    0.000
646.185; 2238.150;  248.350;    0.000
646.302; 2332.150;  226.350;    0.000
646.418; 2185.150;  228.350;    0.000
646.535; 2243.150;  219.350;    0.000
646.651; 2255.150;  204.350;    0.000
646.768; 2390.150;  247.350;    0.000
646.884; 2299.150;  228.350;    0.000
647.000; 2252.150;  223.350;    0.000
647.117; 2213.150;  251.350;    0.000
647.233; 2307.150;  223.350;    0.000
647.350; 2288.150;  237.350;    0.000
647.466; 2275.150;  223.350;    0.000
647.582; 2265.150;  243.350;    0.000
647.699; 2324.150;  223.350;    0.000
647.815; 2295.150;  215.350;    0.000
647.931; 2335.150;  214.350;    0.000
648.047; 2343.150;  199.350;    0.000
648.164; 2324.150;  233.350;    0.000
648.280; 2325.150;  231.350;    0.000
648.396; 2337.150;  215.350;    0.000
648.512; 2335.150;  252.350;    0.000
648.629; 2367.150;  237.350;    0.000
648.745; 2251.150;  216.350;    0.000
648.861; 2210.150;  207.350;    0.000
648.977; 2336.150;  247.350;    0.000
649.093; 2295.150;  221.350;    0.000
649.209; 2253.150;  232.350;    0.000
649.325; 2321.150;  245.350;    0.000
649.441; 2334.150;  253.350;    0.000
649.557; 2361.150;  221.350;    0.000
649.673; 2353.150;  182.350;    0.000
649.789; 2314.150;  245.350;    0.000
649.905; 2250.150;  204.350;    0.000
650.021; 2340.150;  270.350;    0.000
650.137; 2364.150;  218.350;    0.000
650.253; 2246.150;  268.350;    0.000
650.369; 2354.150;  222.350;    0.000
650.485; 2332.150;  215.350;    0.000
650.601; 2389.150;  218.350;    0.000
650.717; 2337.150;  208.350;    0.000
650.833; 2448.150;  263.350;    0.000
650.948; 2368.150;  266.350;    0.000
651.064; 2365.150;  271.350;    0.000
651.180; 2436.150;  232.350;    0.000
651.296; 2316.150;  237.350;    0.000
651.411; 2375.150;  233.350;    0.000
651.527; 2401.150;  232.350;    0.000
651.643; 2422.150;  259.350;    0.000
651.759; 2429.150;  257.350;    0.000
651.874; 2399.150;  216.350;    0.000
651.990; 2447.150;  234.350;    0.000
652.105; 2366.150;  195.350;    0.000
652.221; 2458.150;  245.350;    0.000
652.337; 2446.150;  210.350;    0.000
652.452; 2473.150;  259.350;    0.000
652.568; 2463.150;  202.350;    0.000
652.683; 2480.150;  233.350;    0.000
652.799; 2502.150;  230.350;    0.000
652.914; 2448.150;  198.350;    0.000
653.030; 2522.150;  203.350;    0.000
653.145; 2565.150;  228.350;    0.000
653.261; 2625.150;  244.350;    0.000
653.376; 2494.150;  214.350;    0.000
653.492; 2659.150;  246.350;    0.000
653.607; 2598.150;  241.350;    0.000
653.722; 2626.150;  257.350;    0.000
653.838; 2730.150;  265.350;    0.000
653.953; 2664.150;  252.350;    0.000
654.068; 2699.150;  270.350;    0.000
654.184; 2684.150;  248.350;    0.000
654.299; 2792.150;  226.350;    0.000
654.414; 2796.150;  190.350;    0.000
654.530; 2735.150;  263.350;    0.000
654.645; 2857.150;  240.350;    0.000
654.760; 2891.150;  243.350;    0.000
654.875; 2971.150;  210.350;    0.000
654.990; 3045.150;  250.350;    0.000
655.106; 3099.150;  277.350;    0.000
655.221; 3228.150;  249.350;    0.000
655.336; 3129.150;  239.350;    0.000
655.451; 3213.150;  226.350;    0.000
655.566; 3352.150;  236.350;    0.000
655.681; 3465.150;  272.350;    0.000
655.796; 3515.150;  224.350;    0.000
655.911; 3750.150;  247.350;    0.000
656.026; 3796.150;  240.350;    0.000
656.141; 3781.150;  239.350;    0.000
656.256; 3982.150;  241.350;    0.000
656.371; 3995.150;  213.350;    0.000
656.486; 3936.150;  275.350;    0.000
656.601; 3939.150;  225.350;    0.000
656.716; 3836.150;  239.350;    0.000
656.831; 3754.150;  260.350;    0.000
656.946; 3693.150;  250.350;    0.000
657.060; 3585.150;  257.350;    0.000
657.175; 3603.150;  256.350;    0.000
657.290; 3485.150;  255.350;    0.000
657.405; 3466.150;  303.350;    0.000
657.520; 3254.150;  272.350;    0.000
657.634; 3302.150;  268.350;    0.000
657.749; 3225.150;  261.350;    0.000
657.864; 3114.150;  235.350;    0.000
657.979; 3152.150;  257.350;    0.000
658.093; 3138.150;  243.350;    0.000
658.208; 2982.150;  281.350;    0.000
658.323; 2928.150;  240.350;    0.000
658.437; 2916.150;  285.350;    0.000
658.552; 2947.150;  262.350;    0.000
658.666; 2960.150;  269.350;    0.000
658.781; 2806.150;  244.350;    0.000
658.895; 2809.150;  259.350;    0.000
659.010; 2723.150;  254.350;    0.000
659.125; 2747.150;  210.350;    0.000
659.239; 2717.150;  212.350;    0.000
659.353; 2720.150;  269.350;    0.000
659.468; 2708.150;  269.350;    0.000
659.582; 2619.150;  244.350;    0.000
659.697; 2635.150;  262.350;    0.000
659.811; 2570.150;  271.350;    0.000
659.926; 2617.150;  232.350;    0.000
660.040; 2555.150;  250.350;    0.000
660.154; 2489.150;  209.350;    0.000
660.269; 2569.150;  212.350;    0.000
660.383; 2470.150;  237.350;    0.000
660.497; 2568.150;  231.350;    0.000
660.612; 2493.150;  232.350;    0.000
660.726; 2486.150;  276.350;    0.000
660.840; 2418.150;  235.350;    0.000
660.954; 2420.150;  224.350;    0.000
661.068; 2423.150;  241.350;    0.000
661.183; 2410.150;  223.350;    0.000
661.297; 2376.150;  255.350;    0.000
661.411; 2336.150;  223.350;    0.000
661.525; 2321.150;  249.350;    0.000
661.639; 2291.150;  264.350;    0.000
661.753; 2286.150;  225.350;    0.000
661.867; 2341.150;  245.350;    0.000
661.981; 2257.150;  225.350;    0.000
662.095; 2256.150;  262.350;    0.000
662.209; 2257.150;  225.350;    0.000
662.323; 2252.150;  228.350;    0.000
662.437; 2312.150;  230.350;    0.000
662.551; 2134.150;  234.350;    0.000
662.665; 2133.150;  212.350;    0.000
662.779; 2234.150;  254.350;    0.000
662.893; 2227.150;  269.350;    0.000
663.007; 2151.150;  196.350;    0.000
663.121; 2138.150;  262.350;    0.000
663.235; 2218.150;  263.350;    0.000
663.349; 2200.150;  242.350;    0.000
663.462; 2147.150;  234.350;    0.000
663.576; 2003.150;  219.350;    0.000
663.690; 2114.150;  234.350;    0.000
663.804; 2118.150;  205.350;    0.000
663.917; 2017.150;  224.350;    0.000
664.031; 2037.150;  208.350;    0.000
664.145; 2109.150;  241.350;    0.000
664.258; 2072.150;  188.350;    0.000
664.372; 2090.150;  214.350;    0.000
664.486; 2000.150;  203.350;    0.000
664.599; 2020.150;  217.350;    0.000
664.713; 2066.150;  286.350;    0.000
664.827; 1975.150;  199.350;    0.000
664.940; 1998.150;  250.350;    0.000
665.054; 2065.150;  261.350;    0.000
665.167; 1983.150;  258.350;    0.000
665.281; 2060.150;  234.350;    0.000
665.394; 2015.150;  213.350;    0.000
665.508; 2024.150;  222.350;    0.000
665.621; 2002.150;  254.350;    0.000
665.735; 2047.150;  252.350;    0.000
665.848; 1997.150;  248.350;    0.000
665.961; 2027.150;  234.350;    0.000
666.075; 1971.150;  262.350;    0.000
666.188; 1988.150;  270.350;    0.000
666.301; 1983.150;  237.350;    0.000
666.415; 1968.150;  245.350;    0.000
666.528; 1953.150;  248.350;    0.000
666.641; 1905.150;  210.350;    0.000
666.755; 1939.150;  218.350;    0.000
666.868; 1945.150;  224.350;    0.000
666.981; 1959.150;  244.350;    0.000
667.094; 1938.150;  279.350;    0.000
667.207; 1898.150;  190.350;    0.000
667.321; 1853.150;  210.350;    0.000
667.434; 1872.150;  205.350;    0.000
667.547; 2005.150;  253.350;    0.000
667.660; 1898.150;  243.350;    0.000
667.773; 1888.150;  242.350;    0.000
667.886; 1872.150;  218.350;    0.000
667.999; 1853.150;  226.350;    0.000
668.112; 1896.150;  258.350;    0.000
668.225; 1878.150;  243.350;    0.000
668.338; 1871.150;  224.350;    0.000
668.451; 1843.150;  250.350;    0.000
668.564; 1898.150;  260.350;    0.000
668.677; 1863.150;  204.350;    0.000
668.790; 1750.150;  229.350;    0.000
668.903; 1881.150;  269.350;    0.000
669.016; 1843.150;  228.350;    0.000
669.129; 1840.150;  253.350;    0.000
669.242; 1801.150;  245.350;    0.000
669.354; 1754.150;  234.350;    0.000
669.467; 1832.150;  256.350;    0.000
669.580; 1863.150;  223.350;    0.000
669.693; 1805.150;  252.350;    0.000
669.806; 1864.150;  212.350;    0.000
669.918; 1784.150;  228.350;    0.000
670.031; 1841.150;  265.350;    0.000
670.144; 1829.150;  255.350;    0.000
670.256; 1830.150;  229.350;    0.000
670.369; 1843.150;  301.350;    0.000
670.482; 1825.150;  263.350;    0.000
670.594; 1794.150;  246.350;    0.000
670.707; 1872.150;  255.350;    0.000
670.820; 1724.150;  256.350;    0.000
670.932; 1773.150;  210.350;    0.000
671.045; 1834.150;  249.350;    0.000
671.157; 1810.150;  254.350;    0.000
671.270; 1803.150;  265.350;    0.000
671.382; 1833.150;  219.350;    0.000
671.495; 1826.150;  242.350;    0.000
671.607; 1796.150;  266.350;    0.000
671.720; 1710.150;  238.350;    0.000
671.832; 1823.150;  220.350;    0.000
671.944; 1846.150;  251.350;    0.000
672.057; 1800.150;  232.350;    0.000
672.169; 1717.150;  240.350;    0.000
672.281; 1782.150;  270.350;    0.000
672.394; 1817.150;  257.350;    0.000
672.506; 1790.150;  247.350;    0.000
672.618; 1751.150;  229.350;    0.000
672.731; 1696.150;  227.350;    0.000
672.843; 1776.150;  282.350;    0.000
672.955; 1730.150;  262.350;    0.000
673.067; 1702.150;  277.350;    0.000
673.180; 1793.150;  280.350;    0.000
673.292; 1747.150;  241.350;    0.000
673.404; 1745.150;  234.350;    0.000
673.516; 1720.150;  224.350;    0.000
673.628; 1764.150;  272.350;    0.000
673.740; 1692.150;  249.350;    0.000
673.852; 1781.150;  288.350;    0.000
673.964; 1794.150;  278.350;    0.000
674.076; 1717.150;  273.350;    0.000
674.188; 1765.150;  251.350;    0.000
674.300; 1775.150;  244.350;    0.000
674.412; 1736.150;  267.350;    0.000
674.524; 1760.150;  276.350;    0.000
674.636; 1800.150;  234.350;    0.000
674.748; 1710.150;  267.350;    0.000
674.860; 1719.150;  255.350;    0.000
674.972; 1793.150;  253.350;    0.000
675.084; 1739.150;  253.350;    0.000
675.196; 1711.150;  300.350;    0.000
675.307; 1740.150;  307.350;    0.000
675.419; 1655.150;  245.350;    0.000
675.531; 1672.150;  292.350;    0.000
675.643; 1715.150;  244.350;    0.000
675.755; 1695.150;  265.350;    0.000
675.866; 1677.150;  281.350;    0.000
675.978; 1727.150;  266.350;    0.000
676.090; 1677.150;  267.350;    0.000
676.201; 1727.150;  265.350;    0.000
676.313; 1675.150;  222.350;    0.000
676.425; 1724.150;  248.350;    0.000
676.536; 1691.150;  234.350;    0.000
676.648; 1694.150;  261.350;    0.000
676.759; 1743.150;  280.350;    0.000
676.871; 1707.150;  260.350;    0.000
676.983; 1647.150;  277.350;    0.000
677.094; 1713.150;  252.350;    0.000
677.206; 1660.150;  238.350;    0.000
677.317; 1681.150;  269.350;    0.000
677.429; 1607.150;  245.350;    0.000
677.540; 1639.150;  244.350;    0.000
677.651; 1554.150;  225.350;    0.000
677.763; 1619.150;  216.350;    0.000
677.874; 1654.150;  226.350;    0.000
677.986; 1633.150;  234.350;    0.000
678.097; 1597.150;  237.350;    0.000
678.208; 1658.150;  278.350;    0.000
678.320; 1655.150;  243.350;    0.000
678.431; 1650.150;  248.350;    0.000
678.542; 1628.150;  240.350;    0.000
678.653; 1564.150;  250.350;    0.000
678.765; 1622.150;  258.350;    0.000
678.876; 1591.150;  221.350;    0.000
678.987; 1626.150;  229.350;    0.000
679.098; 1567.150;  233.350;    0.000
679.209; 1649.150;  274.350;    0.000
679.320; 1626.150;  216.350;    0.000
679.432; 1587.150;  246.350;    0.000
679.543; 1596.150;  226.350;    0.000
679.654; 1617.150;  232.350;    0.000
679.765; 1584.150;  246.350;    0.000
679.876; 1636.150;  263.350;    0.000
679.987; 1533.150;  216.350;    0.000
680.098; 1565.150;  262.350;    0.000
680.209; 1562.150;  219.350;    0.000
680.320; 1599.150;  232.350;    0.000
680.431; 1561.150;  261.350;    0.000
680.542; 1600.150;  219.350;    0.000
680.653; 1666.150;  238.350;    0.000
680.763; 1568.150;  191.350;    0.000
680.874; 1621.150;  267.350;    0.000
680.985; 1584.150;  240.350;    0.000
681.096; 1605.150;  251.350;    0.000
681.207; 1598.150;  232.350;    0.000
681.318; 1617.150;  211.350;    0.000
681.428; 1600.150;  233.350;    0.000
681.539; 1579.150;  197.350;    0.000
681.650; 1556.150;  197.350;    0.000
681.760; 1610.150;  243.350;    0.000
681.871; 1546.150;  245.350;    0.000
681.982; 1591.150;  218.350;    0.000
682.093; 1633.150;  262.350;    0.000
682.203; 1549.150;  250.350;    0.000
682.314; 1490.150;  239.350;    0.000
682.424; 1534.150;  250.350;    0.000
682.535; 1575.150;  206.350;    0.000
682.646; 1640.150;  302.350;    0.000
682.756; 1580.150;  258.350;    0.000
682.867; 1618.150;  265.350;    0.000
682.977; 1572.150;  218.350;    0.000
683.088; 1515.150;  264.350;    0.000
683.198; 1523.150;  236.350;    0.000
683.308; 1579.150;  246.350;    0.000
683.419; 1532.150;  296.350;    0.000
683.529; 1535.150;  242.350;    0.000
683.640; 1589.150;  245.350;    0.000
683.750; 1543.150;  213.350;    0.000
683.860; 1599.150;  256.350;    0.000
683.971; 1587.150;  251.350;    0.000
684.081; 1587.150;  232.350;    0.000
684.191; 1608.150;  252.350;    0.000
684.301; 1531.150;  214.350;    0.000
684.412; 1577.150;  261.350;    0.000
684.522; 1557.150;  243.350;    0.000
684.632; 1525.150;  257.350;    0.000
684.742; 1555.150;  271.350;    0.000
684.852; 1581.150;  258.350;    0.000
684.963; 1580.150;  262.350;    0.000
685.073; 1548.150;  219.350;    0.000
685.183; 1624.150;  270.350;    0.000
685.293; 1519.150;  233.350;    0.000
685.403; 1510.150;  274.350;    0.000
685.513; 1581.150;  280.350;    0.000
685.623; 1555.150;  267.350;    0.000
685.733; 1625.150;  274.350;    0.000
685.843; 1585.150;  274.350;    0.000
685.953; 1590.150;  244.350;    0.000
686.063; 1552.150;  261.350;    0.000
686.173; 1589.150;  283.350;    0.000
686.283; 1614.150;  260.350;    0.000
686.393; 1524.150;  256.350;    0.000
686.503; 1606.150;  295.350;    0.000
686.612; 1521.150;  294.350;    0.000
686.722; 1606.150;  263.350;    0.000
686.832; 1564.150;  291.350;    0.000
686.942; 1559.150;  229.350;    0.000
687.052; 1592.150;  241.350;    0.000
687.161; 1600.150;  304.350;    0.000
687.271; 1586.150;  223.350;    0.000
687.381; 1559.150;  273.350;    0.000
687.491; 1533.150;  246.350;    0.000
687.600; 1515.150;  242.350;    0.000
687.710; 1501.150;  225.350;    0.000
687.820; 1500.150;  259.350;    0.000
687.929; 1491.150;  232.350;    0.000
688.039; 1514.150;  248.350;    0.000
688.148; 1521.150;  250.350;    0.000
688.258; 1534.150;  240.350;    0.000
688.367; 1523.150;  253.350;    0.000
688.477; 1543.150;  229.350;    0.000
688.586; 1562.150;  259.350;    0.000
688.696; 1514.150;  250.350;    0.000
688.805; 1550.150;  279.350;    0.000
688.915; 1469.150;  250.350;    0.000
689.024; 1549.150;  240.350;    0.000
689.134; 1520.150;  269.350;    0.000
689.243; 1472.150;  214.350;    0.000
689.352; 1588.150;  257.350;    0.000
689.462; 1536.150;  248.350;    0.000
689.571; 1526.150;  233.350;    0.000
689.680; 1575.150;  236.350;    0.000
689.790; 1505.150;  238.350;    0.000
689.899; 1527.150;  232.350;    0.000
690.008; 1507.150;  259.350;    0.000
690.117; 1476.150;  254.350;    0.000
690.227; 1471.150;  251.350;    0.000
690.336; 1538.150;  240.350;    0.000
690.445; 1497.150;  235.350;    0.000
690.554; 1523.150;  243.350;    0.000
690.663; 1511.150;  214.350;    0.000
690.772; 1575.150;  247.350;    0.000
690.881; 1544.150;  249.350;    0.000
690.990; 1542.150;  265.350;    0.000
691.099; 1503.150;  217.350;    0.000
691.209; 1519.150;  272.350;    0.000
691.318; 1501.150;  223.350;    0.000
691.427; 1445.150;  212.350;    0.000
691.536; 1532.150;  260.350;    0.000
691.644; 1435.150;  246.350;    0.000
691.753; 1459.150;  251.350;    0.000
691.862; 1534.150;  239.350;    0.000
691.971; 1548.150;  253.350;    0.000
692.080; 1501.150;  255.350;    0.000
692.189; 1519.150;  228.350;    0.000
692.298; 1483.150;  243.350;    0.000
692.406; 1546.150;  269.350;    0.000
692.515; 1531.150;  254.350;    0.000
692.624; 1482.150;  225.350;    0.000
692.733; 1467.150;  245.350;    0.000
692.842; 1499.150;  259.350;    0.000
692.950; 1526.150;  226.350;    0.000
693.059; 1443.150;  216.350;    0.000
693.168; 1528.150;  266.350;    0.000
693.276; 1553.150;  236.350;    0.000
693.385; 1451.150;  257.350;    0.000
693.494; 1518.150;  268.350;    0.000
693.602; 1517.150;  239.350;    0.000
693.711; 1521.150;  224.350;    0.000
693.819; 1496.150;  263.350;    0.000
693.928; 1473.150;  270.350;    0.000
694.036; 1432.150;  247.350;    0.000
694.145; 1508.150;  261.350;    0.000
694.253; 1500.150;  261.350;    0.000
694.362; 1525.150;  253.350;    0.000
694.470; 1576.150;  270.350;    0.000
694.579; 1503.150;  233.350;    0.000
694.687; 1557.150;  260.350;    0.000
694.795; 1569.150;  228.350;    0.000
694.904; 1506.150;  228.350;    0.000
695.012; 1527.150;  288.350;    0.000
695.120; 1507.150;  230.350;    0.000
695.229; 1502.150;  287.350;    0.000
695.337; 1482.150;  249.350;    0.000
695.445; 1558.150;  283.350;    0.000
695.553; 1517.150;  251.350;    0.000
695.662; 1497.150;  236.350;    0.000
695.770; 1494.150;  267.350;    0.000
695.878; 1584.150;  268.350;    0.000
695.986; 1526.150;  297.350;    0.000
696.094; 1508.150;  275.350;    0.000
696.202; 1516.150;  201.350;    0.000
696.310; 1506.150;  283.350;    0.000
696.419; 1499.150;  261.350;    0.000
696.527; 1510.150;  252.350;    0.000
696.635; 1511.150;  249.350;    0.000
696.743; 1447.150;  236.350;    0.000
696.851; 1506.150;  241.350;    0.000
696.959; 1537.150;  278.350;    0.000
697.067; 1466.150;  239.350;    0.000
697.174; 1555.150;  260.350;    0.000
697.282; 1471.150;  259.350;    0.000
697.390; 1532.150;  302.350;    0.000
697.498; 1460.150;  216.350;    0.000
697.606; 1518.150;  245.350;    0.000
697.714; 1523.150;  279.350;    0.000
697.822; 1479.150;  267.350;    0.000
697.929; 1553.150;  234.350;    0.000
698.037; 1473.150;  255.350;    0.000
698.145; 1510.150;  226.350;    0.000
698.253; 1471.150;  261.350;    0.000
698.360; 1525.150;  299.350;    0.000
698.468; 1512.150;  254.350;    0.000
698.576; 1530.150;  307.350;    0.000
698.683; 1486.150;  280.350;    0.000
698.791; 1529.150;  284.350;    0.000
698.899; 1516.150;  279.350;    0.000
699.006; 1483.150;  264.350;    0.000
699.114; 1486.150;  263.350;    0.000
699.221; 1502.150;  291.350;    0.000
699.329; 1560.150;  309.350;    0.000
699.436; 1483.150;  261.350;    0.000
699.544; 1447.150;  259.350;    0.000
699.651; 1528.150;  251.350;    0.000
699.759; 1448.150;  251.350;    0.000
699.866; 1517.150;  266.350;    0.000
699.974; 1427.150;  264.350;    0.000
700.081; 1501.150;  295.350;    0.000
700.188; 1517.150;  293.350;    0.000
700.296; 1497.150;  233.350;    0.000
700.403; 1468.150;  290.350;    0.000
700.510; 1543.150;  275.350;    0.000
700.618; 1540.150;  273.350;    0.000
700.725; 1558.150;  262.350;    0.000
700.832; 1480.150;  250.350;    0.000
700.940; 1475.150;  300.350;    0.000
701.047; 1481.150;  245.350;    0.000
701.154; 1495.150;  280.350;    0.000
701.261; 1468.150;  270.350;    0.000
701.368; 1499.150;  286.350;    0.000
701.475; 1521.150;  301.350;    0.000
701.582; 1452.150;  286.350;    0.000
701.690; 1441.150;  279.350;    0.000
701.797; 1483.150;  292.350;    0.000
701.904; 1555.150;  314.350;    0.000
702.011; 1494.150;  340.350;    0.000
702.118; 1473.150;  276.350;    0.000
702.225; 1592.150;  351.350;    0.000
702.332; 1505.150;  301.350;    0.000
702.439; 1507.150;  334.350;    0.000
702.546; 1586.150;  325.350;    0.000
702.652; 1512.150;  343.350;    0.000
702.759; 1499.150;  339.350;    0.000
702.866; 1552.150;  344.350;    0.000
702.973; 1531.150;  330.350;    0.000
703.080; 1568.150;  322.350;    0.000
703.187; 1553.150;  327.350;    0.000
703.294; 1545.150;  339.350;    0.000
703.400; 1429.150;  325.350;    0.000
703.507;  457.150;  372.350;    0.000
703.614;  293.150;  348.350;    0.000
703.720;  280.150;  333.350;    0.000
703.827;  324.150;  331.350;    0.000
703.934;  318.150;  330.350;    0.000
704.040;  292.150;  327.350;    0.000
704.147;  304.150;  327.350;    0.000
704.254;  325.150;  354.350;    0.000
704.360;  289.150;  337.350;    0.000
704.467;  344.150;  370.350;    0.000
704.573;  357.150;  367.350;    0.000
704.680;  321.150;  339.350;    0.000
704.786;  312.150;  356.350;    0.000
704.893;  296.150;  352.350;    0.000
704.999;  343.150;  332.350;    0.000
705.106;  330.150;  359.350;    0.000

