
Integration time [ms]:   0.300
Averaging Nr. [scans]: 1
Smoothing Nr. [pixels]: 0
Data measured with spectrometer [name]: UV1
Wave   ;Sample   ;Dark     ;Reference
[nm]   ;[counts] ;[counts] ;[counts] 

236.381;  165.225;  149.925;    0.000
236.451;  212.225;  206.925;    0.000
236.520;  159.225;  212.925;    0.000
236.590;  202.225;  189.925;    0.000
236.660;  171.225;  184.925;    0.000
236.730;  185.225;  186.925;    0.000
236.799;  196.225;  191.925;    0.000
236.869;  140.225;  184.925;    0.000
236.939;  191.225;  176.925;    0.000
237.009;  188.225;  184.925;    0.000
237.078;  227.225;  189.925;    0.000
237.148;  176.225;  217.925;    0.000
237.218;  178.225;  192.925;    0.000
237.287;  190.225;  182.925;    0.000
237.357;  152.225;  196.925;    0.000
237.427;  166.225;  144.925;    0.000
237.496;  838.225;  224.925;    0.000
237.566;  831.225;  210.925;    0.000
237.636;  773.225;  165.925;    0.000
237.705;  794.225;  214.925;    0.000
237.775;  793.225;  194.925;    0.000
237.845;  777.225;  214.925;    0.000
237.914;  784.225;  191.925;    0.000
237.984;  819.225;  218.925;    0.000
238.054;  781.225;  187.925;    0.000
238.123;  827.225;  179.925;    0.000
238.193;  751.225;  177.925;    0.000
238.263;  822.225;  225.925;    0.000
238.332;  770.225;  197.925;    0.000
238.402;  815.225;  183.925;    0.000
238.471;  802.225;  181.925;    0.000
238.541;  768.225;  200.925;    0.000
238.611;  783.225;  170.925;    0.000
238.680;  767.225;  170.925;    0.000
238.750;  730.225;  175.925;    0.000
238.819;  817.225;  180.925;    0.000
238.889;  716.225;  190.925;    0.000
238.958;  780.225;  207.925;    0.000
239.028;  740.225;  201.925;    0.000
239.097;  823.225;  181.925;    0.000
239.167;  787.225;  222.925;    0.000
239.237;  804.225;  221.925;    0.000
239.306;  794.225;  147.925;    0.000
239.376;  776.225;  188.925;    0.000
239.445;  754.225;  198.925;    0.000
239.515;  762.225;  191.925;    0.000
239.584;  772.225;  178.925;    0.000
239.654;  767.225;  147.925;    0.000
239.723;  748.225;  212.925;    0.000
239.793;  811.225;  185.925;    0.000
239.862;  809.225;  157.925;    0.000
239.932;  724.225;  181.925;    0.000
240.001;  772.225;  163.925;    0.000
240.070;  774.225;  194.925;    0.000
240.140;  800.225;  202.925;    0.000
240.209;  769.225;  180.925;    0.000
240.279;  734.225;  188.925;    0.000
240.348;  774.225;  189.925;    0.000
240.418;  819.225;  143.925;    0.000
240.487;  774.225;  195.925;    0.000
240.556;  817.225;  170.925;    0.000
240.626;  739.225;  172.925;    0.000
240.695;  771.225;  202.925;    0.000
240.765;  768.225;  191.925;    0.000
240.834;  721.225;  177.925;    0.000
240.903;  803.225;  189.925;    0.000
240.973;  746.225;  196.925;    0.000
241.042;  736.225;  183.925;    0.000
241.112;  768.225;  189.925;    0.000
241.181;  785.225;  186.925;    0.000
241.250;  706.225;  168.925;    0.000
241.320;  739.225;  200.925;    0.000
241.389;  726.225;  185.925;    0.000
241.458;  740.225;  194.925;    0.000
241.528;  747.225;  165.925;    0.000
241.597;  807.225;  200.925;    0.000
241.666;  728.225;  184.925;    0.000
241.736;  765.225;  176.925;    0.000
241.805;  772.225;  165.925;    0.000
241.874;  722.225;  200.925;    0.000
241.943;  714.225;  184.925;    0.000
242.013;  752.225;  212.925;    0.000
242.082;  771.225;  200.925;    0.000
242.151;  720.225;  196.925;    0.000
242.221;  713.225;  182.925;    0.000
242.290;  761.225;  222.925;    0.000
242.359;  718.225;  142.925;    0.000
242.428;  804.225;  180.925;    0.000
242.498;  702.225;  180.925;    0.000
242.567;  733.225;  181.925;    0.000
242.636;  767.225;  203.925;    0.000
242.705;  743.225;  209.925;    0.000
242.774;  702.225;  172.925;    0.000
242.844;  767.225;  218.925;    0.000
242.913;  731.225;  188.925;    0.000
242.982;  790.225;  193.925;    0.000
243.051;  752.225;  202.925;    0.000
243.120;  733.225;  174.925;    0.000
243.190;  728.225;  165.925;    0.000
243.259;  750.225;  206.925;    0.000
243.328;  735.225;  166.925;    0.000
243.397;  766.225;  167.925;    0.000
243.466;  739.225;  163.925;    0.000
243.535;  724.225;  162.925;    0.000
243.605;  797.225;  159.925;    0.000
243.674;  754.225;  171.925;    0.000
243.743;  773.225;  189.925;    0.000
243.812;  718.225;  169.925;    0.000
243.881;  742.225;  145.925;    0.000
243.950;  673.225;  197.925;    0.000
244.019;  767.225;  189.925;    0.000
244.088;  735.225;  200.925;    0.000
244.158;  735.225;  208.925;    0.000
244.227;  765.225;  154.925;    0.000
244.296;  671.225;  142.925;    0.000
244.365;  744.225;  198.925;    0.000
244.434;  676.225;  162.925;    0.000
244.503;  744.225;  186.925;    0.000
244.572;  703.225;  143.925;    0.000
244.641;  698.225;  145.925;    0.000
244.710;  762.225;  159.925;    0.000
244.779;  770.225;  175.925;    0.000
244.848;  666.225;  163.925;    0.000
244.917;  742.225;  157.925;    0.000
244.986;  753.225;  166.925;    0.000
245.055;  739.225;  211.925;    0.000
245.124;  711.225;  155.925;    0.000
245.193;  713.225;  187.925;    0.000
245.262;  685.225;  152.925;    0.000
245.331;  735.225;  177.925;    0.000
245.400;  672.225;  157.925;    0.000
245.469;  708.225;  195.925;    0.000
245.538;  673.225;  199.925;    0.000
245.607;  669.225;  194.925;    0.000
245.676;  702.225;  170.925;    0.000
245.745;  646.225;  208.925;    0.000
245.814;  660.225;  185.925;    0.000
245.883;  719.225;  165.925;    0.000
245.952;  661.225;  151.925;    0.000
246.021;  671.225;  171.925;    0.000
246.090;  671.225;  174.925;    0.000
246.159;  690.225;  192.925;    0.000
246.227;  650.225;  178.925;    0.000
246.296;  629.225;  159.925;    0.000
246.365;  684.225;  189.925;    0.000
246.434;  728.225;  205.925;    0.000
246.503;  615.225;  174.925;    0.000
246.572;  669.225;  203.925;    0.000
246.641;  693.225;  169.925;    0.000
246.710;  648.225;  186.925;    0.000
246.779;  642.225;  196.925;    0.000
246.847;  624.225;  209.925;    0.000
246.916;  601.225;  177.925;    0.000
246.985;  637.225;  188.925;    0.000
247.054;  630.225;  189.925;    0.000
247.123;  601.225;  196.925;    0.000
247.192;  638.225;  210.925;    0.000
247.260;  607.225;  164.925;    0.000
247.329;  633.225;  204.925;    0.000
247.398;  605.225;  204.925;    0.000
247.467;  623.225;  160.925;    0.000
247.536;  659.225;  193.925;    0.000
247.604;  712.225;  208.925;    0.000
247.673;  591.225;  168.925;    0.000
247.742;  633.225;  182.925;    0.000
247.811;  642.225;  186.925;    0.000
247.879;  594.225;  166.925;    0.000
247.948;  626.225;  192.925;    0.000
248.017;  650.225;  178.925;    0.000
248.086;  633.225;  193.925;    0.000
248.154;  641.225;  191.925;    0.000
248.223;  675.225;  207.925;    0.000
248.292;  667.225;  168.925;    0.000
248.361;  625.225;  211.925;    0.000
248.429;  669.225;  196.925;    0.000
248.498;  563.225;  163.925;    0.000
248.567;  622.225;  159.925;    0.000
248.635;  704.225;  194.925;    0.000
248.704;  639.225;  205.925;    0.000
248.773;  653.225;  190.925;    0.000
248.841;  592.225;  179.925;    0.000
248.910;  667.225;  193.925;    0.000
248.979;  608.225;  167.925;    0.000
249.047;  598.225;  166.925;    0.000
249.116;  613.225;  191.925;    0.000
249.185;  664.225;  203.925;    0.000
249.253;  594.225;  140.925;    0.000
249.322;  618.225;  173.925;    0.000
249.390;  649.225;  165.925;    0.000
249.459;  659.225;  173.925;    0.000
249.528;  588.225;  203.925;    0.000
249.596;  607.225;  204.925;    0.000
249.665;  595.225;  176.925;    0.000
249.733;  585.225;  178.925;    0.000
249.802;  566.225;  190.925;    0.000
249.871;  664.225;  171.925;    0.000
249.939;  586.225;  160.925;    0.000
250.008;  624.225;  220.925;    0.000
250.076;  619.225;  211.925;    0.000
250.145;  617.225;  145.925;    0.000
250.213;  620.225;  177.925;    0.000
250.282;  595.225;  186.925;    0.000
250.350;  604.225;  170.925;    0.000
250.419;  572.225;  195.925;    0.000
250.487;  597.225;  194.925;    0.000
250.556;  634.225;  178.925;    0.000
250.624;  638.225;  193.925;    0.000
250.693;  620.225;  167.925;    0.000
250.761;  592.225;  253.925;    0.000
250.830;  631.225;  241.925;    0.000
250.898;  593.225;  161.925;    0.000
250.967;  613.225;  178.925;    0.000
251.035;  594.225;  189.925;    0.000
251.104;  582.225;  166.925;    0.000
251.172;  596.225;  178.925;    0.000
251.241;  529.225;  174.925;    0.000
251.309;  589.225;  197.925;    0.000
251.378;  603.225;  172.925;    0.000
251.446;  575.225;  157.925;    0.000
251.514;  618.225;  197.925;    0.000
251.583;  611.225;  191.925;    0.000
251.651;  563.225;  154.925;    0.000
251.720;  616.225;  198.925;    0.000
251.788;  600.225;  226.925;    0.000
251.856;  565.225;  164.925;    0.000
251.925;  536.225;  181.925;    0.000
251.993;  570.225;  203.925;    0.000
252.062;  554.225;  211.925;    0.000
252.130;  602.225;  185.925;    0.000
252.198;  601.225;  190.925;    0.000
252.267;  602.225;  176.925;    0.000
252.335;  517.225;  179.925;    0.000
252.403;  621.225;  173.925;    0.000
252.472;  541.225;  172.925;    0.000
252.540;  609.225;  187.925;    0.000
252.608;  591.225;  204.925;    0.000
252.677;  489.225;  179.925;    0.000
252.745;  579.225;  192.925;    0.000
252.813;  515.225;  168.925;    0.000
252.881;  507.225;  157.925;    0.000
252.950;  562.225;  188.925;    0.000
253.018;  555.225;  191.925;    0.000
253.086;  480.225;  164.925;    0.000
253.155;  488.225;  172.925;    0.000
253.223;  490.225;  168.925;    0.000
253.291;  499.225;  190.925;    0.000
253.359;  482.225;  205.925;    0.000
253.428;  540.225;  228.925;    0.000
253.496;  454.225;  170.925;    0.000
253.564;  431.225;  164.925;    0.000
253.632;  454.225;  159.925;    0.000
253.700;  447.225;  166.925;    0.000
253.769;  488.225;  172.925;    0.000
253.837;  483.225;  157.925;    0.000
253.905;  440.225;  168.925;    0.000
253.973;  451.225;  179.925;    0.000
254.041;  508.225;  187.925;    0.000
254.110;  486.225;  186.925;    0.000
254.178;  464.225;  156.925;    0.000
254.246;  410.225;  132.925;    0.000
254.314;  440.225;  191.925;    0.000
254.382;  514.225;  189.925;    0.000
254.450;  477.225;  163.925;    0.000
254.518;  476.225;  172.925;    0.000
254.587;  419.225;  162.925;    0.000
254.655;  498.225;  191.925;    0.000
254.723;  449.225;  184.925;    0.000
254.791;  483.225;  169.925;    0.000
254.859;  458.225;  186.925;    0.000
254.927;  494.225;  207.925;    0.000
254.995;  473.225;  143.925;    0.000
255.063;  493.225;  198.925;    0.000
255.131;  470.225;  168.925;    0.000
255.199;  489.225;  183.925;    0.000
255.267;  519.225;  159.925;    0.000
255.336;  469.225;  197.925;    0.000
255.404;  439.225;  177.925;    0.000
255.472;  483.225;  204.925;    0.000
255.540;  451.225;  169.925;    0.000
255.608;  498.225;  141.925;    0.000
255.676;  487.225;  176.925;    0.000
255.744;  522.225;  184.925;    0.000
255.812;  502.225;  158.925;    0.000
255.880;  498.225;  202.925;    0.000
255.948;  499.225;  184.925;    0.000
256.016;  480.225;  192.925;    0.000
256.084;  473.225;  204.925;    0.000
256.152;  491.225;  191.925;    0.000
256.220;  513.225;  187.925;    0.000
256.288;  520.225;  176.925;    0.000
256.356;  488.225;  146.925;    0.000
256.424;  507.225;  164.925;    0.000
256.491;  462.225;  161.925;    0.000
256.559;  511.225;  167.925;    0.000
256.627;  564.225;  180.925;    0.000
256.695;  464.225;  159.925;    0.000
256.763;  538.225;  166.925;    0.000
256.831;  555.225;  166.925;    0.000
256.899;  526.225;  161.925;    0.000
256.967;  464.225;  116.925;    0.000
257.035;  566.225;  195.925;    0.000
257.103;  541.225;  227.925;    0.000
257.171;  544.225;  147.925;    0.000
257.238;  581.225;  158.925;    0.000
257.306;  540.225;  188.925;    0.000
257.374;  561.225;  153.925;    0.000
257.442;  605.225;  159.925;    0.000
257.510;  590.225;  201.925;    0.000
257.578;  527.225;  137.925;    0.000
257.646;  624.225;  172.925;    0.000
257.713;  577.225;  164.925;    0.000
257.781;  621.225;  163.925;    0.000
257.849;  639.225;  174.925;    0.000
257.917;  630.225;  164.925;    0.000
257.985;  566.225;  126.925;    0.000
258.052;  631.225;  158.925;    0.000
258.120;  631.225;  151.925;    0.000
258.188;  658.225;  169.925;    0.000
258.256;  653.225;  110.925;    0.000
258.324;  651.225;  193.925;    0.000
258.391;  618.225;  157.925;    0.000
258.459;  706.225;  193.925;    0.000
258.527;  657.225;  150.925;    0.000
258.595;  695.225;  173.925;    0.000
258.662;  628.225;  168.925;    0.000
258.730;  723.225;  190.925;    0.000
258.798;  661.225;  164.925;    0.000
258.865;  677.225;  165.925;    0.000
258.933;  704.225;  162.925;    0.000
259.001;  690.225;  174.925;    0.000
259.069;  734.225;  139.925;    0.000
259.136;  665.225;  160.925;    0.000
259.204;  707.225;  174.925;    0.000
259.272;  694.225;  161.925;    0.000
259.339;  679.225;  157.925;    0.000
259.407;  747.225;  159.925;    0.000
259.475;  711.225;  134.925;    0.000
259.542;  800.225;  179.925;    0.000
259.610;  773.225;  172.925;    0.000
259.677;  772.225;  152.925;    0.000
259.745;  790.225;  131.925;    0.000
259.813;  824.225;  185.925;    0.000
259.880;  852.225;  183.925;    0.000
259.948;  815.225;  168.925;    0.000
260.016;  786.225;  160.925;    0.000
260.083;  837.225;  163.925;    0.000
260.151;  838.225;  162.925;    0.000
260.218;  842.225;  171.925;    0.000
260.286;  858.225;  154.925;    0.000
260.353;  885.225;  182.925;    0.000
260.421;  875.225;  187.925;    0.000
260.489;  863.225;  185.925;    0.000
260.556;  807.225;  165.925;    0.000
260.624;  913.225;  185.925;    0.000
260.691;  885.225;  175.925;    0.000
260.759;  956.225;  201.925;    0.000
260.826;  962.225;  150.925;    0.000
260.894;  956.225;  142.925;    0.000
260.961;  937.225;  156.925;    0.000
261.029;  923.225;  161.925;    0.000
261.096; 1014.225;  172.925;    0.000
261.164;  959.225;  149.925;    0.000
261.231; 1014.225;  191.925;    0.000
261.299;  997.225;  182.925;    0.000
261.366;  988.225;  156.925;    0.000
261.434; 1013.225;  188.925;    0.000
261.501;  970.225;  170.925;    0.000
261.568;  969.225;  167.925;    0.000
261.636;  997.225;  169.925;    0.000
261.703; 1084.225;  200.925;    0.000
261.771; 1067.225;  170.925;    0.000
261.838; 1027.225;  175.925;    0.000
261.906; 1029.225;  135.925;    0.000
261.973; 1069.225;  184.925;    0.000
262.040; 1062.225;  176.925;    0.000
262.108; 1078.225;  201.925;    0.000
262.175; 1102.225;  141.925;    0.000
262.243; 1103.225;  175.925;    0.000
262.310; 1123.225;  112.925;    0.000
262.377; 1181.225;  158.925;    0.000
262.445; 1129.225;  162.925;    0.000
262.512; 1137.225;  184.925;    0.000
262.579; 1154.225;  185.925;    0.000
262.647; 1194.225;  158.925;    0.000
262.714; 1185.225;  197.925;    0.000
262.781; 1171.225;  133.925;    0.000
262.849; 1175.225;  146.925;    0.000
262.916; 1159.225;  204.925;    0.000
262.983; 1207.225;  191.925;    0.000
263.051; 1153.225;  140.925;    0.000
263.118; 1164.225;  154.925;    0.000
263.185; 1218.225;  169.925;    0.000
263.252; 1258.225;  150.925;    0.000
263.320; 1298.225;  145.925;    0.000
263.387; 1181.225;  144.925;    0.000
263.454; 1294.225;  193.925;    0.000
263.522; 1217.225;  160.925;    0.000
263.589; 1279.225;  153.925;    0.000
263.656; 1275.225;  178.925;    0.000
263.723; 1261.225;  136.925;    0.000
263.790; 1329.225;  162.925;    0.000
263.858; 1267.225;  164.925;    0.000
263.925; 1274.225;  146.925;    0.000
263.992; 1258.225;  191.925;    0.000
264.059; 1375.225;  180.925;    0.000
264.126; 1371.225;  183.925;    0.000
264.194; 1372.225;  174.925;    0.000
264.261; 1369.225;  187.925;    0.000
264.328; 1357.225;  179.925;    0.000
264.395; 1314.225;  166.925;    0.000
264.462; 1408.225;  197.925;    0.000
264.529; 1410.225;  209.925;    0.000
264.597; 1347.225;  173.925;    0.000
264.664; 1393.225;  193.925;    0.000
264.731; 1399.225;  165.925;    0.000
264.798; 1354.225;  148.925;    0.000
264.865; 1411.225;  186.925;    0.000
264.932; 1412.225;  152.925;    0.000
264.999; 1443.225;  166.925;    0.000
265.066; 1402.225;  186.925;    0.000
265.133; 1525.225;  172.925;    0.000
265.201; 1432.225;  159.925;    0.000
265.268; 1422.225;  164.925;    0.000
265.335; 1456.225;  161.925;    0.000
265.402; 1459.225;  157.925;    0.000
265.469; 1495.225;  134.925;    0.000
265.536; 1552.225;  191.925;    0.000
265.603; 1521.225;  170.925;    0.000
265.670; 1446.225;  162.925;    0.000
265.737; 1478.225;  172.925;    0.000
265.804; 1538.225;  151.925;    0.000
265.871; 1542.225;  191.925;    0.000
265.938; 1489.225;  173.925;    0.000
266.005; 1515.225;  201.925;    0.000
266.072; 1493.225;  156.925;    0.000
266.139; 1577.225;  191.925;    0.000
266.206; 1541.225;  151.925;    0.000
266.273; 1541.225;  194.925;    0.000
266.340; 1558.225;  120.925;    0.000
266.407; 1479.225;  130.925;    0.000
266.474; 1577.225;  137.925;    0.000
266.541; 1545.225;  139.925;    0.000
266.608; 1553.225;  139.925;    0.000
266.675; 1623.225;  198.925;    0.000
266.742; 1636.225;  165.925;    0.000
266.808; 1645.225;  174.925;    0.000
266.875; 1647.225;  169.925;    0.000
266.942; 1665.225;  137.925;    0.000
267.009; 1648.225;  181.925;    0.000
267.076; 1666.225;  204.925;    0.000
267.143; 1689.225;  179.925;    0.000
267.210; 1646.225;  160.925;    0.000
267.277; 1655.225;  154.925;    0.000
267.344; 1644.225;  178.925;    0.000
267.410; 1635.225;  190.925;    0.000
267.477; 1689.225;  193.925;    0.000
267.544; 1647.225;  168.925;    0.000
267.611; 1720.225;  177.925;    0.000
267.678; 1642.225;  205.925;    0.000
267.745; 1712.225;  205.925;    0.000
267.811; 1771.225;  164.925;    0.000
267.878; 1686.225;  166.925;    0.000
267.945; 1612.225;  160.925;    0.000
268.012; 1707.225;  172.925;    0.000
268.079; 1666.225;  186.925;    0.000
268.145; 1662.225;  188.925;    0.000
268.212; 1709.225;  181.925;    0.000
268.279; 1672.225;  158.925;    0.000
268.346; 1688.225;  192.925;    0.000
268.412; 1641.225;  159.925;    0.000
268.479; 1729.225;  176.925;    0.000
268.546; 1701.225;  170.925;    0.000
268.613; 1692.225;  133.925;    0.000
268.679; 1678.225;  170.925;    0.000
268.746; 1709.225;  185.925;    0.000
268.813; 1653.225;  170.925;    0.000
268.879; 1661.225;  149.925;    0.000
268.946; 1658.225;  176.925;    0.000
269.013; 1655.225;  153.925;    0.000
269.079; 1679.225;  156.925;    0.000
269.146; 1675.225;  143.925;    0.000
269.213; 1691.225;  170.925;    0.000
269.280; 1651.225;  202.925;    0.000
269.346; 1664.225;  180.925;    0.000
269.413; 1720.225;  162.925;    0.000
269.479; 1728.225;  175.925;    0.000
269.546; 1704.225;  151.925;    0.000
269.613; 1626.225;  159.925;    0.000
269.679; 1614.225;  190.925;    0.000
269.746; 1686.225;  159.925;    0.000
269.813; 1574.225;  151.925;    0.000
269.879; 1696.225;  169.925;    0.000
269.946; 1625.225;  169.925;    0.000
270.012; 1653.225;  185.925;    0.000
270.079; 1617.225;  133.925;    0.000
270.145; 1691.225;  161.925;    0.000
270.212; 1728.225;  156.925;    0.000
270.279; 1717.225;  176.925;    0.000
270.345; 1611.225;  140.925;    0.000
270.412; 1699.225;  162.925;    0.000
270.478; 1662.225;  148.925;    0.000
270.545; 1686.225;  146.925;    0.000
270.611; 1697.225;  168.925;    0.000
270.678; 1592.225;  164.925;    0.000
270.744; 1652.225;  117.925;    0.000
270.811; 1591.225;  196.925;    0.000
270.877; 1619.225;  151.925;    0.000
270.944; 1663.225;  174.925;    0.000
271.010; 1624.225;  180.925;    0.000
271.077; 1682.225;  162.925;    0.000
271.143; 1634.225;  178.925;    0.000
271.210; 1590.225;  159.925;    0.000
271.276; 1596.225;  143.925;    0.000
271.342; 1694.225;  196.925;    0.000
271.409; 1623.225;  161.925;    0.000
271.475; 1619.225;  153.925;    0.000
271.542; 1657.225;  147.925;    0.000
271.608; 1650.225;  175.925;    0.000
271.675; 1613.225;  134.925;    0.000
271.741; 1632.225;  182.925;    0.000
271.807; 1552.225;  174.925;    0.000
271.874; 1619.225;  169.925;    0.000
271.940; 1647.225;  179.925;    0.000
272.007; 1637.225;  173.925;    0.000
272.073; 1618.225;  133.925;    0.000
272.139; 1658.225;  191.925;    0.000
272.206; 1558.225;  168.925;    0.000
272.272; 1694.225;  179.925;    0.000
272.338; 1659.225;  224.925;    0.000
272.405; 1607.225;  156.925;    0.000
272.471; 1583.225;  175.925;    0.000
272.537; 1681.225;  190.925;    0.000
272.604; 1681.225;  199.925;    0.000
272.670; 1590.225;  156.925;    0.000
272.736; 1582.225;  198.925;    0.000
272.802; 1688.225;  169.925;    0.000
272.869; 1685.225;  141.925;    0.000
272.935; 1619.225;  145.925;    0.000
273.001; 1603.225;  156.925;    0.000
273.068; 1737.225;  157.925;    0.000
273.134; 1654.225;  184.925;    0.000
273.200; 1733.225;  158.925;    0.000
273.266; 1650.225;  150.925;    0.000
273.333; 1642.225;  176.925;    0.000
273.399; 1635.225;  118.925;    0.000
273.465; 1701.225;  184.925;    0.000
273.531; 1769.225;  179.925;    0.000
273.597; 1717.225;  167.925;    0.000
273.664; 1659.225;  186.925;    0.000
273.730; 1624.225;  137.925;    0.000
273.796; 1693.225;  148.925;    0.000
273.862; 1589.225;  183.925;    0.000
273.928; 1669.225;  179.925;    0.000
273.995; 1754.225;  189.925;    0.000
274.061; 1706.225;  188.925;    0.000
274.127; 1741.225;  132.925;    0.000
274.193; 1651.225;  135.925;    0.000
274.259; 1705.225;  177.925;    0.000
274.325; 1691.225;  178.925;    0.000
274.391; 1677.225;  140.925;    0.000
274.457; 1771.225;  158.925;    0.000
274.524; 1772.225;  175.925;    0.000
274.590; 1753.225;  182.925;    0.000
274.656; 1746.225;  165.925;    0.000
274.722; 1739.225;  152.925;    0.000
274.788; 1744.225;  159.925;    0.000
274.854; 1838.225;  143.925;    0.000
274.920; 1767.225;  117.925;    0.000
274.986; 1839.225;  140.925;    0.000
275.052; 1798.225;  174.925;    0.000
275.118; 1818.225;  129.925;    0.000
275.184; 1901.225;  173.925;    0.000
275.250; 1856.225;  196.925;    0.000
275.316; 1894.225;  142.925;    0.000
275.382; 1797.225;  149.925;    0.000
275.448; 1935.225;  178.925;    0.000
275.514; 1927.225;  136.925;    0.000
275.580; 1844.225;  140.925;    0.000
275.646; 1861.225;  133.925;    0.000
275.712; 1943.225;  162.925;    0.000
275.778; 1934.225;  129.925;    0.000
275.844; 1886.225;  156.925;    0.000
275.910; 1986.225;  172.925;    0.000
275.976; 2035.225;  158.925;    0.000
276.042; 2032.225;  141.925;    0.000
276.108; 2073.225;  212.925;    0.000
276.174; 2015.225;  148.925;    0.000
276.240; 2053.225;  134.925;    0.000
276.306; 2068.225;  149.925;    0.000
276.372; 2044.225;  126.925;    0.000
276.437; 2151.225;  168.925;    0.000
276.503; 2128.225;  158.925;    0.000
276.569; 2233.225;  191.925;    0.000
276.635; 2238.225;  130.925;    0.000
276.701; 2342.225;  161.925;    0.000
276.767; 2220.225;  148.925;    0.000
276.833; 2340.225;  147.925;    0.000
276.899; 2371.225;  149.925;    0.000
276.964; 2429.225;  181.925;    0.000
277.030; 2457.225;  186.925;    0.000
277.096; 2514.225;  132.925;    0.000
277.162; 2592.225;  181.925;    0.000
277.228; 2614.225;  166.925;    0.000
277.293; 2667.225;  154.925;    0.000
277.359; 2781.225;  181.925;    0.000
277.425; 2941.225;  184.925;    0.000
277.491; 2986.225;  150.925;    0.000
277.557; 3695.225;  159.925;    0.000
277.622; 4700.225;  129.925;    0.000
277.688; 4669.225;  184.925;    0.000
277.754; 4933.225;  182.925;    0.000
277.820; 5187.225;  149.925;    0.000
277.885; 6366.225;  185.925;    0.000
277.951; 7804.225;  164.925;    0.000
278.017; 6661.225;  162.925;    0.000
278.083; 5729.225;  189.925;    0.000
278.148; 5530.225;  184.925;    0.000
278.214; 5549.225;  188.925;    0.000
278.280; 5894.225;  206.925;    0.000
278.345; 5293.225;  187.925;    0.000
278.411; 4849.225;  174.925;    0.000
278.477; 5045.225;  190.925;    0.000
278.542; 5397.225;  154.925;    0.000
278.608; 5781.225;  191.925;    0.000
278.674; 6439.225;  243.925;    0.000
278.739; 6905.225;  141.925;    0.000
278.805; 7965.225;  171.925;    0.000
278.871; 9411.225;  181.925;    0.000
278.936;11853.225;  191.925;    0.000
279.002;18302.225;  201.925;    0.000
279.067;24685.225;  174.925;    0.000
279.133;24107.225;  165.925;    0.000
279.199;21430.225;  122.925;    0.000
279.264;22371.225;  159.925;    0.000
279.330;26599.225;  170.925;    0.000
279.395;37157.227;  173.925;    0.000
279.461;52642.227;  200.925;    0.000
279.527;61139.227;  199.925;    0.000
279.592;54526.227;  203.925;    0.000
279.658;42192.227;  209.925;    0.000
279.723;39951.227;  188.925;    0.000
279.789;42151.227;  180.925;    0.000
279.854;37132.227;  137.925;    0.000
279.920;29227.225;  223.925;    0.000
279.985;25888.225;  186.925;    0.000
280.051;26664.225;  198.925;    0.000
280.116;32526.225;  178.925;    0.000
280.182;47864.227;  176.925;    0.000
280.247;56600.227;  195.925;    0.000
280.313;45748.227;  165.925;    0.000
280.378;29324.225;  153.925;    0.000
280.444;20515.225;  181.925;    0.000
280.509;15494.225;  188.925;    0.000
280.574;13218.225;  149.925;    0.000
280.640;11344.225;  164.925;    0.000
280.705; 9910.225;  166.925;    0.000
280.771; 9128.225;  188.925;    0.000
280.836; 8355.225;  188.925;    0.000
280.902; 7677.225;  168.925;    0.000
280.967; 7116.225;  202.925;    0.000
281.032; 6575.225;  197.925;    0.000
281.098; 6330.225;  138.925;    0.000
281.163; 6124.225;  160.925;    0.000
281.229; 5909.225;  212.925;    0.000
281.294; 5640.225;  227.925;    0.000
281.359; 5380.225;  200.925;    0.000
281.425; 5343.225;  189.925;    0.000
281.490; 5036.225;  176.925;    0.000
281.555; 4805.225;  182.925;    0.000
281.621; 4688.225;  169.925;    0.000
281.686; 4476.225;  182.925;    0.000
281.751; 4442.225;  208.925;    0.000
281.816; 4144.225;  166.925;    0.000
281.882; 4155.225;  181.925;    0.000
281.947; 3986.225;  178.925;    0.000
282.012; 3854.225;  167.925;    0.000
282.078; 4007.225;  170.925;    0.000
282.143; 3748.225;  157.925;    0.000
282.208; 3858.225;  158.925;    0.000
282.273; 3615.225;  187.925;    0.000
282.339; 3679.225;  185.925;    0.000
282.404; 3560.225;  201.925;    0.000
282.469; 3468.225;  202.925;    0.000
282.534; 3451.225;  185.925;    0.000
282.600; 3524.225;  125.925;    0.000
282.665; 3394.225;  162.925;    0.000
282.730; 3314.225;  174.925;    0.000
282.795; 3308.225;  179.925;    0.000
282.860; 3270.225;  190.925;    0.000
282.926; 3232.225;  200.925;    0.000
282.991; 3289.225;  161.925;    0.000
283.056; 3231.225;  175.925;    0.000
283.121; 3076.225;  181.925;    0.000
283.186; 3211.225;  221.925;    0.000
283.251; 3144.225;  168.925;    0.000
283.316; 3211.225;  156.925;    0.000
283.382; 3096.225;  197.925;    0.000
283.447; 3146.225;  210.925;    0.000
283.512; 3128.225;  164.925;    0.000
283.577; 3126.225;  212.925;    0.000
283.642; 2964.225;  186.925;    0.000
283.707; 3096.225;  182.925;    0.000
283.772; 3027.225;  127.925;    0.000
283.837; 3046.225;  160.925;    0.000
283.902; 2963.225;  162.925;    0.000
283.967; 2972.225;  151.925;    0.000
284.032; 2968.225;  175.925;    0.000
284.097; 2950.225;  235.925;    0.000
284.163; 3053.225;  136.925;    0.000
284.228; 3104.225;  209.925;    0.000
284.293; 2976.225;  163.925;    0.000
284.358; 3022.225;  169.925;    0.000
284.423; 3065.225;  145.925;    0.000
284.488; 3089.225;  134.925;    0.000
284.553; 3172.225;  158.925;    0.000
284.618; 3210.225;  163.925;    0.000
284.683; 3279.225;  168.925;    0.000
284.748; 3475.225;  170.925;    0.000
284.812; 3651.225;  151.925;    0.000
284.877; 3994.225;  169.925;    0.000
284.942; 4419.225;  179.925;    0.000
285.007; 5314.225;  202.925;    0.000
285.072; 7762.225;  171.925;    0.000
285.137;14020.225;  173.925;    0.000
285.202;18653.225;  196.925;    0.000
285.267;14894.225;  193.925;    0.000
285.332; 8971.225;  151.925;    0.000
285.397; 6503.225;  183.925;    0.000
285.462; 5286.225;  168.925;    0.000
285.527; 4441.225;  166.925;    0.000
285.591; 4129.225;  124.925;    0.000
285.656; 3864.225;  145.925;    0.000
285.721; 3718.225;  155.925;    0.000
285.786; 3603.225;  170.925;    0.000
285.851; 3357.225;  175.925;    0.000
285.916; 3397.225;  186.925;    0.000
285.981; 3234.225;  204.925;    0.000
286.045; 3155.225;  237.925;    0.000
286.110; 3162.225;  197.925;    0.000
286.175; 2991.225;  143.925;    0.000
286.240; 3017.225;  167.925;    0.000
286.305; 3053.225;  202.925;    0.000
286.369; 3048.225;  214.925;    0.000
286.434; 3033.225;  206.925;    0.000
286.499; 2956.225;  177.925;    0.000
286.564; 2935.225;  201.925;    0.000
286.628; 2883.225;  153.925;    0.000
286.693; 2756.225;  161.925;    0.000
286.758; 2895.225;  181.925;    0.000
286.823; 2822.225;  176.925;    0.000
286.887; 2764.225;  158.925;    0.000
286.952; 2798.225;  198.925;    0.000
287.017; 2786.225;  196.925;    0.000
287.082; 2694.225;  154.925;    0.000
287.146; 2823.225;  178.925;    0.000
287.211; 2818.225;  165.925;    0.000
287.276; 2785.225;  165.925;    0.000
287.340; 2759.225;  178.925;    0.000
287.405; 2749.225;  177.925;    0.000
287.470; 2746.225;  141.925;    0.000
287.534; 2771.225;  224.925;    0.000
287.599; 2681.225;  184.925;    0.000
287.663; 2686.225;  177.925;    0.000
287.728; 2767.225;  144.925;    0.000
287.793; 2759.225;  210.925;    0.000
287.857; 2716.225;  198.925;    0.000
287.922; 2681.225;  168.925;    0.000
287.987; 2747.225;  168.925;    0.000
288.051; 2758.225;  200.925;    0.000
288.116; 2784.225;  199.925;    0.000
288.180; 2736.225;  211.925;    0.000
288.245; 2801.225;  182.925;    0.000
288.309; 2600.225;  180.925;    0.000
288.374; 2713.225;  196.925;    0.000
288.439; 2644.225;  187.925;    0.000
288.503; 2662.225;  159.925;    0.000
288.568; 2709.225;  207.925;    0.000
288.632; 2632.225;  210.925;    0.000
288.697; 2687.225;  196.925;    0.000
288.761; 2592.225;  175.925;    0.000
288.826; 2591.225;  159.925;    0.000
288.890; 2663.225;  183.925;    0.000
288.955; 2640.225;  149.925;    0.000
289.019; 2660.225;  194.925;    0.000
289.084; 2632.225;  171.925;    0.000
289.148; 2552.225;  191.925;    0.000
289.212; 2610.225;  217.925;    0.000
289.277; 2626.225;  196.925;    0.000
289.341; 2618.225;  211.925;    0.000
289.406; 2692.225;  165.925;    0.000
289.470; 2662.225;  197.925;    0.000
289.535; 2513.225;  208.925;    0.000
289.599; 2611.225;  192.925;    0.000
289.663; 2663.225;  169.925;    0.000
289.728; 2552.225;  168.925;    0.000
289.792; 2633.225;  192.925;    0.000
289.857; 2601.225;  202.925;    0.000
289.921; 2602.225;  176.925;    0.000
289.985; 2480.225;  164.925;    0.000
290.050; 2624.225;  166.925;    0.000
290.114; 2545.225;  192.925;    0.000
290.178; 2537.225;  155.925;    0.000
290.243; 2583.225;  158.925;    0.000
290.307; 2692.225;  192.925;    0.000
290.371; 2624.225;  161.925;    0.000
290.436; 2563.225;  182.925;    0.000
290.500; 2755.225;  147.925;    0.000
290.564; 2584.225;  209.925;    0.000
290.629; 2578.225;  172.925;    0.000
290.693; 2650.225;  192.925;    0.000
290.757; 2610.225;  147.925;    0.000
290.821; 2514.225;  139.925;    0.000
290.886; 2668.225;  186.925;    0.000
290.950; 2611.225;  196.925;    0.000
291.014; 2543.225;  166.925;    0.000
291.078; 2617.225;  143.925;    0.000
291.143; 2633.225;  171.925;    0.000
291.207; 2734.225;  187.925;    0.000
291.271; 2578.225;  208.925;    0.000
291.335; 2726.225;  195.925;    0.000
291.399; 2805.225;  139.925;    0.000
291.464; 2885.225;  139.925;    0.000
291.528; 2959.225;  183.925;    0.000
291.592; 2885.225;  152.925;    0.000
291.656; 2807.225;  155.925;    0.000
291.720; 2813.225;  191.925;    0.000
291.784; 2689.225;  185.925;    0.000
291.849; 2748.225;  175.925;    0.000
291.913; 2767.225;  152.925;    0.000
291.977; 2840.225;  203.925;    0.000
292.041; 2849.225;  181.925;    0.000
292.105; 2737.225;  168.925;    0.000
292.169; 2910.225;  133.925;    0.000
292.233; 2904.225;  156.925;    0.000
292.297; 2926.225;  173.925;    0.000
292.361; 2845.225;  124.925;    0.000
292.425; 3001.225;  138.925;    0.000
292.490; 2905.225;  110.925;    0.000
292.554; 3054.225;  180.925;    0.000
292.618; 3233.225;  178.925;    0.000
292.682; 3411.225;  156.925;    0.000
292.746; 3843.225;  151.925;    0.000
292.810; 4903.225;  183.925;    0.000
292.874; 5795.225;  156.925;    0.000
292.938; 5821.225;  195.925;    0.000
293.002; 5304.225;  200.925;    0.000
293.066; 4846.225;  171.925;    0.000
293.130; 4450.225;  163.925;    0.000
293.194; 4304.225;  174.925;    0.000
293.258; 4231.225;  167.925;    0.000
293.322; 4010.225;  212.925;    0.000
293.386; 4241.225;  189.925;    0.000
293.450; 4321.225;  169.925;    0.000
293.514; 4798.225;  175.925;    0.000
293.577; 6378.225;  169.925;    0.000
293.641; 8493.225;  186.925;    0.000
293.705; 9023.225;  222.925;    0.000
293.769; 7975.225;  150.925;    0.000
293.833; 6921.225;  165.925;    0.000
293.897; 6019.225;  152.925;    0.000
293.961; 5503.225;  179.925;    0.000
294.025; 4984.225;  159.925;    0.000
294.089; 4650.225;  181.925;    0.000
294.152; 4245.225;  188.925;    0.000
294.216; 4134.225;  170.925;    0.000
294.280; 4016.225;  167.925;    0.000
294.344; 3830.225;  151.925;    0.000
294.408; 3515.225;  180.925;    0.000
294.472; 3481.225;  144.925;    0.000
294.536; 3403.225;  171.925;    0.000
294.599; 3324.225;  157.925;    0.000
294.663; 3169.225;  139.925;    0.000
294.727; 3248.225;  208.925;    0.000
294.791; 3149.225;  152.925;    0.000
294.855; 2986.225;  181.925;    0.000
294.918; 2992.225;  136.925;    0.000
294.982; 2959.225;  155.925;    0.000
295.046; 2964.225;  200.925;    0.000
295.110; 2929.225;  190.925;    0.000
295.173; 2885.225;  156.925;    0.000
295.237; 2904.225;  160.925;    0.000
295.301; 2800.225;  145.925;    0.000
295.364; 2840.225;  166.925;    0.000
295.428; 2813.225;  125.925;    0.000
295.492; 2753.225;  154.925;    0.000
295.556; 2758.225;  172.925;    0.000
295.619; 2806.225;  210.925;    0.000
295.683; 2766.225;  181.925;    0.000
295.747; 2715.225;  176.925;    0.000
295.810; 2633.225;  181.925;    0.000
295.874; 2661.225;  160.925;    0.000
295.938; 2629.225;  119.925;    0.000
296.001; 2663.225;  206.925;    0.000
296.065; 2668.225;  136.925;    0.000
296.128; 2659.225;  156.925;    0.000
296.192; 2569.225;  174.925;    0.000
296.256; 2647.225;  145.925;    0.000
296.319; 2588.225;  167.925;    0.000
296.383; 2582.225;  168.925;    0.000
296.447; 2514.225;  190.925;    0.000
296.510; 2565.225;  165.925;    0.000
296.574; 2530.225;  184.925;    0.000
296.637; 2576.225;  155.925;    0.000
296.701; 2537.225;  168.925;    0.000
296.764; 2477.225;  161.925;    0.000
296.828; 2477.225;  218.925;    0.000
296.891; 2497.225;  176.925;    0.000
296.955; 2450.225;  169.925;    0.000
297.018; 2583.225;  168.925;    0.000
297.082; 2555.225;  176.925;    0.000
297.145; 2529.225;  171.925;    0.000
297.209; 2475.225;  196.925;    0.000
297.272; 2483.225;  170.925;    0.000
297.336; 2398.225;  156.925;    0.000
297.399; 2442.225;  168.925;    0.000
297.463; 2397.225;  203.925;    0.000
297.526; 2370.225;  164.925;    0.000
297.590; 2454.225;  175.925;    0.000
297.653; 2387.225;  170.925;    0.000
297.717; 2467.225;  156.925;    0.000
297.780; 2411.225;  149.925;    0.000
297.843; 2405.225;  156.925;    0.000
297.907; 2489.225;  129.925;    0.000
297.970; 2336.225;  163.925;    0.000
298.034; 2358.225;  162.925;    0.000
298.097; 2412.225;  182.925;    0.000
298.160; 2427.225;  194.925;    0.000
298.224; 2421.225;  178.925;    0.000
298.287; 2316.225;  147.925;    0.000
298.350; 2339.225;  187.925;    0.000
298.414; 2334.225;  193.925;    0.000
298.477; 2378.225;  127.925;    0.000
298.540; 2363.225;  181.925;    0.000
298.604; 2432.225;  163.925;    0.000
298.667; 2344.225;  177.925;    0.000
298.730; 2379.225;  192.925;    0.000
298.794; 2393.225;  183.925;    0.000
298.857; 2238.225;  194.925;    0.000
298.920; 2180.225;  147.925;    0.000
298.984; 2276.225;  184.925;    0.000
299.047; 2230.225;  218.925;    0.000
299.110; 2197.225;  171.925;    0.000
299.173; 2253.225;  177.925;    0.000
299.237; 2254.225;  181.925;    0.000
299.300; 2194.225;  170.925;    0.000
299.363; 2223.225;  185.925;    0.000
299.426; 2251.225;  193.925;    0.000
299.489; 2225.225;  184.925;    0.000
299.553; 2307.225;  194.925;    0.000
299.616; 2239.225;  171.925;    0.000
299.679; 2304.225;  182.925;    0.000
299.742; 2176.225;  138.925;    0.000
299.805; 2167.225;  172.925;    0.000
299.868; 2214.225;  191.925;    0.000
299.932; 2168.225;  193.925;    0.000
299.995; 2174.225;  201.925;    0.000
300.058; 2222.225;  177.925;    0.000
300.121; 2176.225;  178.925;    0.000
300.184; 2233.225;  171.925;    0.000
300.247; 2194.225;  184.925;    0.000
300.310; 2127.225;  200.925;    0.000
300.374; 2181.225;  172.925;    0.000
300.437; 2120.225;  187.925;    0.000
300.500; 2129.225;  211.925;    0.000
300.563; 2121.225;  190.925;    0.000
300.626; 2112.225;  196.925;    0.000
300.689; 2187.225;  162.925;    0.000
300.752; 2122.225;  163.925;    0.000
300.815; 2145.225;  207.925;    0.000
300.878; 2167.225;  221.925;    0.000
300.941; 2144.225;  176.925;    0.000
301.004; 2132.225;  193.925;    0.000
301.067; 2053.225;  165.925;    0.000
301.130; 2143.225;  179.925;    0.000
301.193; 2112.225;  196.925;    0.000
301.256; 2178.225;  210.925;    0.000
301.319; 2148.225;  196.925;    0.000
301.382; 2133.225;  162.925;    0.000
301.445; 2084.225;  233.925;    0.000
301.508; 2104.225;  176.925;    0.000
301.571; 2083.225;  185.925;    0.000
301.634; 2060.225;  202.925;    0.000
301.697; 2091.225;  189.925;    0.000
301.760; 2100.225;  224.925;    0.000
301.823; 2114.225;  212.925;    0.000
301.885; 2110.225;  196.925;    0.000
301.948; 2152.225;  169.925;    0.000
302.011; 2104.225;  160.925;    0.000
302.074; 2142.225;  202.925;    0.000
302.137; 1983.225;  130.925;    0.000
302.200; 2013.225;  188.925;    0.000
302.263; 2124.225;  196.925;    0.000
302.326; 1974.225;  172.925;    0.000
302.388; 2073.225;  197.925;    0.000
302.451; 2038.225;  203.925;    0.000
302.514; 2095.225;  164.925;    0.000
302.577; 2040.225;  170.925;    0.000
302.640; 2019.225;  156.925;    0.000
302.703; 1971.225;  188.925;    0.000
302.765; 2105.225;  213.925;    0.000
302.828; 2042.225;  212.925;    0.000
302.891; 2032.225;  203.925;    0.000
302.954; 2026.225;  148.925;    0.000
303.016; 2092.225;  168.925;    0.000
303.079; 2059.225;  206.925;    0.000
303.142; 2091.225;  210.925;    0.000
303.205; 1986.225;  189.925;    0.000
303.267; 2105.225;  174.925;    0.000
303.330; 2040.225;  198.925;    0.000
303.393; 2022.225;  207.925;    0.000
303.456; 2060.225;  177.925;    0.000
303.518; 2031.225;  192.925;    0.000
303.581; 2045.225;  171.925;    0.000
303.644; 1998.225;  193.925;    0.000
303.706; 2101.225;  185.925;    0.000
303.769; 2052.225;  198.925;    0.000
303.832; 2086.225;  192.925;    0.000
303.894; 2021.225;  199.925;    0.000
303.957; 2105.225;  160.925;    0.000
304.020; 2105.225;  184.925;    0.000
304.082; 2020.225;  191.925;    0.000
304.145; 2149.225;  216.925;    0.000
304.207; 2017.225;  175.925;    0.000
304.270; 2039.225;  192.925;    0.000
304.333; 2103.225;  218.925;    0.000
304.395; 2086.225;  195.925;    0.000
304.458; 2087.225;  206.925;    0.000
304.520; 2097.225;  229.925;    0.000
304.583; 2126.225;  202.925;    0.000
304.646; 2038.225;  159.925;    0.000
304.708; 2075.225;  167.925;    0.000
304.771; 2104.225;  141.925;    0.000
304.833; 2065.225;  184.925;    0.000
304.896; 2083.225;  197.925;    0.000
304.958; 2023.225;  179.925;    0.000
305.021; 2034.225;  175.925;    0.000
305.083; 2026.225;  182.925;    0.000
305.146; 2105.225;  182.925;    0.000
305.208; 2040.225;  174.925;    0.000
305.271; 2040.225;  157.925;    0.000
305.333; 2165.225;  185.925;    0.000
305.396; 2047.225;  199.925;    0.000
305.458; 2093.225;  203.925;    0.000
305.520; 2056.225;  195.925;    0.000
305.583; 2080.225;  152.925;    0.000
305.645; 2079.225;  200.925;    0.000
305.708; 2050.225;  149.925;    0.000
305.770; 2151.225;  211.925;    0.000
305.833; 2140.225;  189.925;    0.000
305.895; 2050.225;  200.925;    0.000
305.957; 2136.225;  166.925;    0.000
306.020; 2097.225;  186.925;    0.000
306.082; 2098.225;  197.925;    0.000
306.144; 2106.225;  200.925;    0.000
306.207; 2107.225;  180.925;    0.000
306.269; 2072.225;  209.925;    0.000
306.331; 2123.225;  205.925;    0.000
306.394; 2059.225;  176.925;    0.000
306.456; 2077.225;  184.925;    0.000
306.518; 2046.225;  210.925;    0.000
306.581; 2102.225;  162.925;    0.000
306.643; 2094.225;  196.925;    0.000
306.705; 2084.225;  204.925;    0.000
306.768; 2091.225;  158.925;    0.000
306.830; 2137.225;  205.925;    0.000
306.892; 2129.225;  189.925;    0.000
306.954; 2219.225;  188.925;    0.000
307.017; 2146.225;  180.925;    0.000
307.079; 2082.225;  197.925;    0.000
307.141; 2087.225;  184.925;    0.000
307.203; 2147.225;  182.925;    0.000
307.266; 2112.225;  166.925;    0.000
307.328; 2235.225;  186.925;    0.000
307.390; 2161.225;  176.925;    0.000
307.452; 2156.225;  194.925;    0.000
307.514; 2246.225;  225.925;    0.000
307.577; 2174.225;  209.925;    0.000
307.639; 2094.225;  203.925;    0.000
307.701; 2205.225;  214.925;    0.000
307.763; 2224.225;  203.925;    0.000
307.825; 2141.225;  202.925;    0.000
307.887; 2289.225;  244.925;    0.000
307.949; 2229.225;  173.925;    0.000
308.012; 2163.225;  219.925;    0.000
308.074; 2266.225;  157.925;    0.000
308.136; 2293.225;  215.925;    0.000
308.198; 2207.225;  186.925;    0.000
308.260; 2165.225;  186.925;    0.000
308.322; 2200.225;  201.925;    0.000
308.384; 2295.225;  218.925;    0.000
308.446; 2251.225;  159.925;    0.000
308.508; 2316.225;  191.925;    0.000
308.570; 2221.225;  185.925;    0.000
308.632; 2282.225;  208.925;    0.000
308.694; 2320.225;  161.925;    0.000
308.756; 2266.225;  169.925;    0.000
308.818; 2372.225;  187.925;    0.000
308.880; 2313.225;  192.925;    0.000
308.942; 2311.225;  194.925;    0.000
309.004; 2382.225;  206.925;    0.000
309.066; 2459.225;  204.925;    0.000
309.128; 2410.225;  181.925;    0.000
309.190; 2479.225;  166.925;    0.000
309.252; 2556.225;  213.925;    0.000
309.314; 2513.225;  249.925;    0.000
309.376; 2522.225;  238.925;    0.000
309.438; 2475.225;  206.925;    0.000
309.500; 2456.225;  185.925;    0.000
309.562; 2464.225;  214.925;    0.000
309.624; 2487.225;  216.925;    0.000
309.686; 2529.225;  197.925;    0.000
309.747; 2568.225;  171.925;    0.000
309.809; 2506.225;  198.925;    0.000
309.871; 2384.225;  185.925;    0.000
309.933; 2342.225;  172.925;    0.000
309.995; 2501.225;  168.925;    0.000
310.057; 2340.225;  177.925;    0.000
310.119; 2411.225;  207.925;    0.000
310.180; 2334.225;  180.925;    0.000
310.242; 2305.225;  202.925;    0.000
310.304; 2345.225;  200.925;    0.000
310.366; 2390.225;  222.925;    0.000
310.428; 2210.225;  179.925;    0.000
310.489; 2301.225;  196.925;    0.000
310.551; 2337.225;  203.925;    0.000
310.613; 2283.225;  198.925;    0.000
310.675; 2315.225;  203.925;    0.000
310.737; 2293.225;  195.925;    0.000
310.798; 2359.225;  204.925;    0.000
310.860; 2237.225;  195.925;    0.000
310.922; 2338.225;  195.925;    0.000
310.983; 2272.225;  225.925;    0.000
311.045; 2265.225;  203.925;    0.000
311.107; 2256.225;  194.925;    0.000
311.169; 2229.225;  185.925;    0.000
311.230; 2369.225;  175.925;    0.000
311.292; 2258.225;  220.925;    0.000
311.354; 2183.225;  189.925;    0.000
311.415; 2356.225;  187.925;    0.000
311.477; 2269.225;  180.925;    0.000
311.539; 2283.225;  175.925;    0.000
311.600; 2245.225;  192.925;    0.000
311.662; 2242.225;  212.925;    0.000
311.724; 2296.225;  217.925;    0.000
311.785; 2243.225;  218.925;    0.000
311.847; 2232.225;  219.925;    0.000
311.908; 2295.225;  202.925;    0.000
311.970; 2301.225;  186.925;    0.000
312.032; 2290.225;  212.925;    0.000
312.093; 2340.225;  203.925;    0.000
312.155; 2276.225;  165.925;    0.000
312.216; 2210.225;  183.925;    0.000
312.278; 2187.225;  167.925;    0.000
312.339; 2251.225;  190.925;    0.000
312.401; 2308.225;  219.925;    0.000
312.462; 2302.225;  190.925;    0.000
312.524; 2293.225;  203.925;    0.000
312.585; 2352.225;  191.925;    0.000
312.647; 2294.225;  197.925;    0.000
312.708; 2318.225;  203.925;    0.000
312.770; 2341.225;  203.925;    0.000
312.831; 2323.225;  155.925;    0.000
312.893; 2320.225;  189.925;    0.000
312.954; 2381.225;  212.925;    0.000
313.016; 2371.225;  179.925;    0.000
313.077; 2315.225;  209.925;    0.000
313.139; 2338.225;  185.925;    0.000
313.200; 2362.225;  180.925;    0.000
313.261; 2351.225;  220.925;    0.000
313.323; 2334.225;  171.925;    0.000
313.384; 2306.225;  180.925;    0.000
313.446; 2391.225;  202.925;    0.000
313.507; 2261.225;  172.925;    0.000
313.568; 2388.225;  192.925;    0.000
313.630; 2275.225;  191.925;    0.000
313.691; 2343.225;  176.925;    0.000
313.752; 2342.225;  175.925;    0.000
313.814; 2285.225;  202.925;    0.000
313.875; 2310.225;  186.925;    0.000
313.936; 2360.225;  199.925;    0.000
313.998; 2244.225;  164.925;    0.000
314.059; 2287.225;  159.925;    0.000
314.120; 2257.225;  175.925;    0.000
314.182; 2369.225;  181.925;    0.000
314.243; 2370.225;  157.925;    0.000
314.304; 2360.225;  168.925;    0.000
314.365; 2400.225;  203.925;    0.000
314.427; 2307.225;  151.925;    0.000
314.488; 2323.225;  174.925;    0.000
314.549; 2381.225;  184.925;    0.000
314.610; 2292.225;  198.925;    0.000
314.672; 2320.225;  193.925;    0.000
314.733; 2280.225;  171.925;    0.000
314.794; 2296.225;  141.925;    0.000
314.855; 2307.225;  184.925;    0.000
314.917; 2314.225;  175.925;    0.000
314.978; 2376.225;  190.925;    0.000
315.039; 2314.225;  183.925;    0.000
315.100; 2354.225;  204.925;    0.000
315.161; 2298.225;  202.925;    0.000
315.222; 2253.225;  177.925;    0.000
315.283; 2226.225;  191.925;    0.000
315.345; 2353.225;  185.925;    0.000
315.406; 2281.225;  194.925;    0.000
315.467; 2225.225;  167.925;    0.000
315.528; 2345.225;  174.925;    0.000
315.589; 2209.225;  197.925;    0.000
315.650; 2321.225;  192.925;    0.000
315.711; 2365.225;  181.925;    0.000
315.772; 2309.225;  157.925;    0.000
315.833; 2231.225;  189.925;    0.000
315.894; 2361.225;  184.925;    0.000
315.955; 2351.225;  202.925;    0.000
316.016; 2271.225;  220.925;    0.000
316.078; 2337.225;  180.925;    0.000
316.139; 2396.225;  240.925;    0.000
316.200; 2299.225;  190.925;    0.000
316.261; 2310.225;  179.925;    0.000
316.322; 2328.225;  176.925;    0.000
316.383; 2237.225;  188.925;    0.000
316.444; 2284.225;  228.925;    0.000
316.504; 2258.225;  199.925;    0.000
316.565; 2255.225;  221.925;    0.000
316.626; 2240.225;  204.925;    0.000
316.687; 2331.225;  192.925;    0.000
316.748; 2292.225;  220.925;    0.000
316.809; 2263.225;  175.925;    0.000
316.870; 2248.225;  164.925;    0.000
316.931; 2324.225;  208.925;    0.000
316.992; 2280.225;  224.925;    0.000
317.053; 2264.225;  204.925;    0.000
317.114; 2364.225;  199.925;    0.000
317.175; 2302.225;  230.925;    0.000
317.235; 2264.225;  186.925;    0.000
317.296; 2310.225;  224.925;    0.000
317.357; 2244.225;  154.925;    0.000
317.418; 2336.225;  219.925;    0.000
317.479; 2299.225;  229.925;    0.000
317.540; 2220.225;  201.925;    0.000
317.601; 2291.225;  180.925;    0.000
317.661; 2196.225;  179.925;    0.000
317.722; 2298.225;  193.925;    0.000
317.783; 2134.225;  164.925;    0.000
317.844; 2262.225;  232.925;    0.000
317.904; 2350.225;  222.925;    0.000
317.965; 2192.225;  199.925;    0.000
318.026; 2261.225;  200.925;    0.000
318.087; 2335.225;  182.925;    0.000
318.148; 2247.225;  216.925;    0.000
318.208; 2179.225;  239.925;    0.000
318.269; 2244.225;  163.925;    0.000
318.330; 2187.225;  204.925;    0.000
318.390; 2224.225;  191.925;    0.000
318.451; 2264.225;  200.925;    0.000
318.512; 2282.225;  181.925;    0.000
318.572; 2232.225;  233.925;    0.000
318.633; 2294.225;  220.925;    0.000
318.694; 2262.225;  179.925;    0.000
318.754; 2176.225;  214.925;    0.000
318.815; 2257.225;  214.925;    0.000
318.876; 2188.225;  220.925;    0.000
318.936; 2219.225;  212.925;    0.000
318.997; 2223.225;  201.925;    0.000
319.058; 2286.225;  215.925;    0.000
319.118; 2249.225;  251.925;    0.000
319.179; 2218.225;  240.925;    0.000
319.239; 2316.225;  240.925;    0.000
319.300; 2250.225;  232.925;    0.000
319.361; 2271.225;  211.925;    0.000
319.421; 2237.225;  219.925;    0.000
319.482; 2235.225;  228.925;    0.000
319.542; 2234.225;  216.925;    0.000
319.603; 2275.225;  190.925;    0.000
319.663; 2120.225;  227.925;    0.000
319.724; 2195.225;  191.925;    0.000
319.784; 2240.225;  196.925;    0.000
319.845; 2333.225;  190.925;    0.000
319.905; 2256.225;  221.925;    0.000
319.966; 2130.225;  219.925;    0.000
320.026; 2288.225;  233.925;    0.000
320.087; 2256.225;  204.925;    0.000
320.147; 2271.225;  189.925;    0.000
320.208; 2290.225;  200.925;    0.000
320.268; 2231.225;  217.925;    0.000
320.329; 2298.225;  216.925;    0.000
320.389; 2238.225;  228.925;    0.000
320.449; 2290.225;  236.925;    0.000
320.510; 2241.225;  234.925;    0.000
320.570; 2258.225;  176.925;    0.000
320.631; 2339.225;  228.925;    0.000
320.691; 2277.225;  228.925;    0.000
320.751; 2237.225;  188.925;    0.000
320.812; 2201.225;  223.925;    0.000
320.872; 2317.225;  268.925;    0.000
320.932; 2286.225;  226.925;    0.000
320.993; 2239.225;  216.925;    0.000
321.053; 2293.225;  236.925;    0.000
321.113; 2219.225;  197.925;    0.000
321.174; 2293.225;  218.925;    0.000
321.234; 2211.225;  229.925;    0.000
321.294; 2254.225;  208.925;    0.000
321.355; 2153.225;  248.925;    0.000
321.415; 2220.225;  218.925;    0.000
321.475; 2225.225;  173.925;    0.000
321.535; 2230.225;  234.925;    0.000
321.596; 2259.225;  202.925;    0.000
321.656; 2305.225;  246.925;    0.000
321.716; 2176.225;  235.925;    0.000
321.776; 2213.225;  210.925;    0.000
321.837; 2239.225;  217.925;    0.000
321.897; 2272.225;  215.925;    0.000
321.957; 2229.225;  239.925;    0.000
322.017; 2204.225;  173.925;    0.000
322.077; 2235.225;  263.925;    0.000
322.138; 2222.225;  232.925;    0.000
322.198; 2220.225;  211.925;    0.000
322.258; 2271.225;  213.925;    0.000
322.318; 2214.225;  168.925;    0.000
322.378; 2208.225;  251.925;    0.000
322.438; 2265.225;  212.925;    0.000
322.499; 2186.225;  265.925;    0.000
322.559; 2178.225;  210.925;    0.000
322.619; 2193.225;  242.925;    0.000
322.679; 2204.225;  229.925;    0.000
322.739; 2115.225;  216.925;    0.000
322.799; 2263.225;  238.925;    0.000
322.859; 2239.225;  249.925;    0.000
322.919; 2147.225;  211.925;    0.000
322.979; 2228.225;  244.925;    0.000
323.039; 2198.225;  226.925;    0.000
323.099; 2198.225;  223.925;    0.000
323.159; 2174.225;  232.925;    0.000
323.219; 2224.225;  203.925;    0.000
323.279; 2188.225;  218.925;    0.000
323.339; 2195.225;  231.925;    0.000
323.399; 2175.225;  255.925;    0.000
323.459; 2219.225;  244.925;    0.000
323.519; 2288.225;  213.925;    0.000
323.579; 2188.225;  193.925;    0.000
323.639; 2224.225;  191.925;    0.000
323.699; 2216.225;  199.925;    0.000
323.759; 2238.225;  246.925;    0.000
323.819; 2272.225;  206.925;    0.000
323.879; 2170.225;  238.925;    0.000
323.939; 2168.225;  229.925;    0.000
323.999; 2250.225;  219.925;    0.000
324.059; 2105.225;  177.925;    0.000
324.119; 2190.225;  235.925;    0.000
324.178; 2243.225;  211.925;    0.000
324.238; 2204.225;  168.925;    0.000
324.298; 2251.225;  205.925;    0.000
324.358; 2161.225;  224.925;    0.000
324.418; 2221.225;  235.925;    0.000
324.478; 2182.225;  187.925;    0.000
324.538; 2174.225;  230.925;    0.000
324.597; 2138.225;  206.925;    0.000
324.657; 2133.225;  180.925;    0.000
324.717; 2203.225;  175.925;    0.000
324.777; 2215.225;  169.925;    0.000
324.837; 2195.225;  165.925;    0.000
324.896; 2171.225;  205.925;    0.000
324.956; 2195.225;  216.925;    0.000
325.016; 2176.225;  197.925;    0.000
325.076; 2210.225;  220.925;    0.000
325.135; 2164.225;  242.925;    0.000
325.195; 2194.225;  186.925;    0.000
325.255; 2130.225;  160.925;    0.000
325.315; 2098.225;  198.925;    0.000
325.374; 2235.225;  208.925;    0.000
325.434; 2206.225;  209.925;    0.000
325.494; 2225.225;  191.925;    0.000
325.553; 2161.225;  190.925;    0.000
325.613; 2173.225;  229.925;    0.000
325.673; 2138.225;  172.925;    0.000
325.732; 2133.225;  160.925;    0.000
325.792; 2085.225;  177.925;    0.000
325.852; 2059.225;  201.925;    0.000
325.911; 2163.225;  226.925;    0.000
325.971; 2231.225;  224.925;    0.000
326.031; 2189.225;  202.925;    0.000
326.090; 2181.225;  232.925;    0.000
326.150; 2154.225;  230.925;    0.000
326.209; 2212.225;  201.925;    0.000
326.269; 2204.225;  202.925;    0.000
326.328; 2063.225;  203.925;    0.000
326.388; 2109.225;  194.925;    0.000
326.448; 2199.225;  233.925;    0.000
326.507; 2186.225;  192.925;    0.000
326.567; 2108.225;  163.925;    0.000
326.626; 2154.225;  227.925;    0.000
326.686; 2105.225;  177.925;    0.000
326.745; 2140.225;  210.925;    0.000
326.805; 2155.225;  198.925;    0.000
326.864; 2158.225;  185.925;    0.000
326.924; 2135.225;  255.925;    0.000
326.983; 2099.225;  208.925;    0.000
327.043; 2068.225;  241.925;    0.000
327.102; 2216.225;  183.925;    0.000
327.161; 2105.225;  210.925;    0.000
327.221; 2226.225;  213.925;    0.000
327.280; 2118.225;  194.925;    0.000
327.340; 2166.225;  212.925;    0.000
327.399; 2162.225;  209.925;    0.000
327.459; 2117.225;  229.925;    0.000
327.518; 2097.225;  196.925;    0.000
327.577; 2121.225;  197.925;    0.000
327.637; 2101.225;  210.925;    0.000
327.696; 2109.225;  196.925;    0.000
327.755; 2127.225;  216.925;    0.000
327.815; 2125.225;  240.925;    0.000
327.874; 2129.225;  250.925;    0.000
327.933; 2221.225;  229.925;    0.000
327.993; 2131.225;  202.925;    0.000
328.052; 2100.225;  178.925;    0.000
328.111; 2113.225;  230.925;    0.000
328.171; 2199.225;  207.925;    0.000
328.230; 2151.225;  170.925;    0.000
328.289; 2096.225;  205.925;    0.000
328.349; 2106.225;  235.925;    0.000
328.408; 2123.225;  231.925;    0.000
328.467; 2190.225;  217.925;    0.000
328.526; 2158.225;  239.925;    0.000
328.586; 2058.225;  214.925;    0.000
328.645; 2067.225;  205.925;    0.000
328.704; 2052.225;  211.925;    0.000
328.763; 2139.225;  208.925;    0.000
328.822; 2131.225;  251.925;    0.000
328.882; 2131.225;  211.925;    0.000
328.941; 2228.225;  232.925;    0.000
329.000; 2104.225;  235.925;    0.000
329.059; 2058.225;  222.925;    0.000
329.118; 2152.225;  265.925;    0.000
329.177; 2044.225;  237.925;    0.000
329.237; 2254.225;  258.925;    0.000
329.296; 2106.225;  225.925;    0.000
329.355; 2177.225;  227.925;    0.000
329.414; 2132.225;  212.925;    0.000
329.473; 2232.225;  250.925;    0.000
329.532; 2207.225;  263.925;    0.000
329.591; 2161.225;  212.925;    0.000
329.650; 2193.225;  219.925;    0.000
329.709; 2272.225;  218.925;    0.000
329.768; 2210.225;  195.925;    0.000
329.827; 2220.225;  223.925;    0.000
329.886; 2365.225;  230.925;    0.000
329.945; 2385.225;  211.925;    0.000
330.004; 2394.225;  247.925;    0.000
330.063; 2437.225;  193.925;    0.000
330.122; 2792.225;  229.925;    0.000
330.181; 3243.225;  223.925;    0.000
330.240; 3335.225;  199.925;    0.000
330.299; 2967.225;  211.925;    0.000
330.358; 2561.225;  198.925;    0.000
330.417; 2356.225;  190.925;    0.000
330.476; 2300.225;  237.925;    0.000
330.535; 2260.225;  239.925;    0.000
330.594; 2202.225;  207.925;    0.000
330.653; 2209.225;  193.925;    0.000
330.712; 2154.225;  225.925;    0.000
330.771; 2110.225;  236.925;    0.000
330.830; 2062.225;  219.925;    0.000
330.889; 2117.225;  211.925;    0.000
330.948; 2117.225;  194.925;    0.000
331.006; 2059.225;  190.925;    0.000
331.065; 2071.225;  192.925;    0.000
331.124; 2125.225;  195.925;    0.000
331.183; 2101.225;  191.925;    0.000
331.242; 2099.225;  203.925;    0.000
331.301; 2086.225;  183.925;    0.000
331.359; 2108.225;  196.925;    0.000
331.418; 2085.225;  209.925;    0.000
331.477; 2013.225;  255.925;    0.000
331.536; 2066.225;  237.925;    0.000
331.595; 2079.225;  217.925;    0.000
331.653; 2102.225;  198.925;    0.000
331.712; 2023.225;  194.925;    0.000
331.771; 1935.225;  229.925;    0.000
331.830; 2049.225;  254.925;    0.000
331.888; 2026.225;  218.925;    0.000
331.947; 1997.225;  211.925;    0.000
332.006; 2046.225;  261.925;    0.000
332.065; 2012.225;  204.925;    0.000
332.123; 1999.225;  225.925;    0.000
332.182; 2063.225;  193.925;    0.000
332.241; 2015.225;  201.925;    0.000
332.299; 2049.225;  182.925;    0.000
332.358; 1990.225;  244.925;    0.000
332.417; 2036.225;  218.925;    0.000
332.475; 2106.225;  218.925;    0.000
332.534; 2112.225;  228.925;    0.000
332.592; 2075.225;  199.925;    0.000
332.651; 2029.225;  204.925;    0.000
332.710; 2066.225;  217.925;    0.000
332.768; 2047.225;  195.925;    0.000
332.827; 2042.225;  182.925;    0.000
332.885; 2066.225;  247.925;    0.000
332.944; 2023.225;  170.925;    0.000
333.003; 2105.225;  200.925;    0.000
333.061; 2056.225;  243.925;    0.000
333.120; 2079.225;  235.925;    0.000
333.178; 2141.225;  195.925;    0.000
333.237; 2106.225;  217.925;    0.000
333.295; 2191.225;  252.925;    0.000
333.354; 2134.225;  201.925;    0.000
333.412; 2130.225;  181.925;    0.000
333.471; 2113.225;  239.925;    0.000
333.529; 2175.225;  214.925;    0.000
333.588; 2222.225;  232.925;    0.000
333.646; 2237.225;  202.925;    0.000
333.705; 2283.225;  232.925;    0.000
333.763; 2283.225;  215.925;    0.000
333.822; 2202.225;  187.925;    0.000
333.880; 2163.225;  186.925;    0.000
333.938; 2079.225;  185.925;    0.000
333.997; 2202.225;  234.925;    0.000
334.055; 2180.225;  255.925;    0.000
334.114; 2179.225;  225.925;    0.000
334.172; 2116.225;  209.925;    0.000
334.230; 2068.225;  194.925;    0.000
334.289; 2215.225;  213.925;    0.000
334.347; 2142.225;  235.925;    0.000
334.405; 2108.225;  242.925;    0.000
334.464; 2116.225;  208.925;    0.000
334.522; 2146.225;  197.925;    0.000
334.580; 2160.225;  204.925;    0.000
334.639; 2131.225;  217.925;    0.000
334.697; 2080.225;  183.925;    0.000
334.755; 2178.225;  196.925;    0.000
334.814; 2141.225;  216.925;    0.000
334.872; 2124.225;  190.925;    0.000
334.930; 2108.225;  162.925;    0.000
334.988; 2084.225;  261.925;    0.000
335.047; 2129.225;  220.925;    0.000
335.105; 2119.225;  190.925;    0.000
335.163; 2160.225;  201.925;    0.000
335.221; 2124.225;  213.925;    0.000
335.280; 2112.225;  202.925;    0.000
335.338; 2123.225;  210.925;    0.000
335.396; 2112.225;  255.925;    0.000
335.454; 2086.225;  216.925;    0.000
335.512; 2232.225;  242.925;    0.000
335.570; 2136.225;  227.925;    0.000
335.629; 2170.225;  225.925;    0.000
335.687; 2172.225;  227.925;    0.000
335.745; 2163.225;  194.925;    0.000
335.803; 2144.225;  221.925;    0.000
335.861; 2116.225;  217.925;    0.000
335.919; 2163.225;  214.925;    0.000
335.977; 2090.225;  209.925;    0.000
336.035; 2138.225;  215.925;    0.000
336.094; 2146.225;  198.925;    0.000
336.152; 2104.225;  222.925;    0.000
336.210; 2158.225;  225.925;    0.000
336.268; 2229.225;  234.925;    0.000
336.326; 2081.225;  209.925;    0.000
336.384; 2155.225;  271.925;    0.000
336.442; 2128.225;  207.925;    0.000
336.500; 2121.225;  226.925;    0.000
336.558; 2151.225;  219.925;    0.000
336.616; 2139.225;  260.925;    0.000
336.674; 2148.225;  205.925;    0.000
336.732; 2106.225;  225.925;    0.000
336.790; 2091.225;  191.925;    0.000
336.848; 2100.225;  219.925;    0.000
336.906; 2076.225;  230.925;    0.000
336.964; 2156.225;  226.925;    0.000
337.022; 2107.225;  266.925;    0.000
337.080; 2210.225;  231.925;    0.000
337.138; 2144.225;  249.925;    0.000
337.195; 2140.225;  207.925;    0.000
337.253; 2210.225;  207.925;    0.000
337.311; 2062.225;  225.925;    0.000
337.369; 2105.225;  211.925;    0.000
337.427; 2178.225;  196.925;    0.000
337.485; 2000.225;  269.925;    0.000
337.543; 2147.225;  227.925;    0.000
337.601; 2077.225;  260.925;    0.000
337.658; 2065.225;  237.925;    0.000
337.716; 2021.225;  222.925;    0.000
337.774; 2056.225;  256.925;    0.000
337.832; 1988.225;  223.925;    0.000
337.890; 2031.225;  188.925;    0.000
337.947; 2101.225;  212.925;    0.000
338.005; 2037.225;  217.925;    0.000
338.063; 2032.225;  200.925;    0.000
338.121; 2020.225;  217.925;    0.000
338.178; 2058.225;  236.925;    0.000
338.236; 2079.225;  218.925;    0.000
338.294; 2099.225;  238.925;    0.000
338.352; 2030.225;  266.925;    0.000
338.409; 2040.225;  240.925;    0.000
338.467; 2051.225;  210.925;    0.000
338.525; 2040.225;  255.925;    0.000
338.583; 2018.225;  239.925;    0.000
338.640; 2009.225;  243.925;    0.000
338.698; 2064.225;  204.925;    0.000
338.756; 1982.225;  219.925;    0.000
338.813; 2062.225;  227.925;    0.000
338.871; 1987.225;  227.925;    0.000
338.928; 2025.225;  211.925;    0.000
338.986; 2058.225;  254.925;    0.000
339.044; 1997.225;  207.925;    0.000
339.101; 2009.225;  229.925;    0.000
339.159; 2062.225;  237.925;    0.000
339.216; 2045.225;  231.925;    0.000
339.274; 2057.225;  301.925;    0.000
339.332; 2035.225;  259.925;    0.000
339.389; 2109.225;  258.925;    0.000
339.447; 2075.225;  226.925;    0.000
339.504; 2015.225;  229.925;    0.000
339.562; 2099.225;  244.925;    0.000
339.619; 2008.225;  265.925;    0.000
339.677; 2107.225;  253.925;    0.000
339.734; 1996.225;  191.925;    0.000
339.792; 2074.225;  238.925;    0.000
339.849; 2034.225;  236.925;    0.000
339.907; 2038.225;  254.925;    0.000
339.964; 2044.225;  196.925;    0.000
340.022; 2068.225;  247.925;    0.000
340.079; 2031.225;  275.925;    0.000
340.137; 2007.225;  248.925;    0.000
340.194; 2035.225;  263.925;    0.000
340.252; 2060.225;  266.925;    0.000
340.309; 2034.225;  211.925;    0.000
340.366; 1976.225;  237.925;    0.000
340.424; 2060.225;  260.925;    0.000
340.481; 2020.225;  255.925;    0.000
340.538; 1960.225;  235.925;    0.000
340.596; 1997.225;  225.925;    0.000
340.653; 2072.225;  230.925;    0.000
340.711; 2074.225;  272.925;    0.000
340.768; 2128.225;  253.925;    0.000
340.825; 2042.225;  201.925;    0.000
340.883; 2131.225;  232.925;    0.000
340.940; 2052.225;  247.925;    0.000
340.997; 2079.225;  244.925;    0.000
341.054; 2018.225;  244.925;    0.000
341.112; 2013.225;  258.925;    0.000
341.169; 2022.225;  238.925;    0.000
341.226; 2098.225;  213.925;    0.000
341.284; 2066.225;  240.925;    0.000
341.341; 2093.225;  194.925;    0.000
341.398; 2003.225;  191.925;    0.000
341.455; 2095.225;  227.925;    0.000
341.512; 2067.225;  238.925;    0.000
341.570; 2125.225;  236.925;    0.000
341.627; 2043.225;  241.925;    0.000
341.684; 1992.225;  225.925;    0.000
341.741; 2150.225;  299.925;    0.000
341.798; 1996.225;  265.925;    0.000
341.856; 2053.225;  230.925;    0.000
341.913; 1972.225;  234.925;    0.000
341.970; 2030.225;  260.925;    0.000
342.027; 2053.225;  255.925;    0.000
342.084; 2114.225;  260.925;    0.000
342.141; 2033.225;  263.925;    0.000
342.198; 2084.225;  245.925;    0.000
342.255; 2045.225;  210.925;    0.000
342.313; 2049.225;  251.925;    0.000
342.370; 2017.225;  234.925;    0.000
342.427; 2057.225;  249.925;    0.000
342.484; 2024.225;  254.925;    0.000
342.541; 2071.225;  229.925;    0.000
342.598; 2063.225;  255.925;    0.000
342.655; 2033.225;  225.925;    0.000
342.712; 2057.225;  224.925;    0.000
342.769; 2074.225;  215.925;    0.000
342.826; 2106.225;  240.925;    0.000
342.883; 2036.225;  233.925;    0.000
342.940; 2019.225;  212.925;    0.000
342.997; 2047.225;  236.925;    0.000
343.054; 2067.225;  255.925;    0.000
343.111; 2021.225;  228.925;    0.000
343.168; 2114.225;  230.925;    0.000
343.225; 2094.225;  258.925;    0.000
343.282; 2120.225;  202.925;    0.000
343.339; 2142.225;  253.925;    0.000
343.395; 2107.225;  232.925;    0.000
343.452; 2073.225;  253.925;    0.000
343.509; 2127.225;  213.925;    0.000
343.566; 2124.225;  259.925;    0.000
343.623; 2133.225;  244.925;    0.000
343.680; 2044.225;  232.925;    0.000
343.737; 2161.225;  222.925;    0.000
343.794; 2142.225;  204.925;    0.000
343.850; 2110.225;  249.925;    0.000
343.907; 2145.225;  212.925;    0.000
343.964; 2230.225;  226.925;    0.000
344.021; 2197.225;  251.925;    0.000
344.078; 2207.225;  246.925;    0.000
344.134; 2265.225;  218.925;    0.000
344.191; 2281.225;  244.925;    0.000
344.248; 2241.225;  211.925;    0.000
344.305; 2235.225;  221.925;    0.000
344.361; 2258.225;  247.925;    0.000
344.418; 2233.225;  265.925;    0.000
344.475; 2205.225;  254.925;    0.000
344.532; 2237.225;  233.925;    0.000
344.588; 2196.225;  236.925;    0.000
344.645; 2093.225;  249.925;    0.000
344.702; 2121.225;  220.925;    0.000
344.758; 2109.225;  255.925;    0.000
344.815; 2179.225;  236.925;    0.000
344.872; 2180.225;  218.925;    0.000
344.928; 2147.225;  230.925;    0.000
344.985; 2249.225;  222.925;    0.000
345.042; 2151.225;  199.925;    0.000
345.098; 2194.225;  226.925;    0.000
345.155; 2160.225;  245.925;    0.000
345.212; 2176.225;  225.925;    0.000
345.268; 2207.225;  237.925;    0.000
345.325; 2110.225;  213.925;    0.000
345.381; 2131.225;  267.925;    0.000
345.438; 2212.225;  240.925;    0.000
345.495; 2218.225;  254.925;    0.000
345.551; 2198.225;  248.925;    0.000
345.608; 2163.225;  196.925;    0.000
345.664; 2160.225;  245.925;    0.000
345.721; 2046.225;  252.925;    0.000
345.777; 2131.225;  245.925;    0.000
345.834; 2045.225;  210.925;    0.000
345.890; 2152.225;  244.925;    0.000
345.947; 2180.225;  238.925;    0.000
346.003; 2229.225;  224.925;    0.000
346.060; 2198.225;  206.925;    0.000
346.116; 2193.225;  237.925;    0.000
346.173; 2154.225;  242.925;    0.000
346.229; 2186.225;  269.925;    0.000
346.285; 2163.225;  262.925;    0.000
346.342; 2205.225;  263.925;    0.000
346.398; 2237.225;  224.925;    0.000
346.455; 2183.225;  237.925;    0.000
346.511; 2313.225;  216.925;    0.000
346.567; 2214.225;  211.925;    0.000
346.624; 2231.225;  225.925;    0.000
346.680; 2171.225;  242.925;    0.000
346.737; 2236.225;  244.925;    0.000
346.793; 2173.225;  260.925;    0.000
346.849; 2207.225;  251.925;    0.000
346.906; 2242.225;  260.925;    0.000
346.962; 2280.225;  267.925;    0.000
347.018; 2272.225;  246.925;    0.000
347.074; 2273.225;  272.925;    0.000
347.131; 2262.225;  211.925;    0.000
347.187; 2243.225;  240.925;    0.000
347.243; 2332.225;  233.925;    0.000
347.300; 2214.225;  225.925;    0.000
347.356; 2273.225;  236.925;    0.000
347.412; 2263.225;  237.925;    0.000
347.468; 2212.225;  284.925;    0.000
347.524; 2254.225;  252.925;    0.000
347.581; 2207.225;  278.925;    0.000
347.637; 2199.225;  262.925;    0.000
347.693; 2268.225;  268.925;    0.000
347.749; 2288.225;  260.925;    0.000
347.805; 2159.225;  224.925;    0.000
347.862; 2264.225;  243.925;    0.000
347.918; 2226.225;  257.925;    0.000
347.974; 2262.225;  248.925;    0.000
348.030; 2238.225;  242.925;    0.000
348.086; 2104.225;  234.925;    0.000
348.142; 2214.225;  239.925;    0.000
348.198; 2213.225;  260.925;    0.000
348.254; 2199.225;  262.925;    0.000
348.311; 2211.225;  263.925;    0.000
348.367; 2246.225;  235.925;    0.000
348.423; 2219.225;  205.925;    0.000
348.479; 2281.225;  234.925;    0.000
348.535; 2176.225;  257.925;    0.000
348.591; 2234.225;  267.925;    0.000
348.647; 2275.225;  243.925;    0.000
348.703; 2214.225;  278.925;    0.000
348.759; 2247.225;  259.925;    0.000
348.815; 2232.225;  288.925;    0.000
348.871; 2199.225;  269.925;    0.000
348.927; 2210.225;  239.925;    0.000
348.983; 2275.225;  289.925;    0.000
349.039; 2260.225;  221.925;    0.000
349.095; 2256.225;  252.925;    0.000
349.151; 2290.225;  226.925;    0.000
349.207; 2213.225;  263.925;    0.000
349.263; 2218.225;  194.925;    0.000
349.319; 2286.225;  212.925;    0.000
349.374; 2256.225;  236.925;    0.000
349.430; 2283.225;  229.925;    0.000
349.486; 2227.225;  247.925;    0.000
349.542; 2265.225;  263.925;    0.000
349.598; 2319.225;  248.925;    0.000
349.654; 2344.225;  252.925;    0.000
349.710; 2218.225;  230.925;    0.000
349.766; 2250.225;  201.925;    0.000
349.821; 2325.225;  229.925;    0.000
349.877; 2310.225;  282.925;    0.000
349.933; 2326.225;  240.925;    0.000
349.989; 2337.225;  251.925;    0.000
350.045; 2275.225;  240.925;    0.000
350.100; 2293.225;  256.925;    0.000
350.156; 2241.225;  243.925;    0.000
350.212; 2307.225;  250.925;    0.000
350.268; 2263.225;  251.925;    0.000
350.323; 2258.225;  208.925;    0.000
350.379; 2297.225;  244.925;    0.000
350.435; 2217.225;  237.925;    0.000
350.491; 2250.225;  201.925;    0.000
350.546; 2304.225;  225.925;    0.000
350.602; 2281.225;  260.925;    0.000
350.658; 2249.225;  224.925;    0.000
350.713; 2245.225;  264.925;    0.000
350.769; 2181.225;  196.925;    0.000
350.825; 2292.225;  202.925;    0.000
350.880; 2219.225;  232.925;    0.000
350.936; 2391.225;  242.925;    0.000
350.992; 2289.225;  238.925;    0.000
351.047; 2249.225;  242.925;    0.000
351.103; 2264.225;  199.925;    0.000
351.158; 2244.225;  242.925;    0.000
351.214; 2240.225;  225.925;    0.000
351.270; 2245.225;  197.925;    0.000
351.325; 2259.225;  231.925;    0.000
351.381; 2356.225;  215.925;    0.000
351.436; 2264.225;  233.925;    0.000
351.492; 2362.225;  216.925;    0.000
351.547; 2303.225;  244.925;    0.000
351.603; 2366.225;  249.925;    0.000
351.658; 2350.225;  249.925;    0.000
351.714; 2244.225;  222.925;    0.000
351.769; 2237.225;  222.925;    0.000
351.825; 2324.225;  226.925;    0.000
351.880; 2351.225;  238.925;    0.000
351.936; 2381.225;  230.925;    0.000
351.991; 2288.225;  243.925;    0.000
352.047; 2373.225;  201.925;    0.000
352.102; 2306.225;  243.925;    0.000
352.158; 2226.225;  193.925;    0.000
352.213; 2225.225;  219.925;    0.000
352.268; 2294.225;  205.925;    0.000
352.324; 2259.225;  246.925;    0.000
352.379; 2237.225;  247.925;    0.000
352.434; 2289.225;  252.925;    0.000
352.490; 2257.225;  205.925;    0.000
352.545; 2275.225;  262.925;    0.000
352.601; 2384.225;  229.925;    0.000
352.656; 2337.225;  207.925;    0.000
352.711; 2301.225;  228.925;    0.000
352.767; 2319.225;  216.925;    0.000
352.822; 2246.225;  219.925;    0.000
352.877; 2204.225;  234.925;    0.000
352.932; 2399.225;  249.925;    0.000
352.988; 2307.225;  196.925;    0.000
353.043; 2342.225;  228.925;    0.000
353.098; 2311.225;  231.925;    0.000
353.153; 2332.225;  235.925;    0.000
353.209; 2352.225;  250.925;    0.000
353.264; 2294.225;  212.925;    0.000
353.319; 2295.225;  234.925;    0.000
353.374; 2306.225;  245.925;    0.000
353.430; 2272.225;  261.925;    0.000
353.485; 2344.225;  249.925;    0.000
353.540; 2341.225;  260.925;    0.000
353.595; 2248.225;  219.925;    0.000
353.650; 2335.225;  242.925;    0.000
353.705; 2386.225;  244.925;    0.000
353.761; 2210.225;  242.925;    0.000
353.816; 2309.225;  214.925;    0.000
353.871; 2288.225;  237.925;    0.000
353.926; 2246.225;  233.925;    0.000
353.981; 2371.225;  250.925;    0.000
354.036; 2379.225;  239.925;    0.000
354.091; 2353.225;  289.925;    0.000
354.146; 2336.225;  282.925;    0.000
354.201; 2301.225;  244.925;    0.000
354.256; 2350.225;  257.925;    0.000
354.311; 2296.225;  305.925;    0.000
354.367; 2291.225;  220.925;    0.000
354.422; 2358.225;  261.925;    0.000
354.477; 2345.225;  212.925;    0.000
354.532; 2231.225;  254.925;    0.000
354.587; 2294.225;  252.925;    0.000
354.642; 2370.225;  210.925;    0.000
354.697; 2279.225;  232.925;    0.000
354.751; 2287.225;  254.925;    0.000
354.806; 2364.225;  233.925;    0.000
354.861; 2339.225;  244.925;    0.000
354.916; 2399.225;  235.925;    0.000
354.971; 2354.225;  258.925;    0.000
355.026; 2334.225;  251.925;    0.000
355.081; 2386.225;  254.925;    0.000
355.136; 2264.225;  212.925;    0.000
355.191; 2274.225;  211.925;    0.000
355.246; 2375.225;  237.925;    0.000
355.301; 2399.225;  255.925;    0.000
355.355; 2295.225;  231.925;    0.000
355.410; 2378.225;  224.925;    0.000
355.465; 2419.225;  235.925;    0.000
355.520; 2300.225;  244.925;    0.000
355.575; 2402.225;  267.925;    0.000
355.630; 2336.225;  255.925;    0.000
355.684; 2297.225;  254.925;    0.000
355.739; 2272.225;  217.925;    0.000
355.794; 2380.225;  206.925;    0.000
355.849; 2395.225;  221.925;    0.000
355.904; 2204.225;  257.925;    0.000
355.958; 2289.225;  221.925;    0.000
356.013; 2246.225;  192.925;    0.000
356.068; 2288.225;  267.925;    0.000
356.123; 2324.225;  218.925;    0.000
356.177; 2390.225;  236.925;    0.000
356.232; 2393.225;  236.925;    0.000
356.287; 2349.225;  246.925;    0.000
356.341; 2286.225;  241.925;    0.000
356.396; 2336.225;  219.925;    0.000
356.451; 2321.225;  244.925;    0.000
356.505; 2355.225;  248.925;    0.000
356.560; 2321.225;  267.925;    0.000
356.615; 2265.225;  258.925;    0.000
356.669; 2376.225;  291.925;    0.000
356.724; 2343.225;  272.925;    0.000
356.778; 2384.225;  244.925;    0.000
356.833; 2311.225;  223.925;    0.000
356.888; 2393.225;  245.925;    0.000
356.942; 2290.225;  221.925;    0.000
356.997; 2400.225;  254.925;    0.000
357.051; 2342.225;  244.925;    0.000
357.106; 2392.225;  227.925;    0.000
357.160; 2341.225;  176.925;    0.000
357.215; 2245.225;  234.925;    0.000
357.269; 2324.225;  233.925;    0.000
357.324; 2357.225;  232.925;    0.000
357.378; 2220.225;  211.925;    0.000
357.433; 2309.225;  252.925;    0.000
357.487; 2309.225;  227.925;    0.000
357.542; 2340.225;  246.925;    0.000
357.596; 2337.225;  260.925;    0.000
357.651; 2380.225;  301.925;    0.000
357.705; 2313.225;  230.925;    0.000
357.760; 2321.225;  211.925;    0.000
357.814; 2400.225;  265.925;    0.000
357.868; 2403.225;  220.925;    0.000
357.923; 2338.225;  220.925;    0.000
357.977; 2313.225;  245.925;    0.000
358.032; 2287.225;  247.925;    0.000
358.086; 2370.225;  242.925;    0.000
358.140; 2278.225;  270.925;    0.000
358.195; 2343.225;  242.925;    0.000
358.249; 2323.225;  238.925;    0.000
358.303; 2378.225;  285.925;    0.000
358.358; 2313.225;  265.925;    0.000
358.412; 2351.225;  265.925;    0.000
358.466; 2400.225;  257.925;    0.000
358.521; 2312.225;  251.925;    0.000
358.575; 2341.225;  254.925;    0.000
358.629; 2305.225;  278.925;    0.000
358.683; 2288.225;  288.925;    0.000
358.738; 2312.225;  302.925;    0.000
358.792; 2256.225;  239.925;    0.000
358.846; 2309.225;  293.925;    0.000
358.900; 2349.225;  271.925;    0.000
358.954; 2260.225;  300.925;    0.000
359.009; 2320.225;  279.925;    0.000
359.063; 2374.225;  249.925;    0.000
359.117; 2279.225;  264.925;    0.000
359.171; 2329.225;  279.925;    0.000
359.225; 2360.225;  276.925;    0.000
359.280; 2280.225;  237.925;    0.000
359.334; 2327.225;  280.925;    0.000
359.388; 2316.225;  282.925;    0.000
359.442; 2357.225;  243.925;    0.000
359.496; 2272.225;  204.925;    0.000
359.550; 2346.225;  308.925;    0.000
359.604; 2300.225;  264.925;    0.000
359.658; 2302.225;  247.925;    0.000
359.712; 2357.225;  273.925;    0.000
359.766; 2326.225;  212.925;    0.000
359.820; 2277.225;  228.925;    0.000
359.875; 2296.225;  248.925;    0.000
359.929; 2341.225;  271.925;    0.000
359.983; 2345.225;  274.925;    0.000
360.037; 2305.225;  262.925;    0.000
360.091; 2245.225;  302.925;    0.000
360.145; 2348.225;  244.925;    0.000
360.199; 2313.225;  253.925;    0.000
360.253; 2315.225;  285.925;    0.000
360.306; 2355.225;  287.925;    0.000
360.360; 2325.225;  267.925;    0.000
360.414; 2330.225;  250.925;    0.000
360.468; 2411.225;  270.925;    0.000
360.522; 2318.225;  276.925;    0.000
360.576; 2424.225;  269.925;    0.000
360.630; 2453.225;  281.925;    0.000
360.684; 2303.225;  291.925;    0.000
360.738; 2318.225;  325.925;    0.000
360.792; 2293.225;  320.925;    0.000
360.846; 2254.225;  276.925;    0.000
360.899; 2343.225;  314.925;    0.000
360.953; 2318.225;  275.925;    0.000
361.007; 2367.225;  292.925;    0.000
361.061; 2317.225;  278.925;    0.000
361.115; 2335.225;  264.925;    0.000
361.168; 2332.225;  317.925;    0.000
361.222; 2353.225;  277.925;    0.000
361.276; 2260.225;  274.925;    0.000
361.330; 2341.225;  269.925;    0.000
361.384; 2248.225;  280.925;    0.000
361.437; 2282.225;  304.925;    0.000
361.491; 2299.225;  256.925;    0.000
361.545; 2336.225;  293.925;    0.000
361.599; 2285.225;  284.925;    0.000
361.652; 2292.225;  274.925;    0.000
361.706; 2359.225;  284.925;    0.000
361.760; 2342.225;  260.925;    0.000
361.813; 2362.225;  272.925;    0.000
361.867; 2265.225;  300.925;    0.000
361.921; 2322.225;  275.925;    0.000
361.974; 2248.225;  258.925;    0.000
362.028; 2349.225;  248.925;    0.000
362.082; 2297.225;  252.925;    0.000
362.135; 2283.225;  240.925;    0.000
362.189; 2205.225;  259.925;    0.000
362.242; 2354.225;  267.925;    0.000
362.296; 2333.225;  280.925;    0.000
362.350; 2351.225;  282.925;    0.000
362.403; 2260.225;  288.925;    0.000
362.457; 2383.225;  253.925;    0.000
362.510; 2321.225;  323.925;    0.000
362.564; 2221.225;  286.925;    0.000
362.617; 2394.225;  317.925;    0.000
362.671; 2354.225;  286.925;    0.000
362.724; 2288.225;  274.925;    0.000
362.778; 2363.225;  295.925;    0.000
362.831; 2343.225;  289.925;    0.000
362.885; 2363.225;  318.925;    0.000
362.938; 2183.225;  271.925;    0.000
362.992;  330.225;  285.925;    0.000
363.045;  310.225;  291.925;    0.000
363.099;  296.225;  276.925;    0.000
363.152;  282.225;  309.925;    0.000
363.205;  300.225;  263.925;    0.000
363.259;  235.225;  288.925;    0.000
363.312;  319.225;  333.925;    0.000
363.366;  284.225;  328.925;    0.000
363.419;  311.225;  328.925;    0.000
363.472;  306.225;  295.925;    0.000
363.526;  302.225;  334.925;    0.000
363.579;  290.225;  312.925;    0.000
363.632;  294.225;  274.925;    0.000
363.686;  262.225;  282.925;    0.000
363.739;  305.225;  289.925;    0.000
363.792;  289.225;  287.925;    0.000

