Pellet_position3_Burst5-n5
Integration time [ms]:   1.000
Averaging Nr. [scans]: 1
Smoothing Nr. [pixels]: 0
Data measured with spectrometer [name]: VIS
Wave   ;Sample   ;Dark     ;Reference
[nm]   ;[counts] ;[counts] ;[counts] 

450.961;  185.325;    0.000;    0.000
451.100;  244.325;    0.000;    0.000
451.239;  217.325;    0.000;    0.000
451.377;  202.325;    0.000;    0.000
451.516;  190.325;    0.000;    0.000
451.655;  234.325;    0.000;    0.000
451.794;  180.325;    0.000;    0.000
451.932;  242.325;    0.000;    0.000
452.071;  219.325;    0.000;    0.000
452.210;  217.325;    0.000;    0.000
452.348;  225.325;    0.000;    0.000
452.487;  214.325;    0.000;    0.000
452.626;  231.325;    0.000;    0.000
452.764;  221.325;    0.000;    0.000
452.903;  224.325;    0.000;    0.000
453.042;  318.325;    0.000;    0.000
453.180; 5521.325;    0.000;    0.000
453.319; 5801.325;    0.000;    0.000
453.458; 5822.325;    0.000;    0.000
453.596; 5950.325;    0.000;    0.000
453.735; 5957.325;    0.000;    0.000
453.873; 5994.325;    0.000;    0.000
454.012; 5960.325;    0.000;    0.000
454.150; 6007.325;    0.000;    0.000
454.289; 6103.325;    0.000;    0.000
454.427; 6132.325;    0.000;    0.000
454.566; 6181.325;    0.000;    0.000
454.705; 6340.325;    0.000;    0.000
454.843; 6317.325;    0.000;    0.000
454.981; 6319.325;    0.000;    0.000
455.120; 6514.325;    0.000;    0.000
455.258; 6450.325;    0.000;    0.000
455.397; 6552.325;    0.000;    0.000
455.535; 6642.325;    0.000;    0.000
455.674; 6749.325;    0.000;    0.000
455.812; 6583.325;    0.000;    0.000
455.950; 6753.325;    0.000;    0.000
456.089; 6914.325;    0.000;    0.000
456.227; 6815.325;    0.000;    0.000
456.366; 6954.325;    0.000;    0.000
456.504; 6995.325;    0.000;    0.000
456.642; 7092.325;    0.000;    0.000
456.781; 7011.325;    0.000;    0.000
456.919; 6791.325;    0.000;    0.000
457.057; 6745.325;    0.000;    0.000
457.196; 7041.325;    0.000;    0.000
457.334; 6990.325;    0.000;    0.000
457.472; 7079.325;    0.000;    0.000
457.610; 7029.325;    0.000;    0.000
457.749; 7176.325;    0.000;    0.000
457.887; 7522.325;    0.000;    0.000
458.025; 7737.325;    0.000;    0.000
458.163; 7601.325;    0.000;    0.000
458.301; 7728.325;    0.000;    0.000
458.440; 7708.325;    0.000;    0.000
458.578; 7787.325;    0.000;    0.000
458.716; 7932.325;    0.000;    0.000
458.854; 7792.325;    0.000;    0.000
458.992; 7960.325;    0.000;    0.000
459.130; 8216.325;    0.000;    0.000
459.269; 8155.325;    0.000;    0.000
459.407; 8100.325;    0.000;    0.000
459.545; 8050.325;    0.000;    0.000
459.683; 8244.325;    0.000;    0.000
459.821; 8274.325;    0.000;    0.000
459.959; 8315.325;    0.000;    0.000
460.097; 8438.325;    0.000;    0.000
460.235; 8401.325;    0.000;    0.000
460.373; 8502.325;    0.000;    0.000
460.511; 8633.325;    0.000;    0.000
460.649; 8563.325;    0.000;    0.000
460.787; 8637.325;    0.000;    0.000
460.925; 8550.325;    0.000;    0.000
461.063; 8695.325;    0.000;    0.000
461.201; 8674.325;    0.000;    0.000
461.339; 8853.325;    0.000;    0.000
461.477; 8778.325;    0.000;    0.000
461.615; 8757.325;    0.000;    0.000
461.753; 8883.325;    0.000;    0.000
461.891; 9043.325;    0.000;    0.000
462.029; 9208.325;    0.000;    0.000
462.166; 9151.325;    0.000;    0.000
462.304; 9168.325;    0.000;    0.000
462.442; 9327.325;    0.000;    0.000
462.580; 9357.325;    0.000;    0.000
462.718; 9444.325;    0.000;    0.000
462.856; 9461.325;    0.000;    0.000
462.993; 9226.325;    0.000;    0.000
463.131; 9197.325;    0.000;    0.000
463.269; 9384.325;    0.000;    0.000
463.407; 9198.325;    0.000;    0.000
463.545; 9372.325;    0.000;    0.000
463.682; 9333.325;    0.000;    0.000
463.820; 9544.325;    0.000;    0.000
463.958; 9764.325;    0.000;    0.000
464.095; 9867.325;    0.000;    0.000
464.233; 9856.325;    0.000;    0.000
464.371; 9928.325;    0.000;    0.000
464.509; 9802.325;    0.000;    0.000
464.646; 9812.325;    0.000;    0.000
464.784; 9713.325;    0.000;    0.000
464.921; 9842.325;    0.000;    0.000
465.059; 9662.325;    0.000;    0.000
465.197; 9687.325;    0.000;    0.000
465.334; 9588.325;    0.000;    0.000
465.472; 9420.325;    0.000;    0.000
465.609; 9545.325;    0.000;    0.000
465.747; 9431.325;    0.000;    0.000
465.885; 9369.325;    0.000;    0.000
466.022; 9464.325;    0.000;    0.000
466.160; 9506.325;    0.000;    0.000
466.297; 9418.325;    0.000;    0.000
466.435; 9579.325;    0.000;    0.000
466.572; 9466.325;    0.000;    0.000
466.710; 9478.325;    0.000;    0.000
466.847; 9429.325;    0.000;    0.000
466.985; 9587.325;    0.000;    0.000
467.122; 9481.325;    0.000;    0.000
467.260; 9375.325;    0.000;    0.000
467.397; 9395.325;    0.000;    0.000
467.534; 9330.325;    0.000;    0.000
467.672; 9411.325;    0.000;    0.000
467.809; 9266.325;    0.000;    0.000
467.947; 9447.325;    0.000;    0.000
468.084; 9565.325;    0.000;    0.000
468.221; 9549.325;    0.000;    0.000
468.359; 9449.325;    0.000;    0.000
468.496; 9489.325;    0.000;    0.000
468.633; 9517.325;    0.000;    0.000
468.771; 9292.325;    0.000;    0.000
468.908; 9418.325;    0.000;    0.000
469.045; 9446.325;    0.000;    0.000
469.183; 9434.325;    0.000;    0.000
469.320; 9508.325;    0.000;    0.000
469.457; 9572.325;    0.000;    0.000
469.594; 9567.325;    0.000;    0.000
469.732; 9479.325;    0.000;    0.000
469.869; 9601.325;    0.000;    0.000
470.006; 9666.325;    0.000;    0.000
470.143; 9692.325;    0.000;    0.000
470.280; 9773.325;    0.000;    0.000
470.417; 9867.325;    0.000;    0.000
470.555; 9904.325;    0.000;    0.000
470.692; 9775.325;    0.000;    0.000
470.829; 9810.325;    0.000;    0.000
470.966; 9922.325;    0.000;    0.000
471.103; 9965.325;    0.000;    0.000
471.240; 9884.325;    0.000;    0.000
471.377; 9801.325;    0.000;    0.000
471.514; 9783.325;    0.000;    0.000
471.651; 9783.325;    0.000;    0.000
471.789; 9938.325;    0.000;    0.000
471.926; 9720.325;    0.000;    0.000
472.063; 9928.325;    0.000;    0.000
472.200; 9941.325;    0.000;    0.000
472.337; 9641.325;    0.000;    0.000
472.474; 9757.325;    0.000;    0.000
472.611; 9678.325;    0.000;    0.000
472.748; 9892.325;    0.000;    0.000
472.884; 9774.325;    0.000;    0.000
473.021; 9750.325;    0.000;    0.000
473.158; 9840.325;    0.000;    0.000
473.295; 9871.325;    0.000;    0.000
473.432; 9590.325;    0.000;    0.000
473.569; 9787.325;    0.000;    0.000
473.706; 9697.325;    0.000;    0.000
473.843; 9582.325;    0.000;    0.000
473.980; 9737.325;    0.000;    0.000
474.117; 9605.325;    0.000;    0.000
474.253; 9597.325;    0.000;    0.000
474.390; 9696.325;    0.000;    0.000
474.527; 9681.325;    0.000;    0.000
474.664; 9764.325;    0.000;    0.000
474.801; 9716.325;    0.000;    0.000
474.937; 9652.325;    0.000;    0.000
475.074; 9716.325;    0.000;    0.000
475.211; 9800.325;    0.000;    0.000
475.348; 9874.325;    0.000;    0.000
475.484; 9830.325;    0.000;    0.000
475.621; 9816.325;    0.000;    0.000
475.758; 9922.325;    0.000;    0.000
475.894; 9680.325;    0.000;    0.000
476.031; 9787.325;    0.000;    0.000
476.168; 9759.325;    0.000;    0.000
476.304; 9854.325;    0.000;    0.000
476.441; 9899.325;    0.000;    0.000
476.578; 9872.325;    0.000;    0.000
476.714; 9893.325;    0.000;    0.000
476.851; 9851.325;    0.000;    0.000
476.987;10001.325;    0.000;    0.000
477.124;10147.325;    0.000;    0.000
477.261;10016.325;    0.000;    0.000
477.397;10070.325;    0.000;    0.000
477.534;10031.325;    0.000;    0.000
477.670;10074.325;    0.000;    0.000
477.807;10247.325;    0.000;    0.000
477.943;10150.325;    0.000;    0.000
478.080;10031.325;    0.000;    0.000
478.216;10263.325;    0.000;    0.000
478.353;10493.325;    0.000;    0.000
478.489;10317.325;    0.000;    0.000
478.626;10387.325;    0.000;    0.000
478.762;10479.325;    0.000;    0.000
478.898;10521.325;    0.000;    0.000
479.035;10468.325;    0.000;    0.000
479.171;10446.325;    0.000;    0.000
479.308;10417.325;    0.000;    0.000
479.444;10595.325;    0.000;    0.000
479.580;10360.325;    0.000;    0.000
479.717;10560.325;    0.000;    0.000
479.853;10379.325;    0.000;    0.000
479.989;10566.325;    0.000;    0.000
480.126;10597.325;    0.000;    0.000
480.262;10468.325;    0.000;    0.000
480.398;10376.325;    0.000;    0.000
480.535;10427.325;    0.000;    0.000
480.671;10509.325;    0.000;    0.000
480.807;10318.325;    0.000;    0.000
480.943;10498.325;    0.000;    0.000
481.080;10610.325;    0.000;    0.000
481.216;10595.325;    0.000;    0.000
481.352;10468.325;    0.000;    0.000
481.488;10457.325;    0.000;    0.000
481.624;10691.325;    0.000;    0.000
481.761;10405.325;    0.000;    0.000
481.897;10363.325;    0.000;    0.000
482.033;10552.325;    0.000;    0.000
482.169;10350.325;    0.000;    0.000
482.305;10311.325;    0.000;    0.000
482.441;10312.325;    0.000;    0.000
482.577;10337.325;    0.000;    0.000
482.713;10322.325;    0.000;    0.000
482.849;10387.325;    0.000;    0.000
482.985;10549.325;    0.000;    0.000
483.121;10390.325;    0.000;    0.000
483.257;10392.325;    0.000;    0.000
483.394;10317.325;    0.000;    0.000
483.530;10501.325;    0.000;    0.000
483.666;10474.325;    0.000;    0.000
483.801;10305.325;    0.000;    0.000
483.937;10382.325;    0.000;    0.000
484.073;10528.325;    0.000;    0.000
484.209;10570.325;    0.000;    0.000
484.345;10481.325;    0.000;    0.000
484.481;10476.325;    0.000;    0.000
484.617;10511.325;    0.000;    0.000
484.753;10626.325;    0.000;    0.000
484.889;10553.325;    0.000;    0.000
485.025;10492.325;    0.000;    0.000
485.161;10484.325;    0.000;    0.000
485.296;10651.325;    0.000;    0.000
485.432;10591.325;    0.000;    0.000
485.568;10612.325;    0.000;    0.000
485.704;10498.325;    0.000;    0.000
485.840;10572.325;    0.000;    0.000
485.975;10767.325;    0.000;    0.000
486.111;10651.325;    0.000;    0.000
486.247;10628.325;    0.000;    0.000
486.383;10623.325;    0.000;    0.000
486.518;10404.325;    0.000;    0.000
486.654;10445.325;    0.000;    0.000
486.790;10691.325;    0.000;    0.000
486.926;10584.325;    0.000;    0.000
487.061;10457.325;    0.000;    0.000
487.197;10528.325;    0.000;    0.000
487.333;10496.325;    0.000;    0.000
487.468;10515.325;    0.000;    0.000
487.604;10634.325;    0.000;    0.000
487.739;10800.325;    0.000;    0.000
487.875;10642.325;    0.000;    0.000
488.011;10480.325;    0.000;    0.000
488.146;10669.325;    0.000;    0.000
488.282;10745.325;    0.000;    0.000
488.417;10812.325;    0.000;    0.000
488.553;10739.325;    0.000;    0.000
488.688;10558.325;    0.000;    0.000
488.824;10704.325;    0.000;    0.000
488.960;10744.325;    0.000;    0.000
489.095;10822.325;    0.000;    0.000
489.230;10779.325;    0.000;    0.000
489.366;10803.325;    0.000;    0.000
489.501;10728.325;    0.000;    0.000
489.637;10782.325;    0.000;    0.000
489.772;10711.325;    0.000;    0.000
489.908;10759.325;    0.000;    0.000
490.043;10971.325;    0.000;    0.000
490.179;10796.325;    0.000;    0.000
490.314;10783.325;    0.000;    0.000
490.449;10665.325;    0.000;    0.000
490.585;10601.325;    0.000;    0.000
490.720;10879.325;    0.000;    0.000
490.855;10850.325;    0.000;    0.000
490.991;10777.325;    0.000;    0.000
491.126;10750.325;    0.000;    0.000
491.261;10860.325;    0.000;    0.000
491.396;10715.325;    0.000;    0.000
491.532;10873.325;    0.000;    0.000
491.667;10840.325;    0.000;    0.000
491.802;10855.325;    0.000;    0.000
491.937;10980.325;    0.000;    0.000
492.073;10971.325;    0.000;    0.000
492.208;10820.325;    0.000;    0.000
492.343;10948.325;    0.000;    0.000
492.478;11013.325;    0.000;    0.000
492.613;10962.325;    0.000;    0.000
492.749;10911.325;    0.000;    0.000
492.884;10884.325;    0.000;    0.000
493.019;10670.325;    0.000;    0.000
493.154;10912.325;    0.000;    0.000
493.289;10939.325;    0.000;    0.000
493.424;11093.325;    0.000;    0.000
493.559;10766.325;    0.000;    0.000
493.694;10895.325;    0.000;    0.000
493.829;10912.325;    0.000;    0.000
493.964;10943.325;    0.000;    0.000
494.099;10778.325;    0.000;    0.000
494.234;11069.325;    0.000;    0.000
494.369;10965.325;    0.000;    0.000
494.504;10908.325;    0.000;    0.000
494.639;10739.325;    0.000;    0.000
494.774;10923.325;    0.000;    0.000
494.909;11030.325;    0.000;    0.000
495.044;10904.325;    0.000;    0.000
495.179;10928.325;    0.000;    0.000
495.314;11015.325;    0.000;    0.000
495.449;10837.325;    0.000;    0.000
495.584;10973.325;    0.000;    0.000
495.719;10840.325;    0.000;    0.000
495.854;10978.325;    0.000;    0.000
495.988;11195.325;    0.000;    0.000
496.123;11084.325;    0.000;    0.000
496.258;11228.325;    0.000;    0.000
496.393;11264.325;    0.000;    0.000
496.528;11333.325;    0.000;    0.000
496.663;11371.325;    0.000;    0.000
496.797;11370.325;    0.000;    0.000
496.932;11322.325;    0.000;    0.000
497.067;11418.325;    0.000;    0.000
497.202;11434.325;    0.000;    0.000
497.336;11649.325;    0.000;    0.000
497.471;11753.325;    0.000;    0.000
497.606;11857.325;    0.000;    0.000
497.740;11981.325;    0.000;    0.000
497.875;12013.325;    0.000;    0.000
498.010;12288.325;    0.000;    0.000
498.144;12144.325;    0.000;    0.000
498.279;12382.325;    0.000;    0.000
498.414;12286.325;    0.000;    0.000
498.548;12542.325;    0.000;    0.000
498.683;12624.325;    0.000;    0.000
498.817;12868.325;    0.000;    0.000
498.952;12657.325;    0.000;    0.000
499.087;12891.325;    0.000;    0.000
499.221;12957.325;    0.000;    0.000
499.356;13092.325;    0.000;    0.000
499.490;13274.325;    0.000;    0.000
499.625;13500.325;    0.000;    0.000
499.759;13621.325;    0.000;    0.000
499.894;13632.325;    0.000;    0.000
500.028;13778.325;    0.000;    0.000
500.162;14147.325;    0.000;    0.000
500.297;13920.325;    0.000;    0.000
500.431;14028.325;    0.000;    0.000
500.566;14088.325;    0.000;    0.000
500.700;14083.325;    0.000;    0.000
500.835;13731.325;    0.000;    0.000
500.969;13446.325;    0.000;    0.000
501.103;13586.325;    0.000;    0.000
501.238;13492.325;    0.000;    0.000
501.372;13125.325;    0.000;    0.000
501.506;12937.325;    0.000;    0.000
501.641;12801.325;    0.000;    0.000
501.775;12553.325;    0.000;    0.000
501.909;12468.325;    0.000;    0.000
502.043;12200.325;    0.000;    0.000
502.178;12222.325;    0.000;    0.000
502.312;12106.325;    0.000;    0.000
502.446;11990.325;    0.000;    0.000
502.580;11770.325;    0.000;    0.000
502.715;11782.325;    0.000;    0.000
502.849;11481.325;    0.000;    0.000
502.983;11521.325;    0.000;    0.000
503.117;11389.325;    0.000;    0.000
503.251;11307.325;    0.000;    0.000
503.385;11053.325;    0.000;    0.000
503.520;11032.325;    0.000;    0.000
503.654;10784.325;    0.000;    0.000
503.788;11004.325;    0.000;    0.000
503.922;10801.325;    0.000;    0.000
504.056;10858.325;    0.000;    0.000
504.190;10616.325;    0.000;    0.000
504.324;10796.325;    0.000;    0.000
504.458;10604.325;    0.000;    0.000
504.592;10454.325;    0.000;    0.000
504.726;10351.325;    0.000;    0.000
504.860;10342.325;    0.000;    0.000
504.994;10154.325;    0.000;    0.000
505.128;10152.325;    0.000;    0.000
505.262; 9957.325;    0.000;    0.000
505.396; 9741.325;    0.000;    0.000
505.530; 9911.325;    0.000;    0.000
505.664; 9803.325;    0.000;    0.000
505.798; 9668.325;    0.000;    0.000
505.932; 9648.325;    0.000;    0.000
506.066; 9692.325;    0.000;    0.000
506.199; 9401.325;    0.000;    0.000
506.333; 9427.325;    0.000;    0.000
506.467; 9506.325;    0.000;    0.000
506.601; 9416.325;    0.000;    0.000
506.735; 9210.325;    0.000;    0.000
506.869; 9218.325;    0.000;    0.000
507.002; 9229.325;    0.000;    0.000
507.136; 9299.325;    0.000;    0.000
507.270; 9170.325;    0.000;    0.000
507.404; 9269.325;    0.000;    0.000
507.537; 9021.325;    0.000;    0.000
507.671; 8988.325;    0.000;    0.000
507.805; 8937.325;    0.000;    0.000
507.939; 8935.325;    0.000;    0.000
508.072; 8940.325;    0.000;    0.000
508.206; 8816.325;    0.000;    0.000
508.340; 8972.325;    0.000;    0.000
508.473; 8760.325;    0.000;    0.000
508.607; 8937.325;    0.000;    0.000
508.740; 8826.325;    0.000;    0.000
508.874; 8804.325;    0.000;    0.000
509.008; 8756.325;    0.000;    0.000
509.141; 8706.325;    0.000;    0.000
509.275; 8564.325;    0.000;    0.000
509.408; 8629.325;    0.000;    0.000
509.542; 8602.325;    0.000;    0.000
509.675; 8678.325;    0.000;    0.000
509.809; 8703.325;    0.000;    0.000
509.942; 8506.325;    0.000;    0.000
510.076; 8506.325;    0.000;    0.000
510.209; 8611.325;    0.000;    0.000
510.343; 8587.325;    0.000;    0.000
510.476; 8529.325;    0.000;    0.000
510.610; 8357.325;    0.000;    0.000
510.743; 8419.325;    0.000;    0.000
510.877; 8513.325;    0.000;    0.000
511.010; 8295.325;    0.000;    0.000
511.143; 8230.325;    0.000;    0.000
511.277; 8256.325;    0.000;    0.000
511.410; 8395.325;    0.000;    0.000
511.543; 8262.325;    0.000;    0.000
511.677; 8405.325;    0.000;    0.000
511.810; 8191.325;    0.000;    0.000
511.943; 8398.325;    0.000;    0.000
512.077; 8195.325;    0.000;    0.000
512.210; 8339.325;    0.000;    0.000
512.343; 8250.325;    0.000;    0.000
512.476; 8343.325;    0.000;    0.000
512.610; 8369.325;    0.000;    0.000
512.743; 8301.325;    0.000;    0.000
512.876; 8231.325;    0.000;    0.000
513.009; 8275.325;    0.000;    0.000
513.142; 8315.325;    0.000;    0.000
513.276; 8210.325;    0.000;    0.000
513.409; 8372.325;    0.000;    0.000
513.542; 8333.325;    0.000;    0.000
513.675; 8267.325;    0.000;    0.000
513.808; 8183.325;    0.000;    0.000
513.941; 8181.325;    0.000;    0.000
514.074; 8306.325;    0.000;    0.000
514.207; 8402.325;    0.000;    0.000
514.340; 8235.325;    0.000;    0.000
514.474; 8419.325;    0.000;    0.000
514.607; 8302.325;    0.000;    0.000
514.740; 8523.325;    0.000;    0.000
514.873; 8291.325;    0.000;    0.000
515.006; 8557.325;    0.000;    0.000
515.139; 8475.325;    0.000;    0.000
515.272; 8543.325;    0.000;    0.000
515.404; 8787.325;    0.000;    0.000
515.537; 8705.325;    0.000;    0.000
515.670; 8792.325;    0.000;    0.000
515.803; 8723.325;    0.000;    0.000
515.936; 8793.325;    0.000;    0.000
516.069; 8909.325;    0.000;    0.000
516.202; 9018.325;    0.000;    0.000
516.335; 9100.325;    0.000;    0.000
516.468; 9825.325;    0.000;    0.000
516.600;11782.325;    0.000;    0.000
516.733;15064.325;    0.000;    0.000
516.866;15575.325;    0.000;    0.000
516.999;13826.325;    0.000;    0.000
517.132;16850.325;    0.000;    0.000
517.264;23217.325;    0.000;    0.000
517.397;23474.325;    0.000;    0.000
517.530;17847.325;    0.000;    0.000
517.663;14987.325;    0.000;    0.000
517.795;13451.325;    0.000;    0.000
517.928;12952.325;    0.000;    0.000
518.061;13211.325;    0.000;    0.000
518.193;17287.325;    0.000;    0.000
518.326;26617.325;    0.000;    0.000
518.459;29577.325;    0.000;    0.000
518.591;22956.325;    0.000;    0.000
518.724;17595.325;    0.000;    0.000
518.857;14863.325;    0.000;    0.000
518.989;13574.325;    0.000;    0.000
519.122;12178.325;    0.000;    0.000
519.254;11674.325;    0.000;    0.000
519.387;11239.325;    0.000;    0.000
519.519;10715.325;    0.000;    0.000
519.652;10139.325;    0.000;    0.000
519.784; 9997.325;    0.000;    0.000
519.917; 9715.325;    0.000;    0.000
520.049; 9401.325;    0.000;    0.000
520.182; 9313.325;    0.000;    0.000
520.314; 9307.325;    0.000;    0.000
520.447; 9090.325;    0.000;    0.000
520.579; 8913.325;    0.000;    0.000
520.712; 8894.325;    0.000;    0.000
520.844; 8784.325;    0.000;    0.000
520.976; 8595.325;    0.000;    0.000
521.109; 8527.325;    0.000;    0.000
521.241; 8358.325;    0.000;    0.000
521.373; 8305.325;    0.000;    0.000
521.506; 8332.325;    0.000;    0.000
521.638; 8165.325;    0.000;    0.000
521.770; 8237.325;    0.000;    0.000
521.903; 8177.325;    0.000;    0.000
522.035; 8054.325;    0.000;    0.000
522.167; 7950.325;    0.000;    0.000
522.300; 7958.325;    0.000;    0.000
522.432; 7862.325;    0.000;    0.000
522.564; 7906.325;    0.000;    0.000
522.696; 7821.325;    0.000;    0.000
522.828; 7731.325;    0.000;    0.000
522.961; 7597.325;    0.000;    0.000
523.093; 7823.325;    0.000;    0.000
523.225; 7775.325;    0.000;    0.000
523.357; 7596.325;    0.000;    0.000
523.489; 7579.325;    0.000;    0.000
523.621; 7582.325;    0.000;    0.000
523.753; 7597.325;    0.000;    0.000
523.886; 7709.325;    0.000;    0.000
524.018; 7442.325;    0.000;    0.000
524.150; 7549.325;    0.000;    0.000
524.282; 7553.325;    0.000;    0.000
524.414; 7468.325;    0.000;    0.000
524.546; 7372.325;    0.000;    0.000
524.678; 7275.325;    0.000;    0.000
524.810; 7370.325;    0.000;    0.000
524.942; 7348.325;    0.000;    0.000
525.074; 7212.325;    0.000;    0.000
525.206; 7160.325;    0.000;    0.000
525.338; 7343.325;    0.000;    0.000
525.470; 7207.325;    0.000;    0.000
525.601; 7108.325;    0.000;    0.000
525.733; 7158.325;    0.000;    0.000
525.865; 7052.325;    0.000;    0.000
525.997; 7001.325;    0.000;    0.000
526.129; 7015.325;    0.000;    0.000
526.261; 7066.325;    0.000;    0.000
526.393; 7031.325;    0.000;    0.000
526.524; 7030.325;    0.000;    0.000
526.656; 6870.325;    0.000;    0.000
526.788; 7065.325;    0.000;    0.000
526.920; 6843.325;    0.000;    0.000
527.052; 6947.325;    0.000;    0.000
527.183; 6911.325;    0.000;    0.000
527.315; 7037.325;    0.000;    0.000
527.447; 6926.325;    0.000;    0.000
527.578; 6905.325;    0.000;    0.000
527.710; 7041.325;    0.000;    0.000
527.842; 6947.325;    0.000;    0.000
527.973; 6872.325;    0.000;    0.000
528.105; 6725.325;    0.000;    0.000
528.237; 6784.325;    0.000;    0.000
528.368; 6792.325;    0.000;    0.000
528.500; 6863.325;    0.000;    0.000
528.632; 6834.325;    0.000;    0.000
528.763; 6808.325;    0.000;    0.000
528.895; 6798.325;    0.000;    0.000
529.026; 6758.325;    0.000;    0.000
529.158; 6745.325;    0.000;    0.000
529.289; 6877.325;    0.000;    0.000
529.421; 6834.325;    0.000;    0.000
529.552; 6723.325;    0.000;    0.000
529.684; 6909.325;    0.000;    0.000
529.815; 6782.325;    0.000;    0.000
529.947; 6726.325;    0.000;    0.000
530.078; 6801.325;    0.000;    0.000
530.210; 6789.325;    0.000;    0.000
530.341; 6782.325;    0.000;    0.000
530.472; 6773.325;    0.000;    0.000
530.604; 6743.325;    0.000;    0.000
530.735; 6662.325;    0.000;    0.000
530.867; 6778.325;    0.000;    0.000
530.998; 6831.325;    0.000;    0.000
531.129; 6864.325;    0.000;    0.000
531.261; 6775.325;    0.000;    0.000
531.392; 6709.325;    0.000;    0.000
531.523; 6837.325;    0.000;    0.000
531.654; 6823.325;    0.000;    0.000
531.786; 6794.325;    0.000;    0.000
531.917; 6739.325;    0.000;    0.000
532.048; 6742.325;    0.000;    0.000
532.179; 6756.325;    0.000;    0.000
532.311; 6823.325;    0.000;    0.000
532.442; 6745.325;    0.000;    0.000
532.573; 6759.325;    0.000;    0.000
532.704; 6671.325;    0.000;    0.000
532.835; 6694.325;    0.000;    0.000
532.966; 6703.325;    0.000;    0.000
533.097; 6792.325;    0.000;    0.000
533.229; 6715.325;    0.000;    0.000
533.360; 6763.325;    0.000;    0.000
533.491; 6765.325;    0.000;    0.000
533.622; 6635.325;    0.000;    0.000
533.753; 6560.325;    0.000;    0.000
533.884; 6671.325;    0.000;    0.000
534.015; 6665.325;    0.000;    0.000
534.146; 6718.325;    0.000;    0.000
534.277; 6693.325;    0.000;    0.000
534.408; 6642.325;    0.000;    0.000
534.539; 6631.325;    0.000;    0.000
534.670; 6664.325;    0.000;    0.000
534.801; 6697.325;    0.000;    0.000
534.932; 6546.325;    0.000;    0.000
535.063; 6565.325;    0.000;    0.000
535.194; 6535.325;    0.000;    0.000
535.324; 6456.325;    0.000;    0.000
535.455; 6460.325;    0.000;    0.000
535.586; 6527.325;    0.000;    0.000
535.717; 6624.325;    0.000;    0.000
535.848; 6623.325;    0.000;    0.000
535.979; 6516.325;    0.000;    0.000
536.109; 6550.325;    0.000;    0.000
536.240; 6479.325;    0.000;    0.000
536.371; 6566.325;    0.000;    0.000
536.502; 6563.325;    0.000;    0.000
536.632; 6472.325;    0.000;    0.000
536.763; 6477.325;    0.000;    0.000
536.894; 6525.325;    0.000;    0.000
537.025; 6437.325;    0.000;    0.000
537.155; 6553.325;    0.000;    0.000
537.286; 6548.325;    0.000;    0.000
537.417; 6446.325;    0.000;    0.000
537.547; 6466.325;    0.000;    0.000
537.678; 6568.325;    0.000;    0.000
537.808; 6558.325;    0.000;    0.000
537.939; 6598.325;    0.000;    0.000
538.070; 6525.325;    0.000;    0.000
538.200; 6489.325;    0.000;    0.000
538.331; 6454.325;    0.000;    0.000
538.461; 6383.325;    0.000;    0.000
538.592; 6451.325;    0.000;    0.000
538.722; 6488.325;    0.000;    0.000
538.853; 6472.325;    0.000;    0.000
538.983; 6565.325;    0.000;    0.000
539.114; 6467.325;    0.000;    0.000
539.244; 6365.325;    0.000;    0.000
539.375; 6442.325;    0.000;    0.000
539.505; 6476.325;    0.000;    0.000
539.636; 6500.325;    0.000;    0.000
539.766; 6537.325;    0.000;    0.000
539.896; 6578.325;    0.000;    0.000
540.027; 6403.325;    0.000;    0.000
540.157; 6378.325;    0.000;    0.000
540.287; 6584.325;    0.000;    0.000
540.418; 6496.325;    0.000;    0.000
540.548; 6523.325;    0.000;    0.000
540.678; 6535.325;    0.000;    0.000
540.809; 6539.325;    0.000;    0.000
540.939; 6614.325;    0.000;    0.000
541.069; 6556.325;    0.000;    0.000
541.199; 6575.325;    0.000;    0.000
541.330; 6525.325;    0.000;    0.000
541.460; 6597.325;    0.000;    0.000
541.590; 6501.325;    0.000;    0.000
541.720; 6572.325;    0.000;    0.000
541.851; 6529.325;    0.000;    0.000
541.981; 6676.325;    0.000;    0.000
542.111; 6702.325;    0.000;    0.000
542.241; 6600.325;    0.000;    0.000
542.371; 6804.325;    0.000;    0.000
542.501; 6778.325;    0.000;    0.000
542.631; 6684.325;    0.000;    0.000
542.761; 6837.325;    0.000;    0.000
542.891; 6796.325;    0.000;    0.000
543.021; 6884.325;    0.000;    0.000
543.151; 6913.325;    0.000;    0.000
543.281; 6684.325;    0.000;    0.000
543.411; 6782.325;    0.000;    0.000
543.541; 6584.325;    0.000;    0.000
543.671; 6768.325;    0.000;    0.000
543.801; 6706.325;    0.000;    0.000
543.931; 6764.325;    0.000;    0.000
544.061; 6719.325;    0.000;    0.000
544.191; 6688.325;    0.000;    0.000
544.321; 6830.325;    0.000;    0.000
544.451; 6717.325;    0.000;    0.000
544.581; 6686.325;    0.000;    0.000
544.711; 6831.325;    0.000;    0.000
544.841; 6798.325;    0.000;    0.000
544.970; 6941.325;    0.000;    0.000
545.100; 6894.325;    0.000;    0.000
545.230; 7075.325;    0.000;    0.000
545.360; 6923.325;    0.000;    0.000
545.490; 6883.325;    0.000;    0.000
545.619; 6710.325;    0.000;    0.000
545.749; 6697.325;    0.000;    0.000
545.879; 6771.325;    0.000;    0.000
546.009; 6763.325;    0.000;    0.000
546.138; 6679.325;    0.000;    0.000
546.268; 6593.325;    0.000;    0.000
546.398; 6730.325;    0.000;    0.000
546.527; 6591.325;    0.000;    0.000
546.657; 6663.325;    0.000;    0.000
546.787; 6715.325;    0.000;    0.000
546.916; 6724.325;    0.000;    0.000
547.046; 6753.325;    0.000;    0.000
547.175; 6557.325;    0.000;    0.000
547.305; 6697.325;    0.000;    0.000
547.434; 6601.325;    0.000;    0.000
547.564; 6794.325;    0.000;    0.000
547.694; 6752.325;    0.000;    0.000
547.823; 6660.325;    0.000;    0.000
547.953; 6650.325;    0.000;    0.000
548.082; 6726.325;    0.000;    0.000
548.211; 6585.325;    0.000;    0.000
548.341; 6746.325;    0.000;    0.000
548.470; 6654.325;    0.000;    0.000
548.600; 6581.325;    0.000;    0.000
548.729; 6671.325;    0.000;    0.000
548.859; 6706.325;    0.000;    0.000
548.988; 6637.325;    0.000;    0.000
549.117; 6645.325;    0.000;    0.000
549.247; 6622.325;    0.000;    0.000
549.376; 6687.325;    0.000;    0.000
549.505; 6841.325;    0.000;    0.000
549.635; 6682.325;    0.000;    0.000
549.764; 6572.325;    0.000;    0.000
549.893; 6645.325;    0.000;    0.000
550.023; 6753.325;    0.000;    0.000
550.152; 6706.325;    0.000;    0.000
550.281; 6791.325;    0.000;    0.000
550.410; 6836.325;    0.000;    0.000
550.539; 6750.325;    0.000;    0.000
550.669; 6854.325;    0.000;    0.000
550.798; 6719.325;    0.000;    0.000
550.927; 6861.325;    0.000;    0.000
551.056; 6946.325;    0.000;    0.000
551.185; 6827.325;    0.000;    0.000
551.314; 6719.325;    0.000;    0.000
551.443; 6755.325;    0.000;    0.000
551.573; 6942.325;    0.000;    0.000
551.702; 6967.325;    0.000;    0.000
551.831; 6847.325;    0.000;    0.000
551.960; 6805.325;    0.000;    0.000
552.089; 7031.325;    0.000;    0.000
552.218; 6905.325;    0.000;    0.000
552.347; 6979.325;    0.000;    0.000
552.476; 7071.325;    0.000;    0.000
552.605; 7068.325;    0.000;    0.000
552.734; 7271.325;    0.000;    0.000
552.863; 7344.325;    0.000;    0.000
552.992; 7425.325;    0.000;    0.000
553.121; 7297.325;    0.000;    0.000
553.249; 7286.325;    0.000;    0.000
553.378; 7011.325;    0.000;    0.000
553.507; 7118.325;    0.000;    0.000
553.636; 7028.325;    0.000;    0.000
553.765; 7088.325;    0.000;    0.000
553.894; 7019.325;    0.000;    0.000
554.023; 7087.325;    0.000;    0.000
554.151; 7125.325;    0.000;    0.000
554.280; 6978.325;    0.000;    0.000
554.409; 6762.325;    0.000;    0.000
554.538; 7015.325;    0.000;    0.000
554.666; 6907.325;    0.000;    0.000
554.795; 6896.325;    0.000;    0.000
554.924; 6867.325;    0.000;    0.000
555.053; 6993.325;    0.000;    0.000
555.181; 6845.325;    0.000;    0.000
555.310; 6991.325;    0.000;    0.000
555.439; 6938.325;    0.000;    0.000
555.567; 6931.325;    0.000;    0.000
555.696; 6832.325;    0.000;    0.000
555.824; 6754.325;    0.000;    0.000
555.953; 6825.325;    0.000;    0.000
556.082; 6773.325;    0.000;    0.000
556.210; 6953.325;    0.000;    0.000
556.339; 6904.325;    0.000;    0.000
556.467; 6705.325;    0.000;    0.000
556.596; 6744.325;    0.000;    0.000
556.724; 6798.325;    0.000;    0.000
556.853; 6752.325;    0.000;    0.000
556.981; 6790.325;    0.000;    0.000
557.110; 6726.325;    0.000;    0.000
557.238; 6790.325;    0.000;    0.000
557.367; 6725.325;    0.000;    0.000
557.495; 6726.325;    0.000;    0.000
557.623; 6705.325;    0.000;    0.000
557.752; 6855.325;    0.000;    0.000
557.880; 6757.325;    0.000;    0.000
558.008; 6702.325;    0.000;    0.000
558.137; 6815.325;    0.000;    0.000
558.265; 6752.325;    0.000;    0.000
558.393; 6937.325;    0.000;    0.000
558.522; 6800.325;    0.000;    0.000
558.650; 6879.325;    0.000;    0.000
558.778; 6881.325;    0.000;    0.000
558.907; 6966.325;    0.000;    0.000
559.035; 6956.325;    0.000;    0.000
559.163; 6838.325;    0.000;    0.000
559.291; 6879.325;    0.000;    0.000
559.419; 6926.325;    0.000;    0.000
559.548; 6845.325;    0.000;    0.000
559.676; 6946.325;    0.000;    0.000
559.804; 6961.325;    0.000;    0.000
559.932; 6907.325;    0.000;    0.000
560.060; 6937.325;    0.000;    0.000
560.188; 6980.325;    0.000;    0.000
560.316; 6939.325;    0.000;    0.000
560.444; 7004.325;    0.000;    0.000
560.572; 7021.325;    0.000;    0.000
560.700; 7060.325;    0.000;    0.000
560.828; 7104.325;    0.000;    0.000
560.957; 7143.325;    0.000;    0.000
561.085; 7066.325;    0.000;    0.000
561.212; 7148.325;    0.000;    0.000
561.340; 7228.325;    0.000;    0.000
561.468; 7188.325;    0.000;    0.000
561.596; 7159.325;    0.000;    0.000
561.724; 7125.325;    0.000;    0.000
561.852; 7212.325;    0.000;    0.000
561.980; 7256.325;    0.000;    0.000
562.108; 7210.325;    0.000;    0.000
562.236; 7297.325;    0.000;    0.000
562.364; 7200.325;    0.000;    0.000
562.492; 7374.325;    0.000;    0.000
562.619; 7316.325;    0.000;    0.000
562.747; 7469.325;    0.000;    0.000
562.875; 7424.325;    0.000;    0.000
563.003; 7378.325;    0.000;    0.000
563.130; 7563.325;    0.000;    0.000
563.258; 7546.325;    0.000;    0.000
563.386; 7558.325;    0.000;    0.000
563.514; 7572.325;    0.000;    0.000
563.641; 7515.325;    0.000;    0.000
563.769; 7657.325;    0.000;    0.000
563.897; 7641.325;    0.000;    0.000
564.024; 7747.325;    0.000;    0.000
564.152; 7936.325;    0.000;    0.000
564.280; 7881.325;    0.000;    0.000
564.407; 7908.325;    0.000;    0.000
564.535; 7854.325;    0.000;    0.000
564.662; 7967.325;    0.000;    0.000
564.790; 7980.325;    0.000;    0.000
564.917; 8008.325;    0.000;    0.000
565.045; 8150.325;    0.000;    0.000
565.173; 8299.325;    0.000;    0.000
565.300; 8295.325;    0.000;    0.000
565.428; 8242.325;    0.000;    0.000
565.555; 8354.325;    0.000;    0.000
565.682; 8513.325;    0.000;    0.000
565.810; 8493.325;    0.000;    0.000
565.937; 8653.325;    0.000;    0.000
566.065; 8605.325;    0.000;    0.000
566.192; 8699.325;    0.000;    0.000
566.320; 8760.325;    0.000;    0.000
566.447; 8894.325;    0.000;    0.000
566.574; 9004.325;    0.000;    0.000
566.702; 9106.325;    0.000;    0.000
566.829; 9155.325;    0.000;    0.000
566.956; 9134.325;    0.000;    0.000
567.084; 9259.325;    0.000;    0.000
567.211; 9312.325;    0.000;    0.000
567.338; 9413.325;    0.000;    0.000
567.465; 9417.325;    0.000;    0.000
567.593; 9371.325;    0.000;    0.000
567.720; 9193.325;    0.000;    0.000
567.847; 9386.325;    0.000;    0.000
567.974; 9164.325;    0.000;    0.000
568.101; 9560.325;    0.000;    0.000
568.228;10267.325;    0.000;    0.000
568.356;10578.325;    0.000;    0.000
568.483;10501.325;    0.000;    0.000
568.610;10580.325;    0.000;    0.000
568.737;11156.325;    0.000;    0.000
568.864;12067.325;    0.000;    0.000
568.991;11933.325;    0.000;    0.000
569.118;11098.325;    0.000;    0.000
569.245;10660.325;    0.000;    0.000
569.372;10192.325;    0.000;    0.000
569.499; 9817.325;    0.000;    0.000
569.626; 9710.325;    0.000;    0.000
569.753; 9493.325;    0.000;    0.000
569.880; 9334.325;    0.000;    0.000
570.007; 9236.325;    0.000;    0.000
570.134; 9084.325;    0.000;    0.000
570.261; 8941.325;    0.000;    0.000
570.388; 8988.325;    0.000;    0.000
570.515; 8791.325;    0.000;    0.000
570.642; 8716.325;    0.000;    0.000
570.768; 8624.325;    0.000;    0.000
570.895; 8558.325;    0.000;    0.000
571.022; 8434.325;    0.000;    0.000
571.149; 8537.325;    0.000;    0.000
571.276; 8330.325;    0.000;    0.000
571.402; 8440.325;    0.000;    0.000
571.529; 8357.325;    0.000;    0.000
571.656; 8177.325;    0.000;    0.000
571.783; 8138.325;    0.000;    0.000
571.909; 8085.325;    0.000;    0.000
572.036; 8080.325;    0.000;    0.000
572.163; 8054.325;    0.000;    0.000
572.289; 8036.325;    0.000;    0.000
572.416; 7833.325;    0.000;    0.000
572.543; 8102.325;    0.000;    0.000
572.669; 7964.325;    0.000;    0.000
572.796; 7901.325;    0.000;    0.000
572.922; 7970.325;    0.000;    0.000
573.049; 7908.325;    0.000;    0.000
573.176; 7947.325;    0.000;    0.000
573.302; 7800.325;    0.000;    0.000
573.429; 7982.325;    0.000;    0.000
573.555; 7939.325;    0.000;    0.000
573.682; 7826.325;    0.000;    0.000
573.808; 7905.325;    0.000;    0.000
573.935; 7678.325;    0.000;    0.000
574.061; 7719.325;    0.000;    0.000
574.188; 7857.325;    0.000;    0.000
574.314; 7875.325;    0.000;    0.000
574.440; 7696.325;    0.000;    0.000
574.567; 7633.325;    0.000;    0.000
574.693; 7691.325;    0.000;    0.000
574.820; 7698.325;    0.000;    0.000
574.946; 7635.325;    0.000;    0.000
575.072; 7686.325;    0.000;    0.000
575.198; 7738.325;    0.000;    0.000
575.325; 7859.325;    0.000;    0.000
575.451; 7863.325;    0.000;    0.000
575.577; 7663.325;    0.000;    0.000
575.704; 7751.325;    0.000;    0.000
575.830; 7703.325;    0.000;    0.000
575.956; 7737.325;    0.000;    0.000
576.082; 7629.325;    0.000;    0.000
576.208; 7525.325;    0.000;    0.000
576.335; 7511.325;    0.000;    0.000
576.461; 7609.325;    0.000;    0.000
576.587; 7420.325;    0.000;    0.000
576.713; 7638.325;    0.000;    0.000
576.839; 7594.325;    0.000;    0.000
576.965; 7587.325;    0.000;    0.000
577.091; 7506.325;    0.000;    0.000
577.217; 7476.325;    0.000;    0.000
577.343; 7579.325;    0.000;    0.000
577.470; 7507.325;    0.000;    0.000
577.596; 7561.325;    0.000;    0.000
577.722; 7681.325;    0.000;    0.000
577.848; 7678.325;    0.000;    0.000
577.973; 7807.325;    0.000;    0.000
578.099; 7519.325;    0.000;    0.000
578.225; 7554.325;    0.000;    0.000
578.351; 7586.325;    0.000;    0.000
578.477; 7655.325;    0.000;    0.000
578.603; 7783.325;    0.000;    0.000
578.729; 7673.325;    0.000;    0.000
578.855; 7733.325;    0.000;    0.000
578.981; 7833.325;    0.000;    0.000
579.107; 7689.325;    0.000;    0.000
579.232; 7723.325;    0.000;    0.000
579.358; 7646.325;    0.000;    0.000
579.484; 7698.325;    0.000;    0.000
579.610; 7800.325;    0.000;    0.000
579.735; 7792.325;    0.000;    0.000
579.861; 7851.325;    0.000;    0.000
579.987; 7865.325;    0.000;    0.000
580.113; 7803.325;    0.000;    0.000
580.238; 7862.325;    0.000;    0.000
580.364; 7874.325;    0.000;    0.000
580.490; 7897.325;    0.000;    0.000
580.615; 7922.325;    0.000;    0.000
580.741; 7861.325;    0.000;    0.000
580.867; 7917.325;    0.000;    0.000
580.992; 7947.325;    0.000;    0.000
581.118; 8010.325;    0.000;    0.000
581.243; 7919.325;    0.000;    0.000
581.369; 8042.325;    0.000;    0.000
581.494; 8208.325;    0.000;    0.000
581.620; 8109.325;    0.000;    0.000
581.745; 8093.325;    0.000;    0.000
581.871; 8255.325;    0.000;    0.000
581.996; 8185.325;    0.000;    0.000
582.122; 8428.325;    0.000;    0.000
582.247; 8208.325;    0.000;    0.000
582.373; 8352.325;    0.000;    0.000
582.498; 8397.325;    0.000;    0.000
582.624; 8646.325;    0.000;    0.000
582.749; 8522.325;    0.000;    0.000
582.874; 8480.325;    0.000;    0.000
583.000; 8618.325;    0.000;    0.000
583.125; 8628.325;    0.000;    0.000
583.250; 8801.325;    0.000;    0.000
583.376; 8875.325;    0.000;    0.000
583.501; 8784.325;    0.000;    0.000
583.626; 9015.325;    0.000;    0.000
583.751; 9046.325;    0.000;    0.000
583.877; 9296.325;    0.000;    0.000
584.002; 9333.325;    0.000;    0.000
584.127; 9462.325;    0.000;    0.000
584.252; 9433.325;    0.000;    0.000
584.377; 9485.325;    0.000;    0.000
584.503; 9616.325;    0.000;    0.000
584.628; 9696.325;    0.000;    0.000
584.753; 9855.325;    0.000;    0.000
584.878;10134.325;    0.000;    0.000
585.003;10252.325;    0.000;    0.000
585.128;10574.325;    0.000;    0.000
585.253;11002.325;    0.000;    0.000
585.378;10969.325;    0.000;    0.000
585.503;10957.325;    0.000;    0.000
585.628;11022.325;    0.000;    0.000
585.753;11199.325;    0.000;    0.000
585.878;11321.325;    0.000;    0.000
586.003;11706.325;    0.000;    0.000
586.128;11942.325;    0.000;    0.000
586.253;12175.325;    0.000;    0.000
586.378;12429.325;    0.000;    0.000
586.503;12798.325;    0.000;    0.000
586.628;13291.325;    0.000;    0.000
586.753;13733.325;    0.000;    0.000
586.878;14243.325;    0.000;    0.000
587.003;14902.325;    0.000;    0.000
587.127;15219.325;    0.000;    0.000
587.252;16173.325;    0.000;    0.000
587.377;17162.325;    0.000;    0.000
587.502;18073.325;    0.000;    0.000
587.627;18977.325;    0.000;    0.000
587.751;20479.325;    0.000;    0.000
587.876;22030.325;    0.000;    0.000
588.001;23583.325;    0.000;    0.000
588.125;25802.325;    0.000;    0.000
588.250;28860.325;    0.000;    0.000
588.375;32183.325;    0.000;    0.000
588.499;36673.325;    0.000;    0.000
588.624;42259.325;    0.000;    0.000
588.749;49827.325;    0.000;    0.000
588.873;54390.325;    0.000;    0.000
588.998;56937.325;    0.000;    0.000
589.122;61628.325;    0.000;    0.000
589.247;63107.325;    0.000;    0.000
589.372;59675.325;    0.000;    0.000
589.496;57403.325;    0.000;    0.000
589.621;58394.325;    0.000;    0.000
589.745;59130.325;    0.000;    0.000
589.870;54493.325;    0.000;    0.000
589.994;45869.325;    0.000;    0.000
590.118;39667.325;    0.000;    0.000
590.243;35089.325;    0.000;    0.000
590.367;31167.325;    0.000;    0.000
590.492;28254.325;    0.000;    0.000
590.616;26044.325;    0.000;    0.000
590.740;24041.325;    0.000;    0.000
590.865;22294.325;    0.000;    0.000
590.989;20925.325;    0.000;    0.000
591.114;19591.325;    0.000;    0.000
591.238;18460.325;    0.000;    0.000
591.362;17968.325;    0.000;    0.000
591.486;17139.325;    0.000;    0.000
591.611;16512.325;    0.000;    0.000
591.735;15893.325;    0.000;    0.000
591.859;15372.325;    0.000;    0.000
591.983;14822.325;    0.000;    0.000
592.107;14225.325;    0.000;    0.000
592.232;13868.325;    0.000;    0.000
592.356;13386.325;    0.000;    0.000
592.480;13174.325;    0.000;    0.000
592.604;12817.325;    0.000;    0.000
592.728;12564.325;    0.000;    0.000
592.852;12410.325;    0.000;    0.000
592.976;12183.325;    0.000;    0.000
593.100;11873.325;    0.000;    0.000
593.224;11674.325;    0.000;    0.000
593.349;11718.325;    0.000;    0.000
593.473;11257.325;    0.000;    0.000
593.597;11271.325;    0.000;    0.000
593.721;10862.325;    0.000;    0.000
593.844;10869.325;    0.000;    0.000
593.968;10805.325;    0.000;    0.000
594.092;10550.325;    0.000;    0.000
594.216;10547.325;    0.000;    0.000
594.340;10315.325;    0.000;    0.000
594.464;10230.325;    0.000;    0.000
594.588;10144.325;    0.000;    0.000
594.712; 9973.325;    0.000;    0.000
594.836; 9771.325;    0.000;    0.000
594.959; 9815.325;    0.000;    0.000
595.083; 9559.325;    0.000;    0.000
595.207; 9604.325;    0.000;    0.000
595.331; 9506.325;    0.000;    0.000
595.455; 9293.325;    0.000;    0.000
595.578; 9319.325;    0.000;    0.000
595.702; 9257.325;    0.000;    0.000
595.826; 9018.325;    0.000;    0.000
595.949; 8991.325;    0.000;    0.000
596.073; 8902.325;    0.000;    0.000
596.197; 8927.325;    0.000;    0.000
596.320; 8822.325;    0.000;    0.000
596.444; 8759.325;    0.000;    0.000
596.568; 8647.325;    0.000;    0.000
596.691; 8689.325;    0.000;    0.000
596.815; 8551.325;    0.000;    0.000
596.938; 8653.325;    0.000;    0.000
597.062; 8349.325;    0.000;    0.000
597.186; 8423.325;    0.000;    0.000
597.309; 8380.325;    0.000;    0.000
597.433; 8269.325;    0.000;    0.000
597.556; 8286.325;    0.000;    0.000
597.679; 8372.325;    0.000;    0.000
597.803; 8137.325;    0.000;    0.000
597.926; 8180.325;    0.000;    0.000
598.050; 8226.325;    0.000;    0.000
598.173; 8089.325;    0.000;    0.000
598.297; 8036.325;    0.000;    0.000
598.420; 7992.325;    0.000;    0.000
598.543; 7952.325;    0.000;    0.000
598.667; 7971.325;    0.000;    0.000
598.790; 7924.325;    0.000;    0.000
598.913; 7870.325;    0.000;    0.000
599.037; 7850.325;    0.000;    0.000
599.160; 7786.325;    0.000;    0.000
599.283; 7723.325;    0.000;    0.000
599.406; 7656.325;    0.000;    0.000
599.530; 7639.325;    0.000;    0.000
599.653; 7645.325;    0.000;    0.000
599.776; 7491.325;    0.000;    0.000
599.899; 7555.325;    0.000;    0.000
600.022; 7610.325;    0.000;    0.000
600.145; 7479.325;    0.000;    0.000
600.269; 7666.325;    0.000;    0.000
600.392; 7395.325;    0.000;    0.000
600.515; 7443.325;    0.000;    0.000
600.638; 7593.325;    0.000;    0.000
600.761; 7493.325;    0.000;    0.000
600.884; 7515.325;    0.000;    0.000
601.007; 7399.325;    0.000;    0.000
601.130; 7353.325;    0.000;    0.000
601.253; 7578.325;    0.000;    0.000
601.376; 7372.325;    0.000;    0.000
601.499; 7319.325;    0.000;    0.000
601.622; 7293.325;    0.000;    0.000
601.745; 7362.325;    0.000;    0.000
601.868; 7273.325;    0.000;    0.000
601.991; 7234.325;    0.000;    0.000
602.113; 7337.325;    0.000;    0.000
602.236; 7126.325;    0.000;    0.000
602.359; 7205.325;    0.000;    0.000
602.482; 7176.325;    0.000;    0.000
602.605; 7179.325;    0.000;    0.000
602.728; 7104.325;    0.000;    0.000
602.850; 7239.325;    0.000;    0.000
602.973; 7194.325;    0.000;    0.000
603.096; 7138.325;    0.000;    0.000
603.219; 7083.325;    0.000;    0.000
603.341; 6920.325;    0.000;    0.000
603.464; 7009.325;    0.000;    0.000
603.587; 6915.325;    0.000;    0.000
603.709; 7021.325;    0.000;    0.000
603.832; 6983.325;    0.000;    0.000
603.955; 6778.325;    0.000;    0.000
604.077; 6976.325;    0.000;    0.000
604.200; 6857.325;    0.000;    0.000
604.322; 6812.325;    0.000;    0.000
604.445; 6877.325;    0.000;    0.000
604.568; 6729.325;    0.000;    0.000
604.690; 6720.325;    0.000;    0.000
604.813; 6952.325;    0.000;    0.000
604.935; 6712.325;    0.000;    0.000
605.058; 6876.325;    0.000;    0.000
605.180; 6870.325;    0.000;    0.000
605.303; 6862.325;    0.000;    0.000
605.425; 6770.325;    0.000;    0.000
605.547; 6832.325;    0.000;    0.000
605.670; 6810.325;    0.000;    0.000
605.792; 6829.325;    0.000;    0.000
605.915; 6603.325;    0.000;    0.000
606.037; 6661.325;    0.000;    0.000
606.159; 6656.325;    0.000;    0.000
606.282; 6831.325;    0.000;    0.000
606.404; 6598.325;    0.000;    0.000
606.526; 6641.325;    0.000;    0.000
606.648; 6678.325;    0.000;    0.000
606.771; 6662.325;    0.000;    0.000
606.893; 6577.325;    0.000;    0.000
607.015; 6557.325;    0.000;    0.000
607.137; 6622.325;    0.000;    0.000
607.260; 6551.325;    0.000;    0.000
607.382; 6603.325;    0.000;    0.000
607.504; 6634.325;    0.000;    0.000
607.626; 6722.325;    0.000;    0.000
607.748; 6591.325;    0.000;    0.000
607.870; 6661.325;    0.000;    0.000
607.992; 6613.325;    0.000;    0.000
608.114; 6709.325;    0.000;    0.000
608.236; 6653.325;    0.000;    0.000
608.359; 6547.325;    0.000;    0.000
608.481; 6532.325;    0.000;    0.000
608.603; 6468.325;    0.000;    0.000
608.725; 6524.325;    0.000;    0.000
608.847; 6594.325;    0.000;    0.000
608.968; 6499.325;    0.000;    0.000
609.090; 6464.325;    0.000;    0.000
609.212; 6406.325;    0.000;    0.000
609.334; 6526.325;    0.000;    0.000
609.456; 6591.325;    0.000;    0.000
609.578; 6459.325;    0.000;    0.000
609.700; 6428.325;    0.000;    0.000
609.822; 6599.325;    0.000;    0.000
609.944; 6605.325;    0.000;    0.000
610.065; 6501.325;    0.000;    0.000
610.187; 6499.325;    0.000;    0.000
610.309; 6550.325;    0.000;    0.000
610.431; 6555.325;    0.000;    0.000
610.552; 6548.325;    0.000;    0.000
610.674; 6452.325;    0.000;    0.000
610.796; 6465.325;    0.000;    0.000
610.918; 6359.325;    0.000;    0.000
611.039; 6393.325;    0.000;    0.000
611.161; 6370.325;    0.000;    0.000
611.282; 6414.325;    0.000;    0.000
611.404; 6396.325;    0.000;    0.000
611.526; 6397.325;    0.000;    0.000
611.647; 6396.325;    0.000;    0.000
611.769; 6351.325;    0.000;    0.000
611.890; 6395.325;    0.000;    0.000
612.012; 6378.325;    0.000;    0.000
612.134; 6476.325;    0.000;    0.000
612.255; 6434.325;    0.000;    0.000
612.377; 6417.325;    0.000;    0.000
612.498; 6351.325;    0.000;    0.000
612.619; 6381.325;    0.000;    0.000
612.741; 6438.325;    0.000;    0.000
612.862; 6363.325;    0.000;    0.000
612.984; 6460.325;    0.000;    0.000
613.105; 6337.325;    0.000;    0.000
613.226; 6380.325;    0.000;    0.000
613.348; 6557.325;    0.000;    0.000
613.469; 6377.325;    0.000;    0.000
613.590; 6440.325;    0.000;    0.000
613.712; 6342.325;    0.000;    0.000
613.833; 6472.325;    0.000;    0.000
613.954; 6498.325;    0.000;    0.000
614.076; 6470.325;    0.000;    0.000
614.197; 6380.325;    0.000;    0.000
614.318; 6397.325;    0.000;    0.000
614.439; 6500.325;    0.000;    0.000
614.560; 6529.325;    0.000;    0.000
614.682; 6433.325;    0.000;    0.000
614.803; 6420.325;    0.000;    0.000
614.924; 6410.325;    0.000;    0.000
615.045; 6512.325;    0.000;    0.000
615.166; 6720.325;    0.000;    0.000
615.287; 6764.325;    0.000;    0.000
615.408; 6972.325;    0.000;    0.000
615.529; 7275.325;    0.000;    0.000
615.650; 6946.325;    0.000;    0.000
615.771; 6792.325;    0.000;    0.000
615.892; 6864.325;    0.000;    0.000
616.013; 7250.325;    0.000;    0.000
616.134; 7619.325;    0.000;    0.000
616.255; 7699.325;    0.000;    0.000
616.376; 7208.325;    0.000;    0.000
616.497; 6862.325;    0.000;    0.000
616.618; 6597.325;    0.000;    0.000
616.739; 6731.325;    0.000;    0.000
616.860; 6515.325;    0.000;    0.000
616.981; 6452.325;    0.000;    0.000
617.101; 6513.325;    0.000;    0.000
617.222; 6466.325;    0.000;    0.000
617.343; 6395.325;    0.000;    0.000
617.464; 6415.325;    0.000;    0.000
617.585; 6340.325;    0.000;    0.000
617.705; 6270.325;    0.000;    0.000
617.826; 6447.325;    0.000;    0.000
617.947; 6285.325;    0.000;    0.000
618.068; 6147.325;    0.000;    0.000
618.188; 6272.325;    0.000;    0.000
618.309; 6169.325;    0.000;    0.000
618.430; 6151.325;    0.000;    0.000
618.550; 6048.325;    0.000;    0.000
618.671; 6075.325;    0.000;    0.000
618.791; 5884.325;    0.000;    0.000
618.912; 6048.325;    0.000;    0.000
619.033; 6113.325;    0.000;    0.000
619.153; 6214.325;    0.000;    0.000
619.274; 6033.325;    0.000;    0.000
619.394; 6100.325;    0.000;    0.000
619.515; 6070.325;    0.000;    0.000
619.635; 5938.325;    0.000;    0.000
619.756; 6037.325;    0.000;    0.000
619.876; 5914.325;    0.000;    0.000
619.996; 6104.325;    0.000;    0.000
620.117; 5897.325;    0.000;    0.000
620.237; 6069.325;    0.000;    0.000
620.358; 5982.325;    0.000;    0.000
620.478; 5871.325;    0.000;    0.000
620.598; 6062.325;    0.000;    0.000
620.719; 5894.325;    0.000;    0.000
620.839; 6036.325;    0.000;    0.000
620.959; 6007.325;    0.000;    0.000
621.079; 5847.325;    0.000;    0.000
621.200; 5959.325;    0.000;    0.000
621.320; 5957.325;    0.000;    0.000
621.440; 6004.325;    0.000;    0.000
621.560; 5979.325;    0.000;    0.000
621.681; 5929.325;    0.000;    0.000
621.801; 6057.325;    0.000;    0.000
621.921; 6014.325;    0.000;    0.000
622.041; 5958.325;    0.000;    0.000
622.161; 5967.325;    0.000;    0.000
622.281; 6036.325;    0.000;    0.000
622.401; 5922.325;    0.000;    0.000
622.521; 6003.325;    0.000;    0.000
622.641; 6073.325;    0.000;    0.000
622.761; 5987.325;    0.000;    0.000
622.882; 6112.325;    0.000;    0.000
623.002; 6053.325;    0.000;    0.000
623.121; 5937.325;    0.000;    0.000
623.241; 5832.325;    0.000;    0.000
623.361; 5839.325;    0.000;    0.000
623.481; 5852.325;    0.000;    0.000
623.601; 5922.325;    0.000;    0.000
623.721; 5958.325;    0.000;    0.000
623.841; 6068.325;    0.000;    0.000
623.961; 5981.325;    0.000;    0.000
624.081; 5788.325;    0.000;    0.000
624.201; 5939.325;    0.000;    0.000
624.320; 5891.325;    0.000;    0.000
624.440; 5890.325;    0.000;    0.000
624.560; 5914.325;    0.000;    0.000
624.680; 5792.325;    0.000;    0.000
624.799; 5817.325;    0.000;    0.000
624.919; 5769.325;    0.000;    0.000
625.039; 5779.325;    0.000;    0.000
625.159; 5743.325;    0.000;    0.000
625.278; 5730.325;    0.000;    0.000
625.398; 5798.325;    0.000;    0.000
625.518; 5720.325;    0.000;    0.000
625.637; 5759.325;    0.000;    0.000
625.757; 5769.325;    0.000;    0.000
625.876; 5875.325;    0.000;    0.000
625.996; 5745.325;    0.000;    0.000
626.115; 5726.325;    0.000;    0.000
626.235; 5805.325;    0.000;    0.000
626.355; 5762.325;    0.000;    0.000
626.474; 5831.325;    0.000;    0.000
626.593; 5804.325;    0.000;    0.000
626.713; 5785.325;    0.000;    0.000
626.832; 5788.325;    0.000;    0.000
626.952; 5785.325;    0.000;    0.000
627.071; 5773.325;    0.000;    0.000
627.191; 5702.325;    0.000;    0.000
627.310; 5768.325;    0.000;    0.000
627.429; 5736.325;    0.000;    0.000
627.549; 5784.325;    0.000;    0.000
627.668; 5748.325;    0.000;    0.000
627.787; 5809.325;    0.000;    0.000
627.907; 5696.325;    0.000;    0.000
628.026; 5682.325;    0.000;    0.000
628.145; 5740.325;    0.000;    0.000
628.264; 5706.325;    0.000;    0.000
628.384; 5744.325;    0.000;    0.000
628.503; 5668.325;    0.000;    0.000
628.622; 5725.325;    0.000;    0.000
628.741; 5612.325;    0.000;    0.000
628.860; 5669.325;    0.000;    0.000
628.980; 5496.325;    0.000;    0.000
629.099; 5670.325;    0.000;    0.000
629.218; 5550.325;    0.000;    0.000
629.337; 5484.325;    0.000;    0.000
629.456; 5512.325;    0.000;    0.000
629.575; 5594.325;    0.000;    0.000
629.694; 5531.325;    0.000;    0.000
629.813; 5593.325;    0.000;    0.000
629.932; 5574.325;    0.000;    0.000
630.051; 5602.325;    0.000;    0.000
630.170; 5565.325;    0.000;    0.000
630.289; 5559.325;    0.000;    0.000
630.408; 5502.325;    0.000;    0.000
630.527; 5515.325;    0.000;    0.000
630.646; 5469.325;    0.000;    0.000
630.764; 5390.325;    0.000;    0.000
630.883; 5557.325;    0.000;    0.000
631.002; 5365.325;    0.000;    0.000
631.121; 5367.325;    0.000;    0.000
631.240; 5508.325;    0.000;    0.000
631.359; 5443.325;    0.000;    0.000
631.477; 5602.325;    0.000;    0.000
631.596; 5462.325;    0.000;    0.000
631.715; 5489.325;    0.000;    0.000
631.834; 5484.325;    0.000;    0.000
631.952; 5531.325;    0.000;    0.000
632.071; 5417.325;    0.000;    0.000
632.190; 5459.325;    0.000;    0.000
632.308; 5536.325;    0.000;    0.000
632.427; 5454.325;    0.000;    0.000
632.546; 5355.325;    0.000;    0.000
632.664; 5502.325;    0.000;    0.000
632.783; 5495.325;    0.000;    0.000
632.901; 5374.325;    0.000;    0.000
633.020; 5415.325;    0.000;    0.000
633.138; 5445.325;    0.000;    0.000
633.257; 5337.325;    0.000;    0.000
633.375; 5487.325;    0.000;    0.000
633.494; 5409.325;    0.000;    0.000
633.612; 5507.325;    0.000;    0.000
633.731; 5394.325;    0.000;    0.000
633.849; 5398.325;    0.000;    0.000
633.968; 5417.325;    0.000;    0.000
634.086; 5326.325;    0.000;    0.000
634.204; 5457.325;    0.000;    0.000
634.323; 5389.325;    0.000;    0.000
634.441; 5345.325;    0.000;    0.000
634.559; 5366.325;    0.000;    0.000
634.678; 5323.325;    0.000;    0.000
634.796; 5532.325;    0.000;    0.000
634.914; 5220.325;    0.000;    0.000
635.032; 5476.325;    0.000;    0.000
635.151; 5307.325;    0.000;    0.000
635.269; 5265.325;    0.000;    0.000
635.387; 5314.325;    0.000;    0.000
635.505; 5362.325;    0.000;    0.000
635.623; 5390.325;    0.000;    0.000
635.742; 5309.325;    0.000;    0.000
635.860; 5300.325;    0.000;    0.000
635.978; 5319.325;    0.000;    0.000
636.096; 5275.325;    0.000;    0.000
636.214; 5297.325;    0.000;    0.000
636.332; 5226.325;    0.000;    0.000
636.450; 5220.325;    0.000;    0.000
636.568; 5125.325;    0.000;    0.000
636.686; 5291.325;    0.000;    0.000
636.804; 5320.325;    0.000;    0.000
636.922; 5311.325;    0.000;    0.000
637.040; 5264.325;    0.000;    0.000
637.158; 5248.325;    0.000;    0.000
637.276; 5429.325;    0.000;    0.000
637.394; 5230.325;    0.000;    0.000
637.512; 5225.325;    0.000;    0.000
637.629; 5316.325;    0.000;    0.000
637.747; 5328.325;    0.000;    0.000
637.865; 5146.325;    0.000;    0.000
637.983; 5233.325;    0.000;    0.000
638.101; 5206.325;    0.000;    0.000
638.218; 5216.325;    0.000;    0.000
638.336; 5344.325;    0.000;    0.000
638.454; 5177.325;    0.000;    0.000
638.572; 5294.325;    0.000;    0.000
638.689; 5233.325;    0.000;    0.000
638.807; 5190.325;    0.000;    0.000
638.925; 5214.325;    0.000;    0.000
639.042; 5196.325;    0.000;    0.000
639.160; 5171.325;    0.000;    0.000
639.278; 5254.325;    0.000;    0.000
639.395; 5131.325;    0.000;    0.000
639.513; 5121.325;    0.000;    0.000
639.630; 5176.325;    0.000;    0.000
639.748; 5099.325;    0.000;    0.000
639.865; 5277.325;    0.000;    0.000
639.983; 5269.325;    0.000;    0.000
640.100; 5134.325;    0.000;    0.000
640.218; 5078.325;    0.000;    0.000
640.335; 5185.325;    0.000;    0.000
640.453; 5192.325;    0.000;    0.000
640.570; 5122.325;    0.000;    0.000
640.687; 5101.325;    0.000;    0.000
640.805; 5053.325;    0.000;    0.000
640.922; 5282.325;    0.000;    0.000
641.040; 5084.325;    0.000;    0.000
641.157; 5221.325;    0.000;    0.000
641.274; 5206.325;    0.000;    0.000
641.391; 5208.325;    0.000;    0.000
641.509; 5059.325;    0.000;    0.000
641.626; 5026.325;    0.000;    0.000
641.743; 5174.325;    0.000;    0.000
641.860; 5187.325;    0.000;    0.000
641.978; 5120.325;    0.000;    0.000
642.095; 5121.325;    0.000;    0.000
642.212; 5249.325;    0.000;    0.000
642.329; 5083.325;    0.000;    0.000
642.446; 5087.325;    0.000;    0.000
642.563; 5226.325;    0.000;    0.000
642.681; 5046.325;    0.000;    0.000
642.798; 5108.325;    0.000;    0.000
642.915; 5103.325;    0.000;    0.000
643.032; 5041.325;    0.000;    0.000
643.149; 5131.325;    0.000;    0.000
643.266; 5043.325;    0.000;    0.000
643.383; 5102.325;    0.000;    0.000
643.500; 5071.325;    0.000;    0.000
643.617; 5030.325;    0.000;    0.000
643.734; 5067.325;    0.000;    0.000
643.850; 5147.325;    0.000;    0.000
643.967; 5075.325;    0.000;    0.000
644.084; 5177.325;    0.000;    0.000
644.201; 5159.325;    0.000;    0.000
644.318; 5121.325;    0.000;    0.000
644.435; 5127.325;    0.000;    0.000
644.552; 5281.325;    0.000;    0.000
644.668; 5112.325;    0.000;    0.000
644.785; 5113.325;    0.000;    0.000
644.902; 5244.325;    0.000;    0.000
645.019; 5257.325;    0.000;    0.000
645.135; 5216.325;    0.000;    0.000
645.252; 5114.325;    0.000;    0.000
645.369; 5156.325;    0.000;    0.000
645.485; 5210.325;    0.000;    0.000
645.602; 5192.325;    0.000;    0.000
645.719; 5116.325;    0.000;    0.000
645.835; 5207.325;    0.000;    0.000
645.952; 5184.325;    0.000;    0.000
646.068; 5103.325;    0.000;    0.000
646.185; 5222.325;    0.000;    0.000
646.302; 5178.325;    0.000;    0.000
646.418; 5255.325;    0.000;    0.000
646.535; 5202.325;    0.000;    0.000
646.651; 5213.325;    0.000;    0.000
646.768; 5167.325;    0.000;    0.000
646.884; 5301.325;    0.000;    0.000
647.000; 5193.325;    0.000;    0.000
647.117; 5185.325;    0.000;    0.000
647.233; 5214.325;    0.000;    0.000
647.350; 5205.325;    0.000;    0.000
647.466; 5334.325;    0.000;    0.000
647.582; 5242.325;    0.000;    0.000
647.699; 5234.325;    0.000;    0.000
647.815; 5197.325;    0.000;    0.000
647.931; 5278.325;    0.000;    0.000
648.047; 5145.325;    0.000;    0.000
648.164; 5161.325;    0.000;    0.000
648.280; 5331.325;    0.000;    0.000
648.396; 5206.325;    0.000;    0.000
648.512; 5331.325;    0.000;    0.000
648.629; 5236.325;    0.000;    0.000
648.745; 5362.325;    0.000;    0.000
648.861; 5393.325;    0.000;    0.000
648.977; 5275.325;    0.000;    0.000
649.093; 5331.325;    0.000;    0.000
649.209; 5428.325;    0.000;    0.000
649.325; 5351.325;    0.000;    0.000
649.441; 5316.325;    0.000;    0.000
649.557; 5331.325;    0.000;    0.000
649.673; 5333.325;    0.000;    0.000
649.789; 5372.325;    0.000;    0.000
649.905; 5327.325;    0.000;    0.000
650.021; 5376.325;    0.000;    0.000
650.137; 5383.325;    0.000;    0.000
650.253; 5348.325;    0.000;    0.000
650.369; 5508.325;    0.000;    0.000
650.485; 5435.325;    0.000;    0.000
650.601; 5320.325;    0.000;    0.000
650.717; 5327.325;    0.000;    0.000
650.833; 5550.325;    0.000;    0.000
650.948; 5412.325;    0.000;    0.000
651.064; 5417.325;    0.000;    0.000
651.180; 5424.325;    0.000;    0.000
651.296; 5419.325;    0.000;    0.000
651.411; 5457.325;    0.000;    0.000
651.527; 5524.325;    0.000;    0.000
651.643; 5614.325;    0.000;    0.000
651.759; 5562.325;    0.000;    0.000
651.874; 5475.325;    0.000;    0.000
651.990; 5516.325;    0.000;    0.000
652.105; 5580.325;    0.000;    0.000
652.221; 5581.325;    0.000;    0.000
652.337; 5491.325;    0.000;    0.000
652.452; 5575.325;    0.000;    0.000
652.568; 5542.325;    0.000;    0.000
652.683; 5680.325;    0.000;    0.000
652.799; 5660.325;    0.000;    0.000
652.914; 5627.325;    0.000;    0.000
653.030; 5715.325;    0.000;    0.000
653.145; 5711.325;    0.000;    0.000
653.261; 5704.325;    0.000;    0.000
653.376; 5774.325;    0.000;    0.000
653.492; 5819.325;    0.000;    0.000
653.607; 5833.325;    0.000;    0.000
653.722; 5841.325;    0.000;    0.000
653.838; 5964.325;    0.000;    0.000
653.953; 6039.325;    0.000;    0.000
654.068; 6019.325;    0.000;    0.000
654.184; 5978.325;    0.000;    0.000
654.299; 6048.325;    0.000;    0.000
654.414; 6076.325;    0.000;    0.000
654.530; 6177.325;    0.000;    0.000
654.645; 6209.325;    0.000;    0.000
654.760; 6317.325;    0.000;    0.000
654.875; 6344.325;    0.000;    0.000
654.990; 6544.325;    0.000;    0.000
655.106; 6532.325;    0.000;    0.000
655.221; 6644.325;    0.000;    0.000
655.336; 6584.325;    0.000;    0.000
655.451; 6578.325;    0.000;    0.000
655.566; 6696.325;    0.000;    0.000
655.681; 6868.325;    0.000;    0.000
655.796; 7044.325;    0.000;    0.000
655.911; 7126.325;    0.000;    0.000
656.026; 7343.325;    0.000;    0.000
656.141; 7218.325;    0.000;    0.000
656.256; 7476.325;    0.000;    0.000
656.371; 7468.325;    0.000;    0.000
656.486; 7649.325;    0.000;    0.000
656.601; 7465.325;    0.000;    0.000
656.716; 7489.325;    0.000;    0.000
656.831; 7360.325;    0.000;    0.000
656.946; 7352.325;    0.000;    0.000
657.060; 7360.325;    0.000;    0.000
657.175; 7006.325;    0.000;    0.000
657.290; 7114.325;    0.000;    0.000
657.405; 7030.325;    0.000;    0.000
657.520; 6926.325;    0.000;    0.000
657.634; 6970.325;    0.000;    0.000
657.749; 6855.325;    0.000;    0.000
657.864; 6807.325;    0.000;    0.000
657.979; 6769.325;    0.000;    0.000
658.093; 6547.325;    0.000;    0.000
658.208; 6719.325;    0.000;    0.000
658.323; 6417.325;    0.000;    0.000
658.437; 6441.325;    0.000;    0.000
658.552; 6352.325;    0.000;    0.000
658.666; 6225.325;    0.000;    0.000
658.781; 6313.325;    0.000;    0.000
658.895; 6348.325;    0.000;    0.000
659.010; 6296.325;    0.000;    0.000
659.125; 6038.325;    0.000;    0.000
659.239; 6078.325;    0.000;    0.000
659.353; 6082.325;    0.000;    0.000
659.468; 6078.325;    0.000;    0.000
659.582; 5982.325;    0.000;    0.000
659.697; 5969.325;    0.000;    0.000
659.811; 5873.325;    0.000;    0.000
659.926; 5833.325;    0.000;    0.000
660.040; 5959.325;    0.000;    0.000
660.154; 5799.325;    0.000;    0.000
660.269; 5742.325;    0.000;    0.000
660.383; 5706.325;    0.000;    0.000
660.497; 5716.325;    0.000;    0.000
660.612; 5815.325;    0.000;    0.000
660.726; 5639.325;    0.000;    0.000
660.840; 5667.325;    0.000;    0.000
660.954; 5665.325;    0.000;    0.000
661.068; 5604.325;    0.000;    0.000
661.183; 5559.325;    0.000;    0.000
661.297; 5455.325;    0.000;    0.000
661.411; 5519.325;    0.000;    0.000
661.525; 5550.325;    0.000;    0.000
661.639; 5376.325;    0.000;    0.000
661.753; 5445.325;    0.000;    0.000
661.867; 5473.325;    0.000;    0.000
661.981; 5491.325;    0.000;    0.000
662.095; 5283.325;    0.000;    0.000
662.209; 5452.325;    0.000;    0.000
662.323; 5212.325;    0.000;    0.000
662.437; 5300.325;    0.000;    0.000
662.551; 5385.325;    0.000;    0.000
662.665; 5321.325;    0.000;    0.000
662.779; 5268.325;    0.000;    0.000
662.893; 5382.325;    0.000;    0.000
663.007; 5164.325;    0.000;    0.000
663.121; 5222.325;    0.000;    0.000
663.235; 5198.325;    0.000;    0.000
663.348; 5180.325;    0.000;    0.000
663.462; 5205.325;    0.000;    0.000
663.576; 5044.325;    0.000;    0.000
663.690; 5107.325;    0.000;    0.000
663.804; 5061.325;    0.000;    0.000
663.917; 4940.325;    0.000;    0.000
664.031; 4934.325;    0.000;    0.000
664.145; 5132.325;    0.000;    0.000
664.258; 5061.325;    0.000;    0.000
664.372; 4872.325;    0.000;    0.000
664.486; 4988.325;    0.000;    0.000
664.599; 5029.325;    0.000;    0.000
664.713; 5038.325;    0.000;    0.000
664.827; 4872.325;    0.000;    0.000
664.940; 4952.325;    0.000;    0.000
665.054; 4918.325;    0.000;    0.000
665.167; 4894.325;    0.000;    0.000
665.281; 5087.325;    0.000;    0.000
665.394; 4816.325;    0.000;    0.000
665.508; 4814.325;    0.000;    0.000
665.621; 4849.325;    0.000;    0.000
665.735; 4803.325;    0.000;    0.000
665.848; 4767.325;    0.000;    0.000
665.961; 4860.325;    0.000;    0.000
666.075; 4873.325;    0.000;    0.000
666.188; 4908.325;    0.000;    0.000
666.301; 4707.325;    0.000;    0.000
666.415; 4763.325;    0.000;    0.000
666.528; 4834.325;    0.000;    0.000
666.641; 4714.325;    0.000;    0.000
666.755; 4654.325;    0.000;    0.000
666.868; 4753.325;    0.000;    0.000
666.981; 4711.325;    0.000;    0.000
667.094; 4567.325;    0.000;    0.000
667.207; 4697.325;    0.000;    0.000
667.321; 4635.325;    0.000;    0.000
667.434; 4786.325;    0.000;    0.000
667.547; 4727.325;    0.000;    0.000
667.660; 4649.325;    0.000;    0.000
667.773; 4572.325;    0.000;    0.000
667.886; 4701.325;    0.000;    0.000
667.999; 4591.325;    0.000;    0.000
668.112; 4689.325;    0.000;    0.000
668.225; 4596.325;    0.000;    0.000
668.338; 4654.325;    0.000;    0.000
668.451; 4526.325;    0.000;    0.000
668.564; 4625.325;    0.000;    0.000
668.677; 4612.325;    0.000;    0.000
668.790; 4520.325;    0.000;    0.000
668.903; 4549.325;    0.000;    0.000
669.016; 4529.325;    0.000;    0.000
669.129; 4554.325;    0.000;    0.000
669.242; 4510.325;    0.000;    0.000
669.355; 4452.325;    0.000;    0.000
669.467; 4466.325;    0.000;    0.000
669.580; 4434.325;    0.000;    0.000
669.693; 4415.325;    0.000;    0.000
669.806; 4435.325;    0.000;    0.000
669.918; 4418.325;    0.000;    0.000
670.031; 4553.325;    0.000;    0.000
670.144; 4365.325;    0.000;    0.000
670.256; 4389.325;    0.000;    0.000
670.369; 4481.325;    0.000;    0.000
670.482; 4433.325;    0.000;    0.000
670.594; 4462.325;    0.000;    0.000
670.707; 4430.325;    0.000;    0.000
670.820; 4394.325;    0.000;    0.000
670.932; 4428.325;    0.000;    0.000
671.045; 4542.325;    0.000;    0.000
671.157; 4293.325;    0.000;    0.000
671.270; 4333.325;    0.000;    0.000
671.382; 4371.325;    0.000;    0.000
671.495; 4426.325;    0.000;    0.000
671.607; 4469.325;    0.000;    0.000
671.720; 4324.325;    0.000;    0.000
671.832; 4386.325;    0.000;    0.000
671.944; 4347.325;    0.000;    0.000
672.057; 4403.325;    0.000;    0.000
672.169; 4368.325;    0.000;    0.000
672.282; 4434.325;    0.000;    0.000
672.394; 4379.325;    0.000;    0.000
672.506; 4285.325;    0.000;    0.000
672.618; 4361.325;    0.000;    0.000
672.731; 4412.325;    0.000;    0.000
672.843; 4431.325;    0.000;    0.000
672.955; 4155.325;    0.000;    0.000
673.067; 4316.325;    0.000;    0.000
673.180; 4324.325;    0.000;    0.000
673.292; 4304.325;    0.000;    0.000
673.404; 4321.325;    0.000;    0.000
673.516; 4283.325;    0.000;    0.000
673.628; 4196.325;    0.000;    0.000
673.740; 4198.325;    0.000;    0.000
673.852; 4378.325;    0.000;    0.000
673.964; 4288.325;    0.000;    0.000
674.076; 4259.325;    0.000;    0.000
674.188; 4312.325;    0.000;    0.000
674.300; 4303.325;    0.000;    0.000
674.412; 4261.325;    0.000;    0.000
674.524; 4252.325;    0.000;    0.000
674.636; 4241.325;    0.000;    0.000
674.748; 4278.325;    0.000;    0.000
674.860; 4271.325;    0.000;    0.000
674.972; 4142.325;    0.000;    0.000
675.084; 4152.325;    0.000;    0.000
675.196; 4284.325;    0.000;    0.000
675.307; 4229.325;    0.000;    0.000
675.419; 4225.325;    0.000;    0.000
675.531; 4263.325;    0.000;    0.000
675.643; 4204.325;    0.000;    0.000
675.755; 4228.325;    0.000;    0.000
675.866; 4226.325;    0.000;    0.000
675.978; 4192.325;    0.000;    0.000
676.090; 4231.325;    0.000;    0.000
676.201; 4224.325;    0.000;    0.000
676.313; 4126.325;    0.000;    0.000
676.425; 4151.325;    0.000;    0.000
676.536; 4170.325;    0.000;    0.000
676.648; 4101.325;    0.000;    0.000
676.759; 4112.325;    0.000;    0.000
676.871; 4213.325;    0.000;    0.000
676.983; 4179.325;    0.000;    0.000
677.094; 4141.325;    0.000;    0.000
677.206; 4128.325;    0.000;    0.000
677.317; 4148.325;    0.000;    0.000
677.429; 4128.325;    0.000;    0.000
677.540; 4077.325;    0.000;    0.000
677.651; 4076.325;    0.000;    0.000
677.763; 4080.325;    0.000;    0.000
677.874; 4154.325;    0.000;    0.000
677.986; 4120.325;    0.000;    0.000
678.097; 4070.325;    0.000;    0.000
678.208; 4130.325;    0.000;    0.000
678.320; 4106.325;    0.000;    0.000
678.431; 4139.325;    0.000;    0.000
678.542; 4068.325;    0.000;    0.000
678.653; 4069.325;    0.000;    0.000
678.765; 4037.325;    0.000;    0.000
678.876; 4083.325;    0.000;    0.000
678.987; 3965.325;    0.000;    0.000
679.098; 4108.325;    0.000;    0.000
679.209; 4056.325;    0.000;    0.000
679.320; 4036.325;    0.000;    0.000
679.432; 3945.325;    0.000;    0.000
679.543; 3982.325;    0.000;    0.000
679.654; 4110.325;    0.000;    0.000
679.765; 4056.325;    0.000;    0.000
679.876; 3990.325;    0.000;    0.000
679.987; 4022.325;    0.000;    0.000
680.098; 3995.325;    0.000;    0.000
680.209; 3983.325;    0.000;    0.000
680.320; 4052.325;    0.000;    0.000
680.431; 3991.325;    0.000;    0.000
680.542; 3997.325;    0.000;    0.000
680.653; 4147.325;    0.000;    0.000
680.763; 3957.325;    0.000;    0.000
680.874; 3954.325;    0.000;    0.000
680.985; 3941.325;    0.000;    0.000
681.096; 4016.325;    0.000;    0.000
681.207; 3933.325;    0.000;    0.000
681.318; 4028.325;    0.000;    0.000
681.428; 4031.325;    0.000;    0.000
681.539; 3890.325;    0.000;    0.000
681.650; 4068.325;    0.000;    0.000
681.761; 4002.325;    0.000;    0.000
681.871; 4046.325;    0.000;    0.000
681.982; 3953.325;    0.000;    0.000
682.093; 3981.325;    0.000;    0.000
682.203; 4006.325;    0.000;    0.000
682.314; 4047.325;    0.000;    0.000
682.424; 3951.325;    0.000;    0.000
682.535; 4076.325;    0.000;    0.000
682.645; 4038.325;    0.000;    0.000
682.756; 3953.325;    0.000;    0.000
682.867; 3839.325;    0.000;    0.000
682.977; 3869.325;    0.000;    0.000
683.087; 3904.325;    0.000;    0.000
683.198; 3885.325;    0.000;    0.000
683.308; 3936.325;    0.000;    0.000
683.419; 3989.325;    0.000;    0.000
683.529; 3886.325;    0.000;    0.000
683.640; 3924.325;    0.000;    0.000
683.750; 3874.325;    0.000;    0.000
683.860; 4056.325;    0.000;    0.000
683.971; 4028.325;    0.000;    0.000
684.081; 3931.325;    0.000;    0.000
684.191; 3994.325;    0.000;    0.000
684.301; 3927.325;    0.000;    0.000
684.412; 3978.325;    0.000;    0.000
684.522; 3968.325;    0.000;    0.000
684.632; 3995.325;    0.000;    0.000
684.742; 3997.325;    0.000;    0.000
684.852; 3921.325;    0.000;    0.000
684.963; 4057.325;    0.000;    0.000
685.073; 3918.325;    0.000;    0.000
685.183; 3933.325;    0.000;    0.000
685.293; 3880.325;    0.000;    0.000
685.403; 3960.325;    0.000;    0.000
685.513; 3966.325;    0.000;    0.000
685.623; 3845.325;    0.000;    0.000
685.733; 4030.325;    0.000;    0.000
685.843; 3978.325;    0.000;    0.000
685.953; 3804.325;    0.000;    0.000
686.063; 3967.325;    0.000;    0.000
686.173; 3844.325;    0.000;    0.000
686.283; 3933.325;    0.000;    0.000
686.393; 3891.325;    0.000;    0.000
686.503; 3902.325;    0.000;    0.000
686.612; 3897.325;    0.000;    0.000
686.722; 4068.325;    0.000;    0.000
686.832; 3922.325;    0.000;    0.000
686.942; 3977.325;    0.000;    0.000
687.052; 3827.325;    0.000;    0.000
687.161; 4004.325;    0.000;    0.000
687.271; 3966.325;    0.000;    0.000
687.381; 3897.325;    0.000;    0.000
687.491; 3952.325;    0.000;    0.000
687.600; 3951.325;    0.000;    0.000
687.710; 3922.325;    0.000;    0.000
687.820; 3833.325;    0.000;    0.000
687.929; 3908.325;    0.000;    0.000
688.039; 3866.325;    0.000;    0.000
688.148; 3809.325;    0.000;    0.000
688.258; 3843.325;    0.000;    0.000
688.367; 3874.325;    0.000;    0.000
688.477; 3902.325;    0.000;    0.000
688.586; 3929.325;    0.000;    0.000
688.696; 3914.325;    0.000;    0.000
688.805; 3987.325;    0.000;    0.000
688.915; 3893.325;    0.000;    0.000
689.024; 3887.325;    0.000;    0.000
689.134; 3900.325;    0.000;    0.000
689.243; 3823.325;    0.000;    0.000
689.352; 3907.325;    0.000;    0.000
689.462; 3780.325;    0.000;    0.000
689.571; 3857.325;    0.000;    0.000
689.680; 3800.325;    0.000;    0.000
689.790; 3777.325;    0.000;    0.000
689.899; 3803.325;    0.000;    0.000
690.008; 3802.325;    0.000;    0.000
690.117; 3892.325;    0.000;    0.000
690.227; 3906.325;    0.000;    0.000
690.336; 3848.325;    0.000;    0.000
690.445; 3839.325;    0.000;    0.000
690.554; 3923.325;    0.000;    0.000
690.663; 3860.325;    0.000;    0.000
690.772; 3859.325;    0.000;    0.000
690.881; 3884.325;    0.000;    0.000
690.990; 3765.325;    0.000;    0.000
691.100; 3831.325;    0.000;    0.000
691.209; 3826.325;    0.000;    0.000
691.318; 3899.325;    0.000;    0.000
691.427; 3874.325;    0.000;    0.000
691.535; 3804.325;    0.000;    0.000
691.644; 3877.325;    0.000;    0.000
691.753; 3875.325;    0.000;    0.000
691.862; 3791.325;    0.000;    0.000
691.971; 3901.325;    0.000;    0.000
692.080; 3920.325;    0.000;    0.000
692.189; 3822.325;    0.000;    0.000
692.298; 3889.325;    0.000;    0.000
692.407; 3881.325;    0.000;    0.000
692.515; 3826.325;    0.000;    0.000
692.624; 3758.325;    0.000;    0.000
692.733; 3797.325;    0.000;    0.000
692.842; 3740.325;    0.000;    0.000
692.950; 3862.325;    0.000;    0.000
693.059; 3827.325;    0.000;    0.000
693.168; 3827.325;    0.000;    0.000
693.276; 3852.325;    0.000;    0.000
693.385; 3810.325;    0.000;    0.000
693.494; 3871.325;    0.000;    0.000
693.602; 3793.325;    0.000;    0.000
693.711; 3897.325;    0.000;    0.000
693.819; 3898.325;    0.000;    0.000
693.928; 3885.325;    0.000;    0.000
694.036; 3833.325;    0.000;    0.000
694.145; 3806.325;    0.000;    0.000
694.253; 3844.325;    0.000;    0.000
694.362; 3827.325;    0.000;    0.000
694.470; 3836.325;    0.000;    0.000
694.579; 3866.325;    0.000;    0.000
694.687; 3851.325;    0.000;    0.000
694.795; 3866.325;    0.000;    0.000
694.904; 3811.325;    0.000;    0.000
695.012; 3780.325;    0.000;    0.000
695.120; 3855.325;    0.000;    0.000
695.229; 3861.325;    0.000;    0.000
695.337; 3927.325;    0.000;    0.000
695.445; 3909.325;    0.000;    0.000
695.553; 3916.325;    0.000;    0.000
695.662; 3853.325;    0.000;    0.000
695.770; 3794.325;    0.000;    0.000
695.878; 3875.325;    0.000;    0.000
695.986; 3842.325;    0.000;    0.000
696.094; 3764.325;    0.000;    0.000
696.202; 3786.325;    0.000;    0.000
696.310; 3919.325;    0.000;    0.000
696.419; 3831.325;    0.000;    0.000
696.527; 3819.325;    0.000;    0.000
696.635; 3870.325;    0.000;    0.000
696.743; 3773.325;    0.000;    0.000
696.851; 3861.325;    0.000;    0.000
696.959; 3901.325;    0.000;    0.000
697.067; 3891.325;    0.000;    0.000
697.174; 3889.325;    0.000;    0.000
697.282; 3822.325;    0.000;    0.000
697.390; 3912.325;    0.000;    0.000
697.498; 3778.325;    0.000;    0.000
697.606; 3889.325;    0.000;    0.000
697.714; 3920.325;    0.000;    0.000
697.822; 3861.325;    0.000;    0.000
697.929; 3874.325;    0.000;    0.000
698.037; 3885.325;    0.000;    0.000
698.145; 3876.325;    0.000;    0.000
698.253; 3876.325;    0.000;    0.000
698.360; 3884.325;    0.000;    0.000
698.468; 3853.325;    0.000;    0.000
698.576; 3910.325;    0.000;    0.000
698.683; 3986.325;    0.000;    0.000
698.791; 3944.325;    0.000;    0.000
698.899; 3822.325;    0.000;    0.000
699.006; 3838.325;    0.000;    0.000
699.114; 3813.325;    0.000;    0.000
699.221; 3809.325;    0.000;    0.000
699.329; 4020.325;    0.000;    0.000
699.436; 3933.325;    0.000;    0.000
699.544; 3851.325;    0.000;    0.000
699.651; 3924.325;    0.000;    0.000
699.759; 3916.325;    0.000;    0.000
699.866; 3736.325;    0.000;    0.000
699.974; 3856.325;    0.000;    0.000
700.081; 3815.325;    0.000;    0.000
700.188; 3868.325;    0.000;    0.000
700.296; 3900.325;    0.000;    0.000
700.403; 3902.325;    0.000;    0.000
700.510; 3806.325;    0.000;    0.000
700.618; 3885.325;    0.000;    0.000
700.725; 3830.325;    0.000;    0.000
700.832; 3830.325;    0.000;    0.000
700.940; 3737.325;    0.000;    0.000
701.047; 3945.325;    0.000;    0.000
701.154; 3938.325;    0.000;    0.000
701.261; 3859.325;    0.000;    0.000
701.368; 3879.325;    0.000;    0.000
701.475; 3842.325;    0.000;    0.000
701.582; 3864.325;    0.000;    0.000
701.690; 3961.325;    0.000;    0.000
701.797; 3935.325;    0.000;    0.000
701.904; 4009.325;    0.000;    0.000
702.011; 4011.325;    0.000;    0.000
702.118; 3902.325;    0.000;    0.000
702.225; 3940.325;    0.000;    0.000
702.332; 3983.325;    0.000;    0.000
702.439; 3832.325;    0.000;    0.000
702.546; 3899.325;    0.000;    0.000
702.652; 3915.325;    0.000;    0.000
702.759; 3802.325;    0.000;    0.000
702.866; 3881.325;    0.000;    0.000
702.973; 3906.325;    0.000;    0.000
703.080; 3931.325;    0.000;    0.000
703.187; 3819.325;    0.000;    0.000
703.293; 3943.325;    0.000;    0.000
703.400; 3644.325;    0.000;    0.000
703.507;  695.325;    0.000;    0.000
703.614;  325.325;    0.000;    0.000
703.720;  329.325;    0.000;    0.000
703.827;  319.325;    0.000;    0.000
703.934;  336.325;    0.000;    0.000
704.040;  297.325;    0.000;    0.000
704.147;  334.325;    0.000;    0.000
704.254;  346.325;    0.000;    0.000
704.360;  301.325;    0.000;    0.000
704.467;  358.325;    0.000;    0.000
704.573;  322.325;    0.000;    0.000
704.680;  347.325;    0.000;    0.000
704.786;  325.325;    0.000;    0.000
704.893;  316.325;    0.000;    0.000
704.999;  303.325;    0.000;    0.000
705.106;  345.325;    0.000;    0.000

