
Integration time [ms]:   1.000
Averaging Nr. [scans]: 1
Smoothing Nr. [pixels]: 0
Data measured with spectrometer [name]: UV2
Wave   ;Sample   ;Dark     ;Reference
[nm]   ;[counts] ;[counts] ;[counts] 

353.533;  235.825;    0.000;    0.000
353.597;  221.825;    0.000;    0.000
353.660;  225.825;    0.000;    0.000
353.723;  201.825;    0.000;    0.000
353.786;  200.825;    0.000;    0.000
353.850;  257.825;    0.000;    0.000
353.913;  192.825;    0.000;    0.000
353.976;  224.825;    0.000;    0.000
354.039;  178.825;    0.000;    0.000
354.102;  224.825;    0.000;    0.000
354.166;  226.825;    0.000;    0.000
354.229;  230.825;    0.000;    0.000
354.292;  222.825;    0.000;    0.000
354.355;  195.825;    0.000;    0.000
354.418;  208.825;    0.000;    0.000
354.481;  209.825;    0.000;    0.000
354.545;  517.825;    0.000;    0.000
354.608;  507.825;    0.000;    0.000
354.671;  437.825;    0.000;    0.000
354.734;  440.825;    0.000;    0.000
354.797;  486.825;    0.000;    0.000
354.860;  472.825;    0.000;    0.000
354.923;  483.825;    0.000;    0.000
354.986;  444.825;    0.000;    0.000
355.050;  494.825;    0.000;    0.000
355.113;  497.825;    0.000;    0.000
355.176;  518.825;    0.000;    0.000
355.239;  495.825;    0.000;    0.000
355.302;  466.825;    0.000;    0.000
355.365;  551.825;    0.000;    0.000
355.428;  516.825;    0.000;    0.000
355.491;  547.825;    0.000;    0.000
355.554;  493.825;    0.000;    0.000
355.617;  475.825;    0.000;    0.000
355.680;  585.825;    0.000;    0.000
355.743;  522.825;    0.000;    0.000
355.806;  513.825;    0.000;    0.000
355.869;  588.825;    0.000;    0.000
355.932;  525.825;    0.000;    0.000
355.995;  516.825;    0.000;    0.000
356.058;  531.825;    0.000;    0.000
356.121;  574.825;    0.000;    0.000
356.184;  586.825;    0.000;    0.000
356.247;  506.825;    0.000;    0.000
356.310;  488.825;    0.000;    0.000
356.373;  593.825;    0.000;    0.000
356.436;  521.825;    0.000;    0.000
356.498;  541.825;    0.000;    0.000
356.561;  565.825;    0.000;    0.000
356.624;  530.825;    0.000;    0.000
356.687;  632.825;    0.000;    0.000
356.750;  534.825;    0.000;    0.000
356.813;  616.825;    0.000;    0.000
356.876;  558.825;    0.000;    0.000
356.939;  557.825;    0.000;    0.000
357.001;  612.825;    0.000;    0.000
357.064;  565.825;    0.000;    0.000
357.127;  548.825;    0.000;    0.000
357.190;  545.825;    0.000;    0.000
357.253;  546.825;    0.000;    0.000
357.316;  612.825;    0.000;    0.000
357.378;  582.825;    0.000;    0.000
357.441;  636.825;    0.000;    0.000
357.504;  580.825;    0.000;    0.000
357.567;  509.825;    0.000;    0.000
357.629;  646.825;    0.000;    0.000
357.692;  577.825;    0.000;    0.000
357.755;  628.825;    0.000;    0.000
357.818;  544.825;    0.000;    0.000
357.880;  646.825;    0.000;    0.000
357.943;  559.825;    0.000;    0.000
358.006;  552.825;    0.000;    0.000
358.069;  590.825;    0.000;    0.000
358.131;  528.825;    0.000;    0.000
358.194;  561.825;    0.000;    0.000
358.257;  601.825;    0.000;    0.000
358.319;  584.825;    0.000;    0.000
358.382;  583.825;    0.000;    0.000
358.445;  596.825;    0.000;    0.000
358.507;  574.825;    0.000;    0.000
358.570;  598.825;    0.000;    0.000
358.633;  632.825;    0.000;    0.000
358.695;  571.825;    0.000;    0.000
358.758;  636.825;    0.000;    0.000
358.821;  581.825;    0.000;    0.000
358.883;  571.825;    0.000;    0.000
358.946;  604.825;    0.000;    0.000
359.008;  637.825;    0.000;    0.000
359.071;  594.825;    0.000;    0.000
359.134;  562.825;    0.000;    0.000
359.196;  581.825;    0.000;    0.000
359.259;  596.825;    0.000;    0.000
359.321;  628.825;    0.000;    0.000
359.384;  631.825;    0.000;    0.000
359.446;  599.825;    0.000;    0.000
359.509;  604.825;    0.000;    0.000
359.571;  590.825;    0.000;    0.000
359.634;  572.825;    0.000;    0.000
359.696;  587.825;    0.000;    0.000
359.759;  617.825;    0.000;    0.000
359.821;  602.825;    0.000;    0.000
359.884;  613.825;    0.000;    0.000
359.946;  662.825;    0.000;    0.000
360.009;  571.825;    0.000;    0.000
360.071;  606.825;    0.000;    0.000
360.134;  693.825;    0.000;    0.000
360.196;  646.825;    0.000;    0.000
360.259;  635.825;    0.000;    0.000
360.321;  631.825;    0.000;    0.000
360.384;  655.825;    0.000;    0.000
360.446;  678.825;    0.000;    0.000
360.508;  677.825;    0.000;    0.000
360.571;  619.825;    0.000;    0.000
360.633;  617.825;    0.000;    0.000
360.696;  585.825;    0.000;    0.000
360.758;  561.825;    0.000;    0.000
360.820;  644.825;    0.000;    0.000
360.883;  623.825;    0.000;    0.000
360.945;  626.825;    0.000;    0.000
361.007;  640.825;    0.000;    0.000
361.070;  660.825;    0.000;    0.000
361.132;  648.825;    0.000;    0.000
361.194;  653.825;    0.000;    0.000
361.257;  617.825;    0.000;    0.000
361.319;  652.825;    0.000;    0.000
361.381;  666.825;    0.000;    0.000
361.443;  640.825;    0.000;    0.000
361.506;  664.825;    0.000;    0.000
361.568;  674.825;    0.000;    0.000
361.630;  694.825;    0.000;    0.000
361.693;  641.825;    0.000;    0.000
361.755;  690.825;    0.000;    0.000
361.817;  738.825;    0.000;    0.000
361.879;  725.825;    0.000;    0.000
361.941;  623.825;    0.000;    0.000
362.004;  648.825;    0.000;    0.000
362.066;  631.825;    0.000;    0.000
362.128;  669.825;    0.000;    0.000
362.190;  694.825;    0.000;    0.000
362.252;  717.825;    0.000;    0.000
362.315;  716.825;    0.000;    0.000
362.377;  631.825;    0.000;    0.000
362.439;  680.825;    0.000;    0.000
362.501;  653.825;    0.000;    0.000
362.563;  666.825;    0.000;    0.000
362.625;  690.825;    0.000;    0.000
362.688;  703.825;    0.000;    0.000
362.750;  716.825;    0.000;    0.000
362.812;  706.825;    0.000;    0.000
362.874;  707.825;    0.000;    0.000
362.936;  695.825;    0.000;    0.000
362.998;  693.825;    0.000;    0.000
363.060;  710.825;    0.000;    0.000
363.122;  683.825;    0.000;    0.000
363.184;  747.825;    0.000;    0.000
363.246;  699.825;    0.000;    0.000
363.308;  718.825;    0.000;    0.000
363.370;  685.825;    0.000;    0.000
363.432;  689.825;    0.000;    0.000
363.494;  697.825;    0.000;    0.000
363.556;  713.825;    0.000;    0.000
363.618;  697.825;    0.000;    0.000
363.680;  702.825;    0.000;    0.000
363.742;  742.825;    0.000;    0.000
363.804;  694.825;    0.000;    0.000
363.866;  778.825;    0.000;    0.000
363.928;  670.825;    0.000;    0.000
363.990;  741.825;    0.000;    0.000
364.052;  685.825;    0.000;    0.000
364.114;  705.825;    0.000;    0.000
364.176;  719.825;    0.000;    0.000
364.238;  775.825;    0.000;    0.000
364.300;  756.825;    0.000;    0.000
364.362;  708.825;    0.000;    0.000
364.424;  714.825;    0.000;    0.000
364.486;  731.825;    0.000;    0.000
364.548;  753.825;    0.000;    0.000
364.609;  754.825;    0.000;    0.000
364.671;  738.825;    0.000;    0.000
364.733;  693.825;    0.000;    0.000
364.795;  737.825;    0.000;    0.000
364.857;  752.825;    0.000;    0.000
364.919;  743.825;    0.000;    0.000
364.981;  683.825;    0.000;    0.000
365.042;  744.825;    0.000;    0.000
365.104;  756.825;    0.000;    0.000
365.166;  692.825;    0.000;    0.000
365.228;  787.825;    0.000;    0.000
365.290;  735.825;    0.000;    0.000
365.351;  720.825;    0.000;    0.000
365.413;  756.825;    0.000;    0.000
365.475;  736.825;    0.000;    0.000
365.537;  765.825;    0.000;    0.000
365.598;  785.825;    0.000;    0.000
365.660;  702.825;    0.000;    0.000
365.722;  748.825;    0.000;    0.000
365.784;  734.825;    0.000;    0.000
365.845;  768.825;    0.000;    0.000
365.907;  706.825;    0.000;    0.000
365.969;  731.825;    0.000;    0.000
366.030;  730.825;    0.000;    0.000
366.092;  735.825;    0.000;    0.000
366.154;  720.825;    0.000;    0.000
366.215;  801.825;    0.000;    0.000
366.277;  773.825;    0.000;    0.000
366.339;  781.825;    0.000;    0.000
366.400;  775.825;    0.000;    0.000
366.462;  716.825;    0.000;    0.000
366.524;  748.825;    0.000;    0.000
366.585;  744.825;    0.000;    0.000
366.647;  784.825;    0.000;    0.000
366.708;  755.825;    0.000;    0.000
366.770;  732.825;    0.000;    0.000
366.832;  808.825;    0.000;    0.000
366.893;  782.825;    0.000;    0.000
366.955;  754.825;    0.000;    0.000
367.016;  757.825;    0.000;    0.000
367.078;  734.825;    0.000;    0.000
367.139;  776.825;    0.000;    0.000
367.201;  705.825;    0.000;    0.000
367.262;  801.825;    0.000;    0.000
367.324;  762.825;    0.000;    0.000
367.385;  745.825;    0.000;    0.000
367.447;  794.825;    0.000;    0.000
367.508;  788.825;    0.000;    0.000
367.570;  780.825;    0.000;    0.000
367.631;  785.825;    0.000;    0.000
367.693;  862.825;    0.000;    0.000
367.754;  765.825;    0.000;    0.000
367.816;  798.825;    0.000;    0.000
367.877;  830.825;    0.000;    0.000
367.939;  800.825;    0.000;    0.000
368.000;  779.825;    0.000;    0.000
368.062;  748.825;    0.000;    0.000
368.123;  819.825;    0.000;    0.000
368.184;  819.825;    0.000;    0.000
368.246;  734.825;    0.000;    0.000
368.307;  797.825;    0.000;    0.000
368.369;  738.825;    0.000;    0.000
368.430;  767.825;    0.000;    0.000
368.491;  809.825;    0.000;    0.000
368.553;  831.825;    0.000;    0.000
368.614;  756.825;    0.000;    0.000
368.675;  793.825;    0.000;    0.000
368.737;  791.825;    0.000;    0.000
368.798;  844.825;    0.000;    0.000
368.859;  825.825;    0.000;    0.000
368.921;  822.825;    0.000;    0.000
368.982;  800.825;    0.000;    0.000
369.043;  825.825;    0.000;    0.000
369.104;  806.825;    0.000;    0.000
369.166;  864.825;    0.000;    0.000
369.227;  827.825;    0.000;    0.000
369.288;  818.825;    0.000;    0.000
369.349;  834.825;    0.000;    0.000
369.411;  825.825;    0.000;    0.000
369.472;  844.825;    0.000;    0.000
369.533;  819.825;    0.000;    0.000
369.594;  849.825;    0.000;    0.000
369.656;  829.825;    0.000;    0.000
369.717;  826.825;    0.000;    0.000
369.778;  846.825;    0.000;    0.000
369.839;  867.825;    0.000;    0.000
369.900;  874.825;    0.000;    0.000
369.961;  820.825;    0.000;    0.000
370.023;  871.825;    0.000;    0.000
370.084;  827.825;    0.000;    0.000
370.145;  799.825;    0.000;    0.000
370.206;  835.825;    0.000;    0.000
370.267;  838.825;    0.000;    0.000
370.328;  855.825;    0.000;    0.000
370.389;  819.825;    0.000;    0.000
370.451;  827.825;    0.000;    0.000
370.512;  827.825;    0.000;    0.000
370.573;  821.825;    0.000;    0.000
370.634;  815.825;    0.000;    0.000
370.695;  817.825;    0.000;    0.000
370.756;  889.825;    0.000;    0.000
370.817;  853.825;    0.000;    0.000
370.878;  814.825;    0.000;    0.000
370.939;  855.825;    0.000;    0.000
371.000;  882.825;    0.000;    0.000
371.061;  902.825;    0.000;    0.000
371.122;  876.825;    0.000;    0.000
371.183;  829.825;    0.000;    0.000
371.244;  859.825;    0.000;    0.000
371.305;  797.825;    0.000;    0.000
371.366;  883.825;    0.000;    0.000
371.427;  854.825;    0.000;    0.000
371.488;  888.825;    0.000;    0.000
371.549;  871.825;    0.000;    0.000
371.610;  878.825;    0.000;    0.000
371.671;  843.825;    0.000;    0.000
371.732;  935.825;    0.000;    0.000
371.793;  842.825;    0.000;    0.000
371.853;  923.825;    0.000;    0.000
371.914;  861.825;    0.000;    0.000
371.975;  827.825;    0.000;    0.000
372.036;  833.825;    0.000;    0.000
372.097;  859.825;    0.000;    0.000
372.158;  929.825;    0.000;    0.000
372.219;  892.825;    0.000;    0.000
372.280;  869.825;    0.000;    0.000
372.340;  912.825;    0.000;    0.000
372.401;  899.825;    0.000;    0.000
372.462;  824.825;    0.000;    0.000
372.523;  868.825;    0.000;    0.000
372.584;  914.825;    0.000;    0.000
372.645;  874.825;    0.000;    0.000
372.705;  909.825;    0.000;    0.000
372.766;  898.825;    0.000;    0.000
372.827;  898.825;    0.000;    0.000
372.888;  927.825;    0.000;    0.000
372.948;  875.825;    0.000;    0.000
373.009;  892.825;    0.000;    0.000
373.070;  907.825;    0.000;    0.000
373.131;  871.825;    0.000;    0.000
373.191;  947.825;    0.000;    0.000
373.252;  925.825;    0.000;    0.000
373.313;  946.825;    0.000;    0.000
373.373;  861.825;    0.000;    0.000
373.434;  909.825;    0.000;    0.000
373.495;  905.825;    0.000;    0.000
373.555;  874.825;    0.000;    0.000
373.616;  917.825;    0.000;    0.000
373.677;  874.825;    0.000;    0.000
373.737;  956.825;    0.000;    0.000
373.798;  906.825;    0.000;    0.000
373.859;  939.825;    0.000;    0.000
373.919;  978.825;    0.000;    0.000
373.980;  929.825;    0.000;    0.000
374.041;  922.825;    0.000;    0.000
374.101;  911.825;    0.000;    0.000
374.162;  983.825;    0.000;    0.000
374.222;  965.825;    0.000;    0.000
374.283;  918.825;    0.000;    0.000
374.343; 1001.825;    0.000;    0.000
374.404;  955.825;    0.000;    0.000
374.465;  983.825;    0.000;    0.000
374.525;  932.825;    0.000;    0.000
374.586;  965.825;    0.000;    0.000
374.646; 1026.825;    0.000;    0.000
374.707;  977.825;    0.000;    0.000
374.767;  935.825;    0.000;    0.000
374.828;  984.825;    0.000;    0.000
374.888; 1040.825;    0.000;    0.000
374.949;  963.825;    0.000;    0.000
375.009;  952.825;    0.000;    0.000
375.070;  961.825;    0.000;    0.000
375.130;  948.825;    0.000;    0.000
375.190;  986.825;    0.000;    0.000
375.251;  973.825;    0.000;    0.000
375.311;  980.825;    0.000;    0.000
375.372;  942.825;    0.000;    0.000
375.432; 1014.825;    0.000;    0.000
375.493;  977.825;    0.000;    0.000
375.553;  936.825;    0.000;    0.000
375.613; 1034.825;    0.000;    0.000
375.674;  913.825;    0.000;    0.000
375.734;  977.825;    0.000;    0.000
375.794; 1010.825;    0.000;    0.000
375.855;  966.825;    0.000;    0.000
375.915; 1005.825;    0.000;    0.000
375.975;  974.825;    0.000;    0.000
376.036; 1002.825;    0.000;    0.000
376.096;  969.825;    0.000;    0.000
376.156; 1005.825;    0.000;    0.000
376.217; 1018.825;    0.000;    0.000
376.277; 1051.825;    0.000;    0.000
376.337; 1071.825;    0.000;    0.000
376.398; 1002.825;    0.000;    0.000
376.458; 1012.825;    0.000;    0.000
376.518; 1037.825;    0.000;    0.000
376.578; 1047.825;    0.000;    0.000
376.639;  987.825;    0.000;    0.000
376.699; 1043.825;    0.000;    0.000
376.759; 1052.825;    0.000;    0.000
376.819; 1082.825;    0.000;    0.000
376.880; 1029.825;    0.000;    0.000
376.940; 1071.825;    0.000;    0.000
377.000; 1031.825;    0.000;    0.000
377.060; 1062.825;    0.000;    0.000
377.120; 1027.825;    0.000;    0.000
377.180; 1060.825;    0.000;    0.000
377.241; 1011.825;    0.000;    0.000
377.301; 1095.825;    0.000;    0.000
377.361; 1015.825;    0.000;    0.000
377.421; 1099.825;    0.000;    0.000
377.481; 1104.825;    0.000;    0.000
377.541; 1055.825;    0.000;    0.000
377.601; 1101.825;    0.000;    0.000
377.661; 1089.825;    0.000;    0.000
377.722; 1091.825;    0.000;    0.000
377.782; 1044.825;    0.000;    0.000
377.842; 1057.825;    0.000;    0.000
377.902; 1034.825;    0.000;    0.000
377.962; 1068.825;    0.000;    0.000
378.022; 1101.825;    0.000;    0.000
378.082; 1160.825;    0.000;    0.000
378.142; 1146.825;    0.000;    0.000
378.202; 1193.825;    0.000;    0.000
378.262; 1124.825;    0.000;    0.000
378.322; 1146.825;    0.000;    0.000
378.382; 1080.825;    0.000;    0.000
378.442; 1147.825;    0.000;    0.000
378.502; 1064.825;    0.000;    0.000
378.562; 1098.825;    0.000;    0.000
378.622; 1127.825;    0.000;    0.000
378.682; 1136.825;    0.000;    0.000
378.742; 1203.825;    0.000;    0.000
378.802; 1060.825;    0.000;    0.000
378.862; 1191.825;    0.000;    0.000
378.921; 1285.825;    0.000;    0.000
378.981; 1254.825;    0.000;    0.000
379.041; 1147.825;    0.000;    0.000
379.101; 1206.825;    0.000;    0.000
379.161; 1207.825;    0.000;    0.000
379.221; 1214.825;    0.000;    0.000
379.281; 1183.825;    0.000;    0.000
379.341; 1203.825;    0.000;    0.000
379.401; 1173.825;    0.000;    0.000
379.460; 1185.825;    0.000;    0.000
379.520; 1207.825;    0.000;    0.000
379.580; 1207.825;    0.000;    0.000
379.640; 1227.825;    0.000;    0.000
379.700; 1230.825;    0.000;    0.000
379.759; 1316.825;    0.000;    0.000
379.819; 1221.825;    0.000;    0.000
379.879; 1261.825;    0.000;    0.000
379.939; 1307.825;    0.000;    0.000
379.999; 1211.825;    0.000;    0.000
380.058; 1290.825;    0.000;    0.000
380.118; 1252.825;    0.000;    0.000
380.178; 1312.825;    0.000;    0.000
380.237; 1285.825;    0.000;    0.000
380.297; 1321.825;    0.000;    0.000
380.357; 1327.825;    0.000;    0.000
380.417; 1356.825;    0.000;    0.000
380.476; 1294.825;    0.000;    0.000
380.536; 1318.825;    0.000;    0.000
380.596; 1302.825;    0.000;    0.000
380.655; 1307.825;    0.000;    0.000
380.715; 1332.825;    0.000;    0.000
380.775; 1333.825;    0.000;    0.000
380.834; 1347.825;    0.000;    0.000
380.894; 1385.825;    0.000;    0.000
380.954; 1341.825;    0.000;    0.000
381.013; 1374.825;    0.000;    0.000
381.073; 1352.825;    0.000;    0.000
381.132; 1409.825;    0.000;    0.000
381.192; 1396.825;    0.000;    0.000
381.252; 1416.825;    0.000;    0.000
381.311; 1437.825;    0.000;    0.000
381.371; 1420.825;    0.000;    0.000
381.430; 1424.825;    0.000;    0.000
381.490; 1432.825;    0.000;    0.000
381.549; 1488.825;    0.000;    0.000
381.609; 1454.825;    0.000;    0.000
381.668; 1460.825;    0.000;    0.000
381.728; 1470.825;    0.000;    0.000
381.787; 1460.825;    0.000;    0.000
381.847; 1454.825;    0.000;    0.000
381.906; 1497.825;    0.000;    0.000
381.966; 1602.825;    0.000;    0.000
382.025; 1533.825;    0.000;    0.000
382.085; 1532.825;    0.000;    0.000
382.144; 1627.825;    0.000;    0.000
382.204; 1554.825;    0.000;    0.000
382.263; 1651.825;    0.000;    0.000
382.323; 1710.825;    0.000;    0.000
382.382; 1698.825;    0.000;    0.000
382.441; 1739.825;    0.000;    0.000
382.501; 1773.825;    0.000;    0.000
382.560; 1883.825;    0.000;    0.000
382.619; 1835.825;    0.000;    0.000
382.679; 1915.825;    0.000;    0.000
382.738; 2107.825;    0.000;    0.000
382.798; 2166.825;    0.000;    0.000
382.857; 2423.825;    0.000;    0.000
382.916; 2565.825;    0.000;    0.000
382.976; 2463.825;    0.000;    0.000
383.035; 2481.825;    0.000;    0.000
383.094; 2593.825;    0.000;    0.000
383.154; 2853.825;    0.000;    0.000
383.213; 2880.825;    0.000;    0.000
383.272; 2713.825;    0.000;    0.000
383.331; 2480.825;    0.000;    0.000
383.391; 2514.825;    0.000;    0.000
383.450; 2314.825;    0.000;    0.000
383.509; 2336.825;    0.000;    0.000
383.568; 2448.825;    0.000;    0.000
383.628; 2562.825;    0.000;    0.000
383.687; 2775.825;    0.000;    0.000
383.746; 2971.825;    0.000;    0.000
383.805; 3084.825;    0.000;    0.000
383.864; 2950.825;    0.000;    0.000
383.924; 2583.825;    0.000;    0.000
383.983; 2265.825;    0.000;    0.000
384.042; 2103.825;    0.000;    0.000
384.101; 2006.825;    0.000;    0.000
384.160; 1919.825;    0.000;    0.000
384.219; 1817.825;    0.000;    0.000
384.279; 1774.825;    0.000;    0.000
384.338; 1725.825;    0.000;    0.000
384.397; 1715.825;    0.000;    0.000
384.456; 1673.825;    0.000;    0.000
384.515; 1662.825;    0.000;    0.000
384.574; 1671.825;    0.000;    0.000
384.633; 1590.825;    0.000;    0.000
384.692; 1593.825;    0.000;    0.000
384.751; 1584.825;    0.000;    0.000
384.810; 1627.825;    0.000;    0.000
384.869; 1557.825;    0.000;    0.000
384.929; 1575.825;    0.000;    0.000
384.988; 1620.825;    0.000;    0.000
385.047; 1556.825;    0.000;    0.000
385.106; 1513.825;    0.000;    0.000
385.165; 1526.825;    0.000;    0.000
385.224; 1515.825;    0.000;    0.000
385.283; 1530.825;    0.000;    0.000
385.342; 1470.825;    0.000;    0.000
385.401; 1546.825;    0.000;    0.000
385.459; 1505.825;    0.000;    0.000
385.518; 1561.825;    0.000;    0.000
385.577; 1555.825;    0.000;    0.000
385.636; 1561.825;    0.000;    0.000
385.695; 1557.825;    0.000;    0.000
385.754; 1496.825;    0.000;    0.000
385.813; 1464.825;    0.000;    0.000
385.872; 1531.825;    0.000;    0.000
385.931; 1592.825;    0.000;    0.000
385.990; 1512.825;    0.000;    0.000
386.049; 1560.825;    0.000;    0.000
386.107; 1494.825;    0.000;    0.000
386.166; 1499.825;    0.000;    0.000
386.225; 1532.825;    0.000;    0.000
386.284; 1516.825;    0.000;    0.000
386.343; 1546.825;    0.000;    0.000
386.402; 1509.825;    0.000;    0.000
386.460; 1513.825;    0.000;    0.000
386.519; 1476.825;    0.000;    0.000
386.578; 1448.825;    0.000;    0.000
386.637; 1515.825;    0.000;    0.000
386.696; 1526.825;    0.000;    0.000
386.754; 1484.825;    0.000;    0.000
386.813; 1464.825;    0.000;    0.000
386.872; 1458.825;    0.000;    0.000
386.931; 1487.825;    0.000;    0.000
386.989; 1507.825;    0.000;    0.000
387.048; 1488.825;    0.000;    0.000
387.107; 1486.825;    0.000;    0.000
387.165; 1409.825;    0.000;    0.000
387.224; 1375.825;    0.000;    0.000
387.283; 1543.825;    0.000;    0.000
387.342; 1528.825;    0.000;    0.000
387.400; 1489.825;    0.000;    0.000
387.459; 1404.825;    0.000;    0.000
387.517; 1519.825;    0.000;    0.000
387.576; 1441.825;    0.000;    0.000
387.635; 1422.825;    0.000;    0.000
387.693; 1466.825;    0.000;    0.000
387.752; 1370.825;    0.000;    0.000
387.811; 1437.825;    0.000;    0.000
387.869; 1406.825;    0.000;    0.000
387.928; 1453.825;    0.000;    0.000
387.986; 1389.825;    0.000;    0.000
388.045; 1403.825;    0.000;    0.000
388.103; 1432.825;    0.000;    0.000
388.162; 1447.825;    0.000;    0.000
388.221; 1404.825;    0.000;    0.000
388.279; 1380.825;    0.000;    0.000
388.338; 1497.825;    0.000;    0.000
388.396; 1386.825;    0.000;    0.000
388.455; 1421.825;    0.000;    0.000
388.513; 1364.825;    0.000;    0.000
388.572; 1406.825;    0.000;    0.000
388.630; 1358.825;    0.000;    0.000
388.689; 1445.825;    0.000;    0.000
388.747; 1396.825;    0.000;    0.000
388.806; 1344.825;    0.000;    0.000
388.864; 1371.825;    0.000;    0.000
388.922; 1421.825;    0.000;    0.000
388.981; 1410.825;    0.000;    0.000
389.039; 1392.825;    0.000;    0.000
389.098; 1428.825;    0.000;    0.000
389.156; 1431.825;    0.000;    0.000
389.214; 1408.825;    0.000;    0.000
389.273; 1515.825;    0.000;    0.000
389.331; 1406.825;    0.000;    0.000
389.390; 1370.825;    0.000;    0.000
389.448; 1381.825;    0.000;    0.000
389.506; 1356.825;    0.000;    0.000
389.565; 1451.825;    0.000;    0.000
389.623; 1425.825;    0.000;    0.000
389.681; 1417.825;    0.000;    0.000
389.740; 1446.825;    0.000;    0.000
389.798; 1366.825;    0.000;    0.000
389.856; 1419.825;    0.000;    0.000
389.914; 1432.825;    0.000;    0.000
389.973; 1394.825;    0.000;    0.000
390.031; 1401.825;    0.000;    0.000
390.089; 1385.825;    0.000;    0.000
390.147; 1365.825;    0.000;    0.000
390.206; 1434.825;    0.000;    0.000
390.264; 1421.825;    0.000;    0.000
390.322; 1400.825;    0.000;    0.000
390.380; 1382.825;    0.000;    0.000
390.439; 1366.825;    0.000;    0.000
390.497; 1411.825;    0.000;    0.000
390.555; 1380.825;    0.000;    0.000
390.613; 1442.825;    0.000;    0.000
390.671; 1421.825;    0.000;    0.000
390.729; 1385.825;    0.000;    0.000
390.788; 1349.825;    0.000;    0.000
390.846; 1354.825;    0.000;    0.000
390.904; 1419.825;    0.000;    0.000
390.962; 1386.825;    0.000;    0.000
391.020; 1438.825;    0.000;    0.000
391.078; 1416.825;    0.000;    0.000
391.136; 1377.825;    0.000;    0.000
391.194; 1341.825;    0.000;    0.000
391.253; 1451.825;    0.000;    0.000
391.311; 1365.825;    0.000;    0.000
391.369; 1394.825;    0.000;    0.000
391.427; 1456.825;    0.000;    0.000
391.485; 1380.825;    0.000;    0.000
391.543; 1415.825;    0.000;    0.000
391.601; 1362.825;    0.000;    0.000
391.659; 1363.825;    0.000;    0.000
391.717; 1368.825;    0.000;    0.000
391.775; 1436.825;    0.000;    0.000
391.833; 1401.825;    0.000;    0.000
391.891; 1379.825;    0.000;    0.000
391.949; 1389.825;    0.000;    0.000
392.007; 1350.825;    0.000;    0.000
392.065; 1388.825;    0.000;    0.000
392.123; 1376.825;    0.000;    0.000
392.180; 1353.825;    0.000;    0.000
392.238; 1440.825;    0.000;    0.000
392.296; 1351.825;    0.000;    0.000
392.354; 1308.825;    0.000;    0.000
392.412; 1416.825;    0.000;    0.000
392.470; 1340.825;    0.000;    0.000
392.528; 1384.825;    0.000;    0.000
392.586; 1375.825;    0.000;    0.000
392.644; 1428.825;    0.000;    0.000
392.701; 1360.825;    0.000;    0.000
392.759; 1482.825;    0.000;    0.000
392.817; 1370.825;    0.000;    0.000
392.875; 1337.825;    0.000;    0.000
392.933; 1368.825;    0.000;    0.000
392.991; 1456.825;    0.000;    0.000
393.048; 1393.825;    0.000;    0.000
393.106; 1425.825;    0.000;    0.000
393.164; 1392.825;    0.000;    0.000
393.222; 1406.825;    0.000;    0.000
393.279; 1472.825;    0.000;    0.000
393.337; 1416.825;    0.000;    0.000
393.395; 1402.825;    0.000;    0.000
393.453; 1380.825;    0.000;    0.000
393.510; 1375.825;    0.000;    0.000
393.568; 1400.825;    0.000;    0.000
393.626; 1370.825;    0.000;    0.000
393.684; 1431.825;    0.000;    0.000
393.741; 1392.825;    0.000;    0.000
393.799; 1459.825;    0.000;    0.000
393.857; 1376.825;    0.000;    0.000
393.914; 1375.825;    0.000;    0.000
393.972; 1355.825;    0.000;    0.000
394.030; 1382.825;    0.000;    0.000
394.087; 1413.825;    0.000;    0.000
394.145; 1394.825;    0.000;    0.000
394.202; 1413.825;    0.000;    0.000
394.260; 1409.825;    0.000;    0.000
394.318; 1439.825;    0.000;    0.000
394.375; 1466.825;    0.000;    0.000
394.433; 1407.825;    0.000;    0.000
394.490; 1336.825;    0.000;    0.000
394.548; 1426.825;    0.000;    0.000
394.605; 1455.825;    0.000;    0.000
394.663; 1447.825;    0.000;    0.000
394.720; 1431.825;    0.000;    0.000
394.778; 1444.825;    0.000;    0.000
394.836; 1397.825;    0.000;    0.000
394.893; 1365.825;    0.000;    0.000
394.951; 1451.825;    0.000;    0.000
395.008; 1443.825;    0.000;    0.000
395.065; 1430.825;    0.000;    0.000
395.123; 1392.825;    0.000;    0.000
395.180; 1444.825;    0.000;    0.000
395.238; 1455.825;    0.000;    0.000
395.295; 1421.825;    0.000;    0.000
395.353; 1441.825;    0.000;    0.000
395.410; 1394.825;    0.000;    0.000
395.468; 1468.825;    0.000;    0.000
395.525; 1439.825;    0.000;    0.000
395.582; 1434.825;    0.000;    0.000
395.640; 1504.825;    0.000;    0.000
395.697; 1485.825;    0.000;    0.000
395.754; 1392.825;    0.000;    0.000
395.812; 1375.825;    0.000;    0.000
395.869; 1467.825;    0.000;    0.000
395.927; 1436.825;    0.000;    0.000
395.984; 1490.825;    0.000;    0.000
396.041; 1412.825;    0.000;    0.000
396.098; 1493.825;    0.000;    0.000
396.156; 1473.825;    0.000;    0.000
396.213; 1496.825;    0.000;    0.000
396.270; 1549.825;    0.000;    0.000
396.328; 1496.825;    0.000;    0.000
396.385; 1492.825;    0.000;    0.000
396.442; 1460.825;    0.000;    0.000
396.499; 1446.825;    0.000;    0.000
396.557; 1454.825;    0.000;    0.000
396.614; 1466.825;    0.000;    0.000
396.671; 1506.825;    0.000;    0.000
396.728; 1506.825;    0.000;    0.000
396.785; 1497.825;    0.000;    0.000
396.843; 1495.825;    0.000;    0.000
396.900; 1471.825;    0.000;    0.000
396.957; 1477.825;    0.000;    0.000
397.014; 1533.825;    0.000;    0.000
397.071; 1504.825;    0.000;    0.000
397.128; 1505.825;    0.000;    0.000
397.186; 1523.825;    0.000;    0.000
397.243; 1526.825;    0.000;    0.000
397.300; 1516.825;    0.000;    0.000
397.357; 1502.825;    0.000;    0.000
397.414; 1560.825;    0.000;    0.000
397.471; 1467.825;    0.000;    0.000
397.528; 1479.825;    0.000;    0.000
397.585; 1514.825;    0.000;    0.000
397.642; 1467.825;    0.000;    0.000
397.699; 1586.825;    0.000;    0.000
397.756; 1517.825;    0.000;    0.000
397.814; 1581.825;    0.000;    0.000
397.871; 1541.825;    0.000;    0.000
397.928; 1535.825;    0.000;    0.000
397.985; 1519.825;    0.000;    0.000
398.042; 1540.825;    0.000;    0.000
398.099; 1558.825;    0.000;    0.000
398.156; 1530.825;    0.000;    0.000
398.212; 1539.825;    0.000;    0.000
398.269; 1525.825;    0.000;    0.000
398.326; 1520.825;    0.000;    0.000
398.383; 1487.825;    0.000;    0.000
398.440; 1533.825;    0.000;    0.000
398.497; 1537.825;    0.000;    0.000
398.554; 1578.825;    0.000;    0.000
398.611; 1506.825;    0.000;    0.000
398.668; 1525.825;    0.000;    0.000
398.725; 1604.825;    0.000;    0.000
398.782; 1566.825;    0.000;    0.000
398.839; 1629.825;    0.000;    0.000
398.895; 1539.825;    0.000;    0.000
398.952; 1630.825;    0.000;    0.000
399.009; 1584.825;    0.000;    0.000
399.066; 1561.825;    0.000;    0.000
399.123; 1576.825;    0.000;    0.000
399.180; 1589.825;    0.000;    0.000
399.236; 1609.825;    0.000;    0.000
399.293; 1574.825;    0.000;    0.000
399.350; 1562.825;    0.000;    0.000
399.407; 1606.825;    0.000;    0.000
399.463; 1600.825;    0.000;    0.000
399.520; 1592.825;    0.000;    0.000
399.577; 1649.825;    0.000;    0.000
399.634; 1635.825;    0.000;    0.000
399.690; 1603.825;    0.000;    0.000
399.747; 1710.825;    0.000;    0.000
399.804; 1658.825;    0.000;    0.000
399.861; 1664.825;    0.000;    0.000
399.917; 1719.825;    0.000;    0.000
399.974; 1633.825;    0.000;    0.000
400.031; 1639.825;    0.000;    0.000
400.087; 1571.825;    0.000;    0.000
400.144; 1708.825;    0.000;    0.000
400.201; 1651.825;    0.000;    0.000
400.257; 1658.825;    0.000;    0.000
400.314; 1637.825;    0.000;    0.000
400.370; 1669.825;    0.000;    0.000
400.427; 1682.825;    0.000;    0.000
400.484; 1635.825;    0.000;    0.000
400.540; 1665.825;    0.000;    0.000
400.597; 1596.825;    0.000;    0.000
400.653; 1596.825;    0.000;    0.000
400.710; 1677.825;    0.000;    0.000
400.766; 1681.825;    0.000;    0.000
400.823; 1556.825;    0.000;    0.000
400.879; 1656.825;    0.000;    0.000
400.936; 1628.825;    0.000;    0.000
400.993; 1628.825;    0.000;    0.000
401.049; 1638.825;    0.000;    0.000
401.105; 1680.825;    0.000;    0.000
401.162; 1646.825;    0.000;    0.000
401.218; 1648.825;    0.000;    0.000
401.275; 1640.825;    0.000;    0.000
401.331; 1651.825;    0.000;    0.000
401.388; 1642.825;    0.000;    0.000
401.444; 1679.825;    0.000;    0.000
401.501; 1634.825;    0.000;    0.000
401.557; 1610.825;    0.000;    0.000
401.614; 1633.825;    0.000;    0.000
401.670; 1635.825;    0.000;    0.000
401.726; 1605.825;    0.000;    0.000
401.783; 1547.825;    0.000;    0.000
401.839; 1645.825;    0.000;    0.000
401.895; 1660.825;    0.000;    0.000
401.952; 1611.825;    0.000;    0.000
402.008; 1630.825;    0.000;    0.000
402.064; 1639.825;    0.000;    0.000
402.121; 1662.825;    0.000;    0.000
402.177; 1610.825;    0.000;    0.000
402.233; 1651.825;    0.000;    0.000
402.290; 1657.825;    0.000;    0.000
402.346; 1703.825;    0.000;    0.000
402.402; 1653.825;    0.000;    0.000
402.458; 1637.825;    0.000;    0.000
402.515; 1727.825;    0.000;    0.000
402.571; 1702.825;    0.000;    0.000
402.627; 1653.825;    0.000;    0.000
402.683; 1660.825;    0.000;    0.000
402.740; 1554.825;    0.000;    0.000
402.796; 1643.825;    0.000;    0.000
402.852; 1721.825;    0.000;    0.000
402.908; 1658.825;    0.000;    0.000
402.964; 1592.825;    0.000;    0.000
403.021; 1685.825;    0.000;    0.000
403.077; 1713.825;    0.000;    0.000
403.133; 1638.825;    0.000;    0.000
403.189; 1667.825;    0.000;    0.000
403.245; 1708.825;    0.000;    0.000
403.301; 1772.825;    0.000;    0.000
403.357; 1778.825;    0.000;    0.000
403.414; 1763.825;    0.000;    0.000
403.470; 1711.825;    0.000;    0.000
403.526; 1704.825;    0.000;    0.000
403.582; 1690.825;    0.000;    0.000
403.638; 1741.825;    0.000;    0.000
403.694; 1691.825;    0.000;    0.000
403.750; 1671.825;    0.000;    0.000
403.806; 1780.825;    0.000;    0.000
403.862; 1823.825;    0.000;    0.000
403.918; 1756.825;    0.000;    0.000
403.974; 1731.825;    0.000;    0.000
404.030; 1717.825;    0.000;    0.000
404.086; 1666.825;    0.000;    0.000
404.142; 1751.825;    0.000;    0.000
404.198; 1700.825;    0.000;    0.000
404.254; 1771.825;    0.000;    0.000
404.310; 1736.825;    0.000;    0.000
404.366; 1673.825;    0.000;    0.000
404.422; 1737.825;    0.000;    0.000
404.478; 1722.825;    0.000;    0.000
404.534; 1701.825;    0.000;    0.000
404.590; 1698.825;    0.000;    0.000
404.646; 1748.825;    0.000;    0.000
404.701; 1796.825;    0.000;    0.000
404.757; 1745.825;    0.000;    0.000
404.813; 1690.825;    0.000;    0.000
404.869; 1749.825;    0.000;    0.000
404.925; 1712.825;    0.000;    0.000
404.981; 1766.825;    0.000;    0.000
405.037; 1770.825;    0.000;    0.000
405.092; 1759.825;    0.000;    0.000
405.148; 1716.825;    0.000;    0.000
405.204; 1732.825;    0.000;    0.000
405.260; 1769.825;    0.000;    0.000
405.316; 1809.825;    0.000;    0.000
405.371; 1711.825;    0.000;    0.000
405.427; 1766.825;    0.000;    0.000
405.483; 1770.825;    0.000;    0.000
405.539; 1720.825;    0.000;    0.000
405.594; 1806.825;    0.000;    0.000
405.650; 1761.825;    0.000;    0.000
405.706; 1745.825;    0.000;    0.000
405.761; 1799.825;    0.000;    0.000
405.817; 1796.825;    0.000;    0.000
405.873; 1769.825;    0.000;    0.000
405.928; 1814.825;    0.000;    0.000
405.984; 1872.825;    0.000;    0.000
406.040; 1809.825;    0.000;    0.000
406.095; 1794.825;    0.000;    0.000
406.151; 1750.825;    0.000;    0.000
406.207; 1835.825;    0.000;    0.000
406.262; 1744.825;    0.000;    0.000
406.318; 1792.825;    0.000;    0.000
406.374; 1785.825;    0.000;    0.000
406.429; 1841.825;    0.000;    0.000
406.485; 1917.825;    0.000;    0.000
406.540; 1794.825;    0.000;    0.000
406.596; 1864.825;    0.000;    0.000
406.651; 1940.825;    0.000;    0.000
406.707; 1812.825;    0.000;    0.000
406.763; 1864.825;    0.000;    0.000
406.818; 1875.825;    0.000;    0.000
406.874; 1836.825;    0.000;    0.000
406.929; 1898.825;    0.000;    0.000
406.985; 1906.825;    0.000;    0.000
407.040; 1890.825;    0.000;    0.000
407.095; 1867.825;    0.000;    0.000
407.151; 1910.825;    0.000;    0.000
407.206; 1935.825;    0.000;    0.000
407.262; 1907.825;    0.000;    0.000
407.317; 1947.825;    0.000;    0.000
407.373; 1913.825;    0.000;    0.000
407.428; 1921.825;    0.000;    0.000
407.484; 1969.825;    0.000;    0.000
407.539; 1877.825;    0.000;    0.000
407.594; 1961.825;    0.000;    0.000
407.650; 1922.825;    0.000;    0.000
407.705; 1898.825;    0.000;    0.000
407.760; 1940.825;    0.000;    0.000
407.816; 1982.825;    0.000;    0.000
407.871; 2010.825;    0.000;    0.000
407.926; 1965.825;    0.000;    0.000
407.982; 1963.825;    0.000;    0.000
408.037; 1932.825;    0.000;    0.000
408.092; 1963.825;    0.000;    0.000
408.148; 1877.825;    0.000;    0.000
408.203; 2038.825;    0.000;    0.000
408.258; 1897.825;    0.000;    0.000
408.314; 1954.825;    0.000;    0.000
408.369; 1875.825;    0.000;    0.000
408.424; 2002.825;    0.000;    0.000
408.479; 1903.825;    0.000;    0.000
408.534; 1966.825;    0.000;    0.000
408.590; 1981.825;    0.000;    0.000
408.645; 1977.825;    0.000;    0.000
408.700; 1941.825;    0.000;    0.000
408.755; 2007.825;    0.000;    0.000
408.810; 1915.825;    0.000;    0.000
408.866; 1984.825;    0.000;    0.000
408.921; 1964.825;    0.000;    0.000
408.976; 1922.825;    0.000;    0.000
409.031; 1959.825;    0.000;    0.000
409.086; 1919.825;    0.000;    0.000
409.141; 2002.825;    0.000;    0.000
409.196; 1998.825;    0.000;    0.000
409.252; 1965.825;    0.000;    0.000
409.307; 1933.825;    0.000;    0.000
409.362; 1893.825;    0.000;    0.000
409.417; 1917.825;    0.000;    0.000
409.472; 1977.825;    0.000;    0.000
409.527; 1976.825;    0.000;    0.000
409.582; 1998.825;    0.000;    0.000
409.637; 1896.825;    0.000;    0.000
409.692; 1962.825;    0.000;    0.000
409.747; 1902.825;    0.000;    0.000
409.802; 1996.825;    0.000;    0.000
409.857; 1997.825;    0.000;    0.000
409.912; 2000.825;    0.000;    0.000
409.967; 1925.825;    0.000;    0.000
410.022; 2013.825;    0.000;    0.000
410.077; 1982.825;    0.000;    0.000
410.132; 1924.825;    0.000;    0.000
410.187; 1994.825;    0.000;    0.000
410.242; 2008.825;    0.000;    0.000
410.297; 1940.825;    0.000;    0.000
410.351; 1987.825;    0.000;    0.000
410.406; 2078.825;    0.000;    0.000
410.461; 1981.825;    0.000;    0.000
410.516; 2012.825;    0.000;    0.000
410.571; 2012.825;    0.000;    0.000
410.626; 1999.825;    0.000;    0.000
410.681; 1995.825;    0.000;    0.000
410.736; 1986.825;    0.000;    0.000
410.790; 1988.825;    0.000;    0.000
410.845; 2034.825;    0.000;    0.000
410.900; 1977.825;    0.000;    0.000
410.955; 2087.825;    0.000;    0.000
411.010; 2007.825;    0.000;    0.000
411.064; 2012.825;    0.000;    0.000
411.119; 1973.825;    0.000;    0.000
411.174; 1974.825;    0.000;    0.000
411.229; 1955.825;    0.000;    0.000
411.283; 2017.825;    0.000;    0.000
411.338; 1966.825;    0.000;    0.000
411.393; 1976.825;    0.000;    0.000
411.447; 2009.825;    0.000;    0.000
411.502; 1963.825;    0.000;    0.000
411.557; 2070.825;    0.000;    0.000
411.612; 2093.825;    0.000;    0.000
411.666; 1994.825;    0.000;    0.000
411.721; 1960.825;    0.000;    0.000
411.776; 1941.825;    0.000;    0.000
411.830; 2077.825;    0.000;    0.000
411.885; 1984.825;    0.000;    0.000
411.939; 2049.825;    0.000;    0.000
411.994; 1968.825;    0.000;    0.000
412.049; 2026.825;    0.000;    0.000
412.103; 2060.825;    0.000;    0.000
412.158; 2004.825;    0.000;    0.000
412.212; 2018.825;    0.000;    0.000
412.267; 2058.825;    0.000;    0.000
412.322; 2073.825;    0.000;    0.000
412.376; 2062.825;    0.000;    0.000
412.431; 2040.825;    0.000;    0.000
412.485; 2075.825;    0.000;    0.000
412.540; 1967.825;    0.000;    0.000
412.594; 2004.825;    0.000;    0.000
412.649; 2039.825;    0.000;    0.000
412.703; 2022.825;    0.000;    0.000
412.758; 2029.825;    0.000;    0.000
412.812; 2023.825;    0.000;    0.000
412.866; 2006.825;    0.000;    0.000
412.921; 2029.825;    0.000;    0.000
412.975; 1991.825;    0.000;    0.000
413.030; 2008.825;    0.000;    0.000
413.084; 1967.825;    0.000;    0.000
413.139; 2107.825;    0.000;    0.000
413.193; 2022.825;    0.000;    0.000
413.247; 2045.825;    0.000;    0.000
413.302; 2038.825;    0.000;    0.000
413.356; 2071.825;    0.000;    0.000
413.410; 1971.825;    0.000;    0.000
413.465; 2049.825;    0.000;    0.000
413.519; 2098.825;    0.000;    0.000
413.573; 2079.825;    0.000;    0.000
413.628; 2029.825;    0.000;    0.000
413.682; 2021.825;    0.000;    0.000
413.736; 1970.825;    0.000;    0.000
413.791; 2039.825;    0.000;    0.000
413.845; 2159.825;    0.000;    0.000
413.899; 2022.825;    0.000;    0.000
413.953; 2018.825;    0.000;    0.000
414.008; 2015.825;    0.000;    0.000
414.062; 2031.825;    0.000;    0.000
414.116; 2063.825;    0.000;    0.000
414.170; 2087.825;    0.000;    0.000
414.225; 2073.825;    0.000;    0.000
414.279; 2073.825;    0.000;    0.000
414.333; 2083.825;    0.000;    0.000
414.387; 2045.825;    0.000;    0.000
414.441; 2041.825;    0.000;    0.000
414.496; 2058.825;    0.000;    0.000
414.550; 2114.825;    0.000;    0.000
414.604; 2065.825;    0.000;    0.000
414.658; 1968.825;    0.000;    0.000
414.712; 2062.825;    0.000;    0.000
414.766; 2147.825;    0.000;    0.000
414.820; 2043.825;    0.000;    0.000
414.874; 2172.825;    0.000;    0.000
414.928; 2026.825;    0.000;    0.000
414.982; 2025.825;    0.000;    0.000
415.037; 2137.825;    0.000;    0.000
415.091; 2023.825;    0.000;    0.000
415.145; 2054.825;    0.000;    0.000
415.199; 2087.825;    0.000;    0.000
415.253; 2162.825;    0.000;    0.000
415.307; 2050.825;    0.000;    0.000
415.361; 2031.825;    0.000;    0.000
415.415; 2077.825;    0.000;    0.000
415.469; 2045.825;    0.000;    0.000
415.523; 2067.825;    0.000;    0.000
415.577; 2031.825;    0.000;    0.000
415.631; 2107.825;    0.000;    0.000
415.684; 2106.825;    0.000;    0.000
415.738; 2132.825;    0.000;    0.000
415.792; 2003.825;    0.000;    0.000
415.846; 2125.825;    0.000;    0.000
415.900; 2107.825;    0.000;    0.000
415.954; 2089.825;    0.000;    0.000
416.008; 2028.825;    0.000;    0.000
416.062; 2045.825;    0.000;    0.000
416.116; 2122.825;    0.000;    0.000
416.169; 2037.825;    0.000;    0.000
416.223; 2058.825;    0.000;    0.000
416.277; 2050.825;    0.000;    0.000
416.331; 2104.825;    0.000;    0.000
416.385; 2081.825;    0.000;    0.000
416.439; 2126.825;    0.000;    0.000
416.492; 2095.825;    0.000;    0.000
416.546; 2167.825;    0.000;    0.000
416.600; 2088.825;    0.000;    0.000
416.654; 2112.825;    0.000;    0.000
416.707; 2075.825;    0.000;    0.000
416.761; 1997.825;    0.000;    0.000
416.815; 2125.825;    0.000;    0.000
416.869; 2098.825;    0.000;    0.000
416.922; 2076.825;    0.000;    0.000
416.976; 2043.825;    0.000;    0.000
417.030; 2092.825;    0.000;    0.000
417.083; 2028.825;    0.000;    0.000
417.137; 2181.825;    0.000;    0.000
417.191; 1978.825;    0.000;    0.000
417.244; 2097.825;    0.000;    0.000
417.298; 2020.825;    0.000;    0.000
417.352; 2090.825;    0.000;    0.000
417.405; 2084.825;    0.000;    0.000
417.459; 2067.825;    0.000;    0.000
417.512; 2046.825;    0.000;    0.000
417.566; 2088.825;    0.000;    0.000
417.620; 2123.825;    0.000;    0.000
417.673; 2000.825;    0.000;    0.000
417.727; 2045.825;    0.000;    0.000
417.780; 1949.825;    0.000;    0.000
417.834; 2076.825;    0.000;    0.000
417.887; 2055.825;    0.000;    0.000
417.941; 2122.825;    0.000;    0.000
417.994; 2134.825;    0.000;    0.000
418.048; 2102.825;    0.000;    0.000
418.101; 1978.825;    0.000;    0.000
418.155; 2053.825;    0.000;    0.000
418.208; 2161.825;    0.000;    0.000
418.262; 2055.825;    0.000;    0.000
418.315; 2081.825;    0.000;    0.000
418.369; 2025.825;    0.000;    0.000
418.422; 2118.825;    0.000;    0.000
418.476; 2070.825;    0.000;    0.000
418.529; 2131.825;    0.000;    0.000
418.582; 2054.825;    0.000;    0.000
418.636; 2120.825;    0.000;    0.000
418.689; 2151.825;    0.000;    0.000
418.743; 2079.825;    0.000;    0.000
418.796; 2043.825;    0.000;    0.000
418.849; 2165.825;    0.000;    0.000
418.903; 2082.825;    0.000;    0.000
418.956; 2109.825;    0.000;    0.000
419.009; 2019.825;    0.000;    0.000
419.063; 2129.825;    0.000;    0.000
419.116; 2064.825;    0.000;    0.000
419.169; 2113.825;    0.000;    0.000
419.222; 2110.825;    0.000;    0.000
419.276; 2147.825;    0.000;    0.000
419.329; 2112.825;    0.000;    0.000
419.382; 2116.825;    0.000;    0.000
419.435; 2002.825;    0.000;    0.000
419.489; 1983.825;    0.000;    0.000
419.542; 2059.825;    0.000;    0.000
419.595; 2114.825;    0.000;    0.000
419.648; 2120.825;    0.000;    0.000
419.701; 2061.825;    0.000;    0.000
419.755; 2079.825;    0.000;    0.000
419.808; 2085.825;    0.000;    0.000
419.861; 2103.825;    0.000;    0.000
419.914; 2062.825;    0.000;    0.000
419.967; 2108.825;    0.000;    0.000
420.020; 2001.825;    0.000;    0.000
420.073; 2074.825;    0.000;    0.000
420.127; 2017.825;    0.000;    0.000
420.180; 2073.825;    0.000;    0.000
420.233; 2064.825;    0.000;    0.000
420.286; 2026.825;    0.000;    0.000
420.339; 2101.825;    0.000;    0.000
420.392; 2068.825;    0.000;    0.000
420.445; 1968.825;    0.000;    0.000
420.498; 1994.825;    0.000;    0.000
420.551; 2045.825;    0.000;    0.000
420.604; 2074.825;    0.000;    0.000
420.657; 2020.825;    0.000;    0.000
420.710; 2076.825;    0.000;    0.000
420.763; 2047.825;    0.000;    0.000
420.816; 1948.825;    0.000;    0.000
420.869; 1977.825;    0.000;    0.000
420.922; 2022.825;    0.000;    0.000
420.975; 2090.825;    0.000;    0.000
421.028; 2009.825;    0.000;    0.000
421.081; 1966.825;    0.000;    0.000
421.134; 2018.825;    0.000;    0.000
421.187; 1997.825;    0.000;    0.000
421.239; 1999.825;    0.000;    0.000
421.292; 1954.825;    0.000;    0.000
421.345; 2031.825;    0.000;    0.000
421.398; 2065.825;    0.000;    0.000
421.451; 2064.825;    0.000;    0.000
421.504; 1991.825;    0.000;    0.000
421.557; 1951.825;    0.000;    0.000
421.609; 2005.825;    0.000;    0.000
421.662; 1976.825;    0.000;    0.000
421.715; 2042.825;    0.000;    0.000
421.768; 2017.825;    0.000;    0.000
421.821; 2061.825;    0.000;    0.000
421.873; 1958.825;    0.000;    0.000
421.926; 1998.825;    0.000;    0.000
421.979; 2027.825;    0.000;    0.000
422.032; 2062.825;    0.000;    0.000
422.084; 1978.825;    0.000;    0.000
422.137; 2037.825;    0.000;    0.000
422.190; 2035.825;    0.000;    0.000
422.243; 2047.825;    0.000;    0.000
422.295; 1999.825;    0.000;    0.000
422.348; 2023.825;    0.000;    0.000
422.401; 2074.825;    0.000;    0.000
422.453; 2055.825;    0.000;    0.000
422.506; 2057.825;    0.000;    0.000
422.559; 2025.825;    0.000;    0.000
422.611; 1973.825;    0.000;    0.000
422.664; 2023.825;    0.000;    0.000
422.716; 2001.825;    0.000;    0.000
422.769; 2042.825;    0.000;    0.000
422.822; 1984.825;    0.000;    0.000
422.874; 1950.825;    0.000;    0.000
422.927; 2075.825;    0.000;    0.000
422.979; 1938.825;    0.000;    0.000
423.032; 1999.825;    0.000;    0.000
423.084; 1972.825;    0.000;    0.000
423.137; 1989.825;    0.000;    0.000
423.189; 2083.825;    0.000;    0.000
423.242; 1951.825;    0.000;    0.000
423.294; 1977.825;    0.000;    0.000
423.347; 1986.825;    0.000;    0.000
423.399; 1954.825;    0.000;    0.000
423.452; 2049.825;    0.000;    0.000
423.504; 2043.825;    0.000;    0.000
423.557; 2038.825;    0.000;    0.000
423.609; 1963.825;    0.000;    0.000
423.662; 2001.825;    0.000;    0.000
423.714; 1988.825;    0.000;    0.000
423.766; 1949.825;    0.000;    0.000
423.819; 1977.825;    0.000;    0.000
423.871; 2035.825;    0.000;    0.000
423.923; 1984.825;    0.000;    0.000
423.976; 1940.825;    0.000;    0.000
424.028; 1908.825;    0.000;    0.000
424.081; 1934.825;    0.000;    0.000
424.133; 1965.825;    0.000;    0.000
424.185; 1982.825;    0.000;    0.000
424.238; 2044.825;    0.000;    0.000
424.290; 2004.825;    0.000;    0.000
424.342; 1879.825;    0.000;    0.000
424.394; 1860.825;    0.000;    0.000
424.447; 2011.825;    0.000;    0.000
424.499; 1974.825;    0.000;    0.000
424.551; 1942.825;    0.000;    0.000
424.603; 2015.825;    0.000;    0.000
424.656; 2002.825;    0.000;    0.000
424.708; 1971.825;    0.000;    0.000
424.760; 2025.825;    0.000;    0.000
424.812; 2045.825;    0.000;    0.000
424.864; 1949.825;    0.000;    0.000
424.917; 1913.825;    0.000;    0.000
424.969; 2011.825;    0.000;    0.000
425.021; 1952.825;    0.000;    0.000
425.073; 2062.825;    0.000;    0.000
425.125; 1922.825;    0.000;    0.000
425.177; 1940.825;    0.000;    0.000
425.229; 2045.825;    0.000;    0.000
425.282; 1986.825;    0.000;    0.000
425.334; 2005.825;    0.000;    0.000
425.386; 1981.825;    0.000;    0.000
425.438; 1906.825;    0.000;    0.000
425.490; 1998.825;    0.000;    0.000
425.542; 1987.825;    0.000;    0.000
425.594; 1872.825;    0.000;    0.000
425.646; 1926.825;    0.000;    0.000
425.698; 1941.825;    0.000;    0.000
425.750; 1979.825;    0.000;    0.000
425.802; 1963.825;    0.000;    0.000
425.854; 1954.825;    0.000;    0.000
425.906; 1933.825;    0.000;    0.000
425.958; 1928.825;    0.000;    0.000
426.010; 1893.825;    0.000;    0.000
426.062; 1951.825;    0.000;    0.000
426.114; 1929.825;    0.000;    0.000
426.166; 1950.825;    0.000;    0.000
426.218; 1912.825;    0.000;    0.000
426.270; 1978.825;    0.000;    0.000
426.321; 1963.825;    0.000;    0.000
426.373; 1908.825;    0.000;    0.000
426.425; 1903.825;    0.000;    0.000
426.477; 1878.825;    0.000;    0.000
426.529; 2007.825;    0.000;    0.000
426.581; 1907.825;    0.000;    0.000
426.633; 1900.825;    0.000;    0.000
426.684; 1889.825;    0.000;    0.000
426.736; 1989.825;    0.000;    0.000
426.788; 1919.825;    0.000;    0.000
426.840; 1889.825;    0.000;    0.000
426.892; 2012.825;    0.000;    0.000
426.943; 1982.825;    0.000;    0.000
426.995; 1948.825;    0.000;    0.000
427.047; 1977.825;    0.000;    0.000
427.099; 1956.825;    0.000;    0.000
427.150; 1992.825;    0.000;    0.000
427.202; 1953.825;    0.000;    0.000
427.254; 1886.825;    0.000;    0.000
427.306; 1892.825;    0.000;    0.000
427.357; 1960.825;    0.000;    0.000
427.409; 1884.825;    0.000;    0.000
427.461; 1898.825;    0.000;    0.000
427.512; 1879.825;    0.000;    0.000
427.564; 1910.825;    0.000;    0.000
427.616; 1910.825;    0.000;    0.000
427.667; 1920.825;    0.000;    0.000
427.719; 1875.825;    0.000;    0.000
427.770; 1869.825;    0.000;    0.000
427.822; 1905.825;    0.000;    0.000
427.874; 1881.825;    0.000;    0.000
427.925; 1948.825;    0.000;    0.000
427.977; 1923.825;    0.000;    0.000
428.028; 1914.825;    0.000;    0.000
428.080; 1910.825;    0.000;    0.000
428.131; 1926.825;    0.000;    0.000
428.183; 1878.825;    0.000;    0.000
428.234; 1881.825;    0.000;    0.000
428.286; 1887.825;    0.000;    0.000
428.337; 1863.825;    0.000;    0.000
428.389; 1853.825;    0.000;    0.000
428.440; 1903.825;    0.000;    0.000
428.492; 1870.825;    0.000;    0.000
428.543; 1857.825;    0.000;    0.000
428.595; 1885.825;    0.000;    0.000
428.646; 1872.825;    0.000;    0.000
428.697; 1913.825;    0.000;    0.000
428.749; 1923.825;    0.000;    0.000
428.800; 1920.825;    0.000;    0.000
428.852; 1874.825;    0.000;    0.000
428.903; 1912.825;    0.000;    0.000
428.954; 1934.825;    0.000;    0.000
429.006; 1873.825;    0.000;    0.000
429.057; 1862.825;    0.000;    0.000
429.108; 1857.825;    0.000;    0.000
429.160; 1860.825;    0.000;    0.000
429.211; 1897.825;    0.000;    0.000
429.262; 1838.825;    0.000;    0.000
429.314; 1923.825;    0.000;    0.000
429.365; 1888.825;    0.000;    0.000
429.416; 1854.825;    0.000;    0.000
429.467; 1810.825;    0.000;    0.000
429.519; 1843.825;    0.000;    0.000
429.570; 1771.825;    0.000;    0.000
429.621; 1874.825;    0.000;    0.000
429.672; 1819.825;    0.000;    0.000
429.724; 1797.825;    0.000;    0.000
429.775; 1817.825;    0.000;    0.000
429.826; 1839.825;    0.000;    0.000
429.877; 1821.825;    0.000;    0.000
429.928; 1879.825;    0.000;    0.000
429.980; 1800.825;    0.000;    0.000
430.031; 1792.825;    0.000;    0.000
430.082; 1821.825;    0.000;    0.000
430.133; 1804.825;    0.000;    0.000
430.184; 1873.825;    0.000;    0.000
430.235; 1912.825;    0.000;    0.000
430.286; 1818.825;    0.000;    0.000
430.337; 1864.825;    0.000;    0.000
430.388; 1796.825;    0.000;    0.000
430.439; 1888.825;    0.000;    0.000
430.490; 1894.825;    0.000;    0.000
430.542; 1795.825;    0.000;    0.000
430.593; 1922.825;    0.000;    0.000
430.644; 1872.825;    0.000;    0.000
430.695; 1866.825;    0.000;    0.000
430.746; 1879.825;    0.000;    0.000
430.797; 1795.825;    0.000;    0.000
430.848; 1777.825;    0.000;    0.000
430.898; 1788.825;    0.000;    0.000
430.949; 1779.825;    0.000;    0.000
431.000; 1819.825;    0.000;    0.000
431.051; 1905.825;    0.000;    0.000
431.102; 1800.825;    0.000;    0.000
431.153; 1818.825;    0.000;    0.000
431.204; 1805.825;    0.000;    0.000
431.255; 1847.825;    0.000;    0.000
431.306; 1850.825;    0.000;    0.000
431.357; 1810.825;    0.000;    0.000
431.408; 1873.825;    0.000;    0.000
431.458; 1882.825;    0.000;    0.000
431.509; 1819.825;    0.000;    0.000
431.560; 1865.825;    0.000;    0.000
431.611; 1833.825;    0.000;    0.000
431.662; 1852.825;    0.000;    0.000
431.713; 1821.825;    0.000;    0.000
431.763; 1869.825;    0.000;    0.000
431.814; 1850.825;    0.000;    0.000
431.865; 1786.825;    0.000;    0.000
431.916; 1812.825;    0.000;    0.000
431.966; 1856.825;    0.000;    0.000
432.017; 1820.825;    0.000;    0.000
432.068; 1835.825;    0.000;    0.000
432.118; 1825.825;    0.000;    0.000
432.169; 1802.825;    0.000;    0.000
432.220; 1848.825;    0.000;    0.000
432.271; 1806.825;    0.000;    0.000
432.321; 1863.825;    0.000;    0.000
432.372; 1836.825;    0.000;    0.000
432.423; 1827.825;    0.000;    0.000
432.473; 1836.825;    0.000;    0.000
432.524; 1909.825;    0.000;    0.000
432.574; 1823.825;    0.000;    0.000
432.625; 1806.825;    0.000;    0.000
432.676; 1715.825;    0.000;    0.000
432.726; 1848.825;    0.000;    0.000
432.777; 1764.825;    0.000;    0.000
432.827; 1859.825;    0.000;    0.000
432.878; 1791.825;    0.000;    0.000
432.928; 1809.825;    0.000;    0.000
432.979; 1880.825;    0.000;    0.000
433.029; 1822.825;    0.000;    0.000
433.080; 1813.825;    0.000;    0.000
433.130; 1741.825;    0.000;    0.000
433.181; 1872.825;    0.000;    0.000
433.231; 1830.825;    0.000;    0.000
433.282; 1813.825;    0.000;    0.000
433.332; 1844.825;    0.000;    0.000
433.383; 1772.825;    0.000;    0.000
433.433; 1798.825;    0.000;    0.000
433.484; 1811.825;    0.000;    0.000
433.534; 1846.825;    0.000;    0.000
433.585; 1836.825;    0.000;    0.000
433.635; 1854.825;    0.000;    0.000
433.685; 1811.825;    0.000;    0.000
433.736; 1845.825;    0.000;    0.000
433.786; 1821.825;    0.000;    0.000
433.836; 1888.825;    0.000;    0.000
433.887; 2001.825;    0.000;    0.000
433.937; 1879.825;    0.000;    0.000
433.987; 1848.825;    0.000;    0.000
434.038; 1854.825;    0.000;    0.000
434.088; 1864.825;    0.000;    0.000
434.138; 1898.825;    0.000;    0.000
434.189; 1839.825;    0.000;    0.000
434.239; 1894.825;    0.000;    0.000
434.289; 1873.825;    0.000;    0.000
434.339; 1824.825;    0.000;    0.000
434.389; 1815.825;    0.000;    0.000
434.440; 1803.825;    0.000;    0.000
434.490; 1877.825;    0.000;    0.000
434.540; 1880.825;    0.000;    0.000
434.590; 1900.825;    0.000;    0.000
434.640; 1829.825;    0.000;    0.000
434.691; 1873.825;    0.000;    0.000
434.741; 1846.825;    0.000;    0.000
434.791; 1890.825;    0.000;    0.000
434.841; 1850.825;    0.000;    0.000
434.891; 1964.825;    0.000;    0.000
434.941; 1928.825;    0.000;    0.000
434.991; 1903.825;    0.000;    0.000
435.042; 1849.825;    0.000;    0.000
435.092; 1875.825;    0.000;    0.000
435.142; 1836.825;    0.000;    0.000
435.192; 1848.825;    0.000;    0.000
435.242; 1825.825;    0.000;    0.000
435.292; 1846.825;    0.000;    0.000
435.342; 1897.825;    0.000;    0.000
435.392; 1844.825;    0.000;    0.000
435.442; 1812.825;    0.000;    0.000
435.492; 1822.825;    0.000;    0.000
435.542; 1817.825;    0.000;    0.000
435.592; 1818.825;    0.000;    0.000
435.642; 1820.825;    0.000;    0.000
435.692; 1764.825;    0.000;    0.000
435.742; 1883.825;    0.000;    0.000
435.792; 1842.825;    0.000;    0.000
435.842; 1781.825;    0.000;    0.000
435.891; 1812.825;    0.000;    0.000
435.941; 1764.825;    0.000;    0.000
435.991; 1865.825;    0.000;    0.000
436.041; 1857.825;    0.000;    0.000
436.091; 1790.825;    0.000;    0.000
436.141; 1806.825;    0.000;    0.000
436.191; 1812.825;    0.000;    0.000
436.241; 1744.825;    0.000;    0.000
436.290; 1814.825;    0.000;    0.000
436.340; 1885.825;    0.000;    0.000
436.390; 1765.825;    0.000;    0.000
436.440; 1854.825;    0.000;    0.000
436.490; 1778.825;    0.000;    0.000
436.539; 1773.825;    0.000;    0.000
436.589; 1764.825;    0.000;    0.000
436.639; 1802.825;    0.000;    0.000
436.689; 1849.825;    0.000;    0.000
436.738; 1761.825;    0.000;    0.000
436.788; 1782.825;    0.000;    0.000
436.838; 1814.825;    0.000;    0.000
436.887; 1857.825;    0.000;    0.000
436.937; 1754.825;    0.000;    0.000
436.987; 1740.825;    0.000;    0.000
437.036; 1813.825;    0.000;    0.000
437.086; 1771.825;    0.000;    0.000
437.136; 1814.825;    0.000;    0.000
437.185; 1845.825;    0.000;    0.000
437.235; 1848.825;    0.000;    0.000
437.285; 1834.825;    0.000;    0.000
437.334; 1793.825;    0.000;    0.000
437.384; 1783.825;    0.000;    0.000
437.433; 1842.825;    0.000;    0.000
437.483; 1910.825;    0.000;    0.000
437.532; 1855.825;    0.000;    0.000
437.582; 1820.825;    0.000;    0.000
437.631; 1847.825;    0.000;    0.000
437.681; 1873.825;    0.000;    0.000
437.730; 1771.825;    0.000;    0.000
437.780; 1771.825;    0.000;    0.000
437.829; 1738.825;    0.000;    0.000
437.879; 1851.825;    0.000;    0.000
437.928; 1764.825;    0.000;    0.000
437.978; 1779.825;    0.000;    0.000
438.027; 1931.825;    0.000;    0.000
438.077; 1793.825;    0.000;    0.000
438.126; 1855.825;    0.000;    0.000
438.176; 1806.825;    0.000;    0.000
438.225; 1825.825;    0.000;    0.000
438.274; 1811.825;    0.000;    0.000
438.324; 1808.825;    0.000;    0.000
438.373; 1767.825;    0.000;    0.000
438.422; 1759.825;    0.000;    0.000
438.472; 1788.825;    0.000;    0.000
438.521; 1791.825;    0.000;    0.000
438.570; 1792.825;    0.000;    0.000
438.620; 1823.825;    0.000;    0.000
438.669; 1793.825;    0.000;    0.000
438.718; 1878.825;    0.000;    0.000
438.768; 1821.825;    0.000;    0.000
438.817; 1720.825;    0.000;    0.000
438.866; 1759.825;    0.000;    0.000
438.915; 1816.825;    0.000;    0.000
438.965; 1783.825;    0.000;    0.000
439.014; 1824.825;    0.000;    0.000
439.063; 1838.825;    0.000;    0.000
439.112; 1803.825;    0.000;    0.000
439.162; 1802.825;    0.000;    0.000
439.211; 1807.825;    0.000;    0.000
439.260; 1746.825;    0.000;    0.000
439.309; 1787.825;    0.000;    0.000
439.358; 1823.825;    0.000;    0.000
439.407; 1965.825;    0.000;    0.000
439.456; 1889.825;    0.000;    0.000
439.506; 1803.825;    0.000;    0.000
439.555; 1851.825;    0.000;    0.000
439.604; 1807.825;    0.000;    0.000
439.653; 1872.825;    0.000;    0.000
439.702; 1812.825;    0.000;    0.000
439.751; 1761.825;    0.000;    0.000
439.800; 1813.825;    0.000;    0.000
439.849; 1789.825;    0.000;    0.000
439.898; 1766.825;    0.000;    0.000
439.947; 1794.825;    0.000;    0.000
439.996; 1814.825;    0.000;    0.000
440.045; 1776.825;    0.000;    0.000
440.094; 1688.825;    0.000;    0.000
440.143; 1845.825;    0.000;    0.000
440.192; 1839.825;    0.000;    0.000
440.241; 1841.825;    0.000;    0.000
440.290; 1866.825;    0.000;    0.000
440.339; 1830.825;    0.000;    0.000
440.388; 1814.825;    0.000;    0.000
440.437; 1807.825;    0.000;    0.000
440.486; 1876.825;    0.000;    0.000
440.535; 1877.825;    0.000;    0.000
440.583; 1787.825;    0.000;    0.000
440.632; 1857.825;    0.000;    0.000
440.681; 1865.825;    0.000;    0.000
440.730; 1900.825;    0.000;    0.000
440.779; 1868.825;    0.000;    0.000
440.828; 1817.825;    0.000;    0.000
440.876; 1794.825;    0.000;    0.000
440.925; 1846.825;    0.000;    0.000
440.974; 1780.825;    0.000;    0.000
441.023; 1824.825;    0.000;    0.000
441.072; 1880.825;    0.000;    0.000
441.120; 1945.825;    0.000;    0.000
441.169; 1897.825;    0.000;    0.000
441.218; 1832.825;    0.000;    0.000
441.267; 1924.825;    0.000;    0.000
441.315; 1858.825;    0.000;    0.000
441.364; 1792.825;    0.000;    0.000
441.413; 1774.825;    0.000;    0.000
441.461; 1768.825;    0.000;    0.000
441.510; 1910.825;    0.000;    0.000
441.559; 1857.825;    0.000;    0.000
441.607; 1840.825;    0.000;    0.000
441.656; 1887.825;    0.000;    0.000
441.705; 1954.825;    0.000;    0.000
441.753; 1851.825;    0.000;    0.000
441.802; 1880.825;    0.000;    0.000
441.850; 1906.825;    0.000;    0.000
441.899; 1855.825;    0.000;    0.000
441.948; 1873.825;    0.000;    0.000
441.996; 1893.825;    0.000;    0.000
442.045; 1890.825;    0.000;    0.000
442.093; 1889.825;    0.000;    0.000
442.142; 1945.825;    0.000;    0.000
442.190; 1914.825;    0.000;    0.000
442.239; 1894.825;    0.000;    0.000
442.287; 1903.825;    0.000;    0.000
442.336; 1814.825;    0.000;    0.000
442.384; 1864.825;    0.000;    0.000
442.433; 1967.825;    0.000;    0.000
442.481; 1933.825;    0.000;    0.000
442.529; 1913.825;    0.000;    0.000
442.578; 1841.825;    0.000;    0.000
442.626; 1912.825;    0.000;    0.000
442.675; 1919.825;    0.000;    0.000
442.723; 1846.825;    0.000;    0.000
442.771; 1928.825;    0.000;    0.000
442.820; 1912.825;    0.000;    0.000
442.868; 1916.825;    0.000;    0.000
442.917; 1867.825;    0.000;    0.000
442.965; 1951.825;    0.000;    0.000
443.013; 1826.825;    0.000;    0.000
443.062; 1848.825;    0.000;    0.000
443.110; 1878.825;    0.000;    0.000
443.158; 1919.825;    0.000;    0.000
443.206; 1871.825;    0.000;    0.000
443.255; 1867.825;    0.000;    0.000
443.303; 1852.825;    0.000;    0.000
443.351; 1873.825;    0.000;    0.000
443.399; 1851.825;    0.000;    0.000
443.448; 1973.825;    0.000;    0.000
443.496; 1923.825;    0.000;    0.000
443.544; 1884.825;    0.000;    0.000
443.592; 1914.825;    0.000;    0.000
443.640; 1961.825;    0.000;    0.000
443.689; 1926.825;    0.000;    0.000
443.737; 2049.825;    0.000;    0.000
443.785; 1984.825;    0.000;    0.000
443.833; 1975.825;    0.000;    0.000
443.881; 1900.825;    0.000;    0.000
443.929; 1961.825;    0.000;    0.000
443.977; 1976.825;    0.000;    0.000
444.025; 1852.825;    0.000;    0.000
444.074; 1989.825;    0.000;    0.000
444.122; 2000.825;    0.000;    0.000
444.170; 1962.825;    0.000;    0.000
444.218; 1950.825;    0.000;    0.000
444.266; 1940.825;    0.000;    0.000
444.314; 1970.825;    0.000;    0.000
444.362; 1976.825;    0.000;    0.000
444.410; 1873.825;    0.000;    0.000
444.458; 2003.825;    0.000;    0.000
444.506; 1954.825;    0.000;    0.000
444.554; 1913.825;    0.000;    0.000
444.602; 1972.825;    0.000;    0.000
444.650; 1972.825;    0.000;    0.000
444.698; 1985.825;    0.000;    0.000
444.746; 1905.825;    0.000;    0.000
444.793; 1932.825;    0.000;    0.000
444.841; 1974.825;    0.000;    0.000
444.889; 2002.825;    0.000;    0.000
444.937; 1934.825;    0.000;    0.000
444.985; 2002.825;    0.000;    0.000
445.033; 1960.825;    0.000;    0.000
445.081; 1991.825;    0.000;    0.000
445.129; 2035.825;    0.000;    0.000
445.176; 1923.825;    0.000;    0.000
445.224; 1969.825;    0.000;    0.000
445.272; 2004.825;    0.000;    0.000
445.320; 2027.825;    0.000;    0.000
445.368; 2015.825;    0.000;    0.000
445.415; 1977.825;    0.000;    0.000
445.463; 1982.825;    0.000;    0.000
445.511; 1998.825;    0.000;    0.000
445.559; 2009.825;    0.000;    0.000
445.606; 2007.825;    0.000;    0.000
445.654; 1988.825;    0.000;    0.000
445.702; 1929.825;    0.000;    0.000
445.749; 1995.825;    0.000;    0.000
445.797; 1890.825;    0.000;    0.000
445.845; 2111.825;    0.000;    0.000
445.892; 2012.825;    0.000;    0.000
445.940; 1956.825;    0.000;    0.000
445.988; 2029.825;    0.000;    0.000
446.035; 2027.825;    0.000;    0.000
446.083; 2029.825;    0.000;    0.000
446.130; 1990.825;    0.000;    0.000
446.178; 2130.825;    0.000;    0.000
446.226; 2000.825;    0.000;    0.000
446.273; 2025.825;    0.000;    0.000
446.321; 2160.825;    0.000;    0.000
446.368; 2027.825;    0.000;    0.000
446.416; 2017.825;    0.000;    0.000
446.463; 2054.825;    0.000;    0.000
446.511; 2042.825;    0.000;    0.000
446.558; 2066.825;    0.000;    0.000
446.606; 2107.825;    0.000;    0.000
446.653; 2082.825;    0.000;    0.000
446.701; 2105.825;    0.000;    0.000
446.748; 2011.825;    0.000;    0.000
446.796; 2123.825;    0.000;    0.000
446.843; 2093.825;    0.000;    0.000
446.891; 2109.825;    0.000;    0.000
446.938; 2116.825;    0.000;    0.000
446.985; 2133.825;    0.000;    0.000
447.033; 2109.825;    0.000;    0.000
447.080; 2156.825;    0.000;    0.000
447.128; 2102.825;    0.000;    0.000
447.175; 2252.825;    0.000;    0.000
447.222; 2146.825;    0.000;    0.000
447.270; 2298.825;    0.000;    0.000
447.317; 2184.825;    0.000;    0.000
447.364; 2205.825;    0.000;    0.000
447.411; 2244.825;    0.000;    0.000
447.459; 2163.825;    0.000;    0.000
447.506; 2153.825;    0.000;    0.000
447.553; 2238.825;    0.000;    0.000
447.601; 2292.825;    0.000;    0.000
447.648; 2302.825;    0.000;    0.000
447.695; 2255.825;    0.000;    0.000
447.742; 2300.825;    0.000;    0.000
447.789; 2351.825;    0.000;    0.000
447.837; 2334.825;    0.000;    0.000
447.884; 2327.825;    0.000;    0.000
447.931; 2425.825;    0.000;    0.000
447.978; 2408.825;    0.000;    0.000
448.025; 2451.825;    0.000;    0.000
448.072; 2403.825;    0.000;    0.000
448.120; 2359.825;    0.000;    0.000
448.167; 2440.825;    0.000;    0.000
448.214; 2406.825;    0.000;    0.000
448.261; 2381.825;    0.000;    0.000
448.308; 2323.825;    0.000;    0.000
448.355; 2387.825;    0.000;    0.000
448.402; 2280.825;    0.000;    0.000
448.449; 2265.825;    0.000;    0.000
448.496; 2248.825;    0.000;    0.000
448.543; 2139.825;    0.000;    0.000
448.590; 2261.825;    0.000;    0.000
448.637; 2244.825;    0.000;    0.000
448.684; 2144.825;    0.000;    0.000
448.731; 2194.825;    0.000;    0.000
448.778; 2223.825;    0.000;    0.000
448.825; 2174.825;    0.000;    0.000
448.872; 2170.825;    0.000;    0.000
448.919; 2152.825;    0.000;    0.000
448.966; 2229.825;    0.000;    0.000
449.013; 2205.825;    0.000;    0.000
449.060; 2079.825;    0.000;    0.000
449.107; 2125.825;    0.000;    0.000
449.154; 2188.825;    0.000;    0.000
449.200; 2112.825;    0.000;    0.000
449.247; 2070.825;    0.000;    0.000
449.294; 2073.825;    0.000;    0.000
449.341; 2148.825;    0.000;    0.000
449.388; 2094.825;    0.000;    0.000
449.435; 2138.825;    0.000;    0.000
449.481; 2093.825;    0.000;    0.000
449.528; 2116.825;    0.000;    0.000
449.575; 2132.825;    0.000;    0.000
449.622; 2075.825;    0.000;    0.000
449.668; 2123.825;    0.000;    0.000
449.715; 2168.825;    0.000;    0.000
449.762; 2048.825;    0.000;    0.000
449.809; 2056.825;    0.000;    0.000
449.855; 2009.825;    0.000;    0.000
449.902; 2007.825;    0.000;    0.000
449.949; 2104.825;    0.000;    0.000
449.995; 2128.825;    0.000;    0.000
450.042; 2024.825;    0.000;    0.000
450.089; 2100.825;    0.000;    0.000
450.135; 1971.825;    0.000;    0.000
450.182; 1990.825;    0.000;    0.000
450.229; 2008.825;    0.000;    0.000
450.275; 2028.825;    0.000;    0.000
450.322; 2078.825;    0.000;    0.000
450.368; 1979.825;    0.000;    0.000
450.415; 2099.825;    0.000;    0.000
450.462; 2092.825;    0.000;    0.000
450.508; 2034.825;    0.000;    0.000
450.555; 2021.825;    0.000;    0.000
450.601; 1993.825;    0.000;    0.000
450.648; 1989.825;    0.000;    0.000
450.694; 1964.825;    0.000;    0.000
450.741; 2071.825;    0.000;    0.000
450.787; 1968.825;    0.000;    0.000
450.834; 1988.825;    0.000;    0.000
450.880; 2002.825;    0.000;    0.000
450.927; 2004.825;    0.000;    0.000
450.973; 2003.825;    0.000;    0.000
451.019; 1970.825;    0.000;    0.000
451.066; 1944.825;    0.000;    0.000
451.112; 1939.825;    0.000;    0.000
451.159; 1912.825;    0.000;    0.000
451.205; 1933.825;    0.000;    0.000
451.251; 2003.825;    0.000;    0.000
451.298; 2044.825;    0.000;    0.000
451.344; 2043.825;    0.000;    0.000
451.390; 1960.825;    0.000;    0.000
451.437; 2004.825;    0.000;    0.000
451.483; 2061.825;    0.000;    0.000
451.529; 1958.825;    0.000;    0.000
451.576; 2005.825;    0.000;    0.000
451.622; 1902.825;    0.000;    0.000
451.668; 1884.825;    0.000;    0.000
451.714; 1986.825;    0.000;    0.000
451.761; 1977.825;    0.000;    0.000
451.807; 1918.825;    0.000;    0.000
451.853; 1995.825;    0.000;    0.000
451.899; 1986.825;    0.000;    0.000
451.945; 1927.825;    0.000;    0.000
451.992; 1976.825;    0.000;    0.000
452.038; 1967.825;    0.000;    0.000
452.084; 1967.825;    0.000;    0.000
452.130; 1931.825;    0.000;    0.000
452.176; 1957.825;    0.000;    0.000
452.222; 1786.825;    0.000;    0.000
452.268; 1895.825;    0.000;    0.000
452.315; 1899.825;    0.000;    0.000
452.361; 1965.825;    0.000;    0.000
452.407; 1876.825;    0.000;    0.000
452.453; 1939.825;    0.000;    0.000
452.499; 2005.825;    0.000;    0.000
452.545; 1913.825;    0.000;    0.000
452.591; 1906.825;    0.000;    0.000
452.637; 1892.825;    0.000;    0.000
452.683; 1921.825;    0.000;    0.000
452.729; 1944.825;    0.000;    0.000
452.775; 2016.825;    0.000;    0.000
452.821; 1853.825;    0.000;    0.000
452.867; 1858.825;    0.000;    0.000
452.913; 1892.825;    0.000;    0.000
452.959; 1942.825;    0.000;    0.000
453.005; 1936.825;    0.000;    0.000
453.051; 1906.825;    0.000;    0.000
453.097; 1871.825;    0.000;    0.000
453.142; 1868.825;    0.000;    0.000
453.188; 1881.825;    0.000;    0.000
453.234; 1938.825;    0.000;    0.000
453.280; 1835.825;    0.000;    0.000
453.326; 1909.825;    0.000;    0.000
453.372; 1896.825;    0.000;    0.000
453.418; 1968.825;    0.000;    0.000
453.463; 1931.825;    0.000;    0.000
453.509; 1879.825;    0.000;    0.000
453.555; 2042.825;    0.000;    0.000
453.601; 1862.825;    0.000;    0.000
453.647; 1898.825;    0.000;    0.000
453.692; 1895.825;    0.000;    0.000
453.738; 1865.825;    0.000;    0.000
453.784; 1807.825;    0.000;    0.000
453.829; 1875.825;    0.000;    0.000
453.875; 1885.825;    0.000;    0.000
453.921; 1871.825;    0.000;    0.000
453.967; 1976.825;    0.000;    0.000
454.012; 2001.825;    0.000;    0.000
454.058; 1929.825;    0.000;    0.000
454.104; 1906.825;    0.000;    0.000
454.149; 1907.825;    0.000;    0.000
454.195; 1888.825;    0.000;    0.000
454.240; 1938.825;    0.000;    0.000
454.286; 1896.825;    0.000;    0.000
454.332; 1967.825;    0.000;    0.000
454.377; 1965.825;    0.000;    0.000
454.423; 1840.825;    0.000;    0.000
454.468; 1941.825;    0.000;    0.000
454.514; 1876.825;    0.000;    0.000
454.559; 1917.825;    0.000;    0.000
454.605; 1898.825;    0.000;    0.000
454.650; 1882.825;    0.000;    0.000
454.696; 1926.825;    0.000;    0.000
454.741; 1952.825;    0.000;    0.000
454.787; 1874.825;    0.000;    0.000
454.832; 1891.825;    0.000;    0.000
454.878; 1927.825;    0.000;    0.000
454.923; 1931.825;    0.000;    0.000
454.969; 1964.825;    0.000;    0.000
455.014; 1931.825;    0.000;    0.000
455.060; 1881.825;    0.000;    0.000
455.105; 1861.825;    0.000;    0.000
455.150; 1937.825;    0.000;    0.000
455.196; 1894.825;    0.000;    0.000
455.241; 1923.825;    0.000;    0.000
455.286; 1920.825;    0.000;    0.000
455.332; 1932.825;    0.000;    0.000
455.377; 1916.825;    0.000;    0.000
455.422; 1847.825;    0.000;    0.000
455.468; 1921.825;    0.000;    0.000
455.513; 1898.825;    0.000;    0.000
455.558; 1834.825;    0.000;    0.000
455.604; 1832.825;    0.000;    0.000
455.649; 1893.825;    0.000;    0.000
455.694; 1920.825;    0.000;    0.000
455.739; 1909.825;    0.000;    0.000
455.785; 1931.825;    0.000;    0.000
455.830; 1982.825;    0.000;    0.000
455.875; 1928.825;    0.000;    0.000
455.920; 1806.825;    0.000;    0.000
455.965; 1948.825;    0.000;    0.000
456.010; 1903.825;    0.000;    0.000
456.056; 1897.825;    0.000;    0.000
456.101; 1850.825;    0.000;    0.000
456.146; 1885.825;    0.000;    0.000
456.191; 1880.825;    0.000;    0.000
456.236; 1909.825;    0.000;    0.000
456.281; 1910.825;    0.000;    0.000
456.326; 1865.825;    0.000;    0.000
456.371; 1856.825;    0.000;    0.000
456.416; 1928.825;    0.000;    0.000
456.461; 1970.825;    0.000;    0.000
456.507; 1917.825;    0.000;    0.000
456.552; 1926.825;    0.000;    0.000
456.597; 1898.825;    0.000;    0.000
456.642; 1904.825;    0.000;    0.000
456.687; 1921.825;    0.000;    0.000
456.732; 1922.825;    0.000;    0.000
456.776; 1909.825;    0.000;    0.000
456.821; 1889.825;    0.000;    0.000
456.866; 1906.825;    0.000;    0.000
456.911; 1862.825;    0.000;    0.000
456.956; 1945.825;    0.000;    0.000
457.001; 1928.825;    0.000;    0.000
457.046; 1944.825;    0.000;    0.000
457.091; 1817.825;    0.000;    0.000
457.136; 1909.825;    0.000;    0.000
457.181; 1938.825;    0.000;    0.000
457.225; 1924.825;    0.000;    0.000
457.270; 1916.825;    0.000;    0.000
457.315; 1906.825;    0.000;    0.000
457.360; 1890.825;    0.000;    0.000
457.405; 1929.825;    0.000;    0.000
457.450; 1880.825;    0.000;    0.000
457.494; 1886.825;    0.000;    0.000
457.539; 1901.825;    0.000;    0.000
457.584; 1971.825;    0.000;    0.000
457.629; 1890.825;    0.000;    0.000
457.673; 2000.825;    0.000;    0.000
457.718; 1939.825;    0.000;    0.000
457.763; 2022.825;    0.000;    0.000
457.807; 1971.825;    0.000;    0.000
457.852; 1915.825;    0.000;    0.000
457.897; 1928.825;    0.000;    0.000
457.941; 1907.825;    0.000;    0.000
457.986; 1965.825;    0.000;    0.000
458.031; 1893.825;    0.000;    0.000
458.075; 1891.825;    0.000;    0.000
458.120; 2002.825;    0.000;    0.000
458.165; 1945.825;    0.000;    0.000
458.209; 1886.825;    0.000;    0.000
458.254; 1874.825;    0.000;    0.000
458.298; 1971.825;    0.000;    0.000
458.343; 1901.825;    0.000;    0.000
458.387; 1994.825;    0.000;    0.000
458.432; 1909.825;    0.000;    0.000
458.476; 1927.825;    0.000;    0.000
458.521; 1899.825;    0.000;    0.000
458.565; 1912.825;    0.000;    0.000
458.610; 1943.825;    0.000;    0.000
458.654; 1910.825;    0.000;    0.000
458.699; 1975.825;    0.000;    0.000
458.743; 1923.825;    0.000;    0.000
458.788; 1972.825;    0.000;    0.000
458.832; 1943.825;    0.000;    0.000
458.877; 1941.825;    0.000;    0.000
458.921; 1935.825;    0.000;    0.000
458.965; 1997.825;    0.000;    0.000
459.010; 1986.825;    0.000;    0.000
459.054; 1951.825;    0.000;    0.000
459.099; 1964.825;    0.000;    0.000
459.143; 1939.825;    0.000;    0.000
459.187; 1978.825;    0.000;    0.000
459.231; 2015.825;    0.000;    0.000
459.276; 1949.825;    0.000;    0.000
459.320; 1964.825;    0.000;    0.000
459.364; 2011.825;    0.000;    0.000
459.409; 1993.825;    0.000;    0.000
459.453; 1941.825;    0.000;    0.000
459.497; 2098.825;    0.000;    0.000
459.541; 1974.825;    0.000;    0.000
459.586; 1935.825;    0.000;    0.000
459.630; 2030.825;    0.000;    0.000
459.674; 2092.825;    0.000;    0.000
459.718; 1979.825;    0.000;    0.000
459.762; 2065.825;    0.000;    0.000
459.807; 2027.825;    0.000;    0.000
459.851; 2053.825;    0.000;    0.000
459.895; 2064.825;    0.000;    0.000
459.939; 2049.825;    0.000;    0.000
459.983; 2028.825;    0.000;    0.000
460.027; 1931.825;    0.000;    0.000
460.071; 2090.825;    0.000;    0.000
460.115; 2018.825;    0.000;    0.000
460.159; 2078.825;    0.000;    0.000
460.204; 2004.825;    0.000;    0.000
460.248; 2045.825;    0.000;    0.000
460.292; 2013.825;    0.000;    0.000
460.336; 2063.825;    0.000;    0.000
460.380; 2051.825;    0.000;    0.000
460.424; 2086.825;    0.000;    0.000
460.468; 2186.825;    0.000;    0.000
460.512; 2100.825;    0.000;    0.000
460.556; 2105.825;    0.000;    0.000
460.599; 2023.825;    0.000;    0.000
460.643; 2013.825;    0.000;    0.000
460.687; 2071.825;    0.000;    0.000
460.731; 1984.825;    0.000;    0.000
460.775; 2056.825;    0.000;    0.000
460.819; 2037.825;    0.000;    0.000
460.863; 1990.825;    0.000;    0.000
460.907; 2005.825;    0.000;    0.000
460.951; 2010.825;    0.000;    0.000
460.995; 2008.825;    0.000;    0.000
461.038; 2128.825;    0.000;    0.000
461.082; 2121.825;    0.000;    0.000
461.126; 2018.825;    0.000;    0.000
461.170; 2009.825;    0.000;    0.000
461.214; 2040.825;    0.000;    0.000
461.257; 2064.825;    0.000;    0.000
461.301; 2168.825;    0.000;    0.000
461.345; 2037.825;    0.000;    0.000
461.389; 2084.825;    0.000;    0.000
461.432; 2090.825;    0.000;    0.000
461.476; 2072.825;    0.000;    0.000
461.520; 2068.825;    0.000;    0.000
461.563; 2022.825;    0.000;    0.000
461.607; 2006.825;    0.000;    0.000
461.651; 2045.825;    0.000;    0.000
461.694; 2020.825;    0.000;    0.000
461.738; 2066.825;    0.000;    0.000
461.782; 2069.825;    0.000;    0.000
461.825; 2109.825;    0.000;    0.000
461.869; 2066.825;    0.000;    0.000
461.913; 2136.825;    0.000;    0.000
461.956; 2065.825;    0.000;    0.000
462.000; 2126.825;    0.000;    0.000
462.043; 2088.825;    0.000;    0.000
462.087; 2089.825;    0.000;    0.000
462.130; 2034.825;    0.000;    0.000
462.174; 2086.825;    0.000;    0.000
462.217; 2025.825;    0.000;    0.000
462.261; 2154.825;    0.000;    0.000
462.304; 2098.825;    0.000;    0.000
462.348; 2147.825;    0.000;    0.000
462.391; 2057.825;    0.000;    0.000
462.435; 2114.825;    0.000;    0.000
462.478; 2075.825;    0.000;    0.000
462.522; 2107.825;    0.000;    0.000
462.565; 2117.825;    0.000;    0.000
462.608; 2098.825;    0.000;    0.000
462.652; 2125.825;    0.000;    0.000
462.695; 2211.825;    0.000;    0.000
462.739; 2107.825;    0.000;    0.000
462.782; 2210.825;    0.000;    0.000
462.825; 2163.825;    0.000;    0.000
462.869; 2234.825;    0.000;    0.000
462.912; 2219.825;    0.000;    0.000
462.955; 2067.825;    0.000;    0.000
462.998; 2167.825;    0.000;    0.000
463.042; 2179.825;    0.000;    0.000
463.085; 2143.825;    0.000;    0.000
463.128; 2081.825;    0.000;    0.000
463.172; 2015.825;    0.000;    0.000
463.215;  463.825;    0.000;    0.000
463.258;  355.825;    0.000;    0.000
463.301;  329.825;    0.000;    0.000
463.344;  344.825;    0.000;    0.000
463.388;  335.825;    0.000;    0.000
463.431;  299.825;    0.000;    0.000
463.474;  357.825;    0.000;    0.000
463.517;  336.825;    0.000;    0.000
463.560;  330.825;    0.000;    0.000
463.603;  345.825;    0.000;    0.000
463.646;  297.825;    0.000;    0.000
463.690;  334.825;    0.000;    0.000
463.733;  340.825;    0.000;    0.000
463.776;  295.825;    0.000;    0.000
463.819;  314.825;    0.000;    0.000
463.862;  302.825;    0.000;    0.000

