
Integration time [ms]:   1.000
Averaging Nr. [scans]: 1
Smoothing Nr. [pixels]: 0
Data measured with spectrometer [name]: UV1
Wave   ;Sample   ;Dark     ;Reference
[nm]   ;[counts] ;[counts] ;[counts] 

236.381;  132.775;    0.000;    0.000
236.451;  179.775;    0.000;    0.000
236.520;  169.775;    0.000;    0.000
236.590;  190.775;    0.000;    0.000
236.660;  200.775;    0.000;    0.000
236.730;  178.775;    0.000;    0.000
236.799;  195.775;    0.000;    0.000
236.869;  166.775;    0.000;    0.000
236.939;  163.775;    0.000;    0.000
237.009;  170.775;    0.000;    0.000
237.078;  167.775;    0.000;    0.000
237.148;  187.775;    0.000;    0.000
237.218;  149.775;    0.000;    0.000
237.287;  165.775;    0.000;    0.000
237.357;  175.775;    0.000;    0.000
237.427;  169.775;    0.000;    0.000
237.496;  409.775;    0.000;    0.000
237.566;  418.775;    0.000;    0.000
237.636;  378.775;    0.000;    0.000
237.705;  435.775;    0.000;    0.000
237.775;  366.775;    0.000;    0.000
237.845;  412.775;    0.000;    0.000
237.914;  381.775;    0.000;    0.000
237.984;  397.775;    0.000;    0.000
238.054;  375.775;    0.000;    0.000
238.123;  417.775;    0.000;    0.000
238.193;  416.775;    0.000;    0.000
238.263;  396.775;    0.000;    0.000
238.332;  378.775;    0.000;    0.000
238.402;  385.775;    0.000;    0.000
238.471;  354.775;    0.000;    0.000
238.541;  398.775;    0.000;    0.000
238.611;  374.775;    0.000;    0.000
238.680;  423.775;    0.000;    0.000
238.750;  380.775;    0.000;    0.000
238.819;  393.775;    0.000;    0.000
238.889;  403.775;    0.000;    0.000
238.958;  375.775;    0.000;    0.000
239.028;  387.775;    0.000;    0.000
239.097;  390.775;    0.000;    0.000
239.167;  404.775;    0.000;    0.000
239.237;  381.775;    0.000;    0.000
239.306;  391.775;    0.000;    0.000
239.376;  417.775;    0.000;    0.000
239.445;  381.775;    0.000;    0.000
239.515;  440.775;    0.000;    0.000
239.584;  400.775;    0.000;    0.000
239.654;  375.775;    0.000;    0.000
239.723;  382.775;    0.000;    0.000
239.793;  372.775;    0.000;    0.000
239.862;  396.775;    0.000;    0.000
239.932;  410.775;    0.000;    0.000
240.001;  401.775;    0.000;    0.000
240.070;  403.775;    0.000;    0.000
240.140;  420.775;    0.000;    0.000
240.209;  354.775;    0.000;    0.000
240.279;  377.775;    0.000;    0.000
240.348;  416.775;    0.000;    0.000
240.418;  391.775;    0.000;    0.000
240.487;  376.775;    0.000;    0.000
240.556;  369.775;    0.000;    0.000
240.626;  390.775;    0.000;    0.000
240.695;  400.775;    0.000;    0.000
240.765;  385.775;    0.000;    0.000
240.834;  346.775;    0.000;    0.000
240.903;  398.775;    0.000;    0.000
240.973;  391.775;    0.000;    0.000
241.042;  364.775;    0.000;    0.000
241.112;  410.775;    0.000;    0.000
241.181;  409.775;    0.000;    0.000
241.250;  361.775;    0.000;    0.000
241.320;  403.775;    0.000;    0.000
241.389;  388.775;    0.000;    0.000
241.458;  339.775;    0.000;    0.000
241.528;  382.775;    0.000;    0.000
241.597;  368.775;    0.000;    0.000
241.666;  389.775;    0.000;    0.000
241.736;  392.775;    0.000;    0.000
241.805;  405.775;    0.000;    0.000
241.874;  391.775;    0.000;    0.000
241.943;  378.775;    0.000;    0.000
242.013;  430.775;    0.000;    0.000
242.082;  326.775;    0.000;    0.000
242.151;  382.775;    0.000;    0.000
242.221;  379.775;    0.000;    0.000
242.290;  371.775;    0.000;    0.000
242.359;  343.775;    0.000;    0.000
242.428;  385.775;    0.000;    0.000
242.498;  361.775;    0.000;    0.000
242.567;  397.775;    0.000;    0.000
242.636;  367.775;    0.000;    0.000
242.705;  393.775;    0.000;    0.000
242.774;  378.775;    0.000;    0.000
242.844;  406.775;    0.000;    0.000
242.913;  422.775;    0.000;    0.000
242.982;  377.775;    0.000;    0.000
243.051;  334.775;    0.000;    0.000
243.120;  407.775;    0.000;    0.000
243.190;  333.775;    0.000;    0.000
243.259;  405.775;    0.000;    0.000
243.328;  362.775;    0.000;    0.000
243.397;  345.775;    0.000;    0.000
243.466;  381.775;    0.000;    0.000
243.535;  360.775;    0.000;    0.000
243.605;  338.775;    0.000;    0.000
243.674;  391.775;    0.000;    0.000
243.743;  414.775;    0.000;    0.000
243.812;  374.775;    0.000;    0.000
243.881;  382.775;    0.000;    0.000
243.950;  381.775;    0.000;    0.000
244.019;  397.775;    0.000;    0.000
244.088;  353.775;    0.000;    0.000
244.158;  389.775;    0.000;    0.000
244.227;  351.775;    0.000;    0.000
244.296;  388.775;    0.000;    0.000
244.365;  338.775;    0.000;    0.000
244.434;  348.775;    0.000;    0.000
244.503;  404.775;    0.000;    0.000
244.572;  355.775;    0.000;    0.000
244.641;  346.775;    0.000;    0.000
244.710;  411.775;    0.000;    0.000
244.779;  380.775;    0.000;    0.000
244.848;  326.775;    0.000;    0.000
244.917;  363.775;    0.000;    0.000
244.986;  403.775;    0.000;    0.000
245.055;  381.775;    0.000;    0.000
245.124;  340.775;    0.000;    0.000
245.193;  413.775;    0.000;    0.000
245.262;  381.775;    0.000;    0.000
245.331;  395.775;    0.000;    0.000
245.400;  386.775;    0.000;    0.000
245.469;  384.775;    0.000;    0.000
245.538;  408.775;    0.000;    0.000
245.607;  408.775;    0.000;    0.000
245.676;  419.775;    0.000;    0.000
245.745;  401.775;    0.000;    0.000
245.814;  386.775;    0.000;    0.000
245.883;  412.775;    0.000;    0.000
245.952;  396.775;    0.000;    0.000
246.021;  371.775;    0.000;    0.000
246.090;  346.775;    0.000;    0.000
246.159;  345.775;    0.000;    0.000
246.227;  412.775;    0.000;    0.000
246.296;  380.775;    0.000;    0.000
246.365;  395.775;    0.000;    0.000
246.434;  455.775;    0.000;    0.000
246.503;  408.775;    0.000;    0.000
246.572;  416.775;    0.000;    0.000
246.641;  360.775;    0.000;    0.000
246.710;  389.775;    0.000;    0.000
246.779;  387.775;    0.000;    0.000
246.847;  376.775;    0.000;    0.000
246.916;  448.775;    0.000;    0.000
246.985;  378.775;    0.000;    0.000
247.054;  404.775;    0.000;    0.000
247.123;  369.775;    0.000;    0.000
247.192;  384.775;    0.000;    0.000
247.260;  374.775;    0.000;    0.000
247.329;  365.775;    0.000;    0.000
247.398;  380.775;    0.000;    0.000
247.467;  378.775;    0.000;    0.000
247.536;  406.775;    0.000;    0.000
247.604;  401.775;    0.000;    0.000
247.673;  374.775;    0.000;    0.000
247.742;  384.775;    0.000;    0.000
247.811;  445.775;    0.000;    0.000
247.879;  385.775;    0.000;    0.000
247.948;  400.775;    0.000;    0.000
248.017;  359.775;    0.000;    0.000
248.086;  368.775;    0.000;    0.000
248.154;  380.775;    0.000;    0.000
248.223;  426.775;    0.000;    0.000
248.292;  368.775;    0.000;    0.000
248.361;  387.775;    0.000;    0.000
248.429;  398.775;    0.000;    0.000
248.498;  390.775;    0.000;    0.000
248.567;  383.775;    0.000;    0.000
248.635;  426.775;    0.000;    0.000
248.704;  413.775;    0.000;    0.000
248.773;  353.775;    0.000;    0.000
248.841;  355.775;    0.000;    0.000
248.910;  411.775;    0.000;    0.000
248.979;  367.775;    0.000;    0.000
249.047;  380.775;    0.000;    0.000
249.116;  398.775;    0.000;    0.000
249.185;  411.775;    0.000;    0.000
249.253;  337.775;    0.000;    0.000
249.322;  363.775;    0.000;    0.000
249.390;  388.775;    0.000;    0.000
249.459;  403.775;    0.000;    0.000
249.528;  369.775;    0.000;    0.000
249.596;  338.775;    0.000;    0.000
249.665;  359.775;    0.000;    0.000
249.733;  362.775;    0.000;    0.000
249.802;  411.775;    0.000;    0.000
249.871;  376.775;    0.000;    0.000
249.939;  355.775;    0.000;    0.000
250.008;  345.775;    0.000;    0.000
250.076;  351.775;    0.000;    0.000
250.145;  359.775;    0.000;    0.000
250.213;  368.775;    0.000;    0.000
250.282;  357.775;    0.000;    0.000
250.350;  302.775;    0.000;    0.000
250.419;  369.775;    0.000;    0.000
250.487;  337.775;    0.000;    0.000
250.556;  356.775;    0.000;    0.000
250.624;  346.775;    0.000;    0.000
250.693;  319.775;    0.000;    0.000
250.761;  350.775;    0.000;    0.000
250.830;  406.775;    0.000;    0.000
250.898;  344.775;    0.000;    0.000
250.967;  305.775;    0.000;    0.000
251.035;  333.775;    0.000;    0.000
251.104;  337.775;    0.000;    0.000
251.172;  339.775;    0.000;    0.000
251.241;  328.775;    0.000;    0.000
251.309;  350.775;    0.000;    0.000
251.378;  336.775;    0.000;    0.000
251.446;  310.775;    0.000;    0.000
251.514;  345.775;    0.000;    0.000
251.583;  364.775;    0.000;    0.000
251.651;  303.775;    0.000;    0.000
251.720;  350.775;    0.000;    0.000
251.788;  353.775;    0.000;    0.000
251.856;  290.775;    0.000;    0.000
251.925;  298.775;    0.000;    0.000
251.993;  355.775;    0.000;    0.000
252.062;  333.775;    0.000;    0.000
252.130;  320.775;    0.000;    0.000
252.198;  321.775;    0.000;    0.000
252.267;  289.775;    0.000;    0.000
252.335;  335.775;    0.000;    0.000
252.403;  308.775;    0.000;    0.000
252.472;  284.775;    0.000;    0.000
252.540;  308.775;    0.000;    0.000
252.608;  298.775;    0.000;    0.000
252.677;  333.775;    0.000;    0.000
252.745;  326.775;    0.000;    0.000
252.813;  348.775;    0.000;    0.000
252.881;  260.775;    0.000;    0.000
252.950;  297.775;    0.000;    0.000
253.018;  328.775;    0.000;    0.000
253.086;  259.775;    0.000;    0.000
253.155;  274.775;    0.000;    0.000
253.223;  280.775;    0.000;    0.000
253.291;  286.775;    0.000;    0.000
253.359;  322.775;    0.000;    0.000
253.428;  335.775;    0.000;    0.000
253.496;  257.775;    0.000;    0.000
253.564;  276.775;    0.000;    0.000
253.632;  285.775;    0.000;    0.000
253.700;  337.775;    0.000;    0.000
253.769;  291.775;    0.000;    0.000
253.837;  284.775;    0.000;    0.000
253.905;  306.775;    0.000;    0.000
253.973;  302.775;    0.000;    0.000
254.041;  304.775;    0.000;    0.000
254.110;  285.775;    0.000;    0.000
254.178;  258.775;    0.000;    0.000
254.246;  305.775;    0.000;    0.000
254.314;  325.775;    0.000;    0.000
254.382;  330.775;    0.000;    0.000
254.450;  304.775;    0.000;    0.000
254.518;  291.775;    0.000;    0.000
254.587;  252.775;    0.000;    0.000
254.655;  280.775;    0.000;    0.000
254.723;  291.775;    0.000;    0.000
254.791;  330.775;    0.000;    0.000
254.859;  311.775;    0.000;    0.000
254.927;  296.775;    0.000;    0.000
254.995;  272.775;    0.000;    0.000
255.063;  301.775;    0.000;    0.000
255.131;  293.775;    0.000;    0.000
255.199;  319.775;    0.000;    0.000
255.267;  252.775;    0.000;    0.000
255.336;  314.775;    0.000;    0.000
255.404;  284.775;    0.000;    0.000
255.472;  310.775;    0.000;    0.000
255.540;  299.775;    0.000;    0.000
255.608;  264.775;    0.000;    0.000
255.676;  291.775;    0.000;    0.000
255.744;  290.775;    0.000;    0.000
255.812;  311.775;    0.000;    0.000
255.880;  351.775;    0.000;    0.000
255.948;  282.775;    0.000;    0.000
256.016;  293.775;    0.000;    0.000
256.084;  321.775;    0.000;    0.000
256.152;  319.775;    0.000;    0.000
256.220;  287.775;    0.000;    0.000
256.288;  325.775;    0.000;    0.000
256.356;  272.775;    0.000;    0.000
256.424;  264.775;    0.000;    0.000
256.491;  237.775;    0.000;    0.000
256.559;  269.775;    0.000;    0.000
256.627;  286.775;    0.000;    0.000
256.695;  268.775;    0.000;    0.000
256.763;  310.775;    0.000;    0.000
256.831;  292.775;    0.000;    0.000
256.899;  316.775;    0.000;    0.000
256.967;  249.775;    0.000;    0.000
257.035;  294.775;    0.000;    0.000
257.103;  319.775;    0.000;    0.000
257.171;  302.775;    0.000;    0.000
257.238;  254.775;    0.000;    0.000
257.306;  288.775;    0.000;    0.000
257.374;  287.775;    0.000;    0.000
257.442;  275.775;    0.000;    0.000
257.510;  313.775;    0.000;    0.000
257.578;  281.775;    0.000;    0.000
257.646;  314.775;    0.000;    0.000
257.713;  281.775;    0.000;    0.000
257.781;  299.775;    0.000;    0.000
257.849;  312.775;    0.000;    0.000
257.917;  300.775;    0.000;    0.000
257.985;  247.775;    0.000;    0.000
258.052;  286.775;    0.000;    0.000
258.120;  317.775;    0.000;    0.000
258.188;  318.775;    0.000;    0.000
258.256;  260.775;    0.000;    0.000
258.324;  373.775;    0.000;    0.000
258.391;  275.775;    0.000;    0.000
258.459;  320.775;    0.000;    0.000
258.527;  301.775;    0.000;    0.000
258.595;  320.775;    0.000;    0.000
258.662;  256.775;    0.000;    0.000
258.730;  339.775;    0.000;    0.000
258.798;  272.775;    0.000;    0.000
258.865;  350.775;    0.000;    0.000
258.933;  334.775;    0.000;    0.000
259.001;  338.775;    0.000;    0.000
259.069;  293.775;    0.000;    0.000
259.136;  330.775;    0.000;    0.000
259.204;  335.775;    0.000;    0.000
259.272;  369.775;    0.000;    0.000
259.339;  289.775;    0.000;    0.000
259.407;  370.775;    0.000;    0.000
259.475;  295.775;    0.000;    0.000
259.542;  349.775;    0.000;    0.000
259.610;  310.775;    0.000;    0.000
259.677;  350.775;    0.000;    0.000
259.745;  305.775;    0.000;    0.000
259.813;  339.775;    0.000;    0.000
259.880;  370.775;    0.000;    0.000
259.948;  331.775;    0.000;    0.000
260.016;  315.775;    0.000;    0.000
260.083;  376.775;    0.000;    0.000
260.151;  339.775;    0.000;    0.000
260.218;  365.775;    0.000;    0.000
260.286;  339.775;    0.000;    0.000
260.353;  365.775;    0.000;    0.000
260.421;  370.775;    0.000;    0.000
260.489;  377.775;    0.000;    0.000
260.556;  376.775;    0.000;    0.000
260.624;  379.775;    0.000;    0.000
260.691;  374.775;    0.000;    0.000
260.759;  387.775;    0.000;    0.000
260.826;  364.775;    0.000;    0.000
260.894;  370.775;    0.000;    0.000
260.961;  361.775;    0.000;    0.000
261.029;  455.775;    0.000;    0.000
261.096;  383.775;    0.000;    0.000
261.164;  370.775;    0.000;    0.000
261.231;  415.775;    0.000;    0.000
261.299;  426.775;    0.000;    0.000
261.366;  415.775;    0.000;    0.000
261.434;  413.775;    0.000;    0.000
261.501;  387.775;    0.000;    0.000
261.568;  433.775;    0.000;    0.000
261.636;  407.775;    0.000;    0.000
261.703;  389.775;    0.000;    0.000
261.771;  432.775;    0.000;    0.000
261.838;  401.775;    0.000;    0.000
261.906;  396.775;    0.000;    0.000
261.973;  473.775;    0.000;    0.000
262.040;  466.775;    0.000;    0.000
262.108;  418.775;    0.000;    0.000
262.175;  420.775;    0.000;    0.000
262.243;  456.775;    0.000;    0.000
262.310;  432.775;    0.000;    0.000
262.377;  431.775;    0.000;    0.000
262.445;  441.775;    0.000;    0.000
262.512;  440.775;    0.000;    0.000
262.579;  470.775;    0.000;    0.000
262.647;  488.775;    0.000;    0.000
262.714;  515.775;    0.000;    0.000
262.781;  438.775;    0.000;    0.000
262.849;  498.775;    0.000;    0.000
262.916;  477.775;    0.000;    0.000
262.983;  506.775;    0.000;    0.000
263.051;  477.775;    0.000;    0.000
263.118;  449.775;    0.000;    0.000
263.185;  477.775;    0.000;    0.000
263.252;  514.775;    0.000;    0.000
263.320;  481.775;    0.000;    0.000
263.387;  498.775;    0.000;    0.000
263.454;  534.775;    0.000;    0.000
263.522;  424.775;    0.000;    0.000
263.589;  501.775;    0.000;    0.000
263.656;  470.775;    0.000;    0.000
263.723;  533.775;    0.000;    0.000
263.790;  489.775;    0.000;    0.000
263.858;  508.775;    0.000;    0.000
263.925;  534.775;    0.000;    0.000
263.992;  555.775;    0.000;    0.000
264.059;  538.775;    0.000;    0.000
264.126;  590.775;    0.000;    0.000
264.194;  524.775;    0.000;    0.000
264.261;  571.775;    0.000;    0.000
264.328;  529.775;    0.000;    0.000
264.395;  593.775;    0.000;    0.000
264.462;  571.775;    0.000;    0.000
264.529;  528.775;    0.000;    0.000
264.597;  559.775;    0.000;    0.000
264.664;  600.775;    0.000;    0.000
264.731;  540.775;    0.000;    0.000
264.798;  531.775;    0.000;    0.000
264.865;  584.775;    0.000;    0.000
264.932;  575.775;    0.000;    0.000
264.999;  586.775;    0.000;    0.000
265.066;  584.775;    0.000;    0.000
265.133;  591.775;    0.000;    0.000
265.201;  558.775;    0.000;    0.000
265.268;  555.775;    0.000;    0.000
265.335;  581.775;    0.000;    0.000
265.402;  608.775;    0.000;    0.000
265.469;  597.775;    0.000;    0.000
265.536;  549.775;    0.000;    0.000
265.603;  643.775;    0.000;    0.000
265.670;  612.775;    0.000;    0.000
265.737;  590.775;    0.000;    0.000
265.804;  560.775;    0.000;    0.000
265.871;  598.775;    0.000;    0.000
265.938;  599.775;    0.000;    0.000
266.005;  614.775;    0.000;    0.000
266.072;  585.775;    0.000;    0.000
266.139;  660.775;    0.000;    0.000
266.206;  615.775;    0.000;    0.000
266.273;  667.775;    0.000;    0.000
266.340;  587.775;    0.000;    0.000
266.407;  568.775;    0.000;    0.000
266.474;  594.775;    0.000;    0.000
266.541;  643.775;    0.000;    0.000
266.608;  583.775;    0.000;    0.000
266.675;  663.775;    0.000;    0.000
266.742;  692.775;    0.000;    0.000
266.808;  641.775;    0.000;    0.000
266.875;  645.775;    0.000;    0.000
266.942;  661.775;    0.000;    0.000
267.009;  659.775;    0.000;    0.000
267.076;  652.775;    0.000;    0.000
267.143;  678.775;    0.000;    0.000
267.210;  664.775;    0.000;    0.000
267.277;  632.775;    0.000;    0.000
267.344;  685.775;    0.000;    0.000
267.410;  662.775;    0.000;    0.000
267.477;  697.775;    0.000;    0.000
267.544;  676.775;    0.000;    0.000
267.611;  684.775;    0.000;    0.000
267.678;  682.775;    0.000;    0.000
267.745;  729.775;    0.000;    0.000
267.811;  676.775;    0.000;    0.000
267.878;  648.775;    0.000;    0.000
267.945;  686.775;    0.000;    0.000
268.012;  619.775;    0.000;    0.000
268.079;  708.775;    0.000;    0.000
268.145;  678.775;    0.000;    0.000
268.212;  672.775;    0.000;    0.000
268.279;  705.775;    0.000;    0.000
268.346;  709.775;    0.000;    0.000
268.412;  654.775;    0.000;    0.000
268.479;  685.775;    0.000;    0.000
268.546;  702.775;    0.000;    0.000
268.613;  716.775;    0.000;    0.000
268.679;  724.775;    0.000;    0.000
268.746;  747.775;    0.000;    0.000
268.813;  664.775;    0.000;    0.000
268.879;  641.775;    0.000;    0.000
268.946;  734.775;    0.000;    0.000
269.013;  710.775;    0.000;    0.000
269.079;  681.775;    0.000;    0.000
269.146;  700.775;    0.000;    0.000
269.213;  714.775;    0.000;    0.000
269.280;  699.775;    0.000;    0.000
269.346;  705.775;    0.000;    0.000
269.413;  700.775;    0.000;    0.000
269.479;  712.775;    0.000;    0.000
269.546;  735.775;    0.000;    0.000
269.613;  699.775;    0.000;    0.000
269.679;  700.775;    0.000;    0.000
269.746;  650.775;    0.000;    0.000
269.813;  668.775;    0.000;    0.000
269.879;  685.775;    0.000;    0.000
269.946;  699.775;    0.000;    0.000
270.012;  688.775;    0.000;    0.000
270.079;  681.775;    0.000;    0.000
270.145;  698.775;    0.000;    0.000
270.212;  694.775;    0.000;    0.000
270.279;  735.775;    0.000;    0.000
270.345;  678.775;    0.000;    0.000
270.412;  702.775;    0.000;    0.000
270.478;  701.775;    0.000;    0.000
270.545;  655.775;    0.000;    0.000
270.611;  693.775;    0.000;    0.000
270.678;  651.775;    0.000;    0.000
270.744;  649.775;    0.000;    0.000
270.811;  654.775;    0.000;    0.000
270.877;  725.775;    0.000;    0.000
270.944;  660.775;    0.000;    0.000
271.010;  653.775;    0.000;    0.000
271.077;  700.775;    0.000;    0.000
271.143;  699.775;    0.000;    0.000
271.210;  678.775;    0.000;    0.000
271.276;  668.775;    0.000;    0.000
271.342;  758.775;    0.000;    0.000
271.409;  718.775;    0.000;    0.000
271.475;  727.775;    0.000;    0.000
271.542;  727.775;    0.000;    0.000
271.608;  706.775;    0.000;    0.000
271.675;  709.775;    0.000;    0.000
271.741;  721.775;    0.000;    0.000
271.807;  699.775;    0.000;    0.000
271.874;  731.775;    0.000;    0.000
271.940;  705.775;    0.000;    0.000
272.007;  706.775;    0.000;    0.000
272.073;  672.775;    0.000;    0.000
272.139;  737.775;    0.000;    0.000
272.206;  713.775;    0.000;    0.000
272.272;  744.775;    0.000;    0.000
272.338;  761.775;    0.000;    0.000
272.405;  686.775;    0.000;    0.000
272.471;  620.775;    0.000;    0.000
272.537;  706.775;    0.000;    0.000
272.604;  628.775;    0.000;    0.000
272.670;  744.775;    0.000;    0.000
272.736;  667.775;    0.000;    0.000
272.802;  774.775;    0.000;    0.000
272.869;  687.775;    0.000;    0.000
272.935;  692.775;    0.000;    0.000
273.001;  754.775;    0.000;    0.000
273.068;  683.775;    0.000;    0.000
273.134;  709.775;    0.000;    0.000
273.200;  761.775;    0.000;    0.000
273.266;  782.775;    0.000;    0.000
273.333;  741.775;    0.000;    0.000
273.399;  659.775;    0.000;    0.000
273.465;  814.775;    0.000;    0.000
273.531;  700.775;    0.000;    0.000
273.597;  779.775;    0.000;    0.000
273.664;  736.775;    0.000;    0.000
273.730;  739.775;    0.000;    0.000
273.796;  739.775;    0.000;    0.000
273.862;  780.775;    0.000;    0.000
273.928;  755.775;    0.000;    0.000
273.995;  740.775;    0.000;    0.000
274.061;  797.775;    0.000;    0.000
274.127;  759.775;    0.000;    0.000
274.193;  770.775;    0.000;    0.000
274.259;  725.775;    0.000;    0.000
274.325;  736.775;    0.000;    0.000
274.391;  696.775;    0.000;    0.000
274.457;  747.775;    0.000;    0.000
274.524;  759.775;    0.000;    0.000
274.590;  726.775;    0.000;    0.000
274.656;  788.775;    0.000;    0.000
274.722;  806.775;    0.000;    0.000
274.788;  787.775;    0.000;    0.000
274.854;  749.775;    0.000;    0.000
274.920;  739.775;    0.000;    0.000
274.986;  830.775;    0.000;    0.000
275.052;  787.775;    0.000;    0.000
275.118;  781.775;    0.000;    0.000
275.184;  792.775;    0.000;    0.000
275.250;  811.775;    0.000;    0.000
275.316;  851.775;    0.000;    0.000
275.382;  827.775;    0.000;    0.000
275.448;  872.775;    0.000;    0.000
275.514;  834.775;    0.000;    0.000
275.580;  795.775;    0.000;    0.000
275.646;  797.775;    0.000;    0.000
275.712;  803.775;    0.000;    0.000
275.778;  824.775;    0.000;    0.000
275.844;  861.775;    0.000;    0.000
275.910;  881.775;    0.000;    0.000
275.976;  908.775;    0.000;    0.000
276.042;  881.775;    0.000;    0.000
276.108;  928.775;    0.000;    0.000
276.174;  926.775;    0.000;    0.000
276.240;  950.775;    0.000;    0.000
276.306;  946.775;    0.000;    0.000
276.372;  922.775;    0.000;    0.000
276.437;  926.775;    0.000;    0.000
276.503; 1037.775;    0.000;    0.000
276.569;  989.775;    0.000;    0.000
276.635;  965.775;    0.000;    0.000
276.701;  967.775;    0.000;    0.000
276.767;  925.775;    0.000;    0.000
276.833; 1024.775;    0.000;    0.000
276.899; 1032.775;    0.000;    0.000
276.964; 1042.775;    0.000;    0.000
277.030; 1103.775;    0.000;    0.000
277.096; 1066.775;    0.000;    0.000
277.162; 1150.775;    0.000;    0.000
277.228; 1120.775;    0.000;    0.000
277.293; 1163.775;    0.000;    0.000
277.359; 1169.775;    0.000;    0.000
277.425; 1263.775;    0.000;    0.000
277.491; 1227.775;    0.000;    0.000
277.557; 1414.775;    0.000;    0.000
277.622; 1757.775;    0.000;    0.000
277.688; 1944.775;    0.000;    0.000
277.754; 1825.775;    0.000;    0.000
277.820; 2015.775;    0.000;    0.000
277.885; 2283.775;    0.000;    0.000
277.951; 2792.775;    0.000;    0.000
278.017; 2804.775;    0.000;    0.000
278.083; 2336.775;    0.000;    0.000
278.148; 2273.775;    0.000;    0.000
278.214; 2191.775;    0.000;    0.000
278.280; 2330.775;    0.000;    0.000
278.345; 2276.775;    0.000;    0.000
278.411; 2072.775;    0.000;    0.000
278.477; 2024.775;    0.000;    0.000
278.542; 2177.775;    0.000;    0.000
278.608; 2263.775;    0.000;    0.000
278.674; 2536.775;    0.000;    0.000
278.739; 2714.775;    0.000;    0.000
278.805; 2904.775;    0.000;    0.000
278.871; 3212.775;    0.000;    0.000
278.936; 3771.775;    0.000;    0.000
279.002; 4840.775;    0.000;    0.000
279.067; 6193.775;    0.000;    0.000
279.133; 6624.775;    0.000;    0.000
279.199; 6224.775;    0.000;    0.000
279.264; 6449.775;    0.000;    0.000
279.330; 7008.775;    0.000;    0.000
279.395; 8182.775;    0.000;    0.000
279.461; 9544.775;    0.000;    0.000
279.527; 9904.775;    0.000;    0.000
279.592;10010.775;    0.000;    0.000
279.658;10088.775;    0.000;    0.000
279.723; 9433.775;    0.000;    0.000
279.789; 9306.775;    0.000;    0.000
279.854; 9068.775;    0.000;    0.000
279.920; 8009.775;    0.000;    0.000
279.985; 7486.775;    0.000;    0.000
280.051; 7480.775;    0.000;    0.000
280.116; 7915.775;    0.000;    0.000
280.182; 9360.775;    0.000;    0.000
280.247;10016.775;    0.000;    0.000
280.313; 9867.775;    0.000;    0.000
280.378; 8554.775;    0.000;    0.000
280.444; 6883.775;    0.000;    0.000
280.509; 5766.775;    0.000;    0.000
280.574; 4988.775;    0.000;    0.000
280.640; 4303.775;    0.000;    0.000
280.705; 3923.775;    0.000;    0.000
280.771; 3551.775;    0.000;    0.000
280.836; 3225.775;    0.000;    0.000
280.902; 3058.775;    0.000;    0.000
280.967; 2839.775;    0.000;    0.000
281.032; 2743.775;    0.000;    0.000
281.098; 2647.775;    0.000;    0.000
281.163; 2470.775;    0.000;    0.000
281.229; 2455.775;    0.000;    0.000
281.294; 2311.775;    0.000;    0.000
281.359; 2151.775;    0.000;    0.000
281.425; 2119.775;    0.000;    0.000
281.490; 2107.775;    0.000;    0.000
281.555; 2057.775;    0.000;    0.000
281.621; 1953.775;    0.000;    0.000
281.686; 1851.775;    0.000;    0.000
281.751; 1851.775;    0.000;    0.000
281.816; 1781.775;    0.000;    0.000
281.882; 1792.775;    0.000;    0.000
281.947; 1690.775;    0.000;    0.000
282.012; 1757.775;    0.000;    0.000
282.078; 1727.775;    0.000;    0.000
282.143; 1654.775;    0.000;    0.000
282.208; 1700.775;    0.000;    0.000
282.273; 1617.775;    0.000;    0.000
282.339; 1602.775;    0.000;    0.000
282.404; 1543.775;    0.000;    0.000
282.469; 1477.775;    0.000;    0.000
282.534; 1518.775;    0.000;    0.000
282.600; 1478.775;    0.000;    0.000
282.665; 1479.775;    0.000;    0.000
282.730; 1379.775;    0.000;    0.000
282.795; 1434.775;    0.000;    0.000
282.860; 1423.775;    0.000;    0.000
282.926; 1459.775;    0.000;    0.000
282.991; 1305.775;    0.000;    0.000
283.056; 1329.775;    0.000;    0.000
283.121; 1411.775;    0.000;    0.000
283.186; 1301.775;    0.000;    0.000
283.251; 1267.775;    0.000;    0.000
283.316; 1360.775;    0.000;    0.000
283.382; 1446.775;    0.000;    0.000
283.447; 1275.775;    0.000;    0.000
283.512; 1256.775;    0.000;    0.000
283.577; 1267.775;    0.000;    0.000
283.642; 1342.775;    0.000;    0.000
283.707; 1249.775;    0.000;    0.000
283.772; 1267.775;    0.000;    0.000
283.837; 1168.775;    0.000;    0.000
283.902; 1239.775;    0.000;    0.000
283.967; 1247.775;    0.000;    0.000
284.032; 1238.775;    0.000;    0.000
284.097; 1265.775;    0.000;    0.000
284.163; 1230.775;    0.000;    0.000
284.228; 1235.775;    0.000;    0.000
284.293; 1263.775;    0.000;    0.000
284.358; 1223.775;    0.000;    0.000
284.423; 1276.775;    0.000;    0.000
284.488; 1333.775;    0.000;    0.000
284.553; 1323.775;    0.000;    0.000
284.618; 1351.775;    0.000;    0.000
284.683; 1381.775;    0.000;    0.000
284.748; 1412.775;    0.000;    0.000
284.812; 1536.775;    0.000;    0.000
284.877; 1619.775;    0.000;    0.000
284.942; 1787.775;    0.000;    0.000
285.007; 2138.775;    0.000;    0.000
285.072; 2518.775;    0.000;    0.000
285.137; 3394.775;    0.000;    0.000
285.202; 4535.775;    0.000;    0.000
285.267; 4877.775;    0.000;    0.000
285.332; 3937.775;    0.000;    0.000
285.397; 2967.775;    0.000;    0.000
285.462; 2397.775;    0.000;    0.000
285.527; 2013.775;    0.000;    0.000
285.591; 1854.775;    0.000;    0.000
285.656; 1658.775;    0.000;    0.000
285.721; 1597.775;    0.000;    0.000
285.786; 1430.775;    0.000;    0.000
285.851; 1380.775;    0.000;    0.000
285.916; 1445.775;    0.000;    0.000
285.981; 1359.775;    0.000;    0.000
286.045; 1352.775;    0.000;    0.000
286.110; 1347.775;    0.000;    0.000
286.175; 1256.775;    0.000;    0.000
286.240; 1244.775;    0.000;    0.000
286.305; 1297.775;    0.000;    0.000
286.369; 1248.775;    0.000;    0.000
286.434; 1261.775;    0.000;    0.000
286.499; 1206.775;    0.000;    0.000
286.564; 1210.775;    0.000;    0.000
286.628; 1210.775;    0.000;    0.000
286.693; 1144.775;    0.000;    0.000
286.758; 1148.775;    0.000;    0.000
286.823; 1099.775;    0.000;    0.000
286.887; 1127.775;    0.000;    0.000
286.952; 1151.775;    0.000;    0.000
287.017; 1142.775;    0.000;    0.000
287.082; 1104.775;    0.000;    0.000
287.146; 1167.775;    0.000;    0.000
287.211; 1155.775;    0.000;    0.000
287.276; 1057.775;    0.000;    0.000
287.340; 1135.775;    0.000;    0.000
287.405; 1162.775;    0.000;    0.000
287.470; 1071.775;    0.000;    0.000
287.534; 1117.775;    0.000;    0.000
287.599; 1140.775;    0.000;    0.000
287.663; 1095.775;    0.000;    0.000
287.728; 1105.775;    0.000;    0.000
287.793; 1127.775;    0.000;    0.000
287.857; 1150.775;    0.000;    0.000
287.922; 1120.775;    0.000;    0.000
287.987; 1085.775;    0.000;    0.000
288.051; 1124.775;    0.000;    0.000
288.116; 1065.775;    0.000;    0.000
288.180; 1145.775;    0.000;    0.000
288.245; 1070.775;    0.000;    0.000
288.309; 1136.775;    0.000;    0.000
288.374; 1080.775;    0.000;    0.000
288.439; 1114.775;    0.000;    0.000
288.503; 1112.775;    0.000;    0.000
288.568; 1179.775;    0.000;    0.000
288.632; 1118.775;    0.000;    0.000
288.697; 1138.775;    0.000;    0.000
288.761; 1055.775;    0.000;    0.000
288.826; 1026.775;    0.000;    0.000
288.890; 1085.775;    0.000;    0.000
288.955; 1129.775;    0.000;    0.000
289.019; 1093.775;    0.000;    0.000
289.084; 1103.775;    0.000;    0.000
289.148; 1083.775;    0.000;    0.000
289.212; 1156.775;    0.000;    0.000
289.277; 1094.775;    0.000;    0.000
289.341; 1078.775;    0.000;    0.000
289.406; 1089.775;    0.000;    0.000
289.470; 1097.775;    0.000;    0.000
289.535; 1098.775;    0.000;    0.000
289.599; 1123.775;    0.000;    0.000
289.663; 1125.775;    0.000;    0.000
289.728; 1102.775;    0.000;    0.000
289.792; 1134.775;    0.000;    0.000
289.857; 1147.775;    0.000;    0.000
289.921; 1163.775;    0.000;    0.000
289.985; 1108.775;    0.000;    0.000
290.050; 1167.775;    0.000;    0.000
290.114; 1073.775;    0.000;    0.000
290.178; 1091.775;    0.000;    0.000
290.243; 1051.775;    0.000;    0.000
290.307; 1112.775;    0.000;    0.000
290.371; 1149.775;    0.000;    0.000
290.436; 1072.775;    0.000;    0.000
290.500; 1117.775;    0.000;    0.000
290.564; 1181.775;    0.000;    0.000
290.629; 1142.775;    0.000;    0.000
290.693; 1174.775;    0.000;    0.000
290.757; 1194.775;    0.000;    0.000
290.821; 1154.775;    0.000;    0.000
290.886; 1172.775;    0.000;    0.000
290.950; 1191.775;    0.000;    0.000
291.014; 1153.775;    0.000;    0.000
291.078; 1195.775;    0.000;    0.000
291.143; 1191.775;    0.000;    0.000
291.207; 1222.775;    0.000;    0.000
291.271; 1217.775;    0.000;    0.000
291.335; 1242.775;    0.000;    0.000
291.399; 1285.775;    0.000;    0.000
291.464; 1227.775;    0.000;    0.000
291.528; 1401.775;    0.000;    0.000
291.592; 1236.775;    0.000;    0.000
291.656; 1247.775;    0.000;    0.000
291.720; 1350.775;    0.000;    0.000
291.784; 1213.775;    0.000;    0.000
291.849; 1240.775;    0.000;    0.000
291.913; 1210.775;    0.000;    0.000
291.977; 1263.775;    0.000;    0.000
292.041; 1277.775;    0.000;    0.000
292.105; 1268.775;    0.000;    0.000
292.169; 1300.775;    0.000;    0.000
292.233; 1303.775;    0.000;    0.000
292.297; 1333.775;    0.000;    0.000
292.361; 1222.775;    0.000;    0.000
292.425; 1320.775;    0.000;    0.000
292.490; 1392.775;    0.000;    0.000
292.554; 1447.775;    0.000;    0.000
292.618; 1472.775;    0.000;    0.000
292.682; 1509.775;    0.000;    0.000
292.746; 1674.775;    0.000;    0.000
292.810; 1968.775;    0.000;    0.000
292.874; 2473.775;    0.000;    0.000
292.938; 2604.775;    0.000;    0.000
293.002; 2418.775;    0.000;    0.000
293.066; 2279.775;    0.000;    0.000
293.130; 2136.775;    0.000;    0.000
293.194; 1990.775;    0.000;    0.000
293.258; 2008.775;    0.000;    0.000
293.322; 1931.775;    0.000;    0.000
293.386; 1981.775;    0.000;    0.000
293.450; 2122.775;    0.000;    0.000
293.514; 2289.775;    0.000;    0.000
293.577; 2636.775;    0.000;    0.000
293.641; 3525.775;    0.000;    0.000
293.705; 3834.775;    0.000;    0.000
293.769; 3601.775;    0.000;    0.000
293.833; 3304.775;    0.000;    0.000
293.897; 3010.775;    0.000;    0.000
293.961; 2762.775;    0.000;    0.000
294.025; 2543.775;    0.000;    0.000
294.089; 2418.775;    0.000;    0.000
294.152; 2346.775;    0.000;    0.000
294.216; 2215.775;    0.000;    0.000
294.280; 2091.775;    0.000;    0.000
294.344; 1969.775;    0.000;    0.000
294.408; 1929.775;    0.000;    0.000
294.472; 1817.775;    0.000;    0.000
294.536; 1883.775;    0.000;    0.000
294.599; 1759.775;    0.000;    0.000
294.663; 1688.775;    0.000;    0.000
294.727; 1656.775;    0.000;    0.000
294.791; 1680.775;    0.000;    0.000
294.855; 1673.775;    0.000;    0.000
294.918; 1629.775;    0.000;    0.000
294.982; 1690.775;    0.000;    0.000
295.046; 1572.775;    0.000;    0.000
295.110; 1632.775;    0.000;    0.000
295.173; 1546.775;    0.000;    0.000
295.237; 1506.775;    0.000;    0.000
295.301; 1479.775;    0.000;    0.000
295.364; 1492.775;    0.000;    0.000
295.428; 1496.775;    0.000;    0.000
295.492; 1419.775;    0.000;    0.000
295.556; 1527.775;    0.000;    0.000
295.619; 1439.775;    0.000;    0.000
295.683; 1482.775;    0.000;    0.000
295.747; 1380.775;    0.000;    0.000
295.810; 1489.775;    0.000;    0.000
295.874; 1433.775;    0.000;    0.000
295.938; 1405.775;    0.000;    0.000
296.001; 1465.775;    0.000;    0.000
296.065; 1398.775;    0.000;    0.000
296.128; 1444.775;    0.000;    0.000
296.192; 1336.775;    0.000;    0.000
296.256; 1382.775;    0.000;    0.000
296.319; 1402.775;    0.000;    0.000
296.383; 1393.775;    0.000;    0.000
296.447; 1378.775;    0.000;    0.000
296.510; 1350.775;    0.000;    0.000
296.574; 1415.775;    0.000;    0.000
296.637; 1397.775;    0.000;    0.000
296.701; 1372.775;    0.000;    0.000
296.764; 1321.775;    0.000;    0.000
296.828; 1445.775;    0.000;    0.000
296.891; 1355.775;    0.000;    0.000
296.955; 1356.775;    0.000;    0.000
297.018; 1452.775;    0.000;    0.000
297.082; 1422.775;    0.000;    0.000
297.145; 1232.775;    0.000;    0.000
297.209; 1405.775;    0.000;    0.000
297.272; 1316.775;    0.000;    0.000
297.336; 1366.775;    0.000;    0.000
297.399; 1371.775;    0.000;    0.000
297.463; 1340.775;    0.000;    0.000
297.526; 1362.775;    0.000;    0.000
297.590; 1290.775;    0.000;    0.000
297.653; 1387.775;    0.000;    0.000
297.717; 1381.775;    0.000;    0.000
297.780; 1354.775;    0.000;    0.000
297.843; 1331.775;    0.000;    0.000
297.907; 1355.775;    0.000;    0.000
297.970; 1361.775;    0.000;    0.000
298.034; 1372.775;    0.000;    0.000
298.097; 1297.775;    0.000;    0.000
298.160; 1377.775;    0.000;    0.000
298.224; 1351.775;    0.000;    0.000
298.287; 1364.775;    0.000;    0.000
298.350; 1274.775;    0.000;    0.000
298.414; 1298.775;    0.000;    0.000
298.477; 1246.775;    0.000;    0.000
298.540; 1307.775;    0.000;    0.000
298.604; 1358.775;    0.000;    0.000
298.667; 1301.775;    0.000;    0.000
298.730; 1317.775;    0.000;    0.000
298.794; 1245.775;    0.000;    0.000
298.857; 1291.775;    0.000;    0.000
298.920; 1295.775;    0.000;    0.000
298.984; 1314.775;    0.000;    0.000
299.047; 1288.775;    0.000;    0.000
299.110; 1316.775;    0.000;    0.000
299.173; 1323.775;    0.000;    0.000
299.237; 1307.775;    0.000;    0.000
299.300; 1305.775;    0.000;    0.000
299.363; 1268.775;    0.000;    0.000
299.426; 1280.775;    0.000;    0.000
299.489; 1293.775;    0.000;    0.000
299.553; 1307.775;    0.000;    0.000
299.616; 1228.775;    0.000;    0.000
299.679; 1318.775;    0.000;    0.000
299.742; 1276.775;    0.000;    0.000
299.805; 1338.775;    0.000;    0.000
299.868; 1325.775;    0.000;    0.000
299.932; 1290.775;    0.000;    0.000
299.995; 1263.775;    0.000;    0.000
300.058; 1260.775;    0.000;    0.000
300.121; 1265.775;    0.000;    0.000
300.184; 1292.775;    0.000;    0.000
300.247; 1297.775;    0.000;    0.000
300.310; 1281.775;    0.000;    0.000
300.374; 1240.775;    0.000;    0.000
300.437; 1308.775;    0.000;    0.000
300.500; 1260.775;    0.000;    0.000
300.563; 1286.775;    0.000;    0.000
300.626; 1336.775;    0.000;    0.000
300.689; 1318.775;    0.000;    0.000
300.752; 1272.775;    0.000;    0.000
300.815; 1300.775;    0.000;    0.000
300.878; 1299.775;    0.000;    0.000
300.941; 1276.775;    0.000;    0.000
301.004; 1235.775;    0.000;    0.000
301.067; 1260.775;    0.000;    0.000
301.130; 1248.775;    0.000;    0.000
301.193; 1289.775;    0.000;    0.000
301.256; 1252.775;    0.000;    0.000
301.319; 1353.775;    0.000;    0.000
301.382; 1294.775;    0.000;    0.000
301.445; 1266.775;    0.000;    0.000
301.508; 1208.775;    0.000;    0.000
301.571; 1272.775;    0.000;    0.000
301.634; 1278.775;    0.000;    0.000
301.697; 1279.775;    0.000;    0.000
301.760; 1323.775;    0.000;    0.000
301.823; 1326.775;    0.000;    0.000
301.885; 1262.775;    0.000;    0.000
301.948; 1345.775;    0.000;    0.000
302.011; 1251.775;    0.000;    0.000
302.074; 1309.775;    0.000;    0.000
302.137; 1289.775;    0.000;    0.000
302.200; 1363.775;    0.000;    0.000
302.263; 1250.775;    0.000;    0.000
302.326; 1275.775;    0.000;    0.000
302.388; 1316.775;    0.000;    0.000
302.451; 1300.775;    0.000;    0.000
302.514; 1267.775;    0.000;    0.000
302.577; 1289.775;    0.000;    0.000
302.640; 1323.775;    0.000;    0.000
302.703; 1306.775;    0.000;    0.000
302.765; 1404.775;    0.000;    0.000
302.828; 1381.775;    0.000;    0.000
302.891; 1270.775;    0.000;    0.000
302.954; 1309.775;    0.000;    0.000
303.016; 1339.775;    0.000;    0.000
303.079; 1364.775;    0.000;    0.000
303.142; 1364.775;    0.000;    0.000
303.205; 1339.775;    0.000;    0.000
303.267; 1302.775;    0.000;    0.000
303.330; 1269.775;    0.000;    0.000
303.393; 1346.775;    0.000;    0.000
303.456; 1340.775;    0.000;    0.000
303.518; 1335.775;    0.000;    0.000
303.581; 1339.775;    0.000;    0.000
303.644; 1348.775;    0.000;    0.000
303.706; 1285.775;    0.000;    0.000
303.769; 1316.775;    0.000;    0.000
303.832; 1305.775;    0.000;    0.000
303.894; 1423.775;    0.000;    0.000
303.957; 1322.775;    0.000;    0.000
304.020; 1352.775;    0.000;    0.000
304.082; 1338.775;    0.000;    0.000
304.145; 1402.775;    0.000;    0.000
304.207; 1369.775;    0.000;    0.000
304.270; 1311.775;    0.000;    0.000
304.333; 1354.775;    0.000;    0.000
304.395; 1345.775;    0.000;    0.000
304.458; 1401.775;    0.000;    0.000
304.520; 1382.775;    0.000;    0.000
304.583; 1355.775;    0.000;    0.000
304.646; 1353.775;    0.000;    0.000
304.708; 1406.775;    0.000;    0.000
304.771; 1366.775;    0.000;    0.000
304.833; 1425.775;    0.000;    0.000
304.896; 1449.775;    0.000;    0.000
304.958; 1346.775;    0.000;    0.000
305.021; 1411.775;    0.000;    0.000
305.083; 1389.775;    0.000;    0.000
305.146; 1424.775;    0.000;    0.000
305.208; 1406.775;    0.000;    0.000
305.271; 1413.775;    0.000;    0.000
305.333; 1457.775;    0.000;    0.000
305.396; 1418.775;    0.000;    0.000
305.458; 1442.775;    0.000;    0.000
305.520; 1435.775;    0.000;    0.000
305.583; 1414.775;    0.000;    0.000
305.645; 1458.775;    0.000;    0.000
305.708; 1431.775;    0.000;    0.000
305.770; 1495.775;    0.000;    0.000
305.833; 1385.775;    0.000;    0.000
305.895; 1483.775;    0.000;    0.000
305.957; 1457.775;    0.000;    0.000
306.020; 1419.775;    0.000;    0.000
306.082; 1459.775;    0.000;    0.000
306.144; 1386.775;    0.000;    0.000
306.207; 1411.775;    0.000;    0.000
306.269; 1384.775;    0.000;    0.000
306.331; 1431.775;    0.000;    0.000
306.394; 1457.775;    0.000;    0.000
306.456; 1459.775;    0.000;    0.000
306.518; 1469.775;    0.000;    0.000
306.581; 1498.775;    0.000;    0.000
306.643; 1467.775;    0.000;    0.000
306.705; 1466.775;    0.000;    0.000
306.768; 1451.775;    0.000;    0.000
306.830; 1528.775;    0.000;    0.000
306.892; 1505.775;    0.000;    0.000
306.954; 1491.775;    0.000;    0.000
307.017; 1495.775;    0.000;    0.000
307.079; 1531.775;    0.000;    0.000
307.141; 1574.775;    0.000;    0.000
307.203; 1500.775;    0.000;    0.000
307.266; 1507.775;    0.000;    0.000
307.328; 1529.775;    0.000;    0.000
307.390; 1521.775;    0.000;    0.000
307.452; 1543.775;    0.000;    0.000
307.514; 1564.775;    0.000;    0.000
307.577; 1559.775;    0.000;    0.000
307.639; 1524.775;    0.000;    0.000
307.701; 1498.775;    0.000;    0.000
307.763; 1589.775;    0.000;    0.000
307.825; 1580.775;    0.000;    0.000
307.887; 1597.775;    0.000;    0.000
307.949; 1528.775;    0.000;    0.000
308.012; 1499.775;    0.000;    0.000
308.074; 1552.775;    0.000;    0.000
308.136; 1638.775;    0.000;    0.000
308.198; 1580.775;    0.000;    0.000
308.260; 1644.775;    0.000;    0.000
308.322; 1607.775;    0.000;    0.000
308.384; 1588.775;    0.000;    0.000
308.446; 1641.775;    0.000;    0.000
308.508; 1614.775;    0.000;    0.000
308.570; 1656.775;    0.000;    0.000
308.632; 1683.775;    0.000;    0.000
308.694; 1696.775;    0.000;    0.000
308.756; 1670.775;    0.000;    0.000
308.818; 1691.775;    0.000;    0.000
308.880; 1702.775;    0.000;    0.000
308.942; 1665.775;    0.000;    0.000
309.004; 1696.775;    0.000;    0.000
309.066; 1665.775;    0.000;    0.000
309.128; 1753.775;    0.000;    0.000
309.190; 1763.775;    0.000;    0.000
309.252; 1856.775;    0.000;    0.000
309.314; 1838.775;    0.000;    0.000
309.376; 1852.775;    0.000;    0.000
309.438; 1842.775;    0.000;    0.000
309.500; 1857.775;    0.000;    0.000
309.562; 1848.775;    0.000;    0.000
309.624; 1843.775;    0.000;    0.000
309.686; 1870.775;    0.000;    0.000
309.747; 1927.775;    0.000;    0.000
309.809; 1930.775;    0.000;    0.000
309.871; 1878.775;    0.000;    0.000
309.933; 1847.775;    0.000;    0.000
309.995; 1833.775;    0.000;    0.000
310.057; 1785.775;    0.000;    0.000
310.119; 1833.775;    0.000;    0.000
310.180; 1811.775;    0.000;    0.000
310.242; 1757.775;    0.000;    0.000
310.304; 1756.775;    0.000;    0.000
310.366; 1756.775;    0.000;    0.000
310.428; 1720.775;    0.000;    0.000
310.489; 1675.775;    0.000;    0.000
310.551; 1760.775;    0.000;    0.000
310.613; 1710.775;    0.000;    0.000
310.675; 1760.775;    0.000;    0.000
310.737; 1716.775;    0.000;    0.000
310.798; 1829.775;    0.000;    0.000
310.860; 1796.775;    0.000;    0.000
310.922; 1747.775;    0.000;    0.000
310.983; 1666.775;    0.000;    0.000
311.045; 1692.775;    0.000;    0.000
311.107; 1636.775;    0.000;    0.000
311.169; 1678.775;    0.000;    0.000
311.230; 1659.775;    0.000;    0.000
311.292; 1703.775;    0.000;    0.000
311.354; 1744.775;    0.000;    0.000
311.415; 1716.775;    0.000;    0.000
311.477; 1749.775;    0.000;    0.000
311.539; 1797.775;    0.000;    0.000
311.600; 1659.775;    0.000;    0.000
311.662; 1786.775;    0.000;    0.000
311.724; 1756.775;    0.000;    0.000
311.785; 1702.775;    0.000;    0.000
311.847; 1692.775;    0.000;    0.000
311.908; 1699.775;    0.000;    0.000
311.970; 1761.775;    0.000;    0.000
312.032; 1784.775;    0.000;    0.000
312.093; 1719.775;    0.000;    0.000
312.155; 1780.775;    0.000;    0.000
312.216; 1711.775;    0.000;    0.000
312.278; 1740.775;    0.000;    0.000
312.339; 1680.775;    0.000;    0.000
312.401; 1759.775;    0.000;    0.000
312.462; 1648.775;    0.000;    0.000
312.524; 1799.775;    0.000;    0.000
312.585; 1752.775;    0.000;    0.000
312.647; 1804.775;    0.000;    0.000
312.708; 1761.775;    0.000;    0.000
312.770; 1760.775;    0.000;    0.000
312.831; 1717.775;    0.000;    0.000
312.893; 1778.775;    0.000;    0.000
312.954; 1840.775;    0.000;    0.000
313.016; 1728.775;    0.000;    0.000
313.077; 1786.775;    0.000;    0.000
313.139; 1758.775;    0.000;    0.000
313.200; 1817.775;    0.000;    0.000
313.261; 1840.775;    0.000;    0.000
313.323; 1752.775;    0.000;    0.000
313.384; 1779.775;    0.000;    0.000
313.446; 1779.775;    0.000;    0.000
313.507; 1742.775;    0.000;    0.000
313.568; 1744.775;    0.000;    0.000
313.630; 1724.775;    0.000;    0.000
313.691; 1759.775;    0.000;    0.000
313.752; 1771.775;    0.000;    0.000
313.814; 1711.775;    0.000;    0.000
313.875; 1828.775;    0.000;    0.000
313.936; 1796.775;    0.000;    0.000
313.998; 1815.775;    0.000;    0.000
314.059; 1801.775;    0.000;    0.000
314.120; 1679.775;    0.000;    0.000
314.182; 1802.775;    0.000;    0.000
314.243; 1772.775;    0.000;    0.000
314.304; 1835.775;    0.000;    0.000
314.365; 1794.775;    0.000;    0.000
314.427; 1735.775;    0.000;    0.000
314.488; 1841.775;    0.000;    0.000
314.549; 1878.775;    0.000;    0.000
314.610; 1821.775;    0.000;    0.000
314.672; 1749.775;    0.000;    0.000
314.733; 1857.775;    0.000;    0.000
314.794; 1752.775;    0.000;    0.000
314.855; 1885.775;    0.000;    0.000
314.917; 1708.775;    0.000;    0.000
314.978; 1772.775;    0.000;    0.000
315.039; 1790.775;    0.000;    0.000
315.100; 1908.775;    0.000;    0.000
315.161; 1888.775;    0.000;    0.000
315.222; 1856.775;    0.000;    0.000
315.283; 1828.775;    0.000;    0.000
315.345; 1883.775;    0.000;    0.000
315.406; 1874.775;    0.000;    0.000
315.467; 1764.775;    0.000;    0.000
315.528; 1830.775;    0.000;    0.000
315.589; 1822.775;    0.000;    0.000
315.650; 1811.775;    0.000;    0.000
315.711; 1835.775;    0.000;    0.000
315.772; 1816.775;    0.000;    0.000
315.833; 1793.775;    0.000;    0.000
315.894; 1823.775;    0.000;    0.000
315.955; 1805.775;    0.000;    0.000
316.016; 1911.775;    0.000;    0.000
316.078; 1796.775;    0.000;    0.000
316.139; 1850.775;    0.000;    0.000
316.200; 1783.775;    0.000;    0.000
316.261; 1926.775;    0.000;    0.000
316.322; 1859.775;    0.000;    0.000
316.383; 1916.775;    0.000;    0.000
316.444; 1855.775;    0.000;    0.000
316.504; 1891.775;    0.000;    0.000
316.565; 1833.775;    0.000;    0.000
316.626; 1867.775;    0.000;    0.000
316.687; 1876.775;    0.000;    0.000
316.748; 1821.775;    0.000;    0.000
316.809; 1883.775;    0.000;    0.000
316.870; 1898.775;    0.000;    0.000
316.931; 1919.775;    0.000;    0.000
316.992; 1944.775;    0.000;    0.000
317.053; 1850.775;    0.000;    0.000
317.114; 1937.775;    0.000;    0.000
317.175; 1925.775;    0.000;    0.000
317.235; 1855.775;    0.000;    0.000
317.296; 1822.775;    0.000;    0.000
317.357; 1917.775;    0.000;    0.000
317.418; 1884.775;    0.000;    0.000
317.479; 1932.775;    0.000;    0.000
317.540; 1871.775;    0.000;    0.000
317.601; 1921.775;    0.000;    0.000
317.661; 1854.775;    0.000;    0.000
317.722; 1956.775;    0.000;    0.000
317.783; 1746.775;    0.000;    0.000
317.844; 2003.775;    0.000;    0.000
317.904; 1886.775;    0.000;    0.000
317.965; 1899.775;    0.000;    0.000
318.026; 1840.775;    0.000;    0.000
318.087; 1931.775;    0.000;    0.000
318.148; 1907.775;    0.000;    0.000
318.208; 1917.775;    0.000;    0.000
318.269; 1997.775;    0.000;    0.000
318.330; 1988.775;    0.000;    0.000
318.390; 1923.775;    0.000;    0.000
318.451; 1949.775;    0.000;    0.000
318.512; 1990.775;    0.000;    0.000
318.572; 1970.775;    0.000;    0.000
318.633; 1996.775;    0.000;    0.000
318.694; 1943.775;    0.000;    0.000
318.754; 1932.775;    0.000;    0.000
318.815; 1925.775;    0.000;    0.000
318.876; 1877.775;    0.000;    0.000
318.936; 1938.775;    0.000;    0.000
318.997; 1837.775;    0.000;    0.000
319.058; 1880.775;    0.000;    0.000
319.118; 2012.775;    0.000;    0.000
319.179; 1886.775;    0.000;    0.000
319.239; 1901.775;    0.000;    0.000
319.300; 1846.775;    0.000;    0.000
319.361; 1956.775;    0.000;    0.000
319.421; 1850.775;    0.000;    0.000
319.482; 1863.775;    0.000;    0.000
319.542; 1918.775;    0.000;    0.000
319.603; 1897.775;    0.000;    0.000
319.663; 1876.775;    0.000;    0.000
319.724; 1897.775;    0.000;    0.000
319.784; 1939.775;    0.000;    0.000
319.845; 1897.775;    0.000;    0.000
319.905; 1998.775;    0.000;    0.000
319.966; 1986.775;    0.000;    0.000
320.026; 1962.775;    0.000;    0.000
320.087; 1897.775;    0.000;    0.000
320.147; 1994.775;    0.000;    0.000
320.208; 1885.775;    0.000;    0.000
320.268; 1937.775;    0.000;    0.000
320.329; 1951.775;    0.000;    0.000
320.389; 1970.775;    0.000;    0.000
320.449; 2009.775;    0.000;    0.000
320.510; 1960.775;    0.000;    0.000
320.570; 1890.775;    0.000;    0.000
320.631; 1857.775;    0.000;    0.000
320.691; 1949.775;    0.000;    0.000
320.751; 1968.775;    0.000;    0.000
320.812; 2010.775;    0.000;    0.000
320.872; 1885.775;    0.000;    0.000
320.932; 2044.775;    0.000;    0.000
320.993; 1936.775;    0.000;    0.000
321.053; 2036.775;    0.000;    0.000
321.113; 1973.775;    0.000;    0.000
321.174; 2010.775;    0.000;    0.000
321.234; 2028.775;    0.000;    0.000
321.294; 1970.775;    0.000;    0.000
321.355; 1952.775;    0.000;    0.000
321.415; 2000.775;    0.000;    0.000
321.475; 1927.775;    0.000;    0.000
321.535; 1948.775;    0.000;    0.000
321.596; 2051.775;    0.000;    0.000
321.656; 1982.775;    0.000;    0.000
321.716; 2016.775;    0.000;    0.000
321.776; 2023.775;    0.000;    0.000
321.837; 2036.775;    0.000;    0.000
321.897; 1947.775;    0.000;    0.000
321.957; 1943.775;    0.000;    0.000
322.017; 2022.775;    0.000;    0.000
322.077; 2005.775;    0.000;    0.000
322.138; 2028.775;    0.000;    0.000
322.198; 1983.775;    0.000;    0.000
322.258; 2075.775;    0.000;    0.000
322.318; 1905.775;    0.000;    0.000
322.378; 1950.775;    0.000;    0.000
322.438; 1982.775;    0.000;    0.000
322.499; 2001.775;    0.000;    0.000
322.559; 2051.775;    0.000;    0.000
322.619; 2076.775;    0.000;    0.000
322.679; 2025.775;    0.000;    0.000
322.739; 2039.775;    0.000;    0.000
322.799; 2094.775;    0.000;    0.000
322.859; 2035.775;    0.000;    0.000
322.919; 2028.775;    0.000;    0.000
322.979; 2030.775;    0.000;    0.000
323.039; 1951.775;    0.000;    0.000
323.099; 1915.775;    0.000;    0.000
323.159; 1969.775;    0.000;    0.000
323.219; 1968.775;    0.000;    0.000
323.279; 2007.775;    0.000;    0.000
323.339; 2013.775;    0.000;    0.000
323.399; 2033.775;    0.000;    0.000
323.459; 2092.775;    0.000;    0.000
323.519; 2086.775;    0.000;    0.000
323.579; 2125.775;    0.000;    0.000
323.639; 2154.775;    0.000;    0.000
323.699; 2082.775;    0.000;    0.000
323.759; 2082.775;    0.000;    0.000
323.819; 2179.775;    0.000;    0.000
323.879; 2126.775;    0.000;    0.000
323.939; 2037.775;    0.000;    0.000
323.999; 2107.775;    0.000;    0.000
324.059; 1955.775;    0.000;    0.000
324.119; 2041.775;    0.000;    0.000
324.178; 2065.775;    0.000;    0.000
324.238; 2092.775;    0.000;    0.000
324.298; 2075.775;    0.000;    0.000
324.358; 2059.775;    0.000;    0.000
324.418; 2112.775;    0.000;    0.000
324.478; 1996.775;    0.000;    0.000
324.538; 2080.775;    0.000;    0.000
324.597; 2067.775;    0.000;    0.000
324.657; 2051.775;    0.000;    0.000
324.717; 2098.775;    0.000;    0.000
324.777; 2036.775;    0.000;    0.000
324.837; 2056.775;    0.000;    0.000
324.896; 2075.775;    0.000;    0.000
324.956; 2037.775;    0.000;    0.000
325.016; 2007.775;    0.000;    0.000
325.076; 2072.775;    0.000;    0.000
325.135; 1998.775;    0.000;    0.000
325.195; 2055.775;    0.000;    0.000
325.255; 1984.775;    0.000;    0.000
325.315; 2095.775;    0.000;    0.000
325.374; 1998.775;    0.000;    0.000
325.434; 2011.775;    0.000;    0.000
325.494; 2153.775;    0.000;    0.000
325.553; 2096.775;    0.000;    0.000
325.613; 2041.775;    0.000;    0.000
325.673; 1957.775;    0.000;    0.000
325.732; 2039.775;    0.000;    0.000
325.792; 1988.775;    0.000;    0.000
325.852; 1972.775;    0.000;    0.000
325.911; 2032.775;    0.000;    0.000
325.971; 1976.775;    0.000;    0.000
326.031; 1973.775;    0.000;    0.000
326.090; 2076.775;    0.000;    0.000
326.150; 1980.775;    0.000;    0.000
326.209; 2018.775;    0.000;    0.000
326.269; 2018.775;    0.000;    0.000
326.328; 2052.775;    0.000;    0.000
326.388; 1984.775;    0.000;    0.000
326.448; 2068.775;    0.000;    0.000
326.507; 2043.775;    0.000;    0.000
326.567; 2019.775;    0.000;    0.000
326.626; 2006.775;    0.000;    0.000
326.686; 1998.775;    0.000;    0.000
326.745; 2024.775;    0.000;    0.000
326.805; 1977.775;    0.000;    0.000
326.864; 1929.775;    0.000;    0.000
326.924; 2045.775;    0.000;    0.000
326.983; 2059.775;    0.000;    0.000
327.043; 2052.775;    0.000;    0.000
327.102; 2050.775;    0.000;    0.000
327.161; 1994.775;    0.000;    0.000
327.221; 2024.775;    0.000;    0.000
327.280; 2063.775;    0.000;    0.000
327.340; 2094.775;    0.000;    0.000
327.399; 2095.775;    0.000;    0.000
327.459; 2123.775;    0.000;    0.000
327.518; 2024.775;    0.000;    0.000
327.577; 2065.775;    0.000;    0.000
327.637; 1991.775;    0.000;    0.000
327.696; 1997.775;    0.000;    0.000
327.755; 1997.775;    0.000;    0.000
327.815; 1960.775;    0.000;    0.000
327.874; 2056.775;    0.000;    0.000
327.933; 2045.775;    0.000;    0.000
327.993; 2078.775;    0.000;    0.000
328.052; 2020.775;    0.000;    0.000
328.111; 2088.775;    0.000;    0.000
328.171; 2008.775;    0.000;    0.000
328.230; 2130.775;    0.000;    0.000
328.289; 2081.775;    0.000;    0.000
328.349; 2030.775;    0.000;    0.000
328.408; 2024.775;    0.000;    0.000
328.467; 2054.775;    0.000;    0.000
328.526; 2027.775;    0.000;    0.000
328.586; 2126.775;    0.000;    0.000
328.645; 2107.775;    0.000;    0.000
328.704; 2088.775;    0.000;    0.000
328.763; 2063.775;    0.000;    0.000
328.822; 2025.775;    0.000;    0.000
328.882; 2121.775;    0.000;    0.000
328.941; 2019.775;    0.000;    0.000
329.000; 2130.775;    0.000;    0.000
329.059; 1991.775;    0.000;    0.000
329.118; 2116.775;    0.000;    0.000
329.177; 2102.775;    0.000;    0.000
329.237; 2111.775;    0.000;    0.000
329.296; 2137.775;    0.000;    0.000
329.355; 2071.775;    0.000;    0.000
329.414; 2138.775;    0.000;    0.000
329.473; 2109.775;    0.000;    0.000
329.532; 2185.775;    0.000;    0.000
329.591; 2110.775;    0.000;    0.000
329.650; 2133.775;    0.000;    0.000
329.709; 2225.775;    0.000;    0.000
329.768; 2268.775;    0.000;    0.000
329.827; 2346.775;    0.000;    0.000
329.886; 2341.775;    0.000;    0.000
329.945; 2466.775;    0.000;    0.000
330.004; 2424.775;    0.000;    0.000
330.063; 2330.775;    0.000;    0.000
330.122; 2413.775;    0.000;    0.000
330.181; 2506.775;    0.000;    0.000
330.240; 2439.775;    0.000;    0.000
330.299; 2448.775;    0.000;    0.000
330.358; 2313.775;    0.000;    0.000
330.417; 2284.775;    0.000;    0.000
330.476; 2215.775;    0.000;    0.000
330.535; 2219.775;    0.000;    0.000
330.594; 2166.775;    0.000;    0.000
330.653; 2142.775;    0.000;    0.000
330.712; 2170.775;    0.000;    0.000
330.771; 2135.775;    0.000;    0.000
330.830; 2193.775;    0.000;    0.000
330.889; 2223.775;    0.000;    0.000
330.948; 2203.775;    0.000;    0.000
331.006; 2219.775;    0.000;    0.000
331.065; 2137.775;    0.000;    0.000
331.124; 2116.775;    0.000;    0.000
331.183; 2123.775;    0.000;    0.000
331.242; 2049.775;    0.000;    0.000
331.301; 2097.775;    0.000;    0.000
331.359; 2148.775;    0.000;    0.000
331.418; 2188.775;    0.000;    0.000
331.477; 2165.775;    0.000;    0.000
331.536; 2074.775;    0.000;    0.000
331.595; 2022.775;    0.000;    0.000
331.653; 2116.775;    0.000;    0.000
331.712; 2036.775;    0.000;    0.000
331.771; 2056.775;    0.000;    0.000
331.830; 1981.775;    0.000;    0.000
331.888; 2041.775;    0.000;    0.000
331.947; 2050.775;    0.000;    0.000
332.006; 2162.775;    0.000;    0.000
332.065; 2074.775;    0.000;    0.000
332.123; 2064.775;    0.000;    0.000
332.182; 2042.775;    0.000;    0.000
332.241; 2115.775;    0.000;    0.000
332.299; 2141.775;    0.000;    0.000
332.358; 2049.775;    0.000;    0.000
332.417; 2112.775;    0.000;    0.000
332.475; 1987.775;    0.000;    0.000
332.534; 2031.775;    0.000;    0.000
332.592; 2066.775;    0.000;    0.000
332.651; 2076.775;    0.000;    0.000
332.710; 2134.775;    0.000;    0.000
332.768; 2123.775;    0.000;    0.000
332.827; 2045.775;    0.000;    0.000
332.885; 2061.775;    0.000;    0.000
332.944; 2018.775;    0.000;    0.000
333.003; 2101.775;    0.000;    0.000
333.061; 2149.775;    0.000;    0.000
333.120; 2118.775;    0.000;    0.000
333.178; 2142.775;    0.000;    0.000
333.237; 2237.775;    0.000;    0.000
333.295; 2252.775;    0.000;    0.000
333.354; 2208.775;    0.000;    0.000
333.412; 2233.775;    0.000;    0.000
333.471; 2255.775;    0.000;    0.000
333.529; 2398.775;    0.000;    0.000
333.588; 2314.775;    0.000;    0.000
333.646; 2432.775;    0.000;    0.000
333.705; 2336.775;    0.000;    0.000
333.763; 2445.775;    0.000;    0.000
333.822; 2353.775;    0.000;    0.000
333.880; 2317.775;    0.000;    0.000
333.938; 2352.775;    0.000;    0.000
333.997; 2338.775;    0.000;    0.000
334.055; 2270.775;    0.000;    0.000
334.114; 2314.775;    0.000;    0.000
334.172; 2308.775;    0.000;    0.000
334.230; 2246.775;    0.000;    0.000
334.289; 2235.775;    0.000;    0.000
334.347; 2267.775;    0.000;    0.000
334.405; 2307.775;    0.000;    0.000
334.464; 2256.775;    0.000;    0.000
334.522; 2319.775;    0.000;    0.000
334.580; 2205.775;    0.000;    0.000
334.639; 2221.775;    0.000;    0.000
334.697; 2279.775;    0.000;    0.000
334.755; 2256.775;    0.000;    0.000
334.814; 2185.775;    0.000;    0.000
334.872; 2148.775;    0.000;    0.000
334.930; 2112.775;    0.000;    0.000
334.988; 2161.775;    0.000;    0.000
335.047; 2256.775;    0.000;    0.000
335.105; 2238.775;    0.000;    0.000
335.163; 2358.775;    0.000;    0.000
335.221; 2226.775;    0.000;    0.000
335.280; 2248.775;    0.000;    0.000
335.338; 2312.775;    0.000;    0.000
335.396; 2329.775;    0.000;    0.000
335.454; 2229.775;    0.000;    0.000
335.512; 2175.775;    0.000;    0.000
335.570; 2202.775;    0.000;    0.000
335.629; 2232.775;    0.000;    0.000
335.687; 2310.775;    0.000;    0.000
335.745; 2440.775;    0.000;    0.000
335.803; 2551.775;    0.000;    0.000
335.861; 2425.775;    0.000;    0.000
335.919; 2402.775;    0.000;    0.000
335.977; 2415.775;    0.000;    0.000
336.035; 2354.775;    0.000;    0.000
336.094; 2367.775;    0.000;    0.000
336.152; 2432.775;    0.000;    0.000
336.210; 2555.775;    0.000;    0.000
336.268; 2455.775;    0.000;    0.000
336.326; 2495.775;    0.000;    0.000
336.384; 2493.775;    0.000;    0.000
336.442; 2412.775;    0.000;    0.000
336.500; 2397.775;    0.000;    0.000
336.558; 2329.775;    0.000;    0.000
336.616; 2505.775;    0.000;    0.000
336.674; 2404.775;    0.000;    0.000
336.732; 2350.775;    0.000;    0.000
336.790; 2436.775;    0.000;    0.000
336.848; 2440.775;    0.000;    0.000
336.906; 2358.775;    0.000;    0.000
336.964; 2358.775;    0.000;    0.000
337.022; 2397.775;    0.000;    0.000
337.080; 2468.775;    0.000;    0.000
337.138; 2452.775;    0.000;    0.000
337.195; 2397.775;    0.000;    0.000
337.253; 2447.775;    0.000;    0.000
337.311; 2392.775;    0.000;    0.000
337.369; 2378.775;    0.000;    0.000
337.427; 2248.775;    0.000;    0.000
337.485; 2270.775;    0.000;    0.000
337.543; 2331.775;    0.000;    0.000
337.601; 2308.775;    0.000;    0.000
337.658; 2313.775;    0.000;    0.000
337.716; 2184.775;    0.000;    0.000
337.774; 2369.775;    0.000;    0.000
337.832; 2223.775;    0.000;    0.000
337.890; 2154.775;    0.000;    0.000
337.947; 2130.775;    0.000;    0.000
338.005; 2300.775;    0.000;    0.000
338.063; 2202.775;    0.000;    0.000
338.121; 2307.775;    0.000;    0.000
338.178; 2335.775;    0.000;    0.000
338.236; 2369.775;    0.000;    0.000
338.294; 2378.775;    0.000;    0.000
338.352; 2289.775;    0.000;    0.000
338.409; 2289.775;    0.000;    0.000
338.467; 2247.775;    0.000;    0.000
338.525; 2272.775;    0.000;    0.000
338.583; 2195.775;    0.000;    0.000
338.640; 2240.775;    0.000;    0.000
338.698; 2224.775;    0.000;    0.000
338.756; 2337.775;    0.000;    0.000
338.813; 2390.775;    0.000;    0.000
338.871; 2427.775;    0.000;    0.000
338.928; 2468.775;    0.000;    0.000
338.986; 2520.775;    0.000;    0.000
339.044; 2518.775;    0.000;    0.000
339.101; 2397.775;    0.000;    0.000
339.159; 2361.775;    0.000;    0.000
339.216; 2316.775;    0.000;    0.000
339.274; 2412.775;    0.000;    0.000
339.332; 2279.775;    0.000;    0.000
339.389; 2386.775;    0.000;    0.000
339.447; 2336.775;    0.000;    0.000
339.504; 2352.775;    0.000;    0.000
339.562; 2374.775;    0.000;    0.000
339.619; 2381.775;    0.000;    0.000
339.677; 2339.775;    0.000;    0.000
339.734; 2302.775;    0.000;    0.000
339.792; 2334.775;    0.000;    0.000
339.849; 2313.775;    0.000;    0.000
339.907; 2420.775;    0.000;    0.000
339.964; 2307.775;    0.000;    0.000
340.022; 2277.775;    0.000;    0.000
340.079; 2341.775;    0.000;    0.000
340.137; 2320.775;    0.000;    0.000
340.194; 2410.775;    0.000;    0.000
340.252; 2365.775;    0.000;    0.000
340.309; 2402.775;    0.000;    0.000
340.366; 2330.775;    0.000;    0.000
340.424; 2266.775;    0.000;    0.000
340.481; 2325.775;    0.000;    0.000
340.538; 2354.775;    0.000;    0.000
340.596; 2365.775;    0.000;    0.000
340.653; 2433.775;    0.000;    0.000
340.711; 2439.775;    0.000;    0.000
340.768; 2540.775;    0.000;    0.000
340.825; 2459.775;    0.000;    0.000
340.883; 2502.775;    0.000;    0.000
340.940; 2560.775;    0.000;    0.000
340.997; 2383.775;    0.000;    0.000
341.054; 2408.775;    0.000;    0.000
341.112; 2473.775;    0.000;    0.000
341.169; 2425.775;    0.000;    0.000
341.226; 2518.775;    0.000;    0.000
341.284; 2403.775;    0.000;    0.000
341.341; 2466.775;    0.000;    0.000
341.398; 2420.775;    0.000;    0.000
341.455; 2472.775;    0.000;    0.000
341.512; 2455.775;    0.000;    0.000
341.570; 2453.775;    0.000;    0.000
341.627; 2475.775;    0.000;    0.000
341.684; 2432.775;    0.000;    0.000
341.741; 2552.775;    0.000;    0.000
341.798; 2567.775;    0.000;    0.000
341.856; 2592.775;    0.000;    0.000
341.913; 2563.775;    0.000;    0.000
341.970; 2590.775;    0.000;    0.000
342.027; 2558.775;    0.000;    0.000
342.084; 2561.775;    0.000;    0.000
342.141; 2594.775;    0.000;    0.000
342.198; 2715.775;    0.000;    0.000
342.255; 2615.775;    0.000;    0.000
342.313; 2597.775;    0.000;    0.000
342.370; 2422.775;    0.000;    0.000
342.427; 2389.775;    0.000;    0.000
342.484; 2293.775;    0.000;    0.000
342.541; 2289.775;    0.000;    0.000
342.598; 2280.775;    0.000;    0.000
342.655; 2373.775;    0.000;    0.000
342.712; 2392.775;    0.000;    0.000
342.769; 2418.775;    0.000;    0.000
342.826; 2454.775;    0.000;    0.000
342.883; 2364.775;    0.000;    0.000
342.940; 2284.775;    0.000;    0.000
342.997; 2326.775;    0.000;    0.000
343.054; 2307.775;    0.000;    0.000
343.111; 2279.775;    0.000;    0.000
343.168; 2324.775;    0.000;    0.000
343.225; 2454.775;    0.000;    0.000
343.282; 2473.775;    0.000;    0.000
343.339; 2377.775;    0.000;    0.000
343.395; 2379.775;    0.000;    0.000
343.452; 2398.775;    0.000;    0.000
343.509; 2345.775;    0.000;    0.000
343.566; 2412.775;    0.000;    0.000
343.623; 2462.775;    0.000;    0.000
343.680; 2321.775;    0.000;    0.000
343.737; 2339.775;    0.000;    0.000
343.794; 2376.775;    0.000;    0.000
343.850; 2434.775;    0.000;    0.000
343.907; 2355.775;    0.000;    0.000
343.964; 2486.775;    0.000;    0.000
344.021; 2385.775;    0.000;    0.000
344.078; 2416.775;    0.000;    0.000
344.134; 2503.775;    0.000;    0.000
344.191; 2437.775;    0.000;    0.000
344.248; 2631.775;    0.000;    0.000
344.305; 2524.775;    0.000;    0.000
344.361; 2452.775;    0.000;    0.000
344.418; 2453.775;    0.000;    0.000
344.475; 2438.775;    0.000;    0.000
344.532; 2393.775;    0.000;    0.000
344.588; 2550.775;    0.000;    0.000
344.645; 2478.775;    0.000;    0.000
344.702; 2476.775;    0.000;    0.000
344.758; 2479.775;    0.000;    0.000
344.815; 2416.775;    0.000;    0.000
344.872; 2439.775;    0.000;    0.000
344.928; 2531.775;    0.000;    0.000
344.985; 2552.775;    0.000;    0.000
345.042; 2481.775;    0.000;    0.000
345.098; 2492.775;    0.000;    0.000
345.155; 2503.775;    0.000;    0.000
345.212; 2413.775;    0.000;    0.000
345.268; 2504.775;    0.000;    0.000
345.325; 2368.775;    0.000;    0.000
345.381; 2574.775;    0.000;    0.000
345.438; 2563.775;    0.000;    0.000
345.495; 2560.775;    0.000;    0.000
345.551; 2688.775;    0.000;    0.000
345.608; 2486.775;    0.000;    0.000
345.664; 2585.775;    0.000;    0.000
345.721; 2561.775;    0.000;    0.000
345.777; 2398.775;    0.000;    0.000
345.834; 2484.775;    0.000;    0.000
345.890; 2339.775;    0.000;    0.000
345.947; 2506.775;    0.000;    0.000
346.003; 2538.775;    0.000;    0.000
346.060; 2465.775;    0.000;    0.000
346.116; 2468.775;    0.000;    0.000
346.173; 2459.775;    0.000;    0.000
346.229; 2531.775;    0.000;    0.000
346.285; 2449.775;    0.000;    0.000
346.342; 2452.775;    0.000;    0.000
346.398; 2564.775;    0.000;    0.000
346.455; 2587.775;    0.000;    0.000
346.511; 2579.775;    0.000;    0.000
346.567; 2548.775;    0.000;    0.000
346.624; 2580.775;    0.000;    0.000
346.680; 2576.775;    0.000;    0.000
346.737; 2623.775;    0.000;    0.000
346.793; 2637.775;    0.000;    0.000
346.849; 2578.775;    0.000;    0.000
346.906; 2626.775;    0.000;    0.000
346.962; 2770.775;    0.000;    0.000
347.018; 2699.775;    0.000;    0.000
347.074; 2698.775;    0.000;    0.000
347.131; 2649.775;    0.000;    0.000
347.187; 2703.775;    0.000;    0.000
347.243; 2701.775;    0.000;    0.000
347.300; 2629.775;    0.000;    0.000
347.356; 2637.775;    0.000;    0.000
347.412; 2594.775;    0.000;    0.000
347.468; 2473.775;    0.000;    0.000
347.524; 2486.775;    0.000;    0.000
347.581; 2436.775;    0.000;    0.000
347.637; 2516.775;    0.000;    0.000
347.693; 2445.775;    0.000;    0.000
347.749; 2560.775;    0.000;    0.000
347.805; 2583.775;    0.000;    0.000
347.862; 2492.775;    0.000;    0.000
347.918; 2540.775;    0.000;    0.000
347.974; 2460.775;    0.000;    0.000
348.030; 2506.775;    0.000;    0.000
348.086; 2533.775;    0.000;    0.000
348.142; 2450.775;    0.000;    0.000
348.198; 2500.775;    0.000;    0.000
348.254; 2470.775;    0.000;    0.000
348.311; 2571.775;    0.000;    0.000
348.367; 2556.775;    0.000;    0.000
348.423; 2483.775;    0.000;    0.000
348.479; 2380.775;    0.000;    0.000
348.535; 2547.775;    0.000;    0.000
348.591; 2421.775;    0.000;    0.000
348.647; 2488.775;    0.000;    0.000
348.703; 2499.775;    0.000;    0.000
348.759; 2528.775;    0.000;    0.000
348.815; 2525.775;    0.000;    0.000
348.871; 2478.775;    0.000;    0.000
348.927; 2408.775;    0.000;    0.000
348.983; 2539.775;    0.000;    0.000
349.039; 2576.775;    0.000;    0.000
349.095; 2654.775;    0.000;    0.000
349.151; 2587.775;    0.000;    0.000
349.207; 2652.775;    0.000;    0.000
349.263; 2529.775;    0.000;    0.000
349.319; 2450.775;    0.000;    0.000
349.374; 2537.775;    0.000;    0.000
349.430; 2557.775;    0.000;    0.000
349.486; 2628.775;    0.000;    0.000
349.542; 2646.775;    0.000;    0.000
349.598; 2595.775;    0.000;    0.000
349.654; 2570.775;    0.000;    0.000
349.710; 2516.775;    0.000;    0.000
349.766; 2528.775;    0.000;    0.000
349.821; 2517.775;    0.000;    0.000
349.877; 2615.775;    0.000;    0.000
349.933; 2639.775;    0.000;    0.000
349.989; 2662.775;    0.000;    0.000
350.045; 2514.775;    0.000;    0.000
350.100; 2562.775;    0.000;    0.000
350.156; 2591.775;    0.000;    0.000
350.212; 2505.775;    0.000;    0.000
350.268; 2521.775;    0.000;    0.000
350.323; 2493.775;    0.000;    0.000
350.379; 2575.775;    0.000;    0.000
350.435; 2531.775;    0.000;    0.000
350.491; 2460.775;    0.000;    0.000
350.546; 2526.775;    0.000;    0.000
350.602; 2454.775;    0.000;    0.000
350.658; 2519.775;    0.000;    0.000
350.713; 2517.775;    0.000;    0.000
350.769; 2424.775;    0.000;    0.000
350.825; 2397.775;    0.000;    0.000
350.880; 2549.775;    0.000;    0.000
350.936; 2461.775;    0.000;    0.000
350.992; 2492.775;    0.000;    0.000
351.047; 2524.775;    0.000;    0.000
351.103; 2556.775;    0.000;    0.000
351.158; 2528.775;    0.000;    0.000
351.214; 2496.775;    0.000;    0.000
351.270; 2398.775;    0.000;    0.000
351.325; 2530.775;    0.000;    0.000
351.381; 2510.775;    0.000;    0.000
351.436; 2632.775;    0.000;    0.000
351.492; 2580.775;    0.000;    0.000
351.547; 2633.775;    0.000;    0.000
351.603; 2557.775;    0.000;    0.000
351.658; 2645.775;    0.000;    0.000
351.714; 2606.775;    0.000;    0.000
351.769; 2602.775;    0.000;    0.000
351.825; 2646.775;    0.000;    0.000
351.880; 2644.775;    0.000;    0.000
351.936; 2676.775;    0.000;    0.000
351.991; 2717.775;    0.000;    0.000
352.047; 2625.775;    0.000;    0.000
352.102; 2611.775;    0.000;    0.000
352.158; 2562.775;    0.000;    0.000
352.213; 2614.775;    0.000;    0.000
352.268; 2490.775;    0.000;    0.000
352.324; 2506.775;    0.000;    0.000
352.379; 2575.775;    0.000;    0.000
352.434; 2619.775;    0.000;    0.000
352.490; 2601.775;    0.000;    0.000
352.545; 2533.775;    0.000;    0.000
352.601; 2497.775;    0.000;    0.000
352.656; 2461.775;    0.000;    0.000
352.711; 2449.775;    0.000;    0.000
352.767; 2460.775;    0.000;    0.000
352.822; 2478.775;    0.000;    0.000
352.877; 2494.775;    0.000;    0.000
352.932; 2532.775;    0.000;    0.000
352.988; 2576.775;    0.000;    0.000
353.043; 2576.775;    0.000;    0.000
353.098; 2625.775;    0.000;    0.000
353.153; 2637.775;    0.000;    0.000
353.209; 2556.775;    0.000;    0.000
353.264; 2482.775;    0.000;    0.000
353.319; 2480.775;    0.000;    0.000
353.374; 2468.775;    0.000;    0.000
353.430; 2492.775;    0.000;    0.000
353.485; 2446.775;    0.000;    0.000
353.540; 2483.775;    0.000;    0.000
353.595; 2398.775;    0.000;    0.000
353.650; 2494.775;    0.000;    0.000
353.705; 2500.775;    0.000;    0.000
353.761; 2517.775;    0.000;    0.000
353.816; 2405.775;    0.000;    0.000
353.871; 2479.775;    0.000;    0.000
353.926; 2423.775;    0.000;    0.000
353.981; 2450.775;    0.000;    0.000
354.036; 2368.775;    0.000;    0.000
354.091; 2480.775;    0.000;    0.000
354.146; 2343.775;    0.000;    0.000
354.201; 2401.775;    0.000;    0.000
354.256; 2377.775;    0.000;    0.000
354.311; 2478.775;    0.000;    0.000
354.367; 2490.775;    0.000;    0.000
354.422; 2503.775;    0.000;    0.000
354.477; 2476.775;    0.000;    0.000
354.532; 2566.775;    0.000;    0.000
354.587; 2539.775;    0.000;    0.000
354.642; 2485.775;    0.000;    0.000
354.697; 2493.775;    0.000;    0.000
354.751; 2540.775;    0.000;    0.000
354.806; 2533.775;    0.000;    0.000
354.861; 2663.775;    0.000;    0.000
354.916; 2576.775;    0.000;    0.000
354.971; 2556.775;    0.000;    0.000
355.026; 2488.775;    0.000;    0.000
355.081; 2504.775;    0.000;    0.000
355.136; 2397.775;    0.000;    0.000
355.191; 2364.775;    0.000;    0.000
355.246; 2380.775;    0.000;    0.000
355.301; 2496.775;    0.000;    0.000
355.355; 2490.775;    0.000;    0.000
355.410; 2574.775;    0.000;    0.000
355.465; 2494.775;    0.000;    0.000
355.520; 2434.775;    0.000;    0.000
355.575; 2448.775;    0.000;    0.000
355.630; 2421.775;    0.000;    0.000
355.684; 2465.775;    0.000;    0.000
355.739; 2355.775;    0.000;    0.000
355.794; 2419.775;    0.000;    0.000
355.849; 2454.775;    0.000;    0.000
355.904; 2380.775;    0.000;    0.000
355.958; 2464.775;    0.000;    0.000
356.013; 2383.775;    0.000;    0.000
356.068; 2425.775;    0.000;    0.000
356.123; 2503.775;    0.000;    0.000
356.177; 2502.775;    0.000;    0.000
356.232; 2572.775;    0.000;    0.000
356.287; 2631.775;    0.000;    0.000
356.341; 2554.775;    0.000;    0.000
356.396; 2463.775;    0.000;    0.000
356.451; 2475.775;    0.000;    0.000
356.505; 2410.775;    0.000;    0.000
356.560; 2469.775;    0.000;    0.000
356.615; 2449.775;    0.000;    0.000
356.669; 2517.775;    0.000;    0.000
356.724; 2415.775;    0.000;    0.000
356.778; 2489.775;    0.000;    0.000
356.833; 2416.775;    0.000;    0.000
356.888; 2496.775;    0.000;    0.000
356.942; 2440.775;    0.000;    0.000
356.997; 2517.775;    0.000;    0.000
357.051; 2472.775;    0.000;    0.000
357.106; 2372.775;    0.000;    0.000
357.160; 2336.775;    0.000;    0.000
357.215; 2266.775;    0.000;    0.000
357.269; 2334.775;    0.000;    0.000
357.324; 2276.775;    0.000;    0.000
357.378; 2358.775;    0.000;    0.000
357.433; 2410.775;    0.000;    0.000
357.487; 2359.775;    0.000;    0.000
357.542; 2331.775;    0.000;    0.000
357.596; 2364.775;    0.000;    0.000
357.651; 2407.775;    0.000;    0.000
357.705; 2399.775;    0.000;    0.000
357.760; 2337.775;    0.000;    0.000
357.814; 2333.775;    0.000;    0.000
357.868; 2400.775;    0.000;    0.000
357.923; 2377.775;    0.000;    0.000
357.977; 2415.775;    0.000;    0.000
358.032; 2386.775;    0.000;    0.000
358.086; 2404.775;    0.000;    0.000
358.140; 2446.775;    0.000;    0.000
358.195; 2426.775;    0.000;    0.000
358.249; 2419.775;    0.000;    0.000
358.303; 2343.775;    0.000;    0.000
358.358; 2370.775;    0.000;    0.000
358.412; 2305.775;    0.000;    0.000
358.466; 2293.775;    0.000;    0.000
358.521; 2343.775;    0.000;    0.000
358.575; 2363.775;    0.000;    0.000
358.629; 2339.775;    0.000;    0.000
358.683; 2344.775;    0.000;    0.000
358.738; 2306.775;    0.000;    0.000
358.792; 2321.775;    0.000;    0.000
358.846; 2355.775;    0.000;    0.000
358.900; 2367.775;    0.000;    0.000
358.954; 2366.775;    0.000;    0.000
359.009; 2353.775;    0.000;    0.000
359.063; 2344.775;    0.000;    0.000
359.117; 2323.775;    0.000;    0.000
359.171; 2393.775;    0.000;    0.000
359.225; 2385.775;    0.000;    0.000
359.280; 2390.775;    0.000;    0.000
359.334; 2350.775;    0.000;    0.000
359.388; 2411.775;    0.000;    0.000
359.442; 2408.775;    0.000;    0.000
359.496; 2314.775;    0.000;    0.000
359.550; 2423.775;    0.000;    0.000
359.604; 2317.775;    0.000;    0.000
359.658; 2321.775;    0.000;    0.000
359.712; 2266.775;    0.000;    0.000
359.766; 2361.775;    0.000;    0.000
359.820; 2261.775;    0.000;    0.000
359.875; 2272.775;    0.000;    0.000
359.929; 2294.775;    0.000;    0.000
359.983; 2313.775;    0.000;    0.000
360.037; 2292.775;    0.000;    0.000
360.091; 2282.775;    0.000;    0.000
360.145; 2224.775;    0.000;    0.000
360.199; 2229.775;    0.000;    0.000
360.253; 2256.775;    0.000;    0.000
360.306; 2222.775;    0.000;    0.000
360.360; 2231.775;    0.000;    0.000
360.414; 2326.775;    0.000;    0.000
360.468; 2354.775;    0.000;    0.000
360.522; 2256.775;    0.000;    0.000
360.576; 2265.775;    0.000;    0.000
360.630; 2253.775;    0.000;    0.000
360.684; 2343.775;    0.000;    0.000
360.738; 2243.775;    0.000;    0.000
360.792; 2194.775;    0.000;    0.000
360.846; 2236.775;    0.000;    0.000
360.899; 2346.775;    0.000;    0.000
360.953; 2363.775;    0.000;    0.000
361.007; 2387.775;    0.000;    0.000
361.061; 2333.775;    0.000;    0.000
361.115; 2304.775;    0.000;    0.000
361.168; 2251.775;    0.000;    0.000
361.222; 2335.775;    0.000;    0.000
361.276; 2339.775;    0.000;    0.000
361.330; 2282.775;    0.000;    0.000
361.384; 2338.775;    0.000;    0.000
361.437; 2401.775;    0.000;    0.000
361.491; 2285.775;    0.000;    0.000
361.545; 2265.775;    0.000;    0.000
361.599; 2269.775;    0.000;    0.000
361.652; 2367.775;    0.000;    0.000
361.706; 2276.775;    0.000;    0.000
361.760; 2240.775;    0.000;    0.000
361.813; 2240.775;    0.000;    0.000
361.867; 2212.775;    0.000;    0.000
361.921; 2233.775;    0.000;    0.000
361.974; 2228.775;    0.000;    0.000
362.028; 2152.775;    0.000;    0.000
362.082; 2178.775;    0.000;    0.000
362.135; 2182.775;    0.000;    0.000
362.189; 2232.775;    0.000;    0.000
362.242; 2208.775;    0.000;    0.000
362.296; 2236.775;    0.000;    0.000
362.350; 2223.775;    0.000;    0.000
362.403; 2221.775;    0.000;    0.000
362.457; 2216.775;    0.000;    0.000
362.510; 2146.775;    0.000;    0.000
362.564; 2206.775;    0.000;    0.000
362.617; 2117.775;    0.000;    0.000
362.671; 2216.775;    0.000;    0.000
362.724; 2212.775;    0.000;    0.000
362.778; 2171.775;    0.000;    0.000
362.831; 2221.775;    0.000;    0.000
362.885; 2198.775;    0.000;    0.000
362.938; 2058.775;    0.000;    0.000
362.992;  408.775;    0.000;    0.000
363.045;  303.775;    0.000;    0.000
363.099;  322.775;    0.000;    0.000
363.152;  299.775;    0.000;    0.000
363.205;  291.775;    0.000;    0.000
363.259;  288.775;    0.000;    0.000
363.312;  321.775;    0.000;    0.000
363.366;  295.775;    0.000;    0.000
363.419;  321.775;    0.000;    0.000
363.472;  325.775;    0.000;    0.000
363.526;  316.775;    0.000;    0.000
363.579;  270.775;    0.000;    0.000
363.632;  287.775;    0.000;    0.000
363.686;  302.775;    0.000;    0.000
363.739;  320.775;    0.000;    0.000
363.792;  270.775;    0.000;    0.000

