
Integration time [ms]:   0.300
Averaging Nr. [scans]: 1
Smoothing Nr. [pixels]: 0
Data measured with spectrometer [name]: NIR
Wave   ;Sample   ;Dark     ;Reference
[nm]   ;[counts] ;[counts] ;[counts] 

691.496;  -73.575;  102.875;    0.000
691.696;  -18.575;  181.875;    0.000
691.896;  -18.575;  138.875;    0.000
692.096;  -33.575;  182.875;    0.000
692.296;  -76.575;  145.875;    0.000
692.496;  -19.575;  154.875;    0.000
692.695;  -19.575;  108.875;    0.000
692.895;   10.425;  176.875;    0.000
693.095;  -55.575;  138.875;    0.000
693.295;   43.425;  192.875;    0.000
693.495;  -36.575;  170.875;    0.000
693.695;  -26.575;  147.875;    0.000
693.894;   -1.575;  191.875;    0.000
694.094;  -14.575;  148.875;    0.000
694.294;  -44.575;  147.875;    0.000
694.494;  177.425;  140.875;    0.000
694.693; 2246.425;  137.875;    0.000
694.893; 2454.425;  141.875;    0.000
695.093; 2402.425;  105.875;    0.000
695.293; 2507.425;  115.875;    0.000
695.492; 2470.425;   81.875;    0.000
695.692; 2470.425;  162.875;    0.000
695.891; 2520.425;  162.875;    0.000
696.091; 2514.425;  166.875;    0.000
696.291; 2567.425;  143.875;    0.000
696.490; 2502.425;  170.875;    0.000
696.690; 2508.425;  142.875;    0.000
696.889; 2491.425;  186.875;    0.000
697.089; 2428.425;  120.875;    0.000
697.288; 2579.425;  215.875;    0.000
697.488; 2582.425;  178.875;    0.000
697.687; 2593.425;  170.875;    0.000
697.887; 2579.425;  140.875;    0.000
698.086; 2535.425;  131.875;    0.000
698.286; 2583.425;  117.875;    0.000
698.485; 2564.425;  136.875;    0.000
698.684; 2540.425;  126.875;    0.000
698.884; 2709.425;  161.875;    0.000
699.083; 2597.425;   95.875;    0.000
699.282; 2591.425;  120.875;    0.000
699.482; 2533.425;  131.875;    0.000
699.681; 2559.425;  168.875;    0.000
699.880; 2622.425;  154.875;    0.000
700.080; 2590.425;  149.875;    0.000
700.279; 2577.425;   99.875;    0.000
700.478; 2646.425;  157.875;    0.000
700.677; 2587.425;  111.875;    0.000
700.877; 2748.425;  126.875;    0.000
701.076; 2696.425;  142.875;    0.000
701.275; 2634.425;  107.875;    0.000
701.474; 2684.425;   72.875;    0.000
701.673; 2577.425;   87.875;    0.000
701.872; 2711.425;  170.875;    0.000
702.071; 2651.425;  136.875;    0.000
702.271; 2694.425;  121.875;    0.000
702.470; 2739.425;  139.875;    0.000
702.669; 2624.425;  121.875;    0.000
702.868; 2677.425;  146.875;    0.000
703.067; 2653.425;  159.875;    0.000
703.266; 2660.425;  122.875;    0.000
703.465; 2743.425;  121.875;    0.000
703.664; 2685.425;  144.875;    0.000
703.863; 2794.425;  140.875;    0.000
704.062; 2676.425;  109.875;    0.000
704.260; 2811.425;  164.875;    0.000
704.459; 2649.425;  124.875;    0.000
704.658; 2732.425;  109.875;    0.000
704.857; 2782.425;  149.875;    0.000
705.056; 2695.425;  112.875;    0.000
705.255; 2763.425;   95.875;    0.000
705.454; 2648.425;  105.875;    0.000
705.652; 2791.425;  134.875;    0.000
705.851; 2674.425;   92.875;    0.000
706.050; 2783.425;  127.875;    0.000
706.249; 2683.425;  111.875;    0.000
706.447; 2777.425;   98.875;    0.000
706.646; 2773.425;  108.875;    0.000
706.845; 2750.425;   95.875;    0.000
707.043; 2733.425;   95.875;    0.000
707.242; 2721.425;   97.875;    0.000
707.441; 2856.425;  142.875;    0.000
707.639; 2746.425;  121.875;    0.000
707.838; 2808.425;  141.875;    0.000
708.037; 2726.425;  125.875;    0.000
708.235; 2832.425;  100.875;    0.000
708.434; 2817.425;  106.875;    0.000
708.632; 2776.425;   86.875;    0.000
708.831; 2853.425;  138.875;    0.000
709.029; 2806.425;   86.875;    0.000
709.228; 2827.425;  103.875;    0.000
709.426; 2844.425;  146.875;    0.000
709.625; 2909.425;  136.875;    0.000
709.823; 2756.425;  114.875;    0.000
710.022; 2882.425;  144.875;    0.000
710.220; 2959.425;  109.875;    0.000
710.418; 2893.425;  116.875;    0.000
710.617; 2830.425;   67.875;    0.000
710.815; 2921.425;  104.875;    0.000
711.013; 2896.425;  109.875;    0.000
711.212; 2875.425;  106.875;    0.000
711.410; 2918.425;   95.875;    0.000
711.608; 2898.425;  155.875;    0.000
711.807; 2924.425;  103.875;    0.000
712.005; 2953.425;  104.875;    0.000
712.203; 2907.425;   94.875;    0.000
712.401; 2936.425;  125.875;    0.000
712.599; 2992.425;  127.875;    0.000
712.798; 2987.425;  141.875;    0.000
712.996; 2924.425;   85.875;    0.000
713.194; 2995.425;   96.875;    0.000
713.392; 2965.425;   54.875;    0.000
713.590; 3125.425;  123.875;    0.000
713.788; 3011.425;  130.875;    0.000
713.986; 3005.425;  104.875;    0.000
714.184; 3073.425;   91.875;    0.000
714.382; 2984.425;  120.875;    0.000
714.580; 3052.425;   71.875;    0.000
714.778; 3115.425;   92.875;    0.000
714.976; 3122.425;  129.875;    0.000
715.174; 3180.425;   99.875;    0.000
715.372; 3247.425;  119.875;    0.000
715.570; 3319.425;   95.875;    0.000
715.768; 3505.425;  113.875;    0.000
715.966; 3572.425;   64.875;    0.000
716.164; 3613.425;  135.875;    0.000
716.362; 3621.425;  125.875;    0.000
716.560; 3535.425;  135.875;    0.000
716.758; 3406.425;   84.875;    0.000
716.955; 3343.425;  109.875;    0.000
717.153; 3338.425;   73.875;    0.000
717.351; 3242.425;  110.875;    0.000
717.549; 3349.425;  149.875;    0.000
717.746; 3324.425;  121.875;    0.000
717.944; 3315.425;  128.875;    0.000
718.142; 3346.425;  124.875;    0.000
718.340; 3278.425;   96.875;    0.000
718.537; 3358.425;  138.875;    0.000
718.735; 3317.425;  144.875;    0.000
718.933; 3303.425;   97.875;    0.000
719.130; 3344.425;  109.875;    0.000
719.328; 3308.425;  123.875;    0.000
719.525; 3270.425;  118.875;    0.000
719.723; 3218.425;  117.875;    0.000
719.920; 3223.425;   72.875;    0.000
720.118; 3331.425;   92.875;    0.000
720.316; 3341.425;  141.875;    0.000
720.513; 3180.425;   98.875;    0.000
720.711; 3334.425;  146.875;    0.000
720.908; 3241.425;  113.875;    0.000
721.105; 3341.425;  157.875;    0.000
721.303; 3340.425;  106.875;    0.000
721.500; 3235.425;   88.875;    0.000
721.698; 3314.425;   88.875;    0.000
721.895; 3348.425;   94.875;    0.000
722.092; 3208.425;   82.875;    0.000
722.290; 3331.425;  136.875;    0.000
722.487; 3317.425;   67.875;    0.000
722.684; 3396.425;  115.875;    0.000
722.882; 3307.425;  104.875;    0.000
723.079; 3317.425;  122.875;    0.000
723.276; 3311.425;   91.875;    0.000
723.473; 3312.425;   89.875;    0.000
723.671; 3199.425;   97.875;    0.000
723.868; 3387.425;  117.875;    0.000
724.065; 3372.425;  102.875;    0.000
724.262; 3337.425;  137.875;    0.000
724.459; 3311.425;   48.875;    0.000
724.656; 3317.425;  122.875;    0.000
724.854; 3393.425;   96.875;    0.000
725.051; 3235.425;  120.875;    0.000
725.248; 3398.425;  146.875;    0.000
725.445; 3339.425;  117.875;    0.000
725.642; 3396.425;  106.875;    0.000
725.839; 3368.425;  143.875;    0.000
726.036; 3401.425;   79.875;    0.000
726.233; 3270.425;   90.875;    0.000
726.430; 3481.425;  124.875;    0.000
726.627; 3515.425;   98.875;    0.000
726.824; 3411.425;   91.875;    0.000
727.021; 3494.425;  131.875;    0.000
727.218; 3378.425;  110.875;    0.000
727.414; 3462.425;   83.875;    0.000
727.611; 3337.425;   86.875;    0.000
727.808; 3441.425;  131.875;    0.000
728.005; 3488.425;  105.875;    0.000
728.202; 3474.425;  128.875;    0.000
728.399; 3450.425;  113.875;    0.000
728.595; 3292.425;  102.875;    0.000
728.792; 3378.425;   91.875;    0.000
728.989; 3411.425;  122.875;    0.000
729.186; 3466.425;  103.875;    0.000
729.382; 3390.425;  106.875;    0.000
729.579; 3477.425;  114.875;    0.000
729.776; 3436.425;  115.875;    0.000
729.972; 3381.425;  108.875;    0.000
730.169; 3452.425;  111.875;    0.000
730.366; 3480.425;  100.875;    0.000
730.562; 3384.425;   86.875;    0.000
730.759; 3423.425;   93.875;    0.000
730.955; 3480.425;  127.875;    0.000
731.152; 3359.425;   99.875;    0.000
731.348; 3441.425;   97.875;    0.000
731.545; 3459.425;   98.875;    0.000
731.741; 3583.425;  130.875;    0.000
731.938; 3545.425;  115.875;    0.000
732.134; 3569.425;  107.875;    0.000
732.331; 3456.425;   80.875;    0.000
732.527; 3505.425;  108.875;    0.000
732.724; 3473.425;  104.875;    0.000
732.920; 3586.425;  109.875;    0.000
733.116; 3574.425;  117.875;    0.000
733.313; 3491.425;   81.875;    0.000
733.509; 3480.425;   87.875;    0.000
733.705; 3578.425;  143.875;    0.000
733.902; 3496.425;   74.875;    0.000
734.098; 3556.425;   90.875;    0.000
734.294; 3509.425;  104.875;    0.000
734.490; 3543.425;  139.875;    0.000
734.687; 3614.425;  113.875;    0.000
734.883; 3607.425;   72.875;    0.000
735.079; 3561.425;  100.875;    0.000
735.275; 3614.425;  113.875;    0.000
735.471; 3617.425;   55.875;    0.000
735.667; 3584.425;  106.875;    0.000
735.863; 3537.425;  131.875;    0.000
736.060; 3534.425;  127.875;    0.000
736.256; 3682.425;   76.875;    0.000
736.452; 3540.425;  127.875;    0.000
736.648; 3649.425;  136.875;    0.000
736.844; 3602.425;  113.875;    0.000
737.040; 3722.425;  125.875;    0.000
737.236; 3604.425;   99.875;    0.000
737.432; 3677.425;   75.875;    0.000
737.628; 3756.425;  155.875;    0.000
737.824; 3728.425;  116.875;    0.000
738.019; 3710.425;   92.875;    0.000
738.215; 3761.425;  113.875;    0.000
738.411; 3710.425;  135.875;    0.000
738.607; 3709.425;   53.875;    0.000
738.803; 3693.425;   79.875;    0.000
738.999; 3856.425;  117.875;    0.000
739.195; 3780.425;  106.875;    0.000
739.390; 3840.425;  125.875;    0.000
739.586; 3782.425;  102.875;    0.000
739.782; 3756.425;  125.875;    0.000
739.978; 3847.425;  124.875;    0.000
740.173; 3801.425;   96.875;    0.000
740.369; 3821.425;  118.875;    0.000
740.565; 3804.425;  128.875;    0.000
740.760; 3887.425;  118.875;    0.000
740.956; 3893.425;  109.875;    0.000
741.152; 3826.425;  151.875;    0.000
741.347; 3916.425;  112.875;    0.000
741.543; 3995.425;  113.875;    0.000
741.738; 4077.425;  128.875;    0.000
741.934; 4176.425;  144.875;    0.000
742.129; 4374.425;  105.875;    0.000
742.325; 4625.425;  137.875;    0.000
742.520; 4879.425;  128.875;    0.000
742.716; 4844.425;  121.875;    0.000
742.911; 4493.425;   75.875;    0.000
743.107; 4558.425;  100.875;    0.000
743.302; 4524.425;   72.875;    0.000
743.498; 4607.425;  137.875;    0.000
743.693; 4611.425;  124.875;    0.000
743.888; 4724.425;  121.875;    0.000
744.084; 5214.425;   93.875;    0.000
744.279; 6097.425;   75.875;    0.000
744.474; 6085.425;  136.875;    0.000
744.670; 5771.425;  109.875;    0.000
744.865; 5421.425;  142.875;    0.000
745.060; 5120.425;   84.875;    0.000
745.255; 5174.425;  149.875;    0.000
745.451; 5020.425;  101.875;    0.000
745.646; 5017.425;  132.875;    0.000
745.841; 4828.425;  126.875;    0.000
746.036; 4869.425;  125.875;    0.000
746.231; 5026.425;  150.875;    0.000
746.426; 5231.425;  118.875;    0.000
746.622; 5782.425;  135.875;    0.000
746.817; 7065.425;  122.875;    0.000
747.012; 7812.425;  134.875;    0.000
747.207; 7190.425;  124.875;    0.000
747.402; 6675.425;  122.875;    0.000
747.597; 6222.425;   95.875;    0.000
747.792; 5992.425;  168.875;    0.000
747.987; 5691.425;  110.875;    0.000
748.182; 5622.425;  119.875;    0.000
748.377; 5403.425;   70.875;    0.000
748.572; 5288.425;  113.875;    0.000
748.767; 5179.425;  123.875;    0.000
748.961; 5043.425;  110.875;    0.000
749.156; 4978.425;  135.875;    0.000
749.351; 4887.425;   98.875;    0.000
749.546; 4691.425;  126.875;    0.000
749.741; 4615.425;  129.875;    0.000
749.936; 4663.425;   86.875;    0.000
750.130; 4588.425;   97.875;    0.000
750.325; 4575.425;  110.875;    0.000
750.520; 4549.425;  120.875;    0.000
750.715; 4589.425;  122.875;    0.000
750.909; 4469.425;  120.875;    0.000
751.104; 4417.425;  118.875;    0.000
751.299; 4493.425;  122.875;    0.000
751.493; 4394.425;  129.875;    0.000
751.688; 4384.425;  138.875;    0.000
751.882; 4328.425;   87.875;    0.000
752.077; 4384.425;  142.875;    0.000
752.272; 4370.425;  110.875;    0.000
752.466; 4182.425;  154.875;    0.000
752.661; 4201.425;   96.875;    0.000
752.855; 4161.425;   93.875;    0.000
753.050; 4187.425;  122.875;    0.000
753.244; 4178.425;  110.875;    0.000
753.439; 4140.425;  116.875;    0.000
753.633; 4118.425;  131.875;    0.000
753.828; 4042.425;  130.875;    0.000
754.022; 4151.425;   96.875;    0.000
754.216; 4054.425;  114.875;    0.000
754.411; 4061.425;  145.875;    0.000
754.605; 4118.425;   65.875;    0.000
754.799; 4152.425;  116.875;    0.000
754.994; 4131.425;  117.875;    0.000
755.188; 4184.425;  124.875;    0.000
755.382; 4102.425;   80.875;    0.000
755.576; 4106.425;   90.875;    0.000
755.771; 4053.425;  115.875;    0.000
755.965; 4039.425;  106.875;    0.000
756.159; 4107.425;   87.875;    0.000
756.353; 4020.425;  125.875;    0.000
756.547; 4028.425;  146.875;    0.000
756.742; 4088.425;  111.875;    0.000
756.936; 4075.425;  108.875;    0.000
757.130; 4077.425;  101.875;    0.000
757.324; 4055.425;  114.875;    0.000
757.518; 4113.425;  136.875;    0.000
757.712; 4083.425;  123.875;    0.000
757.906; 4055.425;  115.875;    0.000
758.100; 4006.425;  186.875;    0.000
758.294; 4145.425;  118.875;    0.000
758.488; 4114.425;  167.875;    0.000
758.682; 4025.425;  137.875;    0.000
758.876; 4051.425;  135.875;    0.000
759.070; 3960.425;  132.875;    0.000
759.264; 3940.425;  118.875;    0.000
759.458; 4028.425;  111.875;    0.000
759.651; 3924.425;  142.875;    0.000
759.845; 4047.425;  105.875;    0.000
760.039; 3975.425;   73.875;    0.000
760.233; 3967.425;  156.875;    0.000
760.427; 4067.425;  119.875;    0.000
760.620; 3959.425;  136.875;    0.000
760.814; 4021.425;  126.875;    0.000
761.008; 4113.425;  126.875;    0.000
761.202; 4045.425;  123.875;    0.000
761.395; 3947.425;  141.875;    0.000
761.589; 4045.425;  107.875;    0.000
761.783; 4000.425;  122.875;    0.000
761.976; 4160.425;  120.875;    0.000
762.170; 4126.425;  147.875;    0.000
762.363; 4105.425;  144.875;    0.000
762.557; 4056.425;  119.875;    0.000
762.750; 4047.425;  118.875;    0.000
762.944; 4081.425;  145.875;    0.000
763.138; 4076.425;  123.875;    0.000
763.331; 4064.425;  129.875;    0.000
763.524; 3975.425;  109.875;    0.000
763.718; 4233.425;  150.875;    0.000
763.911; 4150.425;  140.875;    0.000
764.105; 3989.425;   97.875;    0.000
764.298; 4101.425;  128.875;    0.000
764.492; 4137.425;  132.875;    0.000
764.685; 4150.425;   92.875;    0.000
764.878; 4138.425;  111.875;    0.000
765.072; 4224.425;  116.875;    0.000
765.265; 4108.425;  135.875;    0.000
765.458; 4012.425;   69.875;    0.000
765.651; 4164.425;  145.875;    0.000
765.845; 4130.425;   95.875;    0.000
766.038; 4195.425;  147.875;    0.000
766.231; 4721.425;  119.875;    0.000
766.424; 6741.425;  126.875;    0.000
766.617; 7127.425;   92.875;    0.000
766.811; 4598.425;  109.875;    0.000
767.004; 4371.425;  107.875;    0.000
767.197; 4270.425;  171.875;    0.000
767.390; 4254.425;  114.875;    0.000
767.583; 4177.425;  109.875;    0.000
767.776; 4204.425;  130.875;    0.000
767.969; 4267.425;  103.875;    0.000
768.162; 4196.425;  139.875;    0.000
768.355; 4256.425;  142.875;    0.000
768.548; 4226.425;  140.875;    0.000
768.741; 4389.425;   82.875;    0.000
768.934; 4225.425;  107.875;    0.000
769.127; 4297.425;  121.875;    0.000
769.320; 4363.425;  106.875;    0.000
769.513; 4468.425;  145.875;    0.000
769.706; 4992.425;  120.875;    0.000
769.898; 6678.425;  135.875;    0.000
770.091; 5516.425;  146.875;    0.000
770.284; 4433.425;  108.875;    0.000
770.477; 4467.425;  148.875;    0.000
770.670; 4469.425;  163.875;    0.000
770.862; 4498.425;   97.875;    0.000
771.055; 4593.425;  116.875;    0.000
771.248; 4500.425;  143.875;    0.000
771.441; 4515.425;  125.875;    0.000
771.633; 4586.425;  125.875;    0.000
771.826; 4628.425;  132.875;    0.000
772.018; 4584.425;  123.875;    0.000
772.211; 4667.425;  143.875;    0.000
772.404; 4743.425;  144.875;    0.000
772.596; 4726.425;  130.875;    0.000
772.789; 4855.425;  109.875;    0.000
772.981; 4935.425;  151.875;    0.000
773.174; 4887.425;  119.875;    0.000
773.366; 4881.425;  179.875;    0.000
773.559; 4972.425;  106.875;    0.000
773.751; 5115.425;  120.875;    0.000
773.944; 5295.425;  159.875;    0.000
774.136; 5215.425;  131.875;    0.000
774.329; 5490.425;  141.875;    0.000
774.521; 5543.425;  114.875;    0.000
774.713; 5675.425;  169.875;    0.000
774.906; 5999.425;  151.875;    0.000
775.098; 6133.425;   99.875;    0.000
775.290; 6392.425;  166.875;    0.000
775.483; 6611.425;  146.875;    0.000
775.675; 6819.425;  106.875;    0.000
775.867; 7297.425;   91.875;    0.000
776.059; 7910.425;  137.875;    0.000
776.251; 8597.425;  124.875;    0.000
776.444; 9535.425;  168.875;    0.000
776.636;11065.425;  138.875;    0.000
776.828;13448.425;  155.875;    0.000
777.020;18118.426;  160.875;    0.000
777.212;25994.426;  153.875;    0.000
777.404;29039.426;  135.875;    0.000
777.596;26916.426;  144.875;    0.000
777.788;21205.426;  127.875;    0.000
777.980;16442.426;  141.875;    0.000
778.172;13900.425;  138.875;    0.000
778.364;11833.425;  143.875;    0.000
778.556;10619.425;  123.875;    0.000
778.748; 9690.425;  103.875;    0.000
778.940; 8786.425;  176.875;    0.000
779.132; 8067.425;  144.875;    0.000
779.324; 7524.425;   75.875;    0.000
779.516; 7189.425;  117.875;    0.000
779.708; 6794.425;  151.875;    0.000
779.900; 6600.425;  127.875;    0.000
780.091; 6443.425;  155.875;    0.000
780.283; 6067.425;  157.875;    0.000
780.475; 5820.425;  140.875;    0.000
780.667; 5748.425;  141.875;    0.000
780.859; 5537.425;  113.875;    0.000
781.050; 5535.425;  153.875;    0.000
781.242; 5375.425;  118.875;    0.000
781.434; 5233.425;  121.875;    0.000
781.625; 5241.425;  146.875;    0.000
781.817; 5140.425;  154.875;    0.000
782.008; 5001.425;  144.875;    0.000
782.200; 4875.425;  152.875;    0.000
782.392; 4938.425;  160.875;    0.000
782.583; 4766.425;  122.875;    0.000
782.775; 4587.425;  144.875;    0.000
782.966; 4608.425;  143.875;    0.000
783.158; 4645.425;  125.875;    0.000
783.349; 4514.425;  173.875;    0.000
783.541; 4564.425;  166.875;    0.000
783.732; 4525.425;  163.875;    0.000
783.924; 4551.425;  157.875;    0.000
784.115; 4386.425;  158.875;    0.000
784.306; 4328.425;  160.875;    0.000
784.498; 4371.425;  132.875;    0.000
784.689; 4314.425;  181.875;    0.000
784.880; 4253.425;  156.875;    0.000
785.072; 4292.425;  134.875;    0.000
785.263; 4217.425;  155.875;    0.000
785.454; 4221.425;  141.875;    0.000
785.645; 4214.425;  114.875;    0.000
785.837; 4280.425;  137.875;    0.000
786.028; 4157.425;  158.875;    0.000
786.219; 4170.425;  135.875;    0.000
786.410; 4080.425;  152.875;    0.000
786.601; 4140.425;  132.875;    0.000
786.792; 4177.425;  152.875;    0.000
786.984; 4142.425;  162.875;    0.000
787.175; 4200.425;   97.875;    0.000
787.366; 4109.425;  129.875;    0.000
787.557; 4091.425;  135.875;    0.000
787.748; 4130.425;  127.875;    0.000
787.939; 4170.425;  152.875;    0.000
788.130; 4215.425;  182.875;    0.000
788.321; 4056.425;  130.875;    0.000
788.512; 4183.425;  161.875;    0.000
788.703; 4210.425;  127.875;    0.000
788.894; 4174.425;  121.875;    0.000
789.084; 4163.425;  134.875;    0.000
789.275; 4189.425;  108.875;    0.000
789.466; 4129.425;  152.875;    0.000
789.657; 4246.425;  115.875;    0.000
789.848; 4248.425;  150.875;    0.000
790.039; 4191.425;  132.875;    0.000
790.229; 4190.425;  169.875;    0.000
790.420; 4122.425;  159.875;    0.000
790.611; 4158.425;  123.875;    0.000
790.801; 4135.425;  144.875;    0.000
790.992; 4281.425;  177.875;    0.000
791.183; 4240.425;  128.875;    0.000
791.373; 4158.425;  123.875;    0.000
791.564; 4170.425;  131.875;    0.000
791.755; 4163.425;  103.875;    0.000
791.945; 4068.425;  104.875;    0.000
792.136; 4061.425;  115.875;    0.000
792.326; 4266.425;   99.875;    0.000
792.517; 4296.425;  139.875;    0.000
792.707; 4211.425;  155.875;    0.000
792.898; 4291.425;  139.875;    0.000
793.088; 4248.425;  153.875;    0.000
793.279; 4362.425;  137.875;    0.000
793.469; 4353.425;  109.875;    0.000
793.660; 4473.425;  119.875;    0.000
793.850; 4575.425;  119.875;    0.000
794.040; 4635.425;  132.875;    0.000
794.231; 4728.425;  122.875;    0.000
794.421; 5014.425;  124.875;    0.000
794.611; 5416.425;  151.875;    0.000
794.802; 6179.425;  121.875;    0.000
794.992; 6587.425;  139.875;    0.000
795.182; 6557.425;  132.875;    0.000
795.372; 6364.425;  149.875;    0.000
795.563; 5975.425;  153.875;    0.000
795.753; 5497.425;  120.875;    0.000
795.943; 5245.425;  121.875;    0.000
796.133; 4972.425;   97.875;    0.000
796.323; 4805.425;  122.875;    0.000
796.513; 4619.425;  142.875;    0.000
796.703; 4578.425;  125.875;    0.000
796.893; 4572.425;  126.875;    0.000
797.083; 4315.425;  150.875;    0.000
797.273; 4378.425;  108.875;    0.000
797.463; 4279.425;  156.875;    0.000
797.653; 4080.425;   80.875;    0.000
797.843; 4223.425;   88.875;    0.000
798.033; 4079.425;   96.875;    0.000
798.223; 4084.425;  159.875;    0.000
798.413; 4059.425;  155.875;    0.000
798.603; 3971.425;  125.875;    0.000
798.793; 3857.425;  141.875;    0.000
798.983; 3881.425;  113.875;    0.000
799.172; 3851.425;   85.875;    0.000
799.362; 3867.425;  141.875;    0.000
799.552; 3805.425;  122.875;    0.000
799.742; 3786.425;  124.875;    0.000
799.932; 3686.425;  102.875;    0.000
800.121; 3827.425;  146.875;    0.000
800.311; 3705.425;  122.875;    0.000
800.501; 3778.425;  120.875;    0.000
800.690; 3676.425;  141.875;    0.000
800.880; 3736.425;  146.875;    0.000
801.070; 3655.425;  122.875;    0.000
801.259; 3738.425;  138.875;    0.000
801.449; 3698.425;  115.875;    0.000
801.638; 3725.425;  132.875;    0.000
801.828; 3629.425;   92.875;    0.000
802.017; 3607.425;  150.875;    0.000
802.207; 3670.425;  134.875;    0.000
802.396; 3690.425;  133.875;    0.000
802.586; 3618.425;  117.875;    0.000
802.775; 3506.425;  155.875;    0.000
802.965; 3539.425;  132.875;    0.000
803.154; 3680.425;  176.875;    0.000
803.343; 3570.425;  106.875;    0.000
803.533; 3604.425;  154.875;    0.000
803.722; 3522.425;   97.875;    0.000
803.911; 3571.425;  107.875;    0.000
804.101; 3511.425;  145.875;    0.000
804.290; 3492.425;  130.875;    0.000
804.479; 3541.425;  152.875;    0.000
804.668; 3614.425;  160.875;    0.000
804.857; 3593.425;  161.875;    0.000
805.047; 3587.425;  126.875;    0.000
805.236; 3531.425;  136.875;    0.000
805.425; 3504.425;  153.875;    0.000
805.614; 3564.425;  139.875;    0.000
805.803; 3564.425;  144.875;    0.000
805.992; 3501.425;  160.875;    0.000
806.181; 3551.425;  139.875;    0.000
806.370; 3541.425;  104.875;    0.000
806.559; 3505.425;  103.875;    0.000
806.748; 3575.425;  145.875;    0.000
806.937; 3666.425;  151.875;    0.000
807.126; 3611.425;  119.875;    0.000
807.315; 3560.425;  139.875;    0.000
807.504; 3518.425;  143.875;    0.000
807.693; 3573.425;  164.875;    0.000
807.882; 3564.425;  135.875;    0.000
808.071; 3631.425;  131.875;    0.000
808.260; 3517.425;  113.875;    0.000
808.448; 3684.425;  161.875;    0.000
808.637; 3552.425;  125.875;    0.000
808.826; 3619.425;  155.875;    0.000
809.015; 3631.425;  113.875;    0.000
809.203; 3808.425;  152.875;    0.000
809.392; 3719.425;   90.875;    0.000
809.581; 3747.425;  186.875;    0.000
809.770; 3665.425;   99.875;    0.000
809.958; 3737.425;  146.875;    0.000
810.147; 3751.425;  115.875;    0.000
810.335; 3849.425;  122.875;    0.000
810.524; 3819.425;  150.875;    0.000
810.713; 3838.425;  121.875;    0.000
810.901; 3890.425;  156.875;    0.000
811.090; 4017.425;  161.875;    0.000
811.278; 3968.425;  138.875;    0.000
811.467; 4101.425;  184.875;    0.000
811.655; 4126.425;  150.875;    0.000
811.844; 4084.425;  137.875;    0.000
812.032; 4126.425;  142.875;    0.000
812.220; 4143.425;  134.875;    0.000
812.409; 4110.425;  143.875;    0.000
812.597; 4094.425;  164.875;    0.000
812.785; 4181.425;  188.875;    0.000
812.974; 4172.425;  156.875;    0.000
813.162; 4229.425;  166.875;    0.000
813.350; 4238.425;  115.875;    0.000
813.539; 4286.425;  167.875;    0.000
813.727; 4322.425;  165.875;    0.000
813.915; 4355.425;  137.875;    0.000
814.103; 4428.425;  166.875;    0.000
814.291; 4462.425;  151.875;    0.000
814.479; 4422.425;  147.875;    0.000
814.668; 4536.425;  166.875;    0.000
814.856; 4771.425;  160.875;    0.000
815.044; 4749.425;  172.875;    0.000
815.232; 5020.425;  193.875;    0.000
815.420; 4980.425;  173.875;    0.000
815.608; 4965.425;  134.875;    0.000
815.796; 5069.425;  105.875;    0.000
815.984; 5242.425;  125.875;    0.000
816.172; 5389.425;  160.875;    0.000
816.360; 5443.425;  162.875;    0.000
816.548; 5688.425;  160.875;    0.000
816.736; 6034.425;  132.875;    0.000
816.924; 6264.425;  184.875;    0.000
817.111; 6548.425;  145.875;    0.000
817.299; 6897.425;  132.875;    0.000
817.487; 7489.425;  193.875;    0.000
817.675; 8132.425;  153.875;    0.000
817.863; 9557.425;  153.875;    0.000
818.050;12351.425;  172.875;    0.000
818.238;19788.426;  131.875;    0.000
818.426;26726.426;  160.875;    0.000
818.613;20707.426;  136.875;    0.000
818.801;17606.426;  162.875;    0.000
818.989;17003.426;  153.875;    0.000
819.176;17901.426;  181.875;    0.000
819.364;24750.426;  165.875;    0.000
819.552;33529.426;  111.875;    0.000
819.739;26054.426;  192.875;    0.000
819.927;20227.426;  146.875;    0.000
820.114;17108.426;  154.875;    0.000
820.302;15258.425;  144.875;    0.000
820.489;13744.425;  133.875;    0.000
820.677;12852.425;  135.875;    0.000
820.864;12245.425;  130.875;    0.000
821.052;12045.425;   88.875;    0.000
821.239;11706.425;  143.875;    0.000
821.426;11917.425;  186.875;    0.000
821.614;12991.425;  171.875;    0.000
821.801;13254.425;   90.875;    0.000
821.988;12314.425;  143.875;    0.000
822.176;11832.425;   95.875;    0.000
822.363;11742.425;  148.875;    0.000
822.550;10965.425;  139.875;    0.000
822.737;10110.425;  122.875;    0.000
822.924; 9344.425;  171.875;    0.000
823.112; 9095.425;  147.875;    0.000
823.299; 8440.425;  111.875;    0.000
823.486; 8194.425;  161.875;    0.000
823.673; 7708.425;  124.875;    0.000
823.860; 7697.425;  151.875;    0.000
824.047; 7587.425;  145.875;    0.000
824.234; 8031.425;  139.875;    0.000
824.421; 7846.425;  110.875;    0.000
824.608; 7129.425;  145.875;    0.000
824.795; 6766.425;  115.875;    0.000
824.982; 6513.425;  148.875;    0.000
825.169; 6095.425;  135.875;    0.000
825.356; 5952.425;  122.875;    0.000
825.543; 5650.425;  142.875;    0.000
825.730; 5444.425;   89.875;    0.000
825.917; 5378.425;  127.875;    0.000
826.104; 5285.425;  187.875;    0.000
826.290; 5077.425;  138.875;    0.000
826.477; 4922.425;  140.875;    0.000
826.664; 4897.425;  106.875;    0.000
826.851; 4612.425;  155.875;    0.000
827.038; 4704.425;  125.875;    0.000
827.224; 4484.425;  126.875;    0.000
827.411; 4544.425;  163.875;    0.000
827.598; 4368.425;  140.875;    0.000
827.784; 4421.425;  117.875;    0.000
827.971; 4235.425;  114.875;    0.000
828.157; 4219.425;  146.875;    0.000
828.344; 4001.425;  161.875;    0.000
828.531; 4041.425;  155.875;    0.000
828.717; 3980.425;  130.875;    0.000
828.904; 4007.425;  138.875;    0.000
829.090; 3865.425;  176.875;    0.000
829.277; 3928.425;  152.875;    0.000
829.463; 3904.425;  139.875;    0.000
829.650; 3805.425;  168.875;    0.000
829.836; 3781.425;  176.875;    0.000
830.022; 3664.425;  159.875;    0.000
830.209; 3565.425;  135.875;    0.000
830.395; 3611.425;  177.875;    0.000
830.581; 3570.425;  125.875;    0.000
830.768; 3462.425;  155.875;    0.000
830.954; 3447.425;  187.875;    0.000
831.140; 3456.425;  135.875;    0.000
831.327; 3375.425;  158.875;    0.000
831.513; 3370.425;  126.875;    0.000
831.699; 3334.425;  167.875;    0.000
831.885; 3287.425;  165.875;    0.000
832.071; 3229.425;  167.875;    0.000
832.257; 3285.425;  144.875;    0.000
832.444; 3306.425;  158.875;    0.000
832.630; 3244.425;  167.875;    0.000
832.816; 3221.425;  150.875;    0.000
833.002; 3136.425;  157.875;    0.000
833.188; 3106.425;  169.875;    0.000
833.374; 3090.425;  144.875;    0.000
833.560; 3189.425;  179.875;    0.000
833.746; 3062.425;  134.875;    0.000
833.932; 3055.425;  150.875;    0.000
834.118; 3050.425;   98.875;    0.000
834.303; 2974.425;  121.875;    0.000
834.489; 2988.425;  179.875;    0.000
834.675; 2972.425;  136.875;    0.000
834.861; 2929.425;  130.875;    0.000
835.047; 3014.425;  132.875;    0.000
835.233; 2864.425;  104.875;    0.000
835.418; 2991.425;  143.875;    0.000
835.604; 2923.425;  127.875;    0.000
835.790; 2912.425;  138.875;    0.000
835.976; 2862.425;  137.875;    0.000
836.161; 2889.425;  155.875;    0.000
836.347; 2813.425;  101.875;    0.000
836.533; 2963.425;  121.875;    0.000
836.718; 2819.425;  150.875;    0.000
836.904; 2906.425;  168.875;    0.000
837.089; 2876.425;  169.875;    0.000
837.275; 2812.425;  172.875;    0.000
837.460; 2925.425;  140.875;    0.000
837.646; 2895.425;  144.875;    0.000
837.831; 2810.425;  137.875;    0.000
838.017; 2975.425;  176.875;    0.000
838.202; 2773.425;  107.875;    0.000
838.388; 2826.425;  181.875;    0.000
838.573; 2749.425;  151.875;    0.000
838.759; 2836.425;  160.875;    0.000
838.944; 2793.425;  121.875;    0.000
839.129; 2772.425;  145.875;    0.000
839.315; 2790.425;  166.875;    0.000
839.500; 2784.425;  143.875;    0.000
839.685; 2815.425;   93.875;    0.000
839.870; 2766.425;  160.875;    0.000
840.056; 2875.425;  132.875;    0.000
840.241; 2836.425;  154.875;    0.000
840.426; 2763.425;  161.875;    0.000
840.611; 2943.425;  186.875;    0.000
840.796; 2852.425;  135.875;    0.000
840.981; 2885.425;  147.875;    0.000
841.166; 2885.425;  138.875;    0.000
841.352; 2997.425;  156.875;    0.000
841.537; 2977.425;  170.875;    0.000
841.722; 2909.425;  143.875;    0.000
841.907; 2908.425;  143.875;    0.000
842.092; 2952.425;  166.875;    0.000
842.277; 2976.425;  113.875;    0.000
842.461; 2994.425;  126.875;    0.000
842.646; 3156.425;  145.875;    0.000
842.831; 3187.425;  193.875;    0.000
843.016; 3265.425;  162.875;    0.000
843.201; 3319.425;  144.875;    0.000
843.386; 3408.425;  160.875;    0.000
843.571; 3519.425;  136.875;    0.000
843.755; 3701.425;  134.875;    0.000
843.940; 3874.425;  136.875;    0.000
844.125; 4361.425;  169.875;    0.000
844.310; 4937.425;  189.875;    0.000
844.494; 6091.425;  167.875;    0.000
844.679; 8098.425;  184.875;    0.000
844.864; 7990.425;  147.875;    0.000
845.048; 6768.425;  140.875;    0.000
845.233; 5884.425;  178.875;    0.000
845.418; 5239.425;  145.875;    0.000
845.602; 4798.425;  147.875;    0.000
845.787; 4342.425;  147.875;    0.000
845.971; 4155.425;  165.875;    0.000
846.156; 3875.425;  106.875;    0.000
846.340; 3639.425;  168.875;    0.000
846.525; 3552.425;  155.875;    0.000
846.709; 3466.425;  157.875;    0.000
846.893; 3373.425;  166.875;    0.000
847.078; 3245.425;  138.875;    0.000
847.262; 3101.425;  171.875;    0.000
847.447; 2965.425;  135.875;    0.000
847.631; 2920.425;  136.875;    0.000
847.815; 2916.425;  136.875;    0.000
848.000; 2864.425;  126.875;    0.000
848.184; 2812.425;  131.875;    0.000
848.368; 2678.425;  153.875;    0.000
848.552; 2735.425;  137.875;    0.000
848.736; 2721.425;  151.875;    0.000
848.921; 2689.425;  156.875;    0.000
849.105; 2621.425;  153.875;    0.000
849.289; 2688.425;  180.875;    0.000
849.473; 2635.425;  156.875;    0.000
849.657; 2616.425;  157.875;    0.000
849.841; 2528.425;  147.875;    0.000
850.025; 2534.425;  194.875;    0.000
850.209; 2471.425;  147.875;    0.000
850.393; 2451.425;  141.875;    0.000
850.577; 2513.425;  156.875;    0.000
850.761; 2499.425;  157.875;    0.000
850.945; 2416.425;  128.875;    0.000
851.129; 2459.425;  151.875;    0.000
851.313; 2445.425;  180.875;    0.000
851.497; 2366.425;  123.875;    0.000
851.680; 2499.425;  188.875;    0.000
851.864; 2431.425;  177.875;    0.000
852.048; 2459.425;  163.875;    0.000
852.232; 2430.425;  149.875;    0.000
852.416; 2452.425;  187.875;    0.000
852.599; 2377.425;  169.875;    0.000
852.783; 2407.425;  154.875;    0.000
852.967; 2477.425;  191.875;    0.000
853.150; 2376.425;  170.875;    0.000
853.334; 2347.425;  173.875;    0.000
853.518; 2436.425;  186.875;    0.000
853.701; 2275.425;  142.875;    0.000
853.885; 2350.425;  153.875;    0.000
854.068; 2231.425;  132.875;    0.000
854.252; 2265.425;  184.875;    0.000
854.435; 2369.425;  152.875;    0.000
854.619; 2301.425;  152.875;    0.000
854.802; 2370.425;  164.875;    0.000
854.986; 2301.425;  151.875;    0.000
855.169; 2288.425;  153.875;    0.000
855.353; 2340.425;  183.875;    0.000
855.536; 2368.425;  113.875;    0.000
855.719; 2266.425;  181.875;    0.000
855.903; 2432.425;  159.875;    0.000
856.086; 2327.425;  142.875;    0.000
856.269; 2355.425;  171.875;    0.000
856.452; 2329.425;  132.875;    0.000
856.636; 2388.425;  140.875;    0.000
856.819; 2595.425;  165.875;    0.000
857.002; 2635.425;  170.875;    0.000
857.185; 2615.425;  173.875;    0.000
857.368; 2482.425;  129.875;    0.000
857.552; 2523.425;  151.875;    0.000
857.735; 2497.425;  146.875;    0.000
857.918; 2499.425;  114.875;    0.000
858.101; 2441.425;  152.875;    0.000
858.284; 2492.425;  164.875;    0.000
858.467; 2485.425;  147.875;    0.000
858.650; 2448.425;  146.875;    0.000
858.833; 2573.425;  118.875;    0.000
859.016; 2598.425;  161.875;    0.000
859.199; 2615.425;  135.875;    0.000
859.382; 2708.425;  157.875;    0.000
859.564; 2907.425;  124.875;    0.000
859.747; 2924.425;  154.875;    0.000
859.930; 2826.425;  138.875;    0.000
860.113; 2717.425;  153.875;    0.000
860.296; 2755.425;  180.875;    0.000
860.478; 2659.425;  145.875;    0.000
860.661; 2681.425;  160.875;    0.000
860.844; 2638.425;   96.875;    0.000
861.027; 2648.425;  128.875;    0.000
861.209; 2613.425;  127.875;    0.000
861.392; 2595.425;  126.875;    0.000
861.575; 2662.425;  155.875;    0.000
861.757; 2608.425;  141.875;    0.000
861.940; 2703.425;  181.875;    0.000
862.122; 2692.425;  145.875;    0.000
862.305; 2727.425;  124.875;    0.000
862.487; 2792.425;  151.875;    0.000
862.670; 2915.425;  132.875;    0.000
862.852; 3403.425;  112.875;    0.000
863.035; 3745.425;  116.875;    0.000
863.217; 3909.425;  131.875;    0.000
863.400; 3571.425;  145.875;    0.000
863.582; 3427.425;  147.875;    0.000
863.764; 3257.425;  163.875;    0.000
863.947; 3144.425;  129.875;    0.000
864.129; 3100.425;  159.875;    0.000
864.311; 3097.425;  144.875;    0.000
864.493; 3015.425;  141.875;    0.000
864.676; 2974.425;  159.875;    0.000
864.858; 2955.425;  146.875;    0.000
865.040; 3001.425;  163.875;    0.000
865.222; 2938.425;  133.875;    0.000
865.404; 3003.425;  148.875;    0.000
865.587; 3144.425;  177.875;    0.000
865.769; 3167.425;  172.875;    0.000
865.951; 3054.425;  145.875;    0.000
866.133; 3148.425;  168.875;    0.000
866.315; 3209.425;  147.875;    0.000
866.497; 3241.425;  164.875;    0.000
866.679; 3281.425;  143.875;    0.000
866.861; 3382.425;  170.875;    0.000
867.043; 3487.425;  185.875;    0.000
867.225; 3660.425;  149.875;    0.000
867.407; 3874.425;  143.875;    0.000
867.589; 4416.425;  169.875;    0.000
867.770; 5214.425;  166.875;    0.000
867.952; 6805.425;  158.875;    0.000
868.134; 8585.425;  170.875;    0.000
868.316; 8718.425;  157.875;    0.000
868.498; 8457.425;  186.875;    0.000
868.679; 7564.425;  158.875;    0.000
868.861; 6356.425;  180.875;    0.000
869.043; 5604.425;  164.875;    0.000
869.224; 4998.425;  156.875;    0.000
869.406; 4666.425;  176.875;    0.000
869.588; 4359.425;  152.875;    0.000
869.769; 4091.425;  131.875;    0.000
869.951; 4043.425;  203.875;    0.000
870.132; 3946.425;  143.875;    0.000
870.314; 4356.425;  129.875;    0.000
870.495; 4453.425;  175.875;    0.000
870.677; 4139.425;  165.875;    0.000
870.858; 3997.425;  151.875;    0.000
871.040; 4172.425;  155.875;    0.000
871.221; 4443.425;  144.875;    0.000
871.403; 4474.425;  131.875;    0.000
871.584; 4165.425;  174.875;    0.000
871.765; 4208.425;  169.875;    0.000
871.947; 4437.425;  187.875;    0.000
872.128; 4015.425;  181.875;    0.000
872.309; 3598.425;  129.875;    0.000
872.491; 3394.425;  142.875;    0.000
872.672; 3203.425;  158.875;    0.000
872.853; 3048.425;  179.875;    0.000
873.034; 2983.425;  164.875;    0.000
873.215; 2972.425;  168.875;    0.000
873.396; 2764.425;  114.875;    0.000
873.578; 2721.425;  126.875;    0.000
873.759; 2623.425;  177.875;    0.000
873.940; 2619.425;  169.875;    0.000
874.121; 2535.425;  133.875;    0.000
874.302; 2493.425;  164.875;    0.000
874.483; 2552.425;  162.875;    0.000
874.664; 2451.425;  140.875;    0.000
874.845; 2391.425;  124.875;    0.000
875.026; 2311.425;  146.875;    0.000
875.207; 2366.425;  147.875;    0.000
875.388; 2349.425;  174.875;    0.000
875.568; 2207.425;  179.875;    0.000
875.749; 2241.425;  155.875;    0.000
875.930; 2285.425;  166.875;    0.000
876.111; 2300.425;  153.875;    0.000
876.292; 2184.425;  146.875;    0.000
876.472; 2153.425;  167.875;    0.000
876.653; 2210.425;  145.875;    0.000
876.834; 2120.425;  172.875;    0.000
877.015; 2107.425;  184.875;    0.000
877.195; 2117.425;  160.875;    0.000
877.376; 2058.425;  163.875;    0.000
877.556; 2192.425;  164.875;    0.000
877.737; 2109.425;  179.875;    0.000
877.918; 2101.425;  137.875;    0.000
878.098; 2052.425;  117.875;    0.000
878.279; 1984.425;  135.875;    0.000
878.459; 2097.425;  149.875;    0.000
878.640; 2074.425;  171.875;    0.000
878.820; 2036.425;  142.875;    0.000
879.000; 2053.425;  166.875;    0.000
879.181; 1999.425;  177.875;    0.000
879.361; 2004.425;  176.875;    0.000
879.542; 2022.425;  159.875;    0.000
879.722; 1977.425;  122.875;    0.000
879.902; 2090.425;  166.875;    0.000
880.083; 2077.425;  164.875;    0.000
880.263; 2035.425;  139.875;    0.000
880.443; 2086.425;  179.875;    0.000
880.623; 2352.425;  154.875;    0.000
880.803; 2466.425;  160.875;    0.000
880.984; 2412.425;  181.875;    0.000
881.164; 2229.425;  167.875;    0.000
881.344; 2124.425;  141.875;    0.000
881.524; 2273.425;  190.875;    0.000
881.704; 2154.425;  165.875;    0.000
881.884; 2125.425;  144.875;    0.000
882.064; 2318.425;  135.875;    0.000
882.244; 2355.425;  186.875;    0.000
882.424; 2238.425;  150.875;    0.000
882.604; 2204.425;  168.875;    0.000
882.784; 2102.425;  155.875;    0.000
882.964; 2086.425;  137.875;    0.000
883.144; 2031.425;  136.875;    0.000
883.324; 1970.425;  200.875;    0.000
883.504; 2045.425;  203.875;    0.000
883.683; 1956.425;  149.875;    0.000
883.863; 1972.425;  160.875;    0.000
884.043; 1937.425;  161.875;    0.000
884.223; 1900.425;  147.875;    0.000
884.402; 1938.425;  175.875;    0.000
884.582; 1915.425;  188.875;    0.000
884.762; 1959.425;  173.875;    0.000
884.941; 1984.425;  164.875;    0.000
885.121; 1943.425;  147.875;    0.000
885.301; 1952.425;  135.875;    0.000
885.480; 1967.425;  145.875;    0.000
885.660; 1853.425;  144.875;    0.000
885.839; 1839.425;  155.875;    0.000
886.019; 1897.425;  207.875;    0.000
886.198; 1847.425;  165.875;    0.000
886.378; 1865.425;  120.875;    0.000
886.557; 1820.425;  133.875;    0.000
886.737; 1815.425;  119.875;    0.000
886.916; 1914.425;  129.875;    0.000
887.095; 1801.425;  158.875;    0.000
887.275; 1830.425;  169.875;    0.000
887.454; 1893.425;  184.875;    0.000
887.633; 1853.425;  143.875;    0.000
887.813; 1844.425;  154.875;    0.000
887.992; 1854.425;  188.875;    0.000
888.171; 1758.425;  176.875;    0.000
888.350; 1812.425;  161.875;    0.000
888.530; 1836.425;  163.875;    0.000
888.709; 1705.425;  136.875;    0.000
888.888; 1780.425;  177.875;    0.000
889.067; 1782.425;  169.875;    0.000
889.246; 1781.425;  188.875;    0.000
889.425; 1745.425;  187.875;    0.000
889.604; 1828.425;  169.875;    0.000
889.783; 1813.425;  182.875;    0.000
889.962; 1676.425;  112.875;    0.000
890.141; 1856.425;  231.875;    0.000
890.320; 1756.425;  161.875;    0.000
890.499; 1807.425;  164.875;    0.000
890.678; 1714.425;  176.875;    0.000
890.857; 1777.425;  163.875;    0.000
891.036; 1767.425;  161.875;    0.000
891.214; 1791.425;  156.875;    0.000
891.393; 1809.425;  167.875;    0.000
891.572; 1838.425;  163.875;    0.000
891.751; 1860.425;  205.875;    0.000
891.930; 1773.425;  162.875;    0.000
892.108; 1729.425;  153.875;    0.000
892.287; 1774.425;  153.875;    0.000
892.466; 1728.425;  201.875;    0.000
892.644; 1797.425;  158.875;    0.000
892.823; 1722.425;  122.875;    0.000
893.001; 1772.425;  148.875;    0.000
893.180; 1738.425;  142.875;    0.000
893.359; 1751.425;  192.875;    0.000
893.537; 1788.425;  166.875;    0.000
893.716; 1822.425;  144.875;    0.000
893.894; 1751.425;  145.875;    0.000
894.073; 1762.425;  180.875;    0.000
894.251; 1775.425;  165.875;    0.000
894.429; 1721.425;  182.875;    0.000
894.608; 1692.425;  181.875;    0.000
894.786; 1723.425;  180.875;    0.000
894.964; 1810.425;  207.875;    0.000
895.143; 1767.425;  190.875;    0.000
895.321; 1774.425;  206.875;    0.000
895.499; 1775.425;  164.875;    0.000
895.677; 1705.425;  199.875;    0.000
895.856; 1750.425;  203.875;    0.000
896.034; 1817.425;  200.875;    0.000
896.212; 1772.425;  198.875;    0.000
896.390; 1831.425;  161.875;    0.000
896.568; 1878.425;  205.875;    0.000
896.746; 1690.425;  185.875;    0.000
896.924; 1822.425;  179.875;    0.000
897.102; 1829.425;  190.875;    0.000
897.280; 1751.425;  160.875;    0.000
897.458; 1830.425;  196.875;    0.000
897.636; 1878.425;  168.875;    0.000
897.814; 1798.425;  159.875;    0.000
897.992; 1816.425;  216.875;    0.000
898.170; 1811.425;  195.875;    0.000
898.348; 1768.425;  185.875;    0.000
898.526; 1836.425;  199.875;    0.000
898.704; 1898.425;  215.875;    0.000
898.882; 1805.425;  195.875;    0.000
899.059; 1805.425;  197.875;    0.000
899.237; 1759.425;  168.875;    0.000
899.415; 1863.425;  221.875;    0.000
899.593; 1896.425;  171.875;    0.000
899.770; 1806.425;  191.875;    0.000
899.948; 1792.425;  206.875;    0.000
900.125; 1847.425;  175.875;    0.000
900.303; 1819.425;  176.875;    0.000
900.481; 1881.425;  199.875;    0.000
900.658; 1936.425;  217.875;    0.000
900.836; 1939.425;  192.875;    0.000
901.013; 1833.425;  221.875;    0.000
901.191; 1895.425;  203.875;    0.000
901.368; 1890.425;  189.875;    0.000
901.546; 1989.425;  212.875;    0.000
901.723; 1919.425;  189.875;    0.000
901.901; 1972.425;  198.875;    0.000
902.078; 1991.425;  193.875;    0.000
902.255; 2024.425;  176.875;    0.000
902.433; 2042.425;  201.875;    0.000
902.610; 2083.425;  170.875;    0.000
902.787; 2031.425;  164.875;    0.000
902.964; 2055.425;  216.875;    0.000
903.142; 2131.425;  153.875;    0.000
903.319; 2188.425;  204.875;    0.000
903.496; 2231.425;  188.875;    0.000
903.673; 2215.425;  209.875;    0.000
903.850; 2161.425;  173.875;    0.000
904.027; 2301.425;  186.875;    0.000
904.204; 2351.425;  241.875;    0.000
904.381; 2511.425;  187.875;    0.000
904.558; 2657.425;  196.875;    0.000
904.735; 3010.425;  206.875;    0.000
904.912; 3010.425;  228.875;    0.000
905.089; 3065.425;  172.875;    0.000
905.266; 2915.425;  175.875;    0.000
905.443; 2826.425;  239.875;    0.000
905.620; 2602.425;  176.875;    0.000
905.797; 2528.425;  205.875;    0.000
905.974; 2436.425;  187.875;    0.000
906.151; 2405.425;  135.875;    0.000
906.327; 2456.425;  209.875;    0.000
906.504; 2438.425;  145.875;    0.000
906.681; 2265.425;  178.875;    0.000
906.858; 2199.425;  179.875;    0.000
907.034; 2218.425;  221.875;    0.000
907.211; 2201.425;  166.875;    0.000
907.388; 2162.425;  206.875;    0.000
907.564; 2146.425;  150.875;    0.000
907.741; 2171.425;  187.875;    0.000
907.917; 2036.425;  180.875;    0.000
908.094; 2138.425;  206.875;    0.000
908.271; 2028.425;  184.875;    0.000
908.447; 2002.425;  212.875;    0.000
908.623; 1967.425;  193.875;    0.000
908.800; 1987.425;  185.875;    0.000
908.976; 1946.425;  202.875;    0.000
909.153; 1951.425;  175.875;    0.000
909.329; 1950.425;  193.875;    0.000
909.505; 2001.425;  154.875;    0.000
909.682; 1977.425;  188.875;    0.000
909.858; 1948.425;  162.875;    0.000
910.034; 1877.425;  181.875;    0.000
910.211; 1902.425;  142.875;    0.000
910.387; 1936.425;  200.875;    0.000
910.563; 1910.425;  163.875;    0.000
910.739; 1913.425;  156.875;    0.000
910.915; 1874.425;  202.875;    0.000
911.091; 1898.425;  186.875;    0.000
911.268; 1899.425;  167.875;    0.000
911.444; 1842.425;  193.875;    0.000
911.620; 1864.425;  175.875;    0.000
911.796; 1836.425;  168.875;    0.000
911.972; 1894.425;  154.875;    0.000
912.148; 1833.425;  201.875;    0.000
912.324; 1952.425;  146.875;    0.000
912.500; 1847.425;  185.875;    0.000
912.676; 1865.425;  183.875;    0.000
912.851; 1862.425;  204.875;    0.000
913.027; 1846.425;  196.875;    0.000
913.203; 1863.425;  174.875;    0.000
913.379; 1913.425;  210.875;    0.000
913.555; 1880.425;  197.875;    0.000
913.730; 1796.425;  209.875;    0.000
913.906; 1814.425;  169.875;    0.000
914.082; 1893.425;  236.875;    0.000
914.258; 1810.425;  216.875;    0.000
914.433; 1829.425;  212.875;    0.000
914.609; 1865.425;  180.875;    0.000
914.784; 1776.425;  176.875;    0.000
914.960; 1862.425;  227.875;    0.000
915.136; 1800.425;  149.875;    0.000
915.311; 1834.425;  165.875;    0.000
915.487; 1880.425;  167.875;    0.000
915.662; 1921.425;  225.875;    0.000
915.838; 1830.425;  165.875;    0.000
916.013; 1835.425;  188.875;    0.000
916.189; 1846.425;  200.875;    0.000
916.364; 1907.425;  201.875;    0.000
916.539; 1934.425;  240.875;    0.000
916.715; 1860.425;  180.875;    0.000
916.890; 1875.425;  191.875;    0.000
917.065; 1832.425;  211.875;    0.000
917.240; 1857.425;  212.875;    0.000
917.416; 1908.425;  207.875;    0.000
917.591; 1957.425;  189.875;    0.000
917.766; 1917.425;  205.875;    0.000
917.941; 1907.425;  191.875;    0.000
918.116; 1868.425;  195.875;    0.000
918.292; 1785.425;  183.875;    0.000
918.467; 1882.425;  206.875;    0.000
918.642; 1880.425;  190.875;    0.000
918.817; 1925.425;  193.875;    0.000
918.992; 1891.425;  171.875;    0.000
919.167; 1980.425;  191.875;    0.000
919.342; 1876.425;  202.875;    0.000
919.517; 2015.425;  182.875;    0.000
919.692; 1954.425;  190.875;    0.000
919.867; 1957.425;  221.875;    0.000
920.041; 1933.425;  195.875;    0.000
920.216; 2003.425;  226.875;    0.000
920.391; 2043.425;  230.875;    0.000
920.566; 2064.425;  210.875;    0.000
920.741; 2138.425;  204.875;    0.000
920.915; 2176.425;  213.875;    0.000
921.090; 2243.425;  194.875;    0.000
921.265; 2609.425;  234.875;    0.000
921.439; 2847.425;  228.875;    0.000
921.614; 2638.425;  199.875;    0.000
921.789; 2437.425;  194.875;    0.000
921.963; 2423.425;  236.875;    0.000
922.138; 2246.425;  192.875;    0.000
922.312; 2279.425;  203.875;    0.000
922.487; 2298.425;  207.875;    0.000
922.661; 2334.425;  216.875;    0.000
922.836; 2519.425;  199.875;    0.000
923.010; 2618.425;  179.875;    0.000
923.185; 2391.425;  241.875;    0.000
923.359; 2390.425;  199.875;    0.000
923.534; 2384.425;  227.875;    0.000
923.708; 2403.425;  213.875;    0.000
923.882; 2544.425;  203.875;    0.000
924.057; 2471.425;  194.875;    0.000
924.231; 2336.425;  185.875;    0.000
924.405; 2287.425;  223.875;    0.000
924.579; 2319.425;  196.875;    0.000
924.753; 2257.425;  209.875;    0.000
924.928; 2209.425;  202.875;    0.000
925.102; 2177.425;  184.875;    0.000
925.276; 2101.425;  191.875;    0.000
925.450; 2307.425;  199.875;    0.000
925.624; 2210.425;  190.875;    0.000
925.798; 2314.425;  214.875;    0.000
925.972; 2322.425;  193.875;    0.000
926.146; 2440.425;  191.875;    0.000
926.320; 2507.425;  177.875;    0.000
926.494; 2730.425;  190.875;    0.000
926.668; 2834.425;  182.875;    0.000
926.842; 2770.425;  182.875;    0.000
927.016; 2867.425;  235.875;    0.000
927.190; 2791.425;  234.875;    0.000
927.363; 2672.425;  214.875;    0.000
927.537; 2738.425;  198.875;    0.000
927.711; 2740.425;  154.875;    0.000
927.885; 2669.425;  167.875;    0.000
928.058; 2633.425;  210.875;    0.000
928.232; 2593.425;  206.875;    0.000
928.406; 2498.425;  176.875;    0.000
928.579; 2527.425;  182.875;    0.000
928.753; 2540.425;  179.875;    0.000
928.927; 2372.425;  186.875;    0.000
929.100; 2458.425;  188.875;    0.000
929.274; 2312.425;  167.875;    0.000
929.447; 2329.425;  152.875;    0.000
929.621; 2317.425;  195.875;    0.000
929.794; 2227.425;  200.875;    0.000
929.968; 2152.425;  203.875;    0.000
930.141; 2255.425;  237.875;    0.000
930.315; 2202.425;  165.875;    0.000
930.488; 2220.425;  175.875;    0.000
930.661; 2183.425;  173.875;    0.000
930.835; 2191.425;  171.875;    0.000
931.008; 2143.425;  210.875;    0.000
931.181; 2112.425;  206.875;    0.000
931.354; 2059.425;  195.875;    0.000
931.528; 2025.425;  178.875;    0.000
931.701; 2059.425;  179.875;    0.000
931.874; 1997.425;  150.875;    0.000
932.047; 2015.425;  154.875;    0.000
932.220; 1993.425;  185.875;    0.000
932.393; 1980.425;  166.875;    0.000
932.566; 2023.425;  171.875;    0.000
932.739; 1952.425;  196.875;    0.000
932.912; 1991.425;  212.875;    0.000
933.085; 1942.425;  234.875;    0.000
933.258; 1991.425;  212.875;    0.000
933.431; 1957.425;  181.875;    0.000
933.604; 1937.425;  201.875;    0.000
933.777; 1959.425;  201.875;    0.000
933.950; 1864.425;  176.875;    0.000
934.123; 1911.425;  175.875;    0.000
934.296; 1954.425;  174.875;    0.000
934.468; 1914.425;  186.875;    0.000
934.641; 1799.425;  192.875;    0.000
934.814; 1973.425;  187.875;    0.000
934.987; 1937.425;  165.875;    0.000
935.159; 1858.425;  162.875;    0.000
935.332; 1920.425;  210.875;    0.000
935.505; 1945.425;  191.875;    0.000
935.677; 1792.425;  159.875;    0.000
935.850; 1880.425;  170.875;    0.000
936.022; 1936.425;  172.875;    0.000
936.195; 1895.425;  202.875;    0.000
936.367; 1850.425;  179.875;    0.000
936.540; 1935.425;  207.875;    0.000
936.712; 1937.425;  200.875;    0.000
936.885; 2003.425;  219.875;    0.000
937.057; 1917.425;  150.875;    0.000
937.229; 1980.425;  187.875;    0.000
937.402; 2013.425;  169.875;    0.000
937.574; 1946.425;  127.875;    0.000
937.746; 1995.425;  171.875;    0.000
937.919; 2012.425;  176.875;    0.000
938.091; 2091.425;  193.875;    0.000
938.263; 2208.425;  200.875;    0.000
938.435; 2310.425;  181.875;    0.000
938.608; 2557.425;  191.875;    0.000
938.780; 2853.425;  173.875;    0.000
938.952; 2951.425;  184.875;    0.000
939.124; 2959.425;  171.875;    0.000
939.296; 3286.425;  156.875;    0.000
939.468; 3284.425;  147.875;    0.000
939.640; 3110.425;  186.875;    0.000
939.812; 2879.425;  217.875;    0.000
939.984; 2665.425;  155.875;    0.000
940.156; 2480.425;  191.875;    0.000
940.328; 2405.425;  201.875;    0.000
940.500; 2248.425;  176.875;    0.000
940.672; 2215.425;  190.875;    0.000
940.843; 2224.425;  143.875;    0.000
941.015; 2147.425;  189.875;    0.000
941.187; 2056.425;  172.875;    0.000
941.359; 2089.425;  175.875;    0.000
941.531; 2105.425;  154.875;    0.000
941.702; 2031.425;  183.875;    0.000
941.874; 1959.425;  140.875;    0.000
942.046; 2017.425;  177.875;    0.000
942.217; 1964.425;  147.875;    0.000
942.389; 1976.425;  196.875;    0.000
942.560; 1875.425;  163.875;    0.000
942.732; 1975.425;  187.875;    0.000
942.904; 1852.425;  226.875;    0.000
943.075; 1841.425;  159.875;    0.000
943.247; 1849.425;  209.875;    0.000
943.418; 1911.425;  167.875;    0.000
943.589; 1771.425;  195.875;    0.000
943.761; 1783.425;  190.875;    0.000
943.932; 1804.425;  187.875;    0.000
944.104; 1844.425;  194.875;    0.000
944.275; 1827.425;  177.875;    0.000
944.446; 1805.425;  155.875;    0.000
944.617; 1767.425;  176.875;    0.000
944.789; 1813.425;  171.875;    0.000
944.960; 1797.425;  172.875;    0.000
945.131; 1771.425;  158.875;    0.000
945.302; 1776.425;  201.875;    0.000
945.473; 1677.425;  141.875;    0.000
945.645; 1724.425;  197.875;    0.000
945.816; 1782.425;  165.875;    0.000
945.987; 1801.425;  190.875;    0.000
946.158; 1801.425;  158.875;    0.000
946.329; 1796.425;  160.875;    0.000
946.500; 1785.425;  190.875;    0.000
946.671; 1702.425;  152.875;    0.000
946.842; 1780.425;  182.875;    0.000
947.013; 1728.425;  160.875;    0.000
947.183; 1741.425;  203.875;    0.000
947.354; 1788.425;  174.875;    0.000
947.525; 1748.425;  173.875;    0.000
947.696; 1693.425;  170.875;    0.000
947.867; 1769.425;  187.875;    0.000
948.037; 1678.425;  165.875;    0.000
948.208; 1695.425;  154.875;    0.000
948.379; 1709.425;  176.875;    0.000
948.550; 1620.425;  176.875;    0.000
948.720; 1650.425;  169.875;    0.000
948.891; 1698.425;  216.875;    0.000
949.061; 1667.425;  200.875;    0.000
949.232; 1606.425;  163.875;    0.000
949.403; 1613.425;  157.875;    0.000
949.573; 1612.425;  158.875;    0.000
949.744; 1630.425;  213.875;    0.000
949.914; 1603.425;  177.875;    0.000
950.085; 1600.425;  195.875;    0.000
950.255; 1554.425;  166.875;    0.000
950.425; 1593.425;  196.875;    0.000
950.596; 1634.425;  176.875;    0.000
950.766; 1575.425;  228.875;    0.000
950.936; 1633.425;  185.875;    0.000
951.107; 1634.425;  178.875;    0.000
951.277; 1686.425;  227.875;    0.000
951.447; 1662.425;  219.875;    0.000
951.617; 1635.425;  219.875;    0.000
951.788; 1572.425;  198.875;    0.000
951.958; 1668.425;  202.875;    0.000
952.128; 1542.425;  197.875;    0.000
952.298; 1696.425;  211.875;    0.000
952.468; 1627.425;  233.875;    0.000
952.638; 1581.425;  222.875;    0.000
952.808; 1605.425;  210.875;    0.000
952.978; 1610.425;  216.875;    0.000
953.148; 1573.425;  203.875;    0.000
953.318; 1521.425;  212.875;    0.000
953.488; 1466.425;  156.875;    0.000
953.658; 1588.425;  226.875;    0.000
953.828; 1546.425;  223.875;    0.000
953.998; 1574.425;  209.875;    0.000
954.167; 1568.425;  203.875;    0.000
954.337; 1540.425;  209.875;    0.000
954.507; 1651.425;  252.875;    0.000
954.677; 1554.425;  207.875;    0.000
954.846; 1538.425;  240.875;    0.000
955.016; 1511.425;  197.875;    0.000
955.186; 1601.425;  208.875;    0.000
955.355; 1595.425;  243.875;    0.000
955.525; 1616.425;  211.875;    0.000
955.695; 1568.425;  187.875;    0.000
955.864; 1583.425;  204.875;    0.000
956.034; 1482.425;  199.875;    0.000
956.203; 1505.425;  257.875;    0.000
956.373; 1481.425;  193.875;    0.000
956.542; 1507.425;  187.875;    0.000
956.711; 1523.425;  259.875;    0.000
956.881; 1470.425;  227.875;    0.000
957.050; 1558.425;  260.875;    0.000
957.220; 1522.425;  246.875;    0.000
957.389; 1515.425;  211.875;    0.000
957.558; 1437.425;  197.875;    0.000
957.727; 1574.425;  227.875;    0.000
957.897; 1518.425;  219.875;    0.000
958.066; 1472.425;  180.875;    0.000
958.235; 1459.425;  179.875;    0.000
958.404; 1480.425;  194.875;    0.000
958.573; 1488.425;  235.875;    0.000
958.743; 1462.425;  191.875;    0.000
958.912; 1477.425;  181.875;    0.000
959.081; 1491.425;  193.875;    0.000
959.250; 1429.425;  180.875;    0.000
959.419; 1619.425;  205.875;    0.000
959.588; 1478.425;  241.875;    0.000
959.757; 1504.425;  202.875;    0.000
959.926; 1491.425;  212.875;    0.000
960.094; 1492.425;  199.875;    0.000
960.263; 1447.425;  226.875;    0.000
960.432; 1500.425;  188.875;    0.000
960.601; 1433.425;  200.875;    0.000
960.770; 1407.425;  197.875;    0.000
960.939; 1395.425;  195.875;    0.000
961.107; 1443.425;  198.875;    0.000
961.276; 1437.425;  151.875;    0.000
961.445; 1462.425;  227.875;    0.000
961.613; 1411.425;  186.875;    0.000
961.782; 1407.425;  187.875;    0.000
961.951; 1483.425;  194.875;    0.000
962.119; 1452.425;  227.875;    0.000
962.288; 1414.425;  181.875;    0.000
962.456; 1455.425;  206.875;    0.000
962.625; 1459.425;  181.875;    0.000
962.793; 1389.425;  216.875;    0.000
962.962; 1433.425;  237.875;    0.000
963.130; 1412.425;  194.875;    0.000
963.298; 1411.425;  190.875;    0.000
963.467; 1411.425;  204.875;    0.000
963.635; 1522.425;  159.875;    0.000
963.803; 1448.425;  208.875;    0.000
963.972; 1445.425;  206.875;    0.000
964.140; 1449.425;  178.875;    0.000
964.308; 1407.425;  185.875;    0.000
964.477; 1434.425;  189.875;    0.000
964.645; 1437.425;  201.875;    0.000
964.813; 1404.425;  200.875;    0.000
964.981; 1484.425;  160.875;    0.000
965.149; 1395.425;  230.875;    0.000
965.317; 1490.425;  214.875;    0.000
965.485; 1408.425;  190.875;    0.000
965.653; 1419.425;  239.875;    0.000
965.821; 1425.425;  211.875;    0.000
965.989; 1451.425;  216.875;    0.000
966.157; 1418.425;  198.875;    0.000
966.325; 1493.425;  200.875;    0.000
966.493; 1401.425;  187.875;    0.000
966.661; 1456.425;  181.875;    0.000
966.829; 1405.425;  181.875;    0.000
966.996; 1372.425;  220.875;    0.000
967.164; 1424.425;  179.875;    0.000
967.332; 1472.425;  203.875;    0.000
967.500; 1437.425;  200.875;    0.000
967.667; 1408.425;  196.875;    0.000
967.835; 1389.425;  199.875;    0.000
968.003; 1445.425;  191.875;    0.000
968.170; 1433.425;  141.875;    0.000
968.338; 1386.425;  185.875;    0.000
968.505; 1429.425;  199.875;    0.000
968.673; 1432.425;  191.875;    0.000
968.841; 1384.425;  165.875;    0.000
969.008; 1480.425;  192.875;    0.000
969.175; 1390.425;  172.875;    0.000
969.343; 1438.425;  191.875;    0.000
969.510; 1453.425;  199.875;    0.000
969.678; 1437.425;  156.875;    0.000
969.845; 1507.425;  191.875;    0.000
970.012; 1426.425;  205.875;    0.000
970.180; 1480.425;  201.875;    0.000
970.347; 1516.425;  229.875;    0.000
970.514; 1470.425;  207.875;    0.000
970.681; 1431.425;  169.875;    0.000
970.849; 1326.425;  196.875;    0.000
971.016; 1459.425;  212.875;    0.000
971.183; 1423.425;  178.875;    0.000
971.350; 1446.425;  193.875;    0.000
971.517; 1403.425;  190.875;    0.000
971.684; 1422.425;  261.875;    0.000
971.851; 1435.425;  203.875;    0.000
972.018; 1517.425;  184.875;    0.000
972.185; 1342.425;  226.875;    0.000
972.352; 1491.425;  180.875;    0.000
972.519; 1480.425;  226.875;    0.000
972.686; 1399.425;  233.875;    0.000
972.853; 1408.425;  173.875;    0.000
973.020; 1468.425;  208.875;    0.000
973.186; 1415.425;  173.875;    0.000
973.353; 1433.425;  218.875;    0.000
973.520; 1431.425;  218.875;    0.000
973.687; 1457.425;  176.875;    0.000
973.853; 1459.425;  203.875;    0.000
974.020; 1461.425;  196.875;    0.000
974.187; 1462.425;  188.875;    0.000
974.353; 1473.425;  230.875;    0.000
974.520; 1356.425;  195.875;    0.000
974.687; 1415.425;  209.875;    0.000
974.853; 1386.425;  189.875;    0.000
975.020; 1398.425;  179.875;    0.000
975.186; 1390.425;  204.875;    0.000
975.353; 1403.425;  201.875;    0.000
975.519; 1451.425;  200.875;    0.000
975.685; 1344.425;  176.875;    0.000
975.852; 1374.425;  197.875;    0.000
976.018; 1378.425;  201.875;    0.000
976.184; 1463.425;  176.875;    0.000
976.351; 1379.425;  221.875;    0.000
976.517; 1401.425;  203.875;    0.000
976.683; 1430.425;  236.875;    0.000
976.849; 1386.425;  190.875;    0.000
977.016; 1371.425;  173.875;    0.000
977.182; 1325.425;  200.875;    0.000
977.348; 1368.425;  179.875;    0.000
977.514; 1380.425;  159.875;    0.000
977.680; 1404.425;  200.875;    0.000
977.846; 1385.425;  206.875;    0.000
978.012; 1372.425;  219.875;    0.000
978.178; 1295.425;  229.875;    0.000
978.344; 1403.425;  195.875;    0.000
978.510; 1333.425;  209.875;    0.000
978.676; 1384.425;  190.875;    0.000
978.842; 1311.425;  195.875;    0.000
979.008; 1299.425;  186.875;    0.000
979.174; 1351.425;  185.875;    0.000
979.340; 1288.425;  198.875;    0.000
979.505; 1387.425;  214.875;    0.000
979.671; 1403.425;  159.875;    0.000
979.837; 1397.425;  202.875;    0.000
980.003; 1355.425;  190.875;    0.000
980.168; 1413.425;  216.875;    0.000
980.334; 1371.425;  194.875;    0.000
980.499; 1399.425;  229.875;    0.000
980.665; 1376.425;  240.875;    0.000
980.831; 1361.425;  202.875;    0.000
980.996; 1364.425;  179.875;    0.000
981.162; 1333.425;  212.875;    0.000
981.327; 1383.425;  202.875;    0.000
981.493; 1351.425;  219.875;    0.000
981.658; 1374.425;  218.875;    0.000
981.823; 1369.425;  207.875;    0.000
981.989; 1424.425;  207.875;    0.000
982.154; 1427.425;  224.875;    0.000
982.319; 1409.425;  217.875;    0.000
982.485; 1470.425;  266.875;    0.000
982.650; 1488.425;  245.875;    0.000
982.815; 1509.425;  229.875;    0.000
982.980; 1401.425;  203.875;    0.000
983.146; 1442.425;  242.875;    0.000
983.311; 1402.425;  144.875;    0.000
983.476; 1423.425;  222.875;    0.000
983.641; 1358.425;  206.875;    0.000
983.806; 1360.425;  217.875;    0.000
983.971; 1416.425;  254.875;    0.000
984.136; 1446.425;  217.875;    0.000
984.301; 1355.425;  202.875;    0.000
984.466; 1420.425;  206.875;    0.000
984.631; 1437.425;  224.875;    0.000
984.796; 1447.425;  218.875;    0.000
984.961; 1408.425;  202.875;    0.000
985.126; 1369.425;  238.875;    0.000
985.291; 1377.425;  220.875;    0.000
985.455; 1360.425;  223.875;    0.000
985.620; 1361.425;  218.875;    0.000
985.785; 1383.425;  228.875;    0.000
985.950; 1398.425;  212.875;    0.000
986.114; 1376.425;  215.875;    0.000
986.279; 1493.425;  243.875;    0.000
986.444; 1390.425;  222.875;    0.000
986.608; 1461.425;  243.875;    0.000
986.773; 1384.425;  213.875;    0.000
986.937; 1473.425;  267.875;    0.000
987.102; 1484.425;  235.875;    0.000
987.266; 1406.425;  210.875;    0.000
987.431; 1444.425;  239.875;    0.000
987.595; 1421.425;  230.875;    0.000
987.760; 1362.425;  229.875;    0.000
987.924; 1397.425;  217.875;    0.000
988.088; 1350.425;  210.875;    0.000
988.253; 1437.425;  215.875;    0.000
988.417; 1358.425;  186.875;    0.000
988.581; 1362.425;  214.875;    0.000
988.746; 1374.425;  212.875;    0.000
988.910; 1408.425;  192.875;    0.000
989.074; 1394.425;  195.875;    0.000
989.238; 1346.425;  226.875;    0.000
989.402; 1416.425;  214.875;    0.000
989.566; 1396.425;  201.875;    0.000
989.731; 1327.425;  199.875;    0.000
989.895; 1400.425;  205.875;    0.000
990.059; 1366.425;  204.875;    0.000
990.223; 1339.425;  182.875;    0.000
990.387; 1411.425;  220.875;    0.000
990.551; 1445.425;  199.875;    0.000
990.714; 1455.425;  202.875;    0.000
990.878; 1412.425;  201.875;    0.000
991.042; 1379.425;  202.875;    0.000
991.206; 1407.425;  215.875;    0.000
991.370; 1402.425;  217.875;    0.000
991.534; 1343.425;  152.875;    0.000
991.697; 1389.425;  194.875;    0.000
991.861; 1477.425;  208.875;    0.000
992.025; 1405.425;  209.875;    0.000
992.188; 1350.425;  182.875;    0.000
992.352; 1353.425;  181.875;    0.000
992.516; 1360.425;  192.875;    0.000
992.679; 1430.425;  183.875;    0.000
992.843; 1386.425;  156.875;    0.000
993.006; 1354.425;  192.875;    0.000
993.170; 1496.425;  172.875;    0.000
993.333; 1295.425;  195.875;    0.000
993.497; 1394.425;  185.875;    0.000
993.660; 1380.425;  155.875;    0.000
993.824; 1486.425;  199.875;    0.000
993.987; 1389.425;  211.875;    0.000
994.150; 1329.425;  173.875;    0.000
994.314; 1434.425;  202.875;    0.000
994.477; 1441.425;  171.875;    0.000
994.640; 1372.425;  191.875;    0.000
994.803; 1358.425;  203.875;    0.000
994.967; 1432.425;  198.875;    0.000
995.130; 1410.425;  192.875;    0.000
995.293; 1348.425;  211.875;    0.000
995.456; 1417.425;  207.875;    0.000
995.619; 1396.425;  207.875;    0.000
995.782; 1313.425;  186.875;    0.000
995.945; 1414.425;  203.875;    0.000
996.108; 1339.425;  195.875;    0.000
996.271; 1346.425;  195.875;    0.000
996.434; 1409.425;  179.875;    0.000
996.597; 1332.425;  170.875;    0.000
996.760; 1344.425;  161.875;    0.000
996.923; 1291.425;  177.875;    0.000
997.086; 1362.425;  199.875;    0.000
997.248; 1402.425;  225.875;    0.000
997.411; 1335.425;  194.875;    0.000
997.574; 1353.425;  204.875;    0.000
997.737; 1335.425;  236.875;    0.000
997.899; 1334.425;  191.875;    0.000
998.062; 1326.425;  178.875;    0.000
998.225; 1315.425;  176.875;    0.000
998.387; 1394.425;  203.875;    0.000
998.550; 1315.425;  155.875;    0.000
998.712; 1356.425;  169.875;    0.000
998.875; 1440.425;  234.875;    0.000
999.037; 1399.425;  211.875;    0.000
999.200; 1444.425;  185.875;    0.000
999.362; 1399.425;  199.875;    0.000
999.525; 1385.425;  234.875;    0.000
999.687; 1301.425;  194.875;    0.000
999.849; 1369.425;  223.875;    0.000
1000.012; 1305.425;  222.875;    0.000
1000.174; 1381.425;  187.875;    0.000
1000.336; 1316.425;  204.875;    0.000
1000.499; 1344.425;  240.875;    0.000
1000.661; 1412.425;  215.875;    0.000
1000.823; 1376.425;  206.875;    0.000
1000.985; 1334.425;  197.875;    0.000
1001.147; 1397.425;  221.875;    0.000
1001.309; 1403.425;  207.875;    0.000
1001.471; 1347.425;  227.875;    0.000
1001.633; 1365.425;  208.875;    0.000
1001.796; 1394.425;  158.875;    0.000
1001.958; 1446.425;  210.875;    0.000
1002.119; 1379.425;  223.875;    0.000
1002.281; 1541.425;  211.875;    0.000
1002.443; 1648.425;  227.875;    0.000
1002.605; 1622.425;  186.875;    0.000
1002.767; 1642.425;  242.875;    0.000
1002.929; 1737.425;  219.875;    0.000
1003.091; 1852.425;  191.875;    0.000
1003.252; 1959.425;  233.875;    0.000
1003.414; 2040.425;  214.875;    0.000
1003.576; 2098.425;  186.875;    0.000
1003.738; 2278.425;  175.875;    0.000
1003.899; 2243.425;  237.875;    0.000
1004.061; 2403.425;  220.875;    0.000
1004.222; 2539.425;  186.875;    0.000
1004.384; 2698.425;  216.875;    0.000
1004.546; 2732.425;  203.875;    0.000
1004.707; 2771.425;  216.875;    0.000
1004.869; 2853.425;  219.875;    0.000
1005.030; 2795.425;  188.875;    0.000
1005.191; 2806.425;  223.875;    0.000
1005.353; 2671.425;  227.875;    0.000
1005.514; 2567.425;  235.875;    0.000
1005.675; 2420.425;  201.875;    0.000
1005.837; 2413.425;  199.875;    0.000
1005.998; 2268.425;  219.875;    0.000
1006.159; 2159.425;  235.875;    0.000
1006.321; 2181.425;  199.875;    0.000
1006.482; 2231.425;  222.875;    0.000
1006.643; 2460.425;  195.875;    0.000
1006.804; 2475.425;  205.875;    0.000
1006.965; 2459.425;  199.875;    0.000
1007.126; 2596.425;  231.875;    0.000
1007.287; 2671.425;  208.875;    0.000
1007.448; 2633.425;  205.875;    0.000
1007.609; 2575.425;  256.875;    0.000
1007.770; 2359.425;  231.875;    0.000
1007.931; 2395.425;  223.875;    0.000
1008.092; 2465.425;  217.875;    0.000
1008.253; 2526.425;  236.875;    0.000
1008.414; 2517.425;  197.875;    0.000
1008.575; 2717.425;  233.875;    0.000
1008.736; 2571.425;  193.875;    0.000
1008.896; 2684.425;  238.875;    0.000
1009.057; 2598.425;  245.875;    0.000
1009.218; 2484.425;  240.875;    0.000
1009.379; 2496.425;  210.875;    0.000
1009.539; 2669.425;  234.875;    0.000
1009.700; 2709.425;  228.875;    0.000
1009.860; 2730.425;  238.875;    0.000
1010.021; 2549.425;  199.875;    0.000
1010.182; 2565.425;  214.875;    0.000
1010.342; 2652.425;  216.875;    0.000
1010.503; 2710.425;  207.875;    0.000
1010.663; 2678.425;  258.875;    0.000
1010.823; 2774.425;  243.875;    0.000
1010.984; 2916.425;  268.875;    0.000
1011.144; 2745.425;  217.875;    0.000
1011.305; 2866.425;  237.875;    0.000
1011.465; 2972.425;  216.875;    0.000
1011.625; 3108.425;  195.875;    0.000
1011.785; 3131.425;  201.875;    0.000
1011.946; 3032.425;  200.875;    0.000
1012.106; 3014.425;  206.875;    0.000
1012.266; 3043.425;  227.875;    0.000
1012.426; 3043.425;  221.875;    0.000
1012.586; 3061.425;  198.875;    0.000
1012.746; 2969.425;  215.875;    0.000
1012.906; 2922.425;  226.875;    0.000
1013.066; 3021.425;  221.875;    0.000
1013.226; 3031.425;  202.875;    0.000
1013.386; 3028.425;  210.875;    0.000
1013.546; 2930.425;  243.875;    0.000
1013.706; 2902.425;  200.875;    0.000
1013.866; 3024.425;  232.875;    0.000
1014.026; 3005.425;  206.875;    0.000
1014.186; 2977.425;  222.875;    0.000
1014.346; 2912.425;  233.875;    0.000
1014.505; 3120.425;  241.875;    0.000
1014.665; 3129.425;  225.875;    0.000
1014.825; 3142.425;  196.875;    0.000
1014.985; 3118.425;  234.875;    0.000
1015.144; 3359.425;  232.875;    0.000
1015.304; 3499.425;  214.875;    0.000
1015.464; 3446.425;  210.875;    0.000
1015.623; 3316.425;  219.875;    0.000
1015.783; 3646.425;  216.875;    0.000
1015.942; 4017.425;  267.875;    0.000
1016.102; 3913.425;  234.875;    0.000
1016.261; 3692.425;  230.875;    0.000
1016.420; 4175.425;  225.875;    0.000
1016.580; 4762.425;  205.875;    0.000
1016.739; 4476.425;  199.875;    0.000
1016.899; 4280.425;  218.875;    0.000
1017.058; 4617.425;  204.875;    0.000
1017.217; 5131.425;  196.875;    0.000
1017.376; 4702.425;  204.875;    0.000
1017.536; 4197.425;  195.875;    0.000
1017.695; 4241.425;  216.875;    0.000
1017.854; 4422.425;  235.875;    0.000
1018.013; 4159.425;  189.875;    0.000
1018.172; 3910.425;  217.875;    0.000
1018.331; 3888.425;  215.875;    0.000
1018.490; 4288.425;  233.875;    0.000
1018.649; 4496.425;  211.875;    0.000
1018.808; 4623.425;  196.875;    0.000
1018.967; 4418.425;  222.875;    0.000
1019.126; 4545.425;  221.875;    0.000
1019.285; 4687.425;  212.875;    0.000
1019.444; 4717.425;  231.875;    0.000
1019.603; 4515.425;  227.875;    0.000
1019.762; 4312.425;  192.875;    0.000
1019.921; 4336.425;  240.875;    0.000
1020.079; 4681.425;  209.875;    0.000
1020.238; 4962.425;  211.875;    0.000
1020.397; 4841.425;  253.875;    0.000
1020.555; 4501.425;  179.875;    0.000
1020.714; 4545.425;  225.875;    0.000
1020.873; 5016.425;  232.875;    0.000
1021.031; 4986.425;  245.875;    0.000
1021.190; 4708.425;  230.875;    0.000
1021.348; 4478.425;  221.875;    0.000
1021.507; 4916.425;  212.875;    0.000
1021.665; 5433.425;  211.875;    0.000
1021.824; 5056.425;  206.875;    0.000
1021.982; 4589.425;  218.875;    0.000
1022.141; 4504.425;  232.875;    0.000
1022.299; 5261.425;  193.875;    0.000
1022.457; 5532.425;  217.875;    0.000
1022.616; 5031.425;  248.875;    0.000
1022.774; 4506.425;  222.875;    0.000
1022.932; 4809.425;  211.875;    0.000
1023.090; 5620.425;  288.875;    0.000
1023.249; 5641.425;  214.875;    0.000
1023.407; 5231.425;  233.875;    0.000
1023.565; 4696.425;  208.875;    0.000
1023.723; 4908.425;  217.875;    0.000
1023.881; 5491.425;  235.875;    0.000
1024.039; 5574.425;  228.875;    0.000
1024.197; 5065.425;  216.875;    0.000
1024.355; 4851.425;  251.875;    0.000
1024.513; 5029.425;  232.875;    0.000
1024.671; 5647.425;  217.875;    0.000
1024.829; 5644.425;  255.875;    0.000
1024.987; 5360.425;  203.875;    0.000
1025.145; 4871.425;  239.875;    0.000
1025.302; 5096.425;  209.875;    0.000
1025.460; 5395.425;  224.875;    0.000
1025.618; 5755.425;  193.875;    0.000
1025.776; 5523.425;  209.875;    0.000
1025.933; 5035.425;  229.875;    0.000
1026.091; 5117.425;  218.875;    0.000
1026.249; 5489.425;  269.875;    0.000
1026.406; 5879.425;  264.875;    0.000
1026.564; 5657.425;  230.875;    0.000
1026.721; 5417.425;  198.875;    0.000
1026.879; 5224.425;  216.875;    0.000
1027.036; 5522.425;  226.875;    0.000
1027.194; 5739.425;  245.875;    0.000
1027.351; 5978.425;  236.875;    0.000
1027.509; 5684.425;  262.875;    0.000
1027.666; 5387.425;  227.875;    0.000
1027.823; 5562.425;  214.875;    0.000
1027.981; 5685.425;  258.875;    0.000
1028.138; 5908.425;  239.875;    0.000
1028.295; 5781.425;  226.875;    0.000
1028.452; 5563.425;  225.875;    0.000
1028.609; 5462.425;  276.875;    0.000
1028.767; 5850.425;  228.875;    0.000
1028.924; 5889.425;  213.875;    0.000
1029.081; 5886.425;  232.875;    0.000
1029.238; 5841.425;  250.875;    0.000
1029.395; 5582.425;  255.875;    0.000
1029.552; 5776.425;  217.875;    0.000
1029.709; 6100.425;  210.875;    0.000
1029.866; 6150.425;  243.875;    0.000
1030.023; 6034.425;  202.875;    0.000
1030.180; 5550.425;  233.875;    0.000
1030.337; 5777.425;  234.875;    0.000
1030.494; 6001.425;  222.875;    0.000
1030.650; 6292.425;  241.875;    0.000
1030.807; 6520.425;  206.875;    0.000
1030.964; 5900.425;  206.875;    0.000
1031.121; 5878.425;  228.875;    0.000
1031.277; 5746.425;  228.875;    0.000
1031.434; 6107.425;  234.875;    0.000
1031.591; 6665.425;  250.875;    0.000
1031.747; 6593.425;  246.875;    0.000
1031.904; 6384.425;  201.875;    0.000
1032.060; 6112.425;  237.875;    0.000
1032.217; 5893.425;  232.875;    0.000
1032.373; 6864.425;  210.875;    0.000
1032.530; 6926.425;  246.875;    0.000
1032.686; 7805.425;  196.875;    0.000
1032.843; 7433.425;  212.875;    0.000
1032.999; 6792.425;  243.875;    0.000
1033.155; 7359.425;  234.875;    0.000
1033.312; 7234.425;  246.875;    0.000
1033.468; 8568.425;  233.875;    0.000
1033.624; 9200.425;  237.875;    0.000
1033.780; 9381.425;  263.875;    0.000
1033.937; 9317.425;  214.875;    0.000
1034.093; 8632.425;  230.875;    0.000
1034.249; 8755.425;  206.875;    0.000
1034.405; 8899.425;  238.875;    0.000
1034.561; 9652.425;  231.875;    0.000
1034.717;10356.425;  228.875;    0.000
1034.873;10005.425;  262.875;    0.000
1035.029;10241.425;  252.875;    0.000
1035.185; 9753.425;  232.875;    0.000
1035.341; 9029.425;  245.875;    0.000
1035.497;10231.425;  253.875;    0.000
1035.653;10162.425;  252.875;    0.000
1035.809;11614.425;  245.875;    0.000
1035.964;12356.425;  229.875;    0.000
1036.120;11354.425;  226.875;    0.000
1036.276;10947.425;  236.875;    0.000
1036.432;10952.425;  203.875;    0.000
1036.587;10012.425;  228.875;    0.000
1036.743;11373.425;  240.875;    0.000
1036.899;12006.425;  220.875;    0.000
1037.054;12341.425;  153.875;    0.000
1037.210;13257.425;  219.875;    0.000
1037.365;13879.425;  229.875;    0.000
1037.521;12130.425;  257.875;    0.000
1037.676;12416.425;  211.875;    0.000
1037.832;11240.425;  234.875;    0.000
1037.987;11190.425;  235.875;    0.000
1038.143;11993.425;  176.875;    0.000
1038.298;14160.425;  262.875;    0.000
1038.453;13899.425;  209.875;    0.000
1038.609;14735.425;  230.875;    0.000
1038.764;15490.425;  253.875;    0.000
1038.919;13480.425;  195.875;    0.000
1039.074;13585.425;  234.875;    0.000
1039.229;12417.425;  234.875;    0.000
1039.385;12245.425;  266.875;    0.000
1039.540;12662.425;  252.875;    0.000
1039.695;14479.425;  231.875;    0.000
1039.850;15890.425;  208.875;    0.000
1040.005;16964.426;  232.875;    0.000
1040.160;17584.426;  214.875;    0.000
1040.315;16892.426;  221.875;    0.000
1040.470;16011.425;  207.875;    0.000
1040.625;15206.425;  249.875;    0.000
1040.780;15295.425;  251.875;    0.000
1040.935;14937.425;  254.875;    0.000
1041.089;15395.425;  210.875;    0.000
1041.244;17657.426;  225.875;    0.000
1041.399;18854.426;  208.875;    0.000
1041.554;19667.426;  249.875;    0.000
1041.708;21678.426;  254.875;    0.000
1041.863;21159.426;  248.875;    0.000
1042.018;19544.426;  280.875;    0.000
1042.172;19168.426;  233.875;    0.000
1042.327;18217.426;  256.875;    0.000
1042.481;17956.426;  210.875;    0.000
1042.636;18785.426;  229.875;    0.000
1042.791;18699.426;  215.875;    0.000
1042.945;21617.426;  256.875;    0.000
1043.099;24452.426;  251.875;    0.000
1043.254;24373.426;  204.875;    0.000
1043.408;24500.426;  278.875;    0.000
1043.563;26405.426;  211.875;    0.000
1043.717;25628.426;  259.875;    0.000
1043.871;22777.426;  233.875;    0.000
1044.025;22956.426;  221.875;    0.000
1044.180;21901.426;  208.875;    0.000
1044.334;22272.426;  255.875;    0.000
1044.488;23619.426;  269.875;    0.000
1044.642;24212.426;  228.875;    0.000
1044.796;26941.426;  232.875;    0.000
1044.950;30610.426;  249.875;    0.000
1045.104;33709.426;  205.875;    0.000
1045.258;34535.426;  206.875;    0.000
1045.412;32649.426;  251.875;    0.000
1045.566;31636.426;  249.875;    0.000
1045.720;30180.426;  206.875;    0.000
1045.874;27742.426;  232.875;    0.000
1046.028;26087.426;  266.875;    0.000
1046.182;25548.426;  217.875;    0.000
1046.336;27199.426;  216.875;    0.000
1046.489;28295.426;  236.875;    0.000
1046.643;28832.426;  253.875;    0.000
1046.797;32439.426;  244.875;    0.000
1046.951;33291.426;  234.875;    0.000
1047.104;34267.426;  281.875;    0.000
1047.258;37007.426;  253.875;    0.000
1047.411;38979.426;  228.875;    0.000
1047.565;38083.426;  273.875;    0.000
1047.719;36879.426;  232.875;    0.000
1047.872;34841.426;  230.875;    0.000
1048.026;33015.426;  282.875;    0.000
1048.179;32607.426;  225.875;    0.000
1048.332;32759.426;  234.875;    0.000
1048.486;32195.426;  223.875;    0.000
1048.639;32724.426;  248.875;    0.000
1048.792;33593.426;  244.875;    0.000
1048.946;36423.426;  210.875;    0.000
1049.099;37793.426;  242.875;    0.000
1049.252;38321.426;  269.875;    0.000
1049.406;36489.426;  285.875;    0.000
1049.559;39414.426;  277.875;    0.000
1049.712;44019.426;  254.875;    0.000
1049.865;46758.426;  252.875;    0.000
1050.018;44502.426;  270.875;    0.000
1050.171;40130.426;  230.875;    0.000
1050.324;39222.426;  268.875;    0.000
1050.477;42053.426;  262.875;    0.000
1050.630;44682.426;  243.875;    0.000
1050.783;46314.426;  216.875;    0.000
1050.936;42094.426;  250.875;    0.000
1051.089;39778.426;  247.875;    0.000
1051.242;41360.426;  300.875;    0.000
1051.394;45198.426;  233.875;    0.000
1051.547;47450.426;  263.875;    0.000
1051.700;45124.426;  238.875;    0.000
1051.853;42290.426;  299.875;    0.000
1052.005;44529.426;  275.875;    0.000
1052.158;50948.426;  304.875;    0.000
1052.311;56722.426;  251.875;    0.000
1052.463;53091.426;  276.875;    0.000
1052.616;47134.426;  271.875;    0.000
1052.768;43160.426;  285.875;    0.000
1052.921;42621.426;  261.875;    0.000
1053.073;44412.426;  333.875;    0.000
1053.226;51425.426;  271.875;    0.000
1053.378;58666.426;  309.875;    0.000
1053.531;61955.426;  266.875;    0.000
1053.683;58562.426;  278.875;    0.000
1053.835;51113.426;  274.875;    0.000
1053.988;38886.426;  287.875;    0.000
1054.140; 6810.425;  350.875;    0.000
1054.292; 1701.425;  338.875;    0.000
1054.444; 1354.425;  270.875;    0.000
1054.596; 1180.425;  294.875;    0.000
1054.749; 1050.425;  285.875;    0.000
1054.901;  982.425;  254.875;    0.000
1055.053;  946.425;  320.875;    0.000
1055.205;  922.425;  284.875;    0.000
1055.357;  869.425;  298.875;    0.000
1055.509;  802.425;  304.875;    0.000
1055.661;  862.425;  350.875;    0.000
1055.813;  768.425;  289.875;    0.000
1055.965;  768.425;  277.875;    0.000
1056.116;  748.425;  288.875;    0.000
1056.268;  772.425;  311.875;    0.000
1056.420;  812.425;  308.875;    0.000

