
Integration time [ms]:   0.300
Averaging Nr. [scans]: 1
Smoothing Nr. [pixels]: 0
Data measured with spectrometer [name]: VIS
Wave   ;Sample   ;Dark     ;Reference
[nm]   ;[counts] ;[counts] ;[counts] 

450.961;  187.925;  204.350;    0.000
451.100;  197.925;  243.350;    0.000
451.239;  222.925;  228.350;    0.000
451.377;  231.925;  250.350;    0.000
451.516;  214.925;  189.350;    0.000
451.655;  214.925;  235.350;    0.000
451.794;  229.925;  223.350;    0.000
451.932;  251.925;  269.350;    0.000
452.071;  230.925;  250.350;    0.000
452.210;  231.925;  262.350;    0.000
452.348;  213.925;  259.350;    0.000
452.487;  207.925;  231.350;    0.000
452.626;  204.925;  220.350;    0.000
452.764;  227.925;  252.350;    0.000
452.903;  234.925;  236.350;    0.000
453.042;  257.925;  217.350;    0.000
453.180; 2186.925;  273.350;    0.000
453.319; 2286.925;  261.350;    0.000
453.458; 2218.925;  219.350;    0.000
453.596; 2315.925;  307.350;    0.000
453.735; 2423.925;  246.350;    0.000
453.873; 2357.925;  270.350;    0.000
454.012; 2347.925;  232.350;    0.000
454.150; 2395.925;  211.350;    0.000
454.289; 2390.925;  245.350;    0.000
454.427; 2432.925;  224.350;    0.000
454.566; 2475.925;  252.350;    0.000
454.704; 2476.925;  225.350;    0.000
454.843; 2458.925;  195.350;    0.000
454.981; 2593.925;  258.350;    0.000
455.120; 2416.925;  191.350;    0.000
455.258; 2626.925;  243.350;    0.000
455.397; 2566.925;  188.350;    0.000
455.535; 2681.925;  219.350;    0.000
455.674; 2591.925;  184.350;    0.000
455.812; 2630.925;  225.350;    0.000
455.951; 2617.925;  201.350;    0.000
456.089; 2713.925;  187.350;    0.000
456.227; 2689.925;  199.350;    0.000
456.366; 2800.925;  235.350;    0.000
456.504; 2787.925;  216.350;    0.000
456.642; 2797.925;  256.350;    0.000
456.781; 2813.925;  201.350;    0.000
456.919; 2791.925;  231.350;    0.000
457.057; 2864.925;  181.350;    0.000
457.196; 2876.925;  231.350;    0.000
457.334; 2975.925;  229.350;    0.000
457.472; 3003.925;  242.350;    0.000
457.610; 3072.925;  221.350;    0.000
457.749; 2958.925;  218.350;    0.000
457.887; 3118.925;  213.350;    0.000
458.025; 3110.925;  228.350;    0.000
458.163; 3192.925;  204.350;    0.000
458.301; 3256.925;  230.350;    0.000
458.440; 3159.925;  200.350;    0.000
458.578; 3381.925;  222.350;    0.000
458.716; 3201.925;  137.350;    0.000
458.854; 3344.925;  259.350;    0.000
458.992; 3408.925;  172.350;    0.000
459.130; 3462.925;  253.350;    0.000
459.269; 3335.925;  212.350;    0.000
459.407; 3477.925;  212.350;    0.000
459.545; 3506.925;  225.350;    0.000
459.683; 3552.925;  225.350;    0.000
459.821; 3573.925;  192.350;    0.000
459.959; 3508.925;  205.350;    0.000
460.097; 3661.925;  199.350;    0.000
460.235; 3589.925;  232.350;    0.000
460.373; 3688.925;  248.350;    0.000
460.511; 3651.925;  225.350;    0.000
460.649; 3732.925;  204.350;    0.000
460.787; 3737.925;  221.350;    0.000
460.925; 3681.925;  181.350;    0.000
461.063; 3830.925;  243.350;    0.000
461.201; 3702.925;  212.350;    0.000
461.339; 3810.925;  229.350;    0.000
461.477; 3769.925;  162.350;    0.000
461.615; 3857.925;  232.350;    0.000
461.753; 3885.925;  193.350;    0.000
461.891; 3987.925;  217.350;    0.000
462.029; 4005.925;  224.350;    0.000
462.166; 3995.925;  222.350;    0.000
462.304; 4063.925;  185.350;    0.000
462.442; 4109.925;  246.350;    0.000
462.580; 4152.925;  246.350;    0.000
462.718; 4087.925;  235.350;    0.000
462.856; 4132.925;  230.350;    0.000
462.993; 4130.925;  266.350;    0.000
463.131; 4041.925;  208.350;    0.000
463.269; 4008.925;  218.350;    0.000
463.407; 4108.925;  215.350;    0.000
463.545; 3958.925;  200.350;    0.000
463.682; 4049.925;  206.350;    0.000
463.820; 4237.925;  211.350;    0.000
463.958; 4334.925;  206.350;    0.000
464.095; 4338.925;  193.350;    0.000
464.233; 4447.925;  203.350;    0.000
464.371; 4503.925;  258.350;    0.000
464.509; 4455.925;  219.350;    0.000
464.646; 4367.925;  210.350;    0.000
464.784; 4371.925;  206.350;    0.000
464.921; 4446.925;  233.350;    0.000
465.059; 4360.925;  186.350;    0.000
465.197; 4306.925;  213.350;    0.000
465.334; 4220.925;  202.350;    0.000
465.472; 4108.925;  236.350;    0.000
465.609; 4115.925;  206.350;    0.000
465.747; 4188.925;  208.350;    0.000
465.885; 4053.925;  198.350;    0.000
466.022; 4058.925;  210.350;    0.000
466.160; 4150.925;  245.350;    0.000
466.297; 4128.925;  226.350;    0.000
466.435; 4050.925;  235.350;    0.000
466.572; 4023.925;  226.350;    0.000
466.710; 4121.925;  266.350;    0.000
466.847; 4033.925;  258.350;    0.000
466.985; 3948.925;  228.350;    0.000
467.122; 3999.925;  201.350;    0.000
467.260; 3998.925;  170.350;    0.000
467.397; 3957.925;  174.350;    0.000
467.534; 4037.925;  244.350;    0.000
467.672; 4092.925;  247.350;    0.000
467.809; 4108.925;  182.350;    0.000
467.947; 4017.925;  208.350;    0.000
468.084; 3995.925;  206.350;    0.000
468.221; 3965.925;  249.350;    0.000
468.359; 4054.925;  253.350;    0.000
468.496; 4076.925;  208.350;    0.000
468.633; 3901.925;  189.350;    0.000
468.771; 3996.925;  216.350;    0.000
468.908; 3965.925;  240.350;    0.000
469.045; 3937.925;  234.350;    0.000
469.183; 4138.925;  203.350;    0.000
469.320; 4057.925;  230.350;    0.000
469.457; 4168.925;  219.350;    0.000
469.594; 4273.925;  233.350;    0.000
469.732; 4153.925;  230.350;    0.000
469.869; 4199.925;  239.350;    0.000
470.006; 4279.925;  224.350;    0.000
470.143; 4234.925;  241.350;    0.000
470.280; 4203.925;  234.350;    0.000
470.417; 4281.925;  236.350;    0.000
470.555; 4222.925;  207.350;    0.000
470.692; 4254.925;  251.350;    0.000
470.829; 4293.925;  238.350;    0.000
470.966; 4192.925;  242.350;    0.000
471.103; 4151.925;  215.350;    0.000
471.240; 4305.925;  237.350;    0.000
471.377; 4239.925;  235.350;    0.000
471.514; 4359.925;  256.350;    0.000
471.651; 4220.925;  198.350;    0.000
471.789; 4286.925;  215.350;    0.000
471.926; 4293.925;  210.350;    0.000
472.063; 4160.925;  237.350;    0.000
472.200; 4110.925;  265.350;    0.000
472.337; 4076.925;  240.350;    0.000
472.474; 4157.925;  195.350;    0.000
472.611; 4135.925;  228.350;    0.000
472.748; 4124.925;  234.350;    0.000
472.884; 4203.925;  230.350;    0.000
473.021; 4078.925;  219.350;    0.000
473.158; 4203.925;  253.350;    0.000
473.295; 4060.925;  207.350;    0.000
473.432; 4126.925;  238.350;    0.000
473.569; 4160.925;  236.350;    0.000
473.706; 4057.925;  203.350;    0.000
473.843; 4128.925;  232.350;    0.000
473.980; 4006.925;  207.350;    0.000
474.117; 4161.925;  182.350;    0.000
474.253; 4092.925;  261.350;    0.000
474.390; 4047.925;  211.350;    0.000
474.527; 4100.925;  229.350;    0.000
474.664; 4173.925;  181.350;    0.000
474.801; 4253.925;  250.350;    0.000
474.937; 4194.925;  196.350;    0.000
475.074; 4124.925;  213.350;    0.000
475.211; 4304.925;  232.350;    0.000
475.348; 4197.925;  228.350;    0.000
475.484; 4261.925;  240.350;    0.000
475.621; 4137.925;  235.350;    0.000
475.758; 4244.925;  232.350;    0.000
475.894; 4190.925;  227.350;    0.000
476.031; 4201.925;  233.350;    0.000
476.168; 4231.925;  205.350;    0.000
476.304; 4231.925;  263.350;    0.000
476.441; 4268.925;  255.350;    0.000
476.578; 4291.925;  191.350;    0.000
476.714; 4377.925;  218.350;    0.000
476.851; 4242.925;  224.350;    0.000
476.987; 4314.925;  225.350;    0.000
477.124; 4368.925;  231.350;    0.000
477.261; 4320.925;  291.350;    0.000
477.397; 4373.925;  218.350;    0.000
477.534; 4405.925;  209.350;    0.000
477.670; 4317.925;  210.350;    0.000
477.807; 4458.925;  199.350;    0.000
477.943; 4494.925;  219.350;    0.000
478.080; 4413.925;  234.350;    0.000
478.216; 4373.925;  196.350;    0.000
478.353; 4419.925;  234.350;    0.000
478.489; 4517.925;  219.350;    0.000
478.626; 4485.925;  209.350;    0.000
478.762; 4481.925;  206.350;    0.000
478.898; 4615.925;  209.350;    0.000
479.035; 4704.925;  232.350;    0.000
479.171; 4487.925;  219.350;    0.000
479.308; 4601.925;  226.350;    0.000
479.444; 4529.925;  184.350;    0.000
479.580; 4532.925;  192.350;    0.000
479.717; 4554.925;  247.350;    0.000
479.853; 4630.925;  181.350;    0.000
479.989; 4745.925;  212.350;    0.000
480.126; 4573.925;  187.350;    0.000
480.262; 4722.925;  217.350;    0.000
480.398; 4683.925;  249.350;    0.000
480.535; 4581.925;  196.350;    0.000
480.671; 4585.925;  199.350;    0.000
480.807; 4627.925;  231.350;    0.000
480.943; 4527.925;  192.350;    0.000
481.080; 4664.925;  206.350;    0.000
481.216; 4555.925;  189.350;    0.000
481.352; 4541.925;  215.350;    0.000
481.488; 4688.925;  223.350;    0.000
481.624; 4592.925;  235.350;    0.000
481.760; 4678.925;  218.350;    0.000
481.897; 4606.925;  204.350;    0.000
482.033; 4605.925;  243.350;    0.000
482.169; 4626.925;  239.350;    0.000
482.305; 4494.925;  221.350;    0.000
482.441; 4593.925;  162.350;    0.000
482.577; 4551.925;  241.350;    0.000
482.713; 4591.925;  223.350;    0.000
482.849; 4507.925;  195.350;    0.000
482.985; 4541.925;  230.350;    0.000
483.121; 4563.925;  230.350;    0.000
483.258; 4644.925;  254.350;    0.000
483.394; 4538.925;  199.350;    0.000
483.530; 4628.925;  209.350;    0.000
483.665; 4651.925;  196.350;    0.000
483.801; 4516.925;  208.350;    0.000
483.937; 4562.925;  202.350;    0.000
484.073; 4581.925;  247.350;    0.000
484.209; 4596.925;  188.350;    0.000
484.345; 4566.925;  241.350;    0.000
484.481; 4620.925;  247.350;    0.000
484.617; 4631.925;  248.350;    0.000
484.753; 4551.925;  255.350;    0.000
484.889; 4678.925;  253.350;    0.000
485.025; 4661.925;  226.350;    0.000
485.161; 4652.925;  207.350;    0.000
485.296; 4704.925;  247.350;    0.000
485.432; 4592.925;  255.350;    0.000
485.568; 4645.925;  216.350;    0.000
485.704; 4661.925;  232.350;    0.000
485.840; 4702.925;  231.350;    0.000
485.975; 4674.925;  233.350;    0.000
486.111; 4756.925;  207.350;    0.000
486.247; 4783.925;  211.350;    0.000
486.383; 4695.925;  219.350;    0.000
486.518; 4707.925;  213.350;    0.000
486.654; 4667.925;  216.350;    0.000
486.790; 4702.925;  253.350;    0.000
486.926; 4682.925;  229.350;    0.000
487.061; 4746.925;  241.350;    0.000
487.197; 4580.925;  218.350;    0.000
487.333; 4648.925;  221.350;    0.000
487.468; 4685.925;  206.350;    0.000
487.604; 4731.925;  254.350;    0.000
487.740; 4737.925;  240.350;    0.000
487.875; 4698.925;  260.350;    0.000
488.011; 4802.925;  232.350;    0.000
488.146; 4723.925;  206.350;    0.000
488.282; 4754.925;  236.350;    0.000
488.417; 4697.925;  255.350;    0.000
488.553; 4741.925;  221.350;    0.000
488.688; 4809.925;  233.350;    0.000
488.824; 4706.925;  246.350;    0.000
488.960; 4843.925;  267.350;    0.000
489.095; 4629.925;  217.350;    0.000
489.230; 4741.925;  226.350;    0.000
489.366; 4737.925;  232.350;    0.000
489.501; 4807.925;  220.350;    0.000
489.637; 4784.925;  245.350;    0.000
489.772; 4801.925;  228.350;    0.000
489.908; 4725.925;  250.350;    0.000
490.043; 4857.925;  239.350;    0.000
490.178; 4834.925;  213.350;    0.000
490.314; 4850.925;  270.350;    0.000
490.449; 4799.925;  245.350;    0.000
490.585; 4863.925;  218.350;    0.000
490.720; 4713.925;  243.350;    0.000
490.855; 4795.925;  196.350;    0.000
490.991; 4797.925;  208.350;    0.000
491.126; 4858.925;  268.350;    0.000
491.261; 4852.925;  226.350;    0.000
491.396; 4783.925;  201.350;    0.000
491.532; 4910.925;  213.350;    0.000
491.667; 4963.925;  183.350;    0.000
491.802; 4895.925;  239.350;    0.000
491.937; 4838.925;  228.350;    0.000
492.073; 4904.925;  258.350;    0.000
492.208; 4971.925;  218.350;    0.000
492.343; 4934.925;  205.350;    0.000
492.478; 4922.925;  247.350;    0.000
492.613; 4997.925;  217.350;    0.000
492.749; 4976.925;  258.350;    0.000
492.884; 4846.925;  208.350;    0.000
493.019; 4877.925;  248.350;    0.000
493.154; 4975.925;  231.350;    0.000
493.289; 4927.925;  226.350;    0.000
493.424; 4954.925;  216.350;    0.000
493.559; 4981.925;  205.350;    0.000
493.694; 4899.925;  203.350;    0.000
493.829; 4952.925;  231.350;    0.000
493.964; 4842.925;  200.350;    0.000
494.099; 4875.925;  253.350;    0.000
494.234; 4907.925;  244.350;    0.000
494.369; 4962.925;  239.350;    0.000
494.504; 4896.925;  223.350;    0.000
494.639; 4923.925;  263.350;    0.000
494.774; 4804.925;  240.350;    0.000
494.909; 4952.925;  231.350;    0.000
495.044; 4803.925;  195.350;    0.000
495.179; 4944.925;  231.350;    0.000
495.314; 4756.925;  231.350;    0.000
495.449; 4870.925;  239.350;    0.000
495.584; 4958.925;  201.350;    0.000
495.719; 5022.925;  201.350;    0.000
495.854; 4952.925;  201.350;    0.000
495.988; 5028.925;  239.350;    0.000
496.123; 4855.925;  199.350;    0.000
496.258; 5017.925;  256.350;    0.000
496.393; 5023.925;  214.350;    0.000
496.528; 5046.925;  220.350;    0.000
496.663; 5148.925;  207.350;    0.000
496.797; 5102.925;  241.350;    0.000
496.932; 5171.925;  215.350;    0.000
497.067; 5228.925;  240.350;    0.000
497.202; 5339.925;  177.350;    0.000
497.336; 5264.925;  221.350;    0.000
497.471; 5367.925;  228.350;    0.000
497.606; 5440.925;  213.350;    0.000
497.740; 5362.925;  217.350;    0.000
497.875; 5616.925;  182.350;    0.000
498.010; 5692.925;  230.350;    0.000
498.144; 5844.925;  217.350;    0.000
498.279; 5868.925;  194.350;    0.000
498.414; 5897.925;  270.350;    0.000
498.548; 6018.925;  184.350;    0.000
498.683; 5934.925;  188.350;    0.000
498.817; 6022.925;  216.350;    0.000
498.952; 6190.925;  208.350;    0.000
499.087; 6421.925;  236.350;    0.000
499.221; 6497.925;  219.350;    0.000
499.356; 6387.925;  263.350;    0.000
499.490; 6437.925;  221.350;    0.000
499.625; 6669.925;  233.350;    0.000
499.759; 6733.925;  245.350;    0.000
499.894; 6997.925;  241.350;    0.000
500.028; 7060.925;  237.350;    0.000
500.162; 7209.925;  282.350;    0.000
500.297; 7203.925;  232.350;    0.000
500.431; 7211.925;  266.350;    0.000
500.566; 7199.925;  254.350;    0.000
500.700; 7270.925;  238.350;    0.000
500.835; 7059.925;  264.350;    0.000
500.969; 6852.925;  165.350;    0.000
501.103; 6890.925;  190.350;    0.000
501.238; 6764.925;  274.350;    0.000
501.372; 6613.925;  270.350;    0.000
501.506; 6526.925;  231.350;    0.000
501.641; 6330.925;  224.350;    0.000
501.775; 6107.925;  224.350;    0.000
501.909; 5960.925;  218.350;    0.000
502.043; 5863.925;  238.350;    0.000
502.178; 5823.925;  289.350;    0.000
502.312; 5709.925;  225.350;    0.000
502.446; 5708.925;  295.350;    0.000
502.580; 5564.925;  200.350;    0.000
502.715; 5518.925;  256.350;    0.000
502.849; 5388.925;  226.350;    0.000
502.983; 5325.925;  250.350;    0.000
503.117; 5300.925;  229.350;    0.000
503.251; 5390.925;  267.350;    0.000
503.385; 5103.925;  237.350;    0.000
503.520; 5110.925;  210.350;    0.000
503.654; 5129.925;  204.350;    0.000
503.788; 4988.925;  236.350;    0.000
503.922; 5067.925;  225.350;    0.000
504.056; 4940.925;  222.350;    0.000
504.190; 4963.925;  220.350;    0.000
504.324; 4873.925;  257.350;    0.000
504.458; 4784.925;  223.350;    0.000
504.592; 4894.925;  252.350;    0.000
504.726; 4770.925;  216.350;    0.000
504.860; 4830.925;  231.350;    0.000
504.994; 4709.925;  228.350;    0.000
505.128; 4676.925;  239.350;    0.000
505.262; 4441.925;  245.350;    0.000
505.396; 4387.925;  231.350;    0.000
505.530; 4499.925;  211.350;    0.000
505.664; 4311.925;  223.350;    0.000
505.798; 4448.925;  239.350;    0.000
505.932; 4325.925;  232.350;    0.000
506.066; 4322.925;  263.350;    0.000
506.199; 4342.925;  231.350;    0.000
506.333; 4226.925;  213.350;    0.000
506.467; 4198.925;  241.350;    0.000
506.601; 4187.925;  233.350;    0.000
506.735; 4139.925;  235.350;    0.000
506.869; 4121.925;  269.350;    0.000
507.002; 4137.925;  244.350;    0.000
507.136; 4067.925;  258.350;    0.000
507.270; 4014.925;  218.350;    0.000
507.404; 4008.925;  191.350;    0.000
507.537; 4053.925;  226.350;    0.000
507.671; 4039.925;  243.350;    0.000
507.805; 4042.925;  234.350;    0.000
507.939; 3979.925;  234.350;    0.000
508.072; 3934.925;  261.350;    0.000
508.206; 3931.925;  220.350;    0.000
508.340; 3954.925;  241.350;    0.000
508.473; 3939.925;  214.350;    0.000
508.607; 3978.925;  232.350;    0.000
508.740; 3847.925;  222.350;    0.000
508.874; 4006.925;  225.350;    0.000
509.008; 3869.925;  258.350;    0.000
509.141; 3898.925;  210.350;    0.000
509.275; 3711.925;  199.350;    0.000
509.408; 3868.925;  260.350;    0.000
509.542; 3809.925;  252.350;    0.000
509.675; 3761.925;  276.350;    0.000
509.809; 3895.925;  266.350;    0.000
509.942; 3846.925;  227.350;    0.000
510.076; 3872.925;  243.350;    0.000
510.209; 3731.925;  221.350;    0.000
510.343; 3893.925;  229.350;    0.000
510.476; 3742.925;  246.350;    0.000
510.610; 3705.925;  211.350;    0.000
510.743; 3734.925;  279.350;    0.000
510.877; 3746.925;  274.350;    0.000
511.010; 3733.925;  252.350;    0.000
511.143; 3741.925;  228.350;    0.000
511.277; 3741.925;  261.350;    0.000
511.410; 3621.925;  217.350;    0.000
511.543; 3705.925;  230.350;    0.000
511.677; 3585.925;  245.350;    0.000
511.810; 3621.925;  237.350;    0.000
511.943; 3679.925;  224.350;    0.000
512.077; 3669.925;  194.350;    0.000
512.210; 3685.925;  212.350;    0.000
512.343; 3649.925;  236.350;    0.000
512.476; 3703.925;  248.350;    0.000
512.610; 3562.925;  249.350;    0.000
512.743; 3591.925;  224.350;    0.000
512.876; 3731.925;  277.350;    0.000
513.009; 3573.925;  261.350;    0.000
513.142; 3696.925;  213.350;    0.000
513.276; 3635.925;  192.350;    0.000
513.409; 3570.925;  267.350;    0.000
513.542; 3658.925;  224.350;    0.000
513.675; 3651.925;  244.350;    0.000
513.808; 3672.925;  218.350;    0.000
513.941; 3656.925;  237.350;    0.000
514.074; 3603.925;  257.350;    0.000
514.207; 3655.925;  245.350;    0.000
514.340; 3532.925;  195.350;    0.000
514.474; 3644.925;  244.350;    0.000
514.607; 3680.925;  230.350;    0.000
514.740; 3764.925;  246.350;    0.000
514.873; 3698.925;  268.350;    0.000
515.006; 3800.925;  253.350;    0.000
515.139; 3804.925;  235.350;    0.000
515.272; 3786.925;  214.350;    0.000
515.404; 3798.925;  228.350;    0.000
515.537; 3835.925;  263.350;    0.000
515.670; 3802.925;  270.350;    0.000
515.803; 3936.925;  243.350;    0.000
515.936; 3787.925;  226.350;    0.000
516.069; 3815.925;  227.350;    0.000
516.202; 3852.925;  259.350;    0.000
516.335; 3875.925;  260.350;    0.000
516.468; 3962.925;  243.350;    0.000
516.600; 4460.925;  258.350;    0.000
516.733; 5190.925;  235.350;    0.000
516.866; 5282.925;  267.350;    0.000
516.999; 5044.925;  251.350;    0.000
517.132; 5611.925;  261.350;    0.000
517.264; 7288.925;  260.350;    0.000
517.397; 7371.925;  231.350;    0.000
517.530; 6091.925;  257.350;    0.000
517.663; 5332.925;  263.350;    0.000
517.795; 5014.925;  250.350;    0.000
517.928; 4792.925;  257.350;    0.000
518.061; 4780.925;  227.350;    0.000
518.193; 5788.925;  252.350;    0.000
518.326; 8470.925;  227.350;    0.000
518.459; 9123.925;  210.350;    0.000
518.591; 7476.925;  214.350;    0.000
518.724; 5966.925;  269.350;    0.000
518.857; 5156.925;  215.350;    0.000
518.989; 4873.925;  259.350;    0.000
519.122; 4620.925;  238.350;    0.000
519.254; 4408.925;  248.350;    0.000
519.387; 4241.925;  246.350;    0.000
519.519; 4256.925;  239.350;    0.000
519.652; 3997.925;  249.350;    0.000
519.784; 3976.925;  238.350;    0.000
519.917; 3860.925;  231.350;    0.000
520.049; 3825.925;  244.350;    0.000
520.182; 3826.925;  205.350;    0.000
520.314; 3867.925;  262.350;    0.000
520.447; 3744.925;  234.350;    0.000
520.579; 3720.925;  273.350;    0.000
520.712; 3657.925;  215.350;    0.000
520.844; 3635.925;  258.350;    0.000
520.976; 3588.925;  242.350;    0.000
521.109; 3662.925;  232.350;    0.000
521.241; 3486.925;  236.350;    0.000
521.373; 3511.925;  227.350;    0.000
521.506; 3556.925;  212.350;    0.000
521.638; 3512.925;  292.350;    0.000
521.770; 3463.925;  259.350;    0.000
521.903; 3409.925;  263.350;    0.000
522.035; 3394.925;  269.350;    0.000
522.167; 3488.925;  289.350;    0.000
522.300; 3312.925;  255.350;    0.000
522.432; 3332.925;  247.350;    0.000
522.564; 3301.925;  239.350;    0.000
522.696; 3329.925;  246.350;    0.000
522.828; 3300.925;  230.350;    0.000
522.961; 3312.925;  239.350;    0.000
523.093; 3162.925;  269.350;    0.000
523.225; 3359.925;  251.350;    0.000
523.357; 3301.925;  244.350;    0.000
523.489; 3234.925;  266.350;    0.000
523.621; 3242.925;  267.350;    0.000
523.753; 3135.925;  234.350;    0.000
523.885; 3108.925;  229.350;    0.000
524.018; 3247.925;  221.350;    0.000
524.150; 3197.925;  264.350;    0.000
524.282; 3175.925;  283.350;    0.000
524.414; 3082.925;  258.350;    0.000
524.546; 3170.925;  286.350;    0.000
524.678; 3092.925;  274.350;    0.000
524.810; 3105.925;  253.350;    0.000
524.942; 3122.925;  183.350;    0.000
525.074; 3139.925;  232.350;    0.000
525.206; 3097.925;  250.350;    0.000
525.338; 2998.925;  228.350;    0.000
525.469; 3125.925;  224.350;    0.000
525.601; 3089.925;  247.350;    0.000
525.733; 3104.925;  199.350;    0.000
525.865; 3017.925;  230.350;    0.000
525.997; 3035.925;  209.350;    0.000
526.129; 2975.925;  211.350;    0.000
526.261; 3013.925;  233.350;    0.000
526.393; 3000.925;  261.350;    0.000
526.524; 3037.925;  206.350;    0.000
526.656; 2986.925;  260.350;    0.000
526.788; 3058.925;  293.350;    0.000
526.920; 2933.925;  208.350;    0.000
527.052; 2902.925;  204.350;    0.000
527.183; 2951.925;  244.350;    0.000
527.315; 3025.925;  237.350;    0.000
527.447; 3059.925;  236.350;    0.000
527.578; 2955.925;  235.350;    0.000
527.710; 2995.925;  253.350;    0.000
527.842; 2952.925;  231.350;    0.000
527.973; 3015.925;  224.350;    0.000
528.105; 2968.925;  237.350;    0.000
528.237; 3008.925;  213.350;    0.000
528.368; 2878.925;  194.350;    0.000
528.500; 2988.925;  195.350;    0.000
528.632; 2934.925;  201.350;    0.000
528.763; 2884.925;  196.350;    0.000
528.895; 2906.925;  204.350;    0.000
529.026; 2923.925;  214.350;    0.000
529.158; 2948.925;  197.350;    0.000
529.289; 2923.925;  230.350;    0.000
529.421; 2922.925;  247.350;    0.000
529.552; 2939.925;  255.350;    0.000
529.684; 3042.925;  270.350;    0.000
529.815; 2876.925;  248.350;    0.000
529.947; 3028.925;  234.350;    0.000
530.078; 3045.925;  223.350;    0.000
530.210; 2936.925;  243.350;    0.000
530.341; 2849.925;  222.350;    0.000
530.472; 2872.925;  217.350;    0.000
530.604; 3026.925;  242.350;    0.000
530.735; 3003.925;  249.350;    0.000
530.867; 2964.925;  257.350;    0.000
530.998; 2947.925;  250.350;    0.000
531.129; 2880.925;  244.350;    0.000
531.260; 2925.925;  276.350;    0.000
531.392; 3000.925;  220.350;    0.000
531.523; 2962.925;  262.350;    0.000
531.654; 3078.925;  264.350;    0.000
531.786; 2954.925;  225.350;    0.000
531.917; 2969.925;  285.350;    0.000
532.048; 3000.925;  239.350;    0.000
532.179; 3097.925;  248.350;    0.000
532.311; 3025.925;  219.350;    0.000
532.442; 2975.925;  264.350;    0.000
532.573; 2925.925;  230.350;    0.000
532.704; 2914.925;  253.350;    0.000
532.835; 3019.925;  239.350;    0.000
532.966; 2915.925;  247.350;    0.000
533.097; 3008.925;  225.350;    0.000
533.229; 2933.925;  282.350;    0.000
533.360; 2957.925;  236.350;    0.000
533.491; 2922.925;  247.350;    0.000
533.622; 2858.925;  265.350;    0.000
533.753; 3016.925;  226.350;    0.000
533.884; 2977.925;  294.350;    0.000
534.015; 2983.925;  215.350;    0.000
534.146; 2981.925;  223.350;    0.000
534.277; 3059.925;  264.350;    0.000
534.408; 2974.925;  232.350;    0.000
534.539; 2999.925;  274.350;    0.000
534.670; 3002.925;  275.350;    0.000
534.801; 2935.925;  261.350;    0.000
534.932; 2930.925;  225.350;    0.000
535.063; 2915.925;  235.350;    0.000
535.194; 2884.925;  300.350;    0.000
535.324; 2939.925;  249.350;    0.000
535.455; 2908.925;  260.350;    0.000
535.586; 2947.925;  288.350;    0.000
535.717; 2892.925;  237.350;    0.000
535.848; 2966.925;  271.350;    0.000
535.979; 2826.925;  234.350;    0.000
536.109; 2890.925;  255.350;    0.000
536.240; 2926.925;  269.350;    0.000
536.371; 2866.925;  232.350;    0.000
536.502; 2883.925;  253.350;    0.000
536.632; 2877.925;  240.350;    0.000
536.763; 2863.925;  251.350;    0.000
536.894; 2917.925;  256.350;    0.000
537.025; 2801.925;  247.350;    0.000
537.155; 2922.925;  272.350;    0.000
537.286; 2865.925;  241.350;    0.000
537.417; 2802.925;  279.350;    0.000
537.547; 2773.925;  229.350;    0.000
537.678; 2809.925;  227.350;    0.000
537.808; 2889.925;  225.350;    0.000
537.939; 2797.925;  250.350;    0.000
538.070; 2879.925;  263.350;    0.000
538.200; 2853.925;  270.350;    0.000
538.331; 2831.925;  249.350;    0.000
538.461; 2831.925;  230.350;    0.000
538.592; 2879.925;  282.350;    0.000
538.722; 2786.925;  253.350;    0.000
538.853; 2905.925;  240.350;    0.000
538.983; 2830.925;  232.350;    0.000
539.114; 2808.925;  248.350;    0.000
539.244; 2896.925;  256.350;    0.000
539.375; 2857.925;  248.350;    0.000
539.505; 2843.925;  235.350;    0.000
539.636; 2845.925;  237.350;    0.000
539.766; 2822.925;  263.350;    0.000
539.896; 2888.925;  217.350;    0.000
540.027; 2829.925;  217.350;    0.000
540.157; 2920.925;  231.350;    0.000
540.287; 2763.925;  210.350;    0.000
540.418; 2875.925;  239.350;    0.000
540.548; 2872.925;  260.350;    0.000
540.678; 2815.925;  228.350;    0.000
540.809; 2848.925;  241.350;    0.000
540.939; 2914.925;  238.350;    0.000
541.069; 2944.925;  245.350;    0.000
541.200; 2806.925;  225.350;    0.000
541.330; 2908.925;  219.350;    0.000
541.460; 2906.925;  254.350;    0.000
541.590; 2881.925;  234.350;    0.000
541.720; 2886.925;  196.350;    0.000
541.851; 2877.925;  200.350;    0.000
541.981; 2866.925;  235.350;    0.000
542.111; 2901.925;  246.350;    0.000
542.241; 2835.925;  214.350;    0.000
542.371; 2987.925;  221.350;    0.000
542.501; 2989.925;  259.350;    0.000
542.631; 3035.925;  213.350;    0.000
542.761; 3067.925;  240.350;    0.000
542.891; 3068.925;  242.350;    0.000
543.021; 3054.925;  230.350;    0.000
543.151; 3075.925;  261.350;    0.000
543.281; 3078.925;  212.350;    0.000
543.411; 3040.925;  229.350;    0.000
543.542; 2988.925;  204.350;    0.000
543.671; 3047.925;  260.350;    0.000
543.801; 2942.925;  236.350;    0.000
543.931; 3023.925;  243.350;    0.000
544.061; 2990.925;  262.350;    0.000
544.191; 2942.925;  223.350;    0.000
544.321; 2878.925;  217.350;    0.000
544.451; 3055.925;  209.350;    0.000
544.581; 2986.925;  213.350;    0.000
544.711; 3039.925;  256.350;    0.000
544.841; 3019.925;  235.350;    0.000
544.970; 3051.925;  260.350;    0.000
545.100; 3122.925;  236.350;    0.000
545.230; 3245.925;  220.350;    0.000
545.360; 3220.925;  219.350;    0.000
545.490; 3036.925;  217.350;    0.000
545.619; 3044.925;  199.350;    0.000
545.749; 3061.925;  183.350;    0.000
545.879; 2977.925;  169.350;    0.000
546.009; 2992.925;  215.350;    0.000
546.138; 2966.925;  228.350;    0.000
546.268; 2970.925;  209.350;    0.000
546.398; 2919.925;  167.350;    0.000
546.527; 2913.925;  178.350;    0.000
546.657; 2890.925;  175.350;    0.000
546.786; 2907.925;  225.350;    0.000
546.916; 2961.925;  196.350;    0.000
547.046; 2892.925;  185.350;    0.000
547.175; 3021.925;  184.350;    0.000
547.305; 2945.925;  197.350;    0.000
547.434; 2964.925;  168.350;    0.000
547.564; 2793.925;  183.350;    0.000
547.693; 2948.925;  204.350;    0.000
547.823; 2893.925;  211.350;    0.000
547.953; 2893.925;  174.350;    0.000
548.082; 2922.925;  217.350;    0.000
548.211; 2919.925;  201.350;    0.000
548.341; 2898.925;  195.350;    0.000
548.470; 3021.925;  225.350;    0.000
548.600; 2945.925;  194.350;    0.000
548.729; 2953.925;  218.350;    0.000
548.859; 2952.925;  202.350;    0.000
548.988; 2935.925;  193.350;    0.000
549.117; 2859.925;  182.350;    0.000
549.247; 2931.925;  198.350;    0.000
549.376; 2975.925;  200.350;    0.000
549.505; 2952.925;  200.350;    0.000
549.635; 2960.925;  224.350;    0.000
549.764; 2984.925;  200.350;    0.000
549.893; 2922.925;  224.350;    0.000
550.023; 2974.925;  207.350;    0.000
550.152; 2944.925;  167.350;    0.000
550.281; 2996.925;  219.350;    0.000
550.410; 2952.925;  217.350;    0.000
550.539; 3001.925;  211.350;    0.000
550.669; 3001.925;  173.350;    0.000
550.798; 3020.925;  211.350;    0.000
550.927; 3014.925;  195.350;    0.000
551.056; 2974.925;  176.350;    0.000
551.185; 2975.925;  203.350;    0.000
551.314; 3003.925;  178.350;    0.000
551.443; 3050.925;  185.350;    0.000
551.573; 2971.925;  167.350;    0.000
551.702; 2905.925;  193.350;    0.000
551.831; 3066.925;  245.350;    0.000
551.960; 3042.925;  190.350;    0.000
552.089; 2995.925;  202.350;    0.000
552.218; 2984.925;  211.350;    0.000
552.347; 3015.925;  184.350;    0.000
552.476; 3023.925;  200.350;    0.000
552.605; 3075.925;  174.350;    0.000
552.734; 3174.925;  206.350;    0.000
552.863; 3062.925;  189.350;    0.000
552.992; 3196.925;  209.350;    0.000
553.121; 3166.925;  201.350;    0.000
553.249; 3102.925;  208.350;    0.000
553.378; 3129.925;  142.350;    0.000
553.507; 3021.925;  208.350;    0.000
553.636; 3080.925;  192.350;    0.000
553.765; 3083.925;  182.350;    0.000
553.894; 3063.925;  183.350;    0.000
554.023; 2959.925;  182.350;    0.000
554.151; 2989.925;  211.350;    0.000
554.280; 2976.925;  179.350;    0.000
554.409; 3044.925;  182.350;    0.000
554.538; 3006.925;  209.350;    0.000
554.666; 3044.925;  182.350;    0.000
554.795; 3041.925;  179.350;    0.000
554.924; 3026.925;  217.350;    0.000
555.052; 3026.925;  220.350;    0.000
555.181; 3041.925;  228.350;    0.000
555.310; 3008.925;  212.350;    0.000
555.439; 3075.925;  199.350;    0.000
555.567; 3005.925;  220.350;    0.000
555.696; 2969.925;  187.350;    0.000
555.824; 2919.925;  189.350;    0.000
555.953; 2944.925;  217.350;    0.000
556.082; 2908.925;  187.350;    0.000
556.210; 2969.925;  245.350;    0.000
556.339; 3031.925;  195.350;    0.000
556.467; 3002.925;  218.350;    0.000
556.596; 2958.925;  198.350;    0.000
556.724; 2962.925;  201.350;    0.000
556.853; 2923.925;  196.350;    0.000
556.981; 2962.925;  175.350;    0.000
557.110; 2919.925;  210.350;    0.000
557.238; 2935.925;  190.350;    0.000
557.367; 2939.925;  192.350;    0.000
557.495; 2832.925;  219.350;    0.000
557.623; 2989.925;  203.350;    0.000
557.752; 2928.925;  166.350;    0.000
557.880; 2946.925;  172.350;    0.000
558.008; 3004.925;  221.350;    0.000
558.137; 2970.925;  211.350;    0.000
558.265; 3025.925;  157.350;    0.000
558.393; 2884.925;  198.350;    0.000
558.522; 2949.925;  209.350;    0.000
558.650; 2952.925;  260.350;    0.000
558.778; 2957.925;  203.350;    0.000
558.906; 2965.925;  210.350;    0.000
559.035; 3018.925;  194.350;    0.000
559.163; 3003.925;  192.350;    0.000
559.291; 2962.925;  215.350;    0.000
559.419; 3007.925;  197.350;    0.000
559.548; 2941.925;  160.350;    0.000
559.676; 2969.925;  200.350;    0.000
559.804; 3088.925;  223.350;    0.000
559.932; 3001.925;  213.350;    0.000
560.060; 2988.925;  224.350;    0.000
560.188; 3033.925;  221.350;    0.000
560.316; 3039.925;  223.350;    0.000
560.444; 2986.925;  159.350;    0.000
560.572; 3055.925;  204.350;    0.000
560.700; 3106.925;  213.350;    0.000
560.828; 3113.925;  216.350;    0.000
560.956; 3138.925;  207.350;    0.000
561.085; 3087.925;  231.350;    0.000
561.212; 3140.925;  197.350;    0.000
561.340; 3111.925;  192.350;    0.000
561.468; 3177.925;  215.350;    0.000
561.596; 3185.925;  215.350;    0.000
561.724; 3096.925;  181.350;    0.000
561.852; 3162.925;  184.350;    0.000
561.980; 3158.925;  217.350;    0.000
562.108; 3171.925;  199.350;    0.000
562.236; 3193.925;  181.350;    0.000
562.364; 3218.925;  234.350;    0.000
562.492; 3283.925;  225.350;    0.000
562.619; 3315.925;  204.350;    0.000
562.747; 3236.925;  223.350;    0.000
562.875; 3245.925;  210.350;    0.000
563.003; 3245.925;  232.350;    0.000
563.130; 3270.925;  224.350;    0.000
563.258; 3322.925;  213.350;    0.000
563.386; 3362.925;  191.350;    0.000
563.514; 3381.925;  252.350;    0.000
563.641; 3447.925;  201.350;    0.000
563.769; 3473.925;  201.350;    0.000
563.897; 3557.925;  176.350;    0.000
564.024; 3465.925;  167.350;    0.000
564.152; 3601.925;  205.350;    0.000
564.280; 3594.925;  222.350;    0.000
564.407; 3633.925;  192.350;    0.000
564.535; 3571.925;  231.350;    0.000
564.662; 3611.925;  197.350;    0.000
564.790; 3655.925;  200.350;    0.000
564.917; 3623.925;  172.350;    0.000
565.045; 3643.925;  187.350;    0.000
565.173; 3756.925;  173.350;    0.000
565.300; 3696.925;  196.350;    0.000
565.428; 3758.925;  195.350;    0.000
565.555; 3766.925;  191.350;    0.000
565.682; 3762.925;  169.350;    0.000
565.810; 3898.925;  198.350;    0.000
565.937; 4010.925;  213.350;    0.000
566.065; 4035.925;  221.350;    0.000
566.192; 4019.925;  173.350;    0.000
566.320; 4115.925;  214.350;    0.000
566.447; 4149.925;  214.350;    0.000
566.574; 4095.925;  188.350;    0.000
566.702; 4328.925;  198.350;    0.000
566.829; 4318.925;  200.350;    0.000
566.956; 4296.925;  194.350;    0.000
567.083; 4355.925;  176.350;    0.000
567.211; 4412.925;  189.350;    0.000
567.338; 4346.925;  184.350;    0.000
567.465; 4277.925;  181.350;    0.000
567.593; 4374.925;  194.350;    0.000
567.720; 4368.925;  193.350;    0.000
567.847; 4468.925;  196.350;    0.000
567.974; 4431.925;  199.350;    0.000
568.101; 4495.925;  150.350;    0.000
568.228; 5037.925;  174.350;    0.000
568.356; 5182.925;  164.350;    0.000
568.483; 5050.925;  163.350;    0.000
568.610; 4984.925;  187.350;    0.000
568.737; 5560.925;  192.350;    0.000
568.864; 6137.925;  218.350;    0.000
568.991; 5909.925;  169.350;    0.000
569.118; 5433.925;  161.350;    0.000
569.245; 4970.925;  161.350;    0.000
569.372; 4628.925;  187.350;    0.000
569.499; 4467.925;  146.350;    0.000
569.626; 4435.925;  172.350;    0.000
569.753; 4371.925;  188.350;    0.000
569.880; 4155.925;  180.350;    0.000
570.007; 4226.925;  187.350;    0.000
570.134; 4050.925;  196.350;    0.000
570.261; 4006.925;  127.350;    0.000
570.388; 3938.925;  189.350;    0.000
570.515; 3862.925;  219.350;    0.000
570.642; 3809.925;  187.350;    0.000
570.768; 3725.925;  175.350;    0.000
570.895; 3851.925;  165.350;    0.000
571.022; 3717.925;  180.350;    0.000
571.149; 3745.925;  209.350;    0.000
571.276; 3681.925;  187.350;    0.000
571.402; 3493.925;  227.350;    0.000
571.529; 3662.925;  166.350;    0.000
571.656; 3595.925;  203.350;    0.000
571.783; 3661.925;  156.350;    0.000
571.909; 3493.925;  195.350;    0.000
572.036; 3483.925;  165.350;    0.000
572.163; 3413.925;  156.350;    0.000
572.289; 3578.925;  193.350;    0.000
572.416; 3337.925;  199.350;    0.000
572.543; 3483.925;  185.350;    0.000
572.669; 3376.925;  180.350;    0.000
572.796; 3349.925;  173.350;    0.000
572.922; 3393.925;  186.350;    0.000
573.049; 3413.925;  185.350;    0.000
573.176; 3312.925;  196.350;    0.000
573.302; 3372.925;  189.350;    0.000
573.429; 3371.925;  186.350;    0.000
573.555; 3383.925;  220.350;    0.000
573.682; 3365.925;  196.350;    0.000
573.808; 3288.925;  201.350;    0.000
573.935; 3308.925;  188.350;    0.000
574.061; 3246.925;  216.350;    0.000
574.188; 3264.925;  161.350;    0.000
574.314; 3215.925;  189.350;    0.000
574.440; 3318.925;  190.350;    0.000
574.567; 3272.925;  201.350;    0.000
574.693; 3247.925;  175.350;    0.000
574.820; 3400.925;  188.350;    0.000
574.946; 3268.925;  182.350;    0.000
575.072; 3367.925;  188.350;    0.000
575.198; 3278.925;  232.350;    0.000
575.325; 3226.925;  159.350;    0.000
575.451; 3330.925;  231.350;    0.000
575.577; 3300.925;  196.350;    0.000
575.704; 3350.925;  177.350;    0.000
575.830; 3269.925;  171.350;    0.000
575.956; 3313.925;  163.350;    0.000
576.082; 3305.925;  197.350;    0.000
576.208; 3242.925;  181.350;    0.000
576.335; 3351.925;  218.350;    0.000
576.461; 3165.925;  207.350;    0.000
576.587; 3215.925;  173.350;    0.000
576.713; 3167.925;  170.350;    0.000
576.839; 3327.925;  186.350;    0.000
576.965; 3336.925;  194.350;    0.000
577.091; 3271.925;  167.350;    0.000
577.217; 3308.925;  212.350;    0.000
577.343; 3260.925;  214.350;    0.000
577.469; 3336.925;  208.350;    0.000
577.596; 3326.925;  188.350;    0.000
577.722; 3264.925;  221.350;    0.000
577.848; 3228.925;  197.350;    0.000
577.974; 3294.925;  222.350;    0.000
578.099; 3242.925;  187.350;    0.000
578.225; 3329.925;  213.350;    0.000
578.351; 3278.925;  190.350;    0.000
578.477; 3308.925;  212.350;    0.000
578.603; 3287.925;  178.350;    0.000
578.729; 3261.925;  193.350;    0.000
578.855; 3235.925;  194.350;    0.000
578.981; 3271.925;  152.350;    0.000
579.107; 3262.925;  175.350;    0.000
579.232; 3388.925;  192.350;    0.000
579.358; 3285.925;  186.350;    0.000
579.484; 3272.925;  186.350;    0.000
579.610; 3250.925;  199.350;    0.000
579.735; 3347.925;  197.350;    0.000
579.861; 3360.925;  203.350;    0.000
579.987; 3371.925;  220.350;    0.000
580.113; 3388.925;  210.350;    0.000
580.238; 3463.925;  189.350;    0.000
580.364; 3422.925;  214.350;    0.000
580.490; 3500.925;  205.350;    0.000
580.615; 3496.925;  231.350;    0.000
580.741; 3380.925;  212.350;    0.000
580.867; 3474.925;  196.350;    0.000
580.992; 3549.925;  214.350;    0.000
581.118; 3436.925;  178.350;    0.000
581.243; 3522.925;  209.350;    0.000
581.369; 3606.925;  173.350;    0.000
581.494; 3459.925;  209.350;    0.000
581.620; 3515.925;  204.350;    0.000
581.745; 3612.925;  168.350;    0.000
581.871; 3639.925;  236.350;    0.000
581.996; 3599.925;  212.350;    0.000
582.122; 3634.925;  192.350;    0.000
582.247; 3594.925;  179.350;    0.000
582.373; 3686.925;  189.350;    0.000
582.498; 3834.925;  217.350;    0.000
582.624; 3744.925;  231.350;    0.000
582.749; 3733.925;  237.350;    0.000
582.874; 3803.925;  205.350;    0.000
583.000; 3895.925;  204.350;    0.000
583.125; 3793.925;  192.350;    0.000
583.250; 3904.925;  229.350;    0.000
583.376; 3983.925;  256.350;    0.000
583.501; 3894.925;  200.350;    0.000
583.626; 4022.925;  207.350;    0.000
583.751; 4113.925;  215.350;    0.000
583.877; 4136.925;  212.350;    0.000
584.002; 4156.925;  227.350;    0.000
584.127; 4211.925;  153.350;    0.000
584.252; 4299.925;  197.350;    0.000
584.377; 4337.925;  183.350;    0.000
584.503; 4410.925;  211.350;    0.000
584.628; 4524.925;  215.350;    0.000
584.753; 4444.925;  194.350;    0.000
584.878; 4562.925;  154.350;    0.000
585.003; 4565.925;  213.350;    0.000
585.128; 4725.925;  199.350;    0.000
585.253; 4932.925;  219.350;    0.000
585.378; 4978.925;  174.350;    0.000
585.503; 5003.925;  202.350;    0.000
585.628; 5081.925;  186.350;    0.000
585.753; 5287.925;  209.350;    0.000
585.878; 5188.925;  167.350;    0.000
586.003; 5351.925;  226.350;    0.000
586.128; 5660.925;  206.350;    0.000
586.253; 5807.925;  198.350;    0.000
586.378; 6002.925;  180.350;    0.000
586.503; 6262.925;  201.350;    0.000
586.628; 6414.925;  206.350;    0.000
586.753; 6622.925;  178.350;    0.000
586.878; 6926.925;  228.350;    0.000
587.003; 7287.925;  199.350;    0.000
587.127; 7677.925;  194.350;    0.000
587.252; 8065.925;  212.350;    0.000
587.377; 8399.925;  172.350;    0.000
587.502; 8913.925;  219.350;    0.000
587.627; 9572.925;  247.350;    0.000
587.751;10249.925;  184.350;    0.000
587.876;10969.925;  215.350;    0.000
588.001;12054.925;  163.350;    0.000
588.125;13063.925;  185.350;    0.000
588.250;14994.925;  171.350;    0.000
588.375;16933.926;  255.350;    0.000
588.499;19469.926;  185.350;    0.000
588.624;23343.926;  167.350;    0.000
588.749;29126.926;  170.350;    0.000
588.873;36147.926;  173.350;    0.000
588.998;42139.926;  203.350;    0.000
589.122;43469.926;  184.350;    0.000
589.247;39334.926;  217.350;    0.000
589.372;35897.926;  250.350;    0.000
589.496;37512.926;  200.350;    0.000
589.621;40816.926;  199.350;    0.000
589.745;38037.926;  235.350;    0.000
589.870;31027.926;  206.350;    0.000
589.994;25167.926;  194.350;    0.000
590.118;21368.926;  177.350;    0.000
590.243;18588.926;  231.350;    0.000
590.367;16317.925;  173.350;    0.000
590.492;14582.925;  170.350;    0.000
590.616;13332.925;  182.350;    0.000
590.740;12310.925;  178.350;    0.000
590.865;11382.925;  219.350;    0.000
590.989;10659.925;  210.350;    0.000
591.114; 9859.925;  194.350;    0.000
591.238; 9366.925;  154.350;    0.000
591.362; 8973.925;  210.350;    0.000
591.486; 8395.925;  215.350;    0.000
591.611; 8094.925;  194.350;    0.000
591.735; 7740.925;  206.350;    0.000
591.859; 7515.925;  188.350;    0.000
591.983; 7269.925;  202.350;    0.000
592.107; 6990.925;  175.350;    0.000
592.232; 6729.925;  214.350;    0.000
592.356; 6742.925;  232.350;    0.000
592.480; 6484.925;  203.350;    0.000
592.604; 6215.925;  204.350;    0.000
592.728; 6135.925;  187.350;    0.000
592.852; 5933.925;  204.350;    0.000
592.976; 5871.925;  163.350;    0.000
593.100; 5722.925;  177.350;    0.000
593.224; 5570.925;  209.350;    0.000
593.349; 5336.925;  255.350;    0.000
593.473; 5295.925;  225.350;    0.000
593.597; 5280.925;  211.350;    0.000
593.721; 5203.925;  222.350;    0.000
593.844; 5141.925;  202.350;    0.000
593.968; 4984.925;  223.350;    0.000
594.092; 4814.925;  162.350;    0.000
594.216; 4852.925;  211.350;    0.000
594.340; 4704.925;  198.350;    0.000
594.464; 4617.925;  242.350;    0.000
594.588; 4568.925;  213.350;    0.000
594.712; 4627.925;  198.350;    0.000
594.836; 4434.925;  207.350;    0.000
594.959; 4434.925;  192.350;    0.000
595.083; 4267.925;  180.350;    0.000
595.207; 4330.925;  242.350;    0.000
595.331; 4282.925;  172.350;    0.000
595.455; 4217.925;  185.350;    0.000
595.578; 4237.925;  221.350;    0.000
595.702; 4140.925;  233.350;    0.000
595.826; 3989.925;  164.350;    0.000
595.949; 4083.925;  215.350;    0.000
596.073; 3887.925;  198.350;    0.000
596.197; 3949.925;  266.350;    0.000
596.320; 3874.925;  236.350;    0.000
596.444; 3931.925;  215.350;    0.000
596.568; 3818.925;  213.350;    0.000
596.691; 3692.925;  198.350;    0.000
596.815; 3797.925;  210.350;    0.000
596.938; 3701.925;  207.350;    0.000
597.062; 3704.925;  187.350;    0.000
597.186; 3747.925;  234.350;    0.000
597.309; 3696.925;  176.350;    0.000
597.433; 3635.925;  222.350;    0.000
597.556; 3523.925;  219.350;    0.000
597.680; 3634.925;  227.350;    0.000
597.803; 3456.925;  240.350;    0.000
597.926; 3540.925;  227.350;    0.000
598.050; 3468.925;  198.350;    0.000
598.173; 3450.925;  235.350;    0.000
598.297; 3407.925;  233.350;    0.000
598.420; 3402.925;  211.350;    0.000
598.543; 3412.925;  207.350;    0.000
598.667; 3438.925;  232.350;    0.000
598.790; 3359.925;  205.350;    0.000
598.913; 3280.925;  200.350;    0.000
599.037; 3321.925;  193.350;    0.000
599.160; 3348.925;  199.350;    0.000
599.283; 3255.925;  237.350;    0.000
599.406; 3318.925;  168.350;    0.000
599.530; 3218.925;  231.350;    0.000
599.653; 3243.925;  220.350;    0.000
599.776; 3280.925;  203.350;    0.000
599.899; 3166.925;  202.350;    0.000
600.022; 3129.925;  189.350;    0.000
600.145; 3187.925;  175.350;    0.000
600.269; 3224.925;  235.350;    0.000
600.392; 3058.925;  213.350;    0.000
600.515; 3071.925;  236.350;    0.000
600.638; 3079.925;  198.350;    0.000
600.761; 3098.925;  195.350;    0.000
600.884; 3118.925;  221.350;    0.000
601.007; 3087.925;  236.350;    0.000
601.130; 3042.925;  223.350;    0.000
601.253; 3090.925;  250.350;    0.000
601.376; 3025.925;  195.350;    0.000
601.499; 3093.925;  168.350;    0.000
601.622; 3092.925;  221.350;    0.000
601.745; 2935.925;  223.350;    0.000
601.868; 2995.925;  204.350;    0.000
601.991; 2963.925;  207.350;    0.000
602.113; 2955.925;  223.350;    0.000
602.236; 2906.925;  182.350;    0.000
602.359; 2996.925;  235.350;    0.000
602.482; 2930.925;  173.350;    0.000
602.605; 2896.925;  227.350;    0.000
602.728; 2910.925;  227.350;    0.000
602.850; 2947.925;  250.350;    0.000
602.973; 2866.925;  195.350;    0.000
603.096; 2899.925;  270.350;    0.000
603.219; 2928.925;  197.350;    0.000
603.341; 2911.925;  195.350;    0.000
603.464; 2888.925;  204.350;    0.000
603.587; 2889.925;  243.350;    0.000
603.709; 2832.925;  188.350;    0.000
603.832; 2928.925;  214.350;    0.000
603.955; 2840.925;  213.350;    0.000
604.077; 2874.925;  201.350;    0.000
604.200; 2939.925;  209.350;    0.000
604.323; 2846.925;  201.350;    0.000
604.445; 2798.925;  202.350;    0.000
604.568; 2850.925;  230.350;    0.000
604.690; 2755.925;  212.350;    0.000
604.813; 2816.925;  226.350;    0.000
604.935; 2773.925;  216.350;    0.000
605.058; 2731.925;  182.350;    0.000
605.180; 2777.925;  204.350;    0.000
605.303; 2750.925;  199.350;    0.000
605.425; 2766.925;  178.350;    0.000
605.547; 2753.925;  209.350;    0.000
605.670; 2778.925;  206.350;    0.000
605.792; 2781.925;  199.350;    0.000
605.915; 2719.925;  221.350;    0.000
606.037; 2753.925;  222.350;    0.000
606.159; 2747.925;  160.350;    0.000
606.282; 2829.925;  188.350;    0.000
606.404; 2751.925;  205.350;    0.000
606.526; 2732.925;  228.350;    0.000
606.648; 2781.925;  184.350;    0.000
606.771; 2722.925;  195.350;    0.000
606.893; 2667.925;  193.350;    0.000
607.015; 2638.925;  202.350;    0.000
607.137; 2736.925;  189.350;    0.000
607.260; 2713.925;  201.350;    0.000
607.382; 2765.925;  211.350;    0.000
607.504; 2650.925;  206.350;    0.000
607.626; 2799.925;  236.350;    0.000
607.748; 2724.925;  228.350;    0.000
607.870; 2701.925;  212.350;    0.000
607.992; 2723.925;  201.350;    0.000
608.114; 2669.925;  214.350;    0.000
608.237; 2732.925;  235.350;    0.000
608.359; 2628.925;  215.350;    0.000
608.481; 2687.925;  183.350;    0.000
608.603; 2654.925;  206.350;    0.000
608.725; 2643.925;  238.350;    0.000
608.847; 2582.925;  237.350;    0.000
608.969; 2682.925;  227.350;    0.000
609.090; 2618.925;  205.350;    0.000
609.212; 2647.925;  182.350;    0.000
609.334; 2652.925;  210.350;    0.000
609.456; 2705.925;  208.350;    0.000
609.578; 2623.925;  195.350;    0.000
609.700; 2527.925;  196.350;    0.000
609.822; 2574.925;  184.350;    0.000
609.944; 2702.925;  258.350;    0.000
610.065; 2671.925;  219.350;    0.000
610.187; 2610.925;  217.350;    0.000
610.309; 2634.925;  179.350;    0.000
610.431; 2577.925;  189.350;    0.000
610.552; 2603.925;  212.350;    0.000
610.674; 2632.925;  211.350;    0.000
610.796; 2557.925;  168.350;    0.000
610.918; 2565.925;  201.350;    0.000
611.039; 2539.925;  212.350;    0.000
611.161; 2618.925;  207.350;    0.000
611.282; 2674.925;  219.350;    0.000
611.404; 2683.925;  243.350;    0.000
611.526; 2577.925;  180.350;    0.000
611.647; 2656.925;  235.350;    0.000
611.769; 2589.925;  189.350;    0.000
611.890; 2601.925;  201.350;    0.000
612.012; 2554.925;  191.350;    0.000
612.133; 2591.925;  227.350;    0.000
612.255; 2496.925;  191.350;    0.000
612.377; 2655.925;  192.350;    0.000
612.498; 2559.925;  202.350;    0.000
612.619; 2541.925;  207.350;    0.000
612.741; 2516.925;  241.350;    0.000
612.862; 2588.925;  219.350;    0.000
612.984; 2472.925;  203.350;    0.000
613.105; 2518.925;  228.350;    0.000
613.226; 2537.925;  199.350;    0.000
613.348; 2590.925;  238.350;    0.000
613.469; 2548.925;  239.350;    0.000
613.590; 2550.925;  183.350;    0.000
613.712; 2587.925;  245.350;    0.000
613.833; 2555.925;  241.350;    0.000
613.954; 2567.925;  208.350;    0.000
614.076; 2544.925;  181.350;    0.000
614.197; 2499.925;  217.350;    0.000
614.318; 2574.925;  182.350;    0.000
614.439; 2442.925;  204.350;    0.000
614.560; 2564.925;  219.350;    0.000
614.682; 2514.925;  238.350;    0.000
614.803; 2554.925;  240.350;    0.000
614.924; 2561.925;  212.350;    0.000
615.045; 2597.925;  225.350;    0.000
615.166; 2612.925;  227.350;    0.000
615.287; 2665.925;  230.350;    0.000
615.408; 2939.925;  187.350;    0.000
615.529; 2911.925;  211.350;    0.000
615.650; 2809.925;  202.350;    0.000
615.771; 2830.925;  203.350;    0.000
615.892; 2781.925;  222.350;    0.000
616.013; 3146.925;  215.350;    0.000
616.134; 3402.925;  193.350;    0.000
616.255; 3295.925;  242.350;    0.000
616.376; 2977.925;  205.350;    0.000
616.497; 2863.925;  200.350;    0.000
616.618; 2753.925;  177.350;    0.000
616.739; 2763.925;  218.350;    0.000
616.860; 2672.925;  214.350;    0.000
616.981; 2729.925;  208.350;    0.000
617.102; 2562.925;  203.350;    0.000
617.222; 2627.925;  212.350;    0.000
617.343; 2552.925;  162.350;    0.000
617.464; 2532.925;  230.350;    0.000
617.585; 2537.925;  197.350;    0.000
617.705; 2563.925;  209.350;    0.000
617.826; 2538.925;  229.350;    0.000
617.947; 2536.925;  216.350;    0.000
618.068; 2502.925;  192.350;    0.000
618.188; 2511.925;  230.350;    0.000
618.309; 2468.925;  238.350;    0.000
618.430; 2521.925;  242.350;    0.000
618.550; 2478.925;  235.350;    0.000
618.671; 2435.925;  207.350;    0.000
618.791; 2492.925;  228.350;    0.000
618.912; 2522.925;  266.350;    0.000
619.033; 2507.925;  232.350;    0.000
619.153; 2593.925;  207.350;    0.000
619.274; 2398.925;  193.350;    0.000
619.394; 2514.925;  237.350;    0.000
619.515; 2435.925;  216.350;    0.000
619.635; 2376.925;  203.350;    0.000
619.756; 2373.925;  227.350;    0.000
619.876; 2435.925;  244.350;    0.000
619.996; 2473.925;  220.350;    0.000
620.117; 2402.925;  231.350;    0.000
620.237; 2454.925;  235.350;    0.000
620.358; 2519.925;  241.350;    0.000
620.478; 2462.925;  237.350;    0.000
620.598; 2513.925;  255.350;    0.000
620.719; 2369.925;  243.350;    0.000
620.839; 2449.925;  237.350;    0.000
620.959; 2392.925;  216.350;    0.000
621.079; 2443.925;  240.350;    0.000
621.200; 2333.925;  195.350;    0.000
621.320; 2439.925;  287.350;    0.000
621.440; 2401.925;  236.350;    0.000
621.560; 2404.925;  231.350;    0.000
621.681; 2428.925;  177.350;    0.000
621.801; 2425.925;  257.350;    0.000
621.921; 2396.925;  241.350;    0.000
622.041; 2349.925;  239.350;    0.000
622.161; 2378.925;  233.350;    0.000
622.281; 2318.925;  204.350;    0.000
622.401; 2367.925;  204.350;    0.000
622.521; 2296.925;  242.350;    0.000
622.641; 2241.925;  205.350;    0.000
622.761; 2375.925;  254.350;    0.000
622.882; 2353.925;  225.350;    0.000
623.002; 2358.925;  255.350;    0.000
623.121; 2384.925;  244.350;    0.000
623.241; 2423.925;  238.350;    0.000
623.361; 2250.925;  208.350;    0.000
623.481; 2311.925;  194.350;    0.000
623.601; 2333.925;  249.350;    0.000
623.721; 2342.925;  229.350;    0.000
623.841; 2304.925;  244.350;    0.000
623.961; 2355.925;  253.350;    0.000
624.081; 2362.925;  218.350;    0.000
624.201; 2285.925;  218.350;    0.000
624.320; 2267.925;  212.350;    0.000
624.440; 2332.925;  251.350;    0.000
624.560; 2296.925;  244.350;    0.000
624.680; 2281.925;  224.350;    0.000
624.799; 2211.925;  198.350;    0.000
624.919; 2294.925;  215.350;    0.000
625.039; 2250.925;  225.350;    0.000
625.159; 2278.925;  209.350;    0.000
625.278; 2279.925;  211.350;    0.000
625.398; 2244.925;  260.350;    0.000
625.518; 2313.925;  205.350;    0.000
625.637; 2307.925;  240.350;    0.000
625.757; 2203.925;  208.350;    0.000
625.876; 2270.925;  221.350;    0.000
625.996; 2308.925;  245.350;    0.000
626.115; 2211.925;  196.350;    0.000
626.235; 2210.925;  241.350;    0.000
626.354; 2260.925;  231.350;    0.000
626.474; 2235.925;  220.350;    0.000
626.594; 2250.925;  210.350;    0.000
626.713; 2256.925;  229.350;    0.000
626.832; 2265.925;  236.350;    0.000
626.952; 2272.925;  223.350;    0.000
627.071; 2306.925;  211.350;    0.000
627.191; 2213.925;  220.350;    0.000
627.310; 2250.925;  206.350;    0.000
627.429; 2215.925;  223.350;    0.000
627.549; 2238.925;  205.350;    0.000
627.668; 2271.925;  227.350;    0.000
627.787; 2249.925;  221.350;    0.000
627.907; 2197.925;  194.350;    0.000
628.026; 2202.925;  231.350;    0.000
628.145; 2147.925;  210.350;    0.000
628.264; 2248.925;  245.350;    0.000
628.384; 2131.925;  234.350;    0.000
628.503; 2183.925;  210.350;    0.000
628.622; 2219.925;  223.350;    0.000
628.741; 2228.925;  210.350;    0.000
628.860; 2236.925;  222.350;    0.000
628.980; 2252.925;  184.350;    0.000
629.099; 2292.925;  234.350;    0.000
629.218; 2228.925;  157.350;    0.000
629.337; 2232.925;  220.350;    0.000
629.456; 2242.925;  210.350;    0.000
629.575; 2222.925;  239.350;    0.000
629.694; 2242.925;  216.350;    0.000
629.813; 2176.925;  218.350;    0.000
629.932; 2186.925;  175.350;    0.000
630.051; 2177.925;  218.350;    0.000
630.170; 2183.925;  215.350;    0.000
630.289; 2229.925;  203.350;    0.000
630.408; 2198.925;  180.350;    0.000
630.527; 2191.925;  249.350;    0.000
630.646; 2221.925;  186.350;    0.000
630.764; 2110.925;  189.350;    0.000
630.883; 2241.925;  221.350;    0.000
631.002; 2225.925;  191.350;    0.000
631.121; 2224.925;  210.350;    0.000
631.240; 2203.925;  256.350;    0.000
631.359; 2163.925;  246.350;    0.000
631.477; 2175.925;  230.350;    0.000
631.596; 2219.925;  229.350;    0.000
631.715; 2220.925;  242.350;    0.000
631.834; 2176.925;  261.350;    0.000
631.952; 2216.925;  250.350;    0.000
632.071; 2106.925;  218.350;    0.000
632.190; 2102.925;  200.350;    0.000
632.308; 2114.925;  226.350;    0.000
632.427; 2134.925;  234.350;    0.000
632.546; 2148.925;  250.350;    0.000
632.664; 2103.925;  224.350;    0.000
632.783; 2091.925;  211.350;    0.000
632.901; 2211.925;  254.350;    0.000
633.020; 2119.925;  204.350;    0.000
633.138; 2184.925;  228.350;    0.000
633.257; 2136.925;  219.350;    0.000
633.375; 2188.925;  243.350;    0.000
633.494; 2198.925;  242.350;    0.000
633.612; 2160.925;  227.350;    0.000
633.731; 2142.925;  221.350;    0.000
633.849; 2162.925;  239.350;    0.000
633.968; 2130.925;  219.350;    0.000
634.086; 2079.925;  218.350;    0.000
634.204; 2128.925;  203.350;    0.000
634.323; 2099.925;  222.350;    0.000
634.441; 2115.925;  257.350;    0.000
634.559; 2087.925;  201.350;    0.000
634.678; 2106.925;  214.350;    0.000
634.796; 2078.925;  207.350;    0.000
634.914; 2090.925;  226.350;    0.000
635.032; 2104.925;  250.350;    0.000
635.151; 2106.925;  228.350;    0.000
635.269; 2085.925;  188.350;    0.000
635.387; 2169.925;  247.350;    0.000
635.505; 2091.925;  250.350;    0.000
635.623; 2148.925;  230.350;    0.000
635.742; 2047.925;  209.350;    0.000
635.860; 2103.925;  239.350;    0.000
635.978; 2067.925;  213.350;    0.000
636.096; 2082.925;  176.350;    0.000
636.214; 2084.925;  246.350;    0.000
636.332; 2014.925;  224.350;    0.000
636.450; 2088.925;  215.350;    0.000
636.568; 2058.925;  246.350;    0.000
636.686; 2049.925;  225.350;    0.000
636.804; 2094.925;  218.350;    0.000
636.922; 2069.925;  195.350;    0.000
637.040; 2080.925;  213.350;    0.000
637.158; 2035.925;  228.350;    0.000
637.276; 2081.925;  206.350;    0.000
637.394; 2113.925;  224.350;    0.000
637.512; 2029.925;  245.350;    0.000
637.629; 2046.925;  234.350;    0.000
637.747; 2080.925;  233.350;    0.000
637.865; 2091.925;  236.350;    0.000
637.983; 1997.925;  235.350;    0.000
638.101; 2089.925;  232.350;    0.000
638.218; 2109.925;  256.350;    0.000
638.336; 2026.925;  216.350;    0.000
638.454; 2040.925;  255.350;    0.000
638.572; 2039.925;  237.350;    0.000
638.689; 2065.925;  271.350;    0.000
638.807; 2135.925;  243.350;    0.000
638.925; 2021.925;  259.350;    0.000
639.042; 2058.925;  185.350;    0.000
639.160; 2022.925;  250.350;    0.000
639.278; 2071.925;  207.350;    0.000
639.395; 2050.925;  243.350;    0.000
639.513; 1991.925;  235.350;    0.000
639.630; 1961.925;  230.350;    0.000
639.748; 2025.925;  192.350;    0.000
639.865; 2008.925;  219.350;    0.000
639.983; 2073.925;  183.350;    0.000
640.100; 1990.925;  251.350;    0.000
640.218; 2031.925;  246.350;    0.000
640.335; 1985.925;  227.350;    0.000
640.453; 2034.925;  259.350;    0.000
640.570; 2039.925;  251.350;    0.000
640.688; 2077.925;  223.350;    0.000
640.805; 2026.925;  246.350;    0.000
640.922; 2051.925;  249.350;    0.000
641.040; 2045.925;  257.350;    0.000
641.157; 2018.925;  207.350;    0.000
641.274; 2027.925;  241.350;    0.000
641.391; 2015.925;  246.350;    0.000
641.509; 1978.925;  216.350;    0.000
641.626; 2027.925;  252.350;    0.000
641.743; 2017.925;  215.350;    0.000
641.860; 1966.925;  234.350;    0.000
641.978; 1952.925;  216.350;    0.000
642.095; 1953.925;  247.350;    0.000
642.212; 2026.925;  199.350;    0.000
642.329; 1983.925;  237.350;    0.000
642.446; 1999.925;  222.350;    0.000
642.563; 2060.925;  287.350;    0.000
642.681; 2043.925;  261.350;    0.000
642.798; 1975.925;  251.350;    0.000
642.915; 2024.925;  238.350;    0.000
643.032; 2036.925;  246.350;    0.000
643.149; 2040.925;  239.350;    0.000
643.266; 2008.925;  238.350;    0.000
643.383; 2036.925;  231.350;    0.000
643.500; 1940.925;  212.350;    0.000
643.617; 2012.925;  236.350;    0.000
643.734; 2008.925;  239.350;    0.000
643.850; 2004.925;  234.350;    0.000
643.967; 1994.925;  253.350;    0.000
644.084; 2104.925;  253.350;    0.000
644.201; 2012.925;  227.350;    0.000
644.318; 1990.925;  247.350;    0.000
644.435; 1964.925;  264.350;    0.000
644.552; 1963.925;  230.350;    0.000
644.668; 2056.925;  250.350;    0.000
644.785; 2048.925;  235.350;    0.000
644.902; 2051.925;  227.350;    0.000
645.019; 2046.925;  203.350;    0.000
645.135; 2014.925;  210.350;    0.000
645.252; 1996.925;  206.350;    0.000
645.369; 2024.925;  235.350;    0.000
645.485; 2016.925;  223.350;    0.000
645.602; 1943.925;  205.350;    0.000
645.719; 2095.925;  222.350;    0.000
645.835; 2020.925;  246.350;    0.000
645.952; 2008.925;  239.350;    0.000
646.068; 2020.925;  225.350;    0.000
646.185; 2120.925;  248.350;    0.000
646.302; 2188.925;  226.350;    0.000
646.418; 2092.925;  228.350;    0.000
646.535; 2054.925;  219.350;    0.000
646.651; 1988.925;  204.350;    0.000
646.768; 2072.925;  247.350;    0.000
646.884; 2104.925;  228.350;    0.000
647.000; 2156.925;  223.350;    0.000
647.117; 2059.925;  251.350;    0.000
647.233; 2018.925;  223.350;    0.000
647.350; 2112.925;  237.350;    0.000
647.466; 2096.925;  223.350;    0.000
647.582; 2098.925;  243.350;    0.000
647.699; 2142.925;  223.350;    0.000
647.815; 2103.925;  215.350;    0.000
647.931; 2086.925;  214.350;    0.000
648.047; 2066.925;  199.350;    0.000
648.164; 2099.925;  233.350;    0.000
648.280; 2111.925;  231.350;    0.000
648.396; 2152.925;  215.350;    0.000
648.512; 2043.925;  252.350;    0.000
648.629; 2151.925;  237.350;    0.000
648.745; 2164.925;  216.350;    0.000
648.861; 2084.925;  207.350;    0.000
648.977; 2096.925;  247.350;    0.000
649.093; 2086.925;  221.350;    0.000
649.209; 2188.925;  232.350;    0.000
649.325; 2156.925;  245.350;    0.000
649.441; 2130.925;  253.350;    0.000
649.557; 2152.925;  221.350;    0.000
649.673; 2163.925;  182.350;    0.000
649.789; 2190.925;  245.350;    0.000
649.905; 2064.925;  204.350;    0.000
650.021; 2175.925;  270.350;    0.000
650.137; 2084.925;  218.350;    0.000
650.253; 2078.925;  268.350;    0.000
650.369; 2147.925;  222.350;    0.000
650.485; 2112.925;  215.350;    0.000
650.601; 2216.925;  218.350;    0.000
650.717; 2080.925;  208.350;    0.000
650.833; 2225.925;  263.350;    0.000
650.948; 2122.925;  266.350;    0.000
651.064; 2208.925;  271.350;    0.000
651.180; 2132.925;  232.350;    0.000
651.296; 2188.925;  237.350;    0.000
651.411; 2143.925;  233.350;    0.000
651.527; 2219.925;  232.350;    0.000
651.643; 2170.925;  259.350;    0.000
651.759; 2188.925;  257.350;    0.000
651.874; 2188.925;  216.350;    0.000
651.990; 2216.925;  234.350;    0.000
652.105; 2276.925;  195.350;    0.000
652.221; 2203.925;  245.350;    0.000
652.337; 2228.925;  210.350;    0.000
652.452; 2284.925;  259.350;    0.000
652.568; 2236.925;  202.350;    0.000
652.683; 2294.925;  233.350;    0.000
652.799; 2270.925;  230.350;    0.000
652.914; 2312.925;  198.350;    0.000
653.030; 2248.925;  203.350;    0.000
653.145; 2318.925;  228.350;    0.000
653.261; 2327.925;  244.350;    0.000
653.376; 2333.925;  214.350;    0.000
653.492; 2370.925;  246.350;    0.000
653.607; 2388.925;  241.350;    0.000
653.722; 2437.925;  257.350;    0.000
653.838; 2442.925;  265.350;    0.000
653.953; 2475.925;  252.350;    0.000
654.068; 2451.925;  270.350;    0.000
654.184; 2562.925;  248.350;    0.000
654.299; 2551.925;  226.350;    0.000
654.414; 2503.925;  190.350;    0.000
654.530; 2530.925;  263.350;    0.000
654.645; 2608.925;  240.350;    0.000
654.760; 2623.925;  243.350;    0.000
654.875; 2680.925;  210.350;    0.000
654.990; 2832.925;  250.350;    0.000
655.106; 2847.925;  277.350;    0.000
655.221; 2846.925;  249.350;    0.000
655.336; 2930.925;  239.350;    0.000
655.451; 2968.925;  226.350;    0.000
655.566; 3030.925;  236.350;    0.000
655.681; 3208.925;  272.350;    0.000
655.796; 3247.925;  224.350;    0.000
655.911; 3325.925;  247.350;    0.000
656.026; 3440.925;  240.350;    0.000
656.141; 3659.925;  239.350;    0.000
656.256; 3672.925;  241.350;    0.000
656.371; 3684.925;  213.350;    0.000
656.486; 3703.925;  275.350;    0.000
656.601; 3490.925;  225.350;    0.000
656.716; 3528.925;  239.350;    0.000
656.831; 3516.925;  260.350;    0.000
656.946; 3404.925;  250.350;    0.000
657.060; 3384.925;  257.350;    0.000
657.175; 3267.925;  256.350;    0.000
657.290; 3120.925;  255.350;    0.000
657.405; 3126.925;  303.350;    0.000
657.520; 3152.925;  272.350;    0.000
657.634; 3072.925;  268.350;    0.000
657.749; 2966.925;  261.350;    0.000
657.864; 2910.925;  235.350;    0.000
657.979; 2803.925;  257.350;    0.000
658.093; 2824.925;  243.350;    0.000
658.208; 2854.925;  281.350;    0.000
658.323; 2711.925;  240.350;    0.000
658.437; 2739.925;  285.350;    0.000
658.552; 2748.925;  262.350;    0.000
658.666; 2700.925;  269.350;    0.000
658.781; 2765.925;  244.350;    0.000
658.895; 2528.925;  259.350;    0.000
659.010; 2568.925;  254.350;    0.000
659.125; 2502.925;  210.350;    0.000
659.239; 2532.925;  212.350;    0.000
659.353; 2563.925;  269.350;    0.000
659.468; 2438.925;  269.350;    0.000
659.582; 2484.925;  244.350;    0.000
659.697; 2487.925;  262.350;    0.000
659.811; 2428.925;  271.350;    0.000
659.926; 2398.925;  232.350;    0.000
660.040; 2359.925;  250.350;    0.000
660.154; 2320.925;  209.350;    0.000
660.269; 2384.925;  212.350;    0.000
660.383; 2282.925;  237.350;    0.000
660.497; 2331.925;  231.350;    0.000
660.612; 2286.925;  232.350;    0.000
660.726; 2376.925;  276.350;    0.000
660.840; 2256.925;  235.350;    0.000
660.954; 2231.925;  224.350;    0.000
661.068; 2258.925;  241.350;    0.000
661.183; 2215.925;  223.350;    0.000
661.297; 2202.925;  255.350;    0.000
661.411; 2156.925;  223.350;    0.000
661.525; 2132.925;  249.350;    0.000
661.639; 2175.925;  264.350;    0.000
661.753; 2096.925;  225.350;    0.000
661.867; 2195.925;  245.350;    0.000
661.981; 2076.925;  225.350;    0.000
662.095; 2148.925;  262.350;    0.000
662.209; 2060.925;  225.350;    0.000
662.323; 2026.925;  228.350;    0.000
662.437; 2018.925;  230.350;    0.000
662.551; 2008.925;  234.350;    0.000
662.665; 1956.925;  212.350;    0.000
662.779; 2054.925;  254.350;    0.000
662.893; 2073.925;  269.350;    0.000
663.007; 1931.925;  196.350;    0.000
663.121; 2042.925;  262.350;    0.000
663.235; 2014.925;  263.350;    0.000
663.349; 1987.925;  242.350;    0.000
663.462; 1969.925;  234.350;    0.000
663.576; 2002.925;  219.350;    0.000
663.690; 2023.925;  234.350;    0.000
663.804; 1957.925;  205.350;    0.000
663.917; 1906.925;  224.350;    0.000
664.031; 1895.925;  208.350;    0.000
664.145; 1909.925;  241.350;    0.000
664.258; 1884.925;  188.350;    0.000
664.372; 1899.925;  214.350;    0.000
664.486; 1827.925;  203.350;    0.000
664.599; 1924.925;  217.350;    0.000
664.713; 1951.925;  286.350;    0.000
664.827; 1870.925;  199.350;    0.000
664.940; 1890.925;  250.350;    0.000
665.054; 1932.925;  261.350;    0.000
665.167; 1910.925;  258.350;    0.000
665.281; 1892.925;  234.350;    0.000
665.394; 1893.925;  213.350;    0.000
665.508; 1807.925;  222.350;    0.000
665.621; 1820.925;  254.350;    0.000
665.735; 1855.925;  252.350;    0.000
665.848; 1912.925;  248.350;    0.000
665.961; 1855.925;  234.350;    0.000
666.075; 1816.925;  262.350;    0.000
666.188; 1816.925;  270.350;    0.000
666.301; 1840.925;  237.350;    0.000
666.415; 1800.925;  245.350;    0.000
666.528; 1844.925;  248.350;    0.000
666.641; 1756.925;  210.350;    0.000
666.755; 1766.925;  218.350;    0.000
666.868; 1744.925;  224.350;    0.000
666.981; 1802.925;  244.350;    0.000
667.094; 1816.925;  279.350;    0.000
667.207; 1724.925;  190.350;    0.000
667.321; 1753.925;  210.350;    0.000
667.434; 1830.925;  205.350;    0.000
667.547; 1847.925;  253.350;    0.000
667.660; 1716.925;  243.350;    0.000
667.773; 1750.925;  242.350;    0.000
667.886; 1797.925;  218.350;    0.000
667.999; 1813.925;  226.350;    0.000
668.112; 1744.925;  258.350;    0.000
668.225; 1710.925;  243.350;    0.000
668.338; 1723.925;  224.350;    0.000
668.451; 1759.925;  250.350;    0.000
668.564; 1735.925;  260.350;    0.000
668.677; 1792.925;  204.350;    0.000
668.790; 1703.925;  229.350;    0.000
668.903; 1732.925;  269.350;    0.000
669.016; 1700.925;  228.350;    0.000
669.129; 1704.925;  253.350;    0.000
669.242; 1642.925;  245.350;    0.000
669.354; 1728.925;  234.350;    0.000
669.467; 1658.925;  256.350;    0.000
669.580; 1666.925;  223.350;    0.000
669.693; 1652.925;  252.350;    0.000
669.806; 1687.925;  212.350;    0.000
669.918; 1646.925;  228.350;    0.000
670.031; 1671.925;  265.350;    0.000
670.144; 1661.925;  255.350;    0.000
670.256; 1676.925;  229.350;    0.000
670.369; 1722.925;  301.350;    0.000
670.482; 1689.925;  263.350;    0.000
670.594; 1678.925;  246.350;    0.000
670.707; 1695.925;  255.350;    0.000
670.820; 1650.925;  256.350;    0.000
670.932; 1583.925;  210.350;    0.000
671.045; 1693.925;  249.350;    0.000
671.157; 1663.925;  254.350;    0.000
671.270; 1716.925;  265.350;    0.000
671.382; 1603.925;  219.350;    0.000
671.495; 1696.925;  242.350;    0.000
671.607; 1691.925;  266.350;    0.000
671.720; 1586.925;  238.350;    0.000
671.832; 1636.925;  220.350;    0.000
671.944; 1618.925;  251.350;    0.000
672.057; 1656.925;  232.350;    0.000
672.169; 1624.925;  240.350;    0.000
672.281; 1653.925;  270.350;    0.000
672.394; 1616.925;  257.350;    0.000
672.506; 1579.925;  247.350;    0.000
672.618; 1614.925;  229.350;    0.000
672.731; 1638.925;  227.350;    0.000
672.843; 1681.925;  282.350;    0.000
672.955; 1616.925;  262.350;    0.000
673.067; 1662.925;  277.350;    0.000
673.180; 1641.925;  280.350;    0.000
673.292; 1619.925;  241.350;    0.000
673.404; 1601.925;  234.350;    0.000
673.516; 1614.925;  224.350;    0.000
673.628; 1617.925;  272.350;    0.000
673.740; 1575.925;  249.350;    0.000
673.852; 1658.925;  288.350;    0.000
673.964; 1619.925;  278.350;    0.000
674.076; 1615.925;  273.350;    0.000
674.188; 1581.925;  251.350;    0.000
674.300; 1660.925;  244.350;    0.000
674.412; 1585.925;  267.350;    0.000
674.524; 1698.925;  276.350;    0.000
674.636; 1556.925;  234.350;    0.000
674.748; 1595.925;  267.350;    0.000
674.860; 1532.925;  255.350;    0.000
674.972; 1631.925;  253.350;    0.000
675.084; 1563.925;  253.350;    0.000
675.196; 1670.925;  300.350;    0.000
675.307; 1622.925;  307.350;    0.000
675.419; 1466.925;  245.350;    0.000
675.531; 1628.925;  292.350;    0.000
675.643; 1524.925;  244.350;    0.000
675.755; 1623.925;  265.350;    0.000
675.866; 1547.925;  281.350;    0.000
675.978; 1507.925;  266.350;    0.000
676.090; 1542.925;  267.350;    0.000
676.201; 1518.925;  265.350;    0.000
676.313; 1528.925;  222.350;    0.000
676.425; 1566.925;  248.350;    0.000
676.536; 1616.925;  234.350;    0.000
676.648; 1587.925;  261.350;    0.000
676.759; 1599.925;  280.350;    0.000
676.871; 1574.925;  260.350;    0.000
676.983; 1527.925;  277.350;    0.000
677.094; 1584.925;  252.350;    0.000
677.206; 1494.925;  238.350;    0.000
677.317; 1546.925;  269.350;    0.000
677.429; 1523.925;  245.350;    0.000
677.540; 1528.925;  244.350;    0.000
677.651; 1498.925;  225.350;    0.000
677.763; 1497.925;  216.350;    0.000
677.874; 1497.925;  226.350;    0.000
677.986; 1538.925;  234.350;    0.000
678.097; 1506.925;  237.350;    0.000
678.208; 1445.925;  278.350;    0.000
678.320; 1539.925;  243.350;    0.000
678.431; 1487.925;  248.350;    0.000
678.542; 1437.925;  240.350;    0.000
678.653; 1445.925;  250.350;    0.000
678.765; 1499.925;  258.350;    0.000
678.876; 1488.925;  221.350;    0.000
678.987; 1462.925;  229.350;    0.000
679.098; 1467.925;  233.350;    0.000
679.209; 1485.925;  274.350;    0.000
679.320; 1458.925;  216.350;    0.000
679.432; 1488.925;  246.350;    0.000
679.543; 1499.925;  226.350;    0.000
679.654; 1480.925;  232.350;    0.000
679.765; 1429.925;  246.350;    0.000
679.876; 1487.925;  263.350;    0.000
679.987; 1418.925;  216.350;    0.000
680.098; 1480.925;  262.350;    0.000
680.209; 1458.925;  219.350;    0.000
680.320; 1497.925;  232.350;    0.000
680.431; 1516.925;  261.350;    0.000
680.542; 1439.925;  219.350;    0.000
680.653; 1544.925;  238.350;    0.000
680.763; 1469.925;  191.350;    0.000
680.874; 1493.925;  267.350;    0.000
680.985; 1416.925;  240.350;    0.000
681.096; 1446.925;  251.350;    0.000
681.207; 1440.925;  232.350;    0.000
681.318; 1449.925;  211.350;    0.000
681.428; 1455.925;  233.350;    0.000
681.539; 1420.925;  197.350;    0.000
681.650; 1457.925;  197.350;    0.000
681.760; 1436.925;  243.350;    0.000
681.871; 1463.925;  245.350;    0.000
681.982; 1474.925;  218.350;    0.000
682.093; 1462.925;  262.350;    0.000
682.203; 1485.925;  250.350;    0.000
682.314; 1456.925;  239.350;    0.000
682.424; 1442.925;  250.350;    0.000
682.535; 1421.925;  206.350;    0.000
682.646; 1461.925;  302.350;    0.000
682.756; 1423.925;  258.350;    0.000
682.867; 1428.925;  265.350;    0.000
682.977; 1453.925;  218.350;    0.000
683.088; 1441.925;  264.350;    0.000
683.198; 1421.925;  236.350;    0.000
683.308; 1370.925;  246.350;    0.000
683.419; 1428.925;  296.350;    0.000
683.529; 1407.925;  242.350;    0.000
683.640; 1413.925;  245.350;    0.000
683.750; 1405.925;  213.350;    0.000
683.860; 1481.925;  256.350;    0.000
683.971; 1544.925;  251.350;    0.000
684.081; 1412.925;  232.350;    0.000
684.191; 1487.925;  252.350;    0.000
684.301; 1431.925;  214.350;    0.000
684.412; 1431.925;  261.350;    0.000
684.522; 1458.925;  243.350;    0.000
684.632; 1422.925;  257.350;    0.000
684.742; 1406.925;  271.350;    0.000
684.852; 1412.925;  258.350;    0.000
684.963; 1436.925;  262.350;    0.000
685.073; 1413.925;  219.350;    0.000
685.183; 1473.925;  270.350;    0.000
685.293; 1413.925;  233.350;    0.000
685.403; 1428.925;  274.350;    0.000
685.513; 1466.925;  280.350;    0.000
685.623; 1369.925;  267.350;    0.000
685.733; 1463.925;  274.350;    0.000
685.843; 1469.925;  274.350;    0.000
685.953; 1426.925;  244.350;    0.000
686.063; 1487.925;  261.350;    0.000
686.173; 1413.925;  283.350;    0.000
686.283; 1462.925;  260.350;    0.000
686.393; 1413.925;  256.350;    0.000
686.503; 1433.925;  295.350;    0.000
686.612; 1366.925;  294.350;    0.000
686.722; 1459.925;  263.350;    0.000
686.832; 1411.925;  291.350;    0.000
686.942; 1381.925;  229.350;    0.000
687.052; 1477.925;  241.350;    0.000
687.161; 1473.925;  304.350;    0.000
687.271; 1550.925;  223.350;    0.000
687.381; 1398.925;  273.350;    0.000
687.491; 1459.925;  246.350;    0.000
687.600; 1381.925;  242.350;    0.000
687.710; 1433.925;  225.350;    0.000
687.820; 1465.925;  259.350;    0.000
687.929; 1415.925;  232.350;    0.000
688.039; 1424.925;  248.350;    0.000
688.148; 1455.925;  250.350;    0.000
688.258; 1443.925;  240.350;    0.000
688.367; 1427.925;  253.350;    0.000
688.477; 1396.925;  229.350;    0.000
688.586; 1368.925;  259.350;    0.000
688.696; 1396.925;  250.350;    0.000
688.805; 1446.925;  279.350;    0.000
688.915; 1408.925;  250.350;    0.000
689.024; 1428.925;  240.350;    0.000
689.134; 1398.925;  269.350;    0.000
689.243; 1322.925;  214.350;    0.000
689.352; 1403.925;  257.350;    0.000
689.462; 1406.925;  248.350;    0.000
689.571; 1426.925;  233.350;    0.000
689.680; 1483.925;  236.350;    0.000
689.790; 1379.925;  238.350;    0.000
689.899; 1382.925;  232.350;    0.000
690.008; 1427.925;  259.350;    0.000
690.117; 1411.925;  254.350;    0.000
690.227; 1378.925;  251.350;    0.000
690.336; 1358.925;  240.350;    0.000
690.445; 1389.925;  235.350;    0.000
690.554; 1382.925;  243.350;    0.000
690.663; 1376.925;  214.350;    0.000
690.772; 1435.925;  247.350;    0.000
690.881; 1403.925;  249.350;    0.000
690.990; 1391.925;  265.350;    0.000
691.099; 1351.925;  217.350;    0.000
691.209; 1394.925;  272.350;    0.000
691.318; 1368.925;  223.350;    0.000
691.427; 1320.925;  212.350;    0.000
691.536; 1348.925;  260.350;    0.000
691.644; 1382.925;  246.350;    0.000
691.753; 1403.925;  251.350;    0.000
691.862; 1424.925;  239.350;    0.000
691.971; 1400.925;  253.350;    0.000
692.080; 1372.925;  255.350;    0.000
692.189; 1333.925;  228.350;    0.000
692.298; 1384.925;  243.350;    0.000
692.406; 1352.925;  269.350;    0.000
692.515; 1424.925;  254.350;    0.000
692.624; 1332.925;  225.350;    0.000
692.733; 1385.925;  245.350;    0.000
692.842; 1386.925;  259.350;    0.000
692.950; 1328.925;  226.350;    0.000
693.059; 1386.925;  216.350;    0.000
693.168; 1410.925;  266.350;    0.000
693.276; 1353.925;  236.350;    0.000
693.385; 1403.925;  257.350;    0.000
693.494; 1440.925;  268.350;    0.000
693.602; 1349.925;  239.350;    0.000
693.711; 1415.925;  224.350;    0.000
693.819; 1351.925;  263.350;    0.000
693.928; 1314.925;  270.350;    0.000
694.036; 1358.925;  247.350;    0.000
694.145; 1431.925;  261.350;    0.000
694.253; 1452.925;  261.350;    0.000
694.362; 1370.925;  253.350;    0.000
694.470; 1411.925;  270.350;    0.000
694.579; 1409.925;  233.350;    0.000
694.687; 1452.925;  260.350;    0.000
694.795; 1368.925;  228.350;    0.000
694.904; 1349.925;  228.350;    0.000
695.012; 1380.925;  288.350;    0.000
695.120; 1393.925;  230.350;    0.000
695.229; 1398.925;  287.350;    0.000
695.337; 1364.925;  249.350;    0.000
695.445; 1387.925;  283.350;    0.000
695.553; 1400.925;  251.350;    0.000
695.662; 1357.925;  236.350;    0.000
695.770; 1325.925;  267.350;    0.000
695.878; 1386.925;  268.350;    0.000
695.986; 1364.925;  297.350;    0.000
696.094; 1364.925;  275.350;    0.000
696.202; 1307.925;  201.350;    0.000
696.310; 1347.925;  283.350;    0.000
696.419; 1397.925;  261.350;    0.000
696.527; 1384.925;  252.350;    0.000
696.635; 1378.925;  249.350;    0.000
696.743; 1372.925;  236.350;    0.000
696.851; 1392.925;  241.350;    0.000
696.959; 1453.925;  278.350;    0.000
697.067; 1370.925;  239.350;    0.000
697.174; 1391.925;  260.350;    0.000
697.282; 1400.925;  259.350;    0.000
697.390; 1428.925;  302.350;    0.000
697.498; 1337.925;  216.350;    0.000
697.606; 1375.925;  245.350;    0.000
697.714; 1376.925;  279.350;    0.000
697.822; 1366.925;  267.350;    0.000
697.929; 1326.925;  234.350;    0.000
698.037; 1281.925;  255.350;    0.000
698.145; 1406.925;  226.350;    0.000
698.253; 1338.925;  261.350;    0.000
698.360; 1381.925;  299.350;    0.000
698.468; 1377.925;  254.350;    0.000
698.576; 1385.925;  307.350;    0.000
698.683; 1407.925;  280.350;    0.000
698.791; 1417.925;  284.350;    0.000
698.899; 1355.925;  279.350;    0.000
699.006; 1373.925;  264.350;    0.000
699.114; 1401.925;  263.350;    0.000
699.221; 1352.925;  291.350;    0.000
699.329; 1383.925;  309.350;    0.000
699.436; 1354.925;  261.350;    0.000
699.544; 1351.925;  259.350;    0.000
699.651; 1289.925;  251.350;    0.000
699.759; 1394.925;  251.350;    0.000
699.866; 1370.925;  266.350;    0.000
699.974; 1339.925;  264.350;    0.000
700.081; 1416.925;  295.350;    0.000
700.188; 1395.925;  293.350;    0.000
700.296; 1365.925;  233.350;    0.000
700.403; 1361.925;  290.350;    0.000
700.510; 1336.925;  275.350;    0.000
700.618; 1324.925;  273.350;    0.000
700.725; 1324.925;  262.350;    0.000
700.832; 1367.925;  250.350;    0.000
700.940; 1427.925;  300.350;    0.000
701.047; 1306.925;  245.350;    0.000
701.154; 1396.925;  280.350;    0.000
701.261; 1358.925;  270.350;    0.000
701.368; 1374.925;  286.350;    0.000
701.475; 1308.925;  301.350;    0.000
701.582; 1367.925;  286.350;    0.000
701.690; 1398.925;  279.350;    0.000
701.797; 1411.925;  292.350;    0.000
701.904; 1423.925;  314.350;    0.000
702.011; 1422.925;  340.350;    0.000
702.118; 1416.925;  276.350;    0.000
702.225; 1353.925;  351.350;    0.000
702.332; 1334.925;  301.350;    0.000
702.439; 1414.925;  334.350;    0.000
702.546; 1437.925;  325.350;    0.000
702.652; 1418.925;  343.350;    0.000
702.759; 1445.925;  339.350;    0.000
702.866; 1351.925;  344.350;    0.000
702.973; 1401.925;  330.350;    0.000
703.080; 1465.925;  322.350;    0.000
703.187; 1411.925;  327.350;    0.000
703.294; 1419.925;  339.350;    0.000
703.400; 1322.925;  325.350;    0.000
703.507;  423.925;  372.350;    0.000
703.614;  305.925;  348.350;    0.000
703.720;  280.925;  333.350;    0.000
703.827;  288.925;  331.350;    0.000
703.934;  329.925;  330.350;    0.000
704.040;  300.925;  327.350;    0.000
704.147;  335.925;  327.350;    0.000
704.254;  340.925;  354.350;    0.000
704.360;  304.925;  337.350;    0.000
704.467;  335.925;  370.350;    0.000
704.573;  346.925;  367.350;    0.000
704.680;  316.925;  339.350;    0.000
704.786;  310.925;  356.350;    0.000
704.893;  300.925;  352.350;    0.000
704.999;  312.925;  332.350;    0.000
705.106;  359.925;  359.350;    0.000

