
Integration time [ms]:   0.300
Averaging Nr. [scans]: 1
Smoothing Nr. [pixels]: 0
Data measured with spectrometer [name]: UV2
Wave   ;Sample   ;Dark     ;Reference
[nm]   ;[counts] ;[counts] ;[counts] 

353.533;  226.925;  235.675;    0.000
353.597;  200.925;  239.675;    0.000
353.660;  226.925;  203.675;    0.000
353.723;  178.925;  225.675;    0.000
353.786;  199.925;  178.675;    0.000
353.850;  240.925;  199.675;    0.000
353.913;  179.925;  179.675;    0.000
353.976;  226.925;  209.675;    0.000
354.039;  230.925;  188.675;    0.000
354.102;  215.925;  219.675;    0.000
354.166;  225.925;  237.675;    0.000
354.229;  205.925;  179.675;    0.000
354.292;  180.925;  210.675;    0.000
354.355;  196.925;  214.675;    0.000
354.418;  179.925;  173.675;    0.000
354.481;  206.925;  170.675;    0.000
354.545;  530.925;  229.675;    0.000
354.608;  555.925;  233.675;    0.000
354.671;  559.925;  183.675;    0.000
354.734;  553.925;  208.675;    0.000
354.797;  534.925;  263.675;    0.000
354.860;  564.925;  208.675;    0.000
354.923;  625.925;  202.675;    0.000
354.986;  543.925;  207.675;    0.000
355.050;  640.925;  180.675;    0.000
355.113;  598.925;  189.675;    0.000
355.176;  597.925;  214.675;    0.000
355.239;  612.925;  199.675;    0.000
355.302;  591.925;  229.675;    0.000
355.365;  663.925;  220.675;    0.000
355.428;  640.925;  196.675;    0.000
355.491;  666.925;  243.675;    0.000
355.554;  637.925;  191.675;    0.000
355.617;  645.925;  200.675;    0.000
355.680;  697.925;  190.675;    0.000
355.743;  655.925;  236.675;    0.000
355.806;  660.925;  193.675;    0.000
355.869;  640.925;  223.675;    0.000
355.932;  680.925;  208.675;    0.000
355.995;  642.925;  231.675;    0.000
356.058;  711.925;  202.675;    0.000
356.121;  757.925;  198.675;    0.000
356.184;  691.925;  209.675;    0.000
356.247;  685.925;  224.675;    0.000
356.310;  730.925;  149.675;    0.000
356.373;  715.925;  211.675;    0.000
356.436;  726.925;  195.675;    0.000
356.498;  669.925;  176.675;    0.000
356.561;  680.925;  186.675;    0.000
356.624;  718.925;  184.675;    0.000
356.687;  647.925;  179.675;    0.000
356.750;  700.925;  213.675;    0.000
356.813;  730.925;  172.675;    0.000
356.876;  735.925;  189.675;    0.000
356.939;  704.925;  204.675;    0.000
357.001;  703.925;  195.675;    0.000
357.064;  765.925;  202.675;    0.000
357.127;  700.925;  176.675;    0.000
357.190;  747.925;  186.675;    0.000
357.253;  723.925;  178.675;    0.000
357.316;  741.925;  187.675;    0.000
357.378;  752.925;  181.675;    0.000
357.441;  717.925;  142.675;    0.000
357.504;  755.925;  161.675;    0.000
357.567;  683.925;  113.675;    0.000
357.629;  776.925;  193.675;    0.000
357.692;  717.925;  144.675;    0.000
357.755;  726.925;  177.675;    0.000
357.818;  693.925;  144.675;    0.000
357.880;  745.925;  182.675;    0.000
357.943;  721.925;  166.675;    0.000
358.006;  778.925;  184.675;    0.000
358.069;  744.925;  200.675;    0.000
358.131;  718.925;  148.675;    0.000
358.194;  786.925;  155.675;    0.000
358.257;  774.925;  173.675;    0.000
358.319;  762.925;  178.675;    0.000
358.382;  831.925;  184.675;    0.000
358.445;  792.925;  156.675;    0.000
358.507;  810.925;  199.675;    0.000
358.570;  770.925;  182.675;    0.000
358.633;  764.925;  167.675;    0.000
358.695;  743.925;  124.675;    0.000
358.758;  777.925;  164.675;    0.000
358.821;  748.925;  147.675;    0.000
358.883;  768.925;  153.675;    0.000
358.946;  765.925;  171.675;    0.000
359.008;  807.925;  196.675;    0.000
359.071;  776.925;  178.675;    0.000
359.134;  755.925;  123.675;    0.000
359.196;  847.925;  166.675;    0.000
359.259;  798.925;  173.675;    0.000
359.321;  761.925;  164.675;    0.000
359.384;  797.925;  155.675;    0.000
359.446;  743.925;  157.675;    0.000
359.509;  797.925;  153.675;    0.000
359.571;  802.925;  184.675;    0.000
359.634;  816.925;  138.675;    0.000
359.696;  766.925;  169.675;    0.000
359.759;  831.925;  152.675;    0.000
359.821;  816.925;  150.675;    0.000
359.884;  826.925;  166.675;    0.000
359.946;  839.925;  165.675;    0.000
360.009;  810.925;  176.675;    0.000
360.071;  751.925;  148.675;    0.000
360.134;  805.925;  193.675;    0.000
360.196;  782.925;  151.675;    0.000
360.259;  793.925;  182.675;    0.000
360.321;  818.925;  168.675;    0.000
360.384;  777.925;  176.675;    0.000
360.446;  778.925;  156.675;    0.000
360.508;  820.925;  183.675;    0.000
360.571;  770.925;  193.675;    0.000
360.633;  852.925;  184.675;    0.000
360.696;  776.925;  136.675;    0.000
360.758;  860.925;  186.675;    0.000
360.820;  859.925;  127.675;    0.000
360.883;  818.925;  146.675;    0.000
360.945;  825.925;  144.675;    0.000
361.007;  825.925;  160.675;    0.000
361.070;  869.925;  175.675;    0.000
361.132;  855.925;  195.675;    0.000
361.194;  862.925;  167.675;    0.000
361.257;  878.925;  140.675;    0.000
361.319;  810.925;  154.675;    0.000
361.381;  820.925;  181.675;    0.000
361.443;  839.925;  137.675;    0.000
361.506;  880.925;  159.675;    0.000
361.568;  874.925;  144.675;    0.000
361.630;  860.925;  189.675;    0.000
361.693;  825.925;  162.675;    0.000
361.755;  869.925;  156.675;    0.000
361.817;  893.925;  225.675;    0.000
361.879;  876.925;  172.675;    0.000
361.941;  885.925;  138.675;    0.000
362.004;  892.925;  163.675;    0.000
362.066;  902.925;  164.675;    0.000
362.128;  900.925;  160.675;    0.000
362.190;  853.925;  168.675;    0.000
362.252;  872.925;  177.675;    0.000
362.315;  879.925;  169.675;    0.000
362.377;  892.925;  188.675;    0.000
362.439;  861.925;  158.675;    0.000
362.501;  908.925;  168.675;    0.000
362.563;  913.925;  168.675;    0.000
362.625;  885.925;  188.675;    0.000
362.688;  907.925;  162.675;    0.000
362.750;  956.925;  209.675;    0.000
362.812;  903.925;  154.675;    0.000
362.874;  872.925;  190.675;    0.000
362.936;  920.925;  190.675;    0.000
362.998;  857.925;  143.675;    0.000
363.060;  895.925;  186.675;    0.000
363.122;  921.925;  167.675;    0.000
363.184;  927.925;  163.675;    0.000
363.246;  907.925;  169.675;    0.000
363.308;  886.925;  165.675;    0.000
363.370;  871.925;  177.675;    0.000
363.432;  892.925;  139.675;    0.000
363.494;  879.925;  177.675;    0.000
363.556;  999.925;  164.675;    0.000
363.618;  912.925;  170.675;    0.000
363.680;  933.925;  146.675;    0.000
363.742;  947.925;  179.675;    0.000
363.804;  915.925;  188.675;    0.000
363.866;  917.925;  186.675;    0.000
363.928;  867.925;  147.675;    0.000
363.990;  970.925;  185.675;    0.000
364.052;  957.925;  197.675;    0.000
364.114;  919.925;  150.675;    0.000
364.176;  932.925;  217.675;    0.000
364.238; 1013.925;  159.675;    0.000
364.300;  906.925;  192.675;    0.000
364.362;  888.925;  130.675;    0.000
364.424;  921.925;  131.675;    0.000
364.486;  955.925;  178.675;    0.000
364.548;  924.925;  203.675;    0.000
364.609;  954.925;  192.675;    0.000
364.671; 1013.925;  169.675;    0.000
364.733;  878.925;  169.675;    0.000
364.795;  925.925;  157.675;    0.000
364.857;  895.925;  171.675;    0.000
364.919;  914.925;  134.675;    0.000
364.981;  978.925;  162.675;    0.000
365.042;  900.925;  136.675;    0.000
365.104;  970.925;  152.675;    0.000
365.166;  913.925;  149.675;    0.000
365.228;  942.925;  195.675;    0.000
365.290;  950.925;  147.675;    0.000
365.351;  887.925;  138.675;    0.000
365.413;  946.925;  168.675;    0.000
365.475;  930.925;  150.675;    0.000
365.537;  956.925;  179.675;    0.000
365.598;  990.925;  177.675;    0.000
365.660;  979.925;  149.675;    0.000
365.722;  958.925;  160.675;    0.000
365.784;  930.925;  175.675;    0.000
365.845;  911.925;  149.675;    0.000
365.907;  890.925;  154.675;    0.000
365.969;  909.925;  128.675;    0.000
366.030; 1024.925;  176.675;    0.000
366.092;  944.925;  181.675;    0.000
366.154;  961.925;  194.675;    0.000
366.215;  968.925;  149.675;    0.000
366.277;  950.925;  144.675;    0.000
366.339;  953.925;  160.675;    0.000
366.400;  897.925;  144.675;    0.000
366.462;  962.925;  145.675;    0.000
366.524;  957.925;  148.675;    0.000
366.585;  988.925;  128.675;    0.000
366.647;  974.925;  156.675;    0.000
366.708;  920.925;  128.675;    0.000
366.770;  970.925;  188.675;    0.000
366.832;  978.925;  170.675;    0.000
366.893;  977.925;  158.675;    0.000
366.955;  978.925;  150.675;    0.000
367.016;  999.925;  160.675;    0.000
367.078;  956.925;  144.675;    0.000
367.139;  878.925;  109.675;    0.000
367.201;  946.925;  155.675;    0.000
367.262;  982.925;  165.675;    0.000
367.324;  989.925;  180.675;    0.000
367.385; 1021.925;  150.675;    0.000
367.447; 1004.925;  164.675;    0.000
367.508;  930.925;  137.675;    0.000
367.570;  954.925;  174.675;    0.000
367.631;  940.925;  126.675;    0.000
367.693;  938.925;  153.675;    0.000
367.754;  995.925;  194.675;    0.000
367.816;  926.925;  154.675;    0.000
367.877;  990.925;  183.675;    0.000
367.939; 1043.925;  179.675;    0.000
368.000;  990.925;  142.675;    0.000
368.062;  987.925;  147.675;    0.000
368.123;  992.925;  155.675;    0.000
368.184;  978.925;  169.675;    0.000
368.246; 1007.925;  145.675;    0.000
368.307;  966.925;  165.675;    0.000
368.369;  983.925;  177.675;    0.000
368.430; 1011.925;  161.675;    0.000
368.491;  974.925;  156.675;    0.000
368.553; 1011.925;  156.675;    0.000
368.614;  920.925;  186.675;    0.000
368.675; 1017.925;  154.675;    0.000
368.737;  993.925;  162.675;    0.000
368.798; 1064.925;  202.675;    0.000
368.859;  973.925;  162.675;    0.000
368.921; 1037.925;  171.675;    0.000
368.982; 1054.925;  193.675;    0.000
369.043; 1022.925;  207.675;    0.000
369.104; 1007.925;  143.675;    0.000
369.166; 1028.925;  203.675;    0.000
369.227;  998.925;  125.675;    0.000
369.288; 1054.925;  154.675;    0.000
369.349;  994.925;  187.675;    0.000
369.411; 1027.925;  191.675;    0.000
369.472;  961.925;  175.675;    0.000
369.533; 1010.925;  180.675;    0.000
369.594; 1006.925;  161.675;    0.000
369.656; 1040.925;  169.675;    0.000
369.717;  943.925;  103.675;    0.000
369.778; 1062.925;  159.675;    0.000
369.839; 1010.925;  146.675;    0.000
369.900; 1074.925;  218.675;    0.000
369.961; 1017.925;  200.675;    0.000
370.023; 1069.925;  177.675;    0.000
370.084; 1080.925;  149.675;    0.000
370.145;  998.925;  179.675;    0.000
370.206; 1078.925;  179.675;    0.000
370.267; 1026.925;  166.675;    0.000
370.328; 1016.925;  164.675;    0.000
370.389; 1025.925;  162.675;    0.000
370.451; 1024.925;  179.675;    0.000
370.512; 1032.925;  181.675;    0.000
370.573; 1014.925;  173.675;    0.000
370.634; 1055.925;  162.675;    0.000
370.695; 1036.925;  167.675;    0.000
370.756; 1019.925;  177.675;    0.000
370.817; 1069.925;  178.675;    0.000
370.878; 1030.925;  152.675;    0.000
370.939; 1059.925;  185.675;    0.000
371.000; 1059.925;  173.675;    0.000
371.061; 1111.925;  176.675;    0.000
371.122; 1062.925;  169.675;    0.000
371.183; 1008.925;  116.675;    0.000
371.244; 1067.925;  174.675;    0.000
371.305; 1045.925;  152.675;    0.000
371.366; 1057.925;  168.675;    0.000
371.427; 1088.925;  188.675;    0.000
371.488; 1113.925;  180.675;    0.000
371.549; 1029.925;  145.675;    0.000
371.610; 1004.925;  160.675;    0.000
371.671; 1032.925;  164.675;    0.000
371.732; 1057.925;  158.675;    0.000
371.793; 1096.925;  162.675;    0.000
371.853; 1074.925;  130.675;    0.000
371.914; 1057.925;  172.675;    0.000
371.975; 1057.925;   98.675;    0.000
372.036; 1050.925;  161.675;    0.000
372.097; 1095.925;  143.675;    0.000
372.158;  992.925;  175.675;    0.000
372.219; 1128.925;  196.675;    0.000
372.280; 1082.925;  175.675;    0.000
372.340; 1128.925;  160.675;    0.000
372.401; 1083.925;  163.675;    0.000
372.462; 1075.925;  147.675;    0.000
372.523; 1065.925;  146.675;    0.000
372.584; 1054.925;  173.675;    0.000
372.645; 1077.925;  126.675;    0.000
372.705; 1139.925;  179.675;    0.000
372.766; 1105.925;  173.675;    0.000
372.827; 1102.925;  171.675;    0.000
372.888; 1106.925;  134.675;    0.000
372.948; 1082.925;  167.675;    0.000
373.009; 1103.925;  167.675;    0.000
373.070; 1058.925;  152.675;    0.000
373.131; 1002.925;  177.675;    0.000
373.191; 1132.925;  225.675;    0.000
373.252; 1054.925;  165.675;    0.000
373.313; 1115.925;  171.675;    0.000
373.373; 1110.925;  160.675;    0.000
373.434; 1168.925;  172.675;    0.000
373.495; 1039.925;  150.675;    0.000
373.555; 1076.925;  130.675;    0.000
373.616; 1055.925;  155.675;    0.000
373.677; 1090.925;  212.675;    0.000
373.737; 1077.925;  188.675;    0.000
373.798; 1123.925;  203.675;    0.000
373.859; 1071.925;  169.675;    0.000
373.919; 1119.925;  197.675;    0.000
373.980; 1148.925;  134.675;    0.000
374.041; 1112.925;  186.675;    0.000
374.101; 1105.925;  207.675;    0.000
374.162; 1145.925;  190.675;    0.000
374.222; 1095.925;  182.675;    0.000
374.283; 1101.925;  213.675;    0.000
374.343; 1135.925;  191.675;    0.000
374.404; 1066.925;  181.675;    0.000
374.465; 1158.925;  193.675;    0.000
374.525; 1085.925;  153.675;    0.000
374.586; 1086.925;  190.675;    0.000
374.646; 1135.925;  173.675;    0.000
374.707; 1192.925;  210.675;    0.000
374.767; 1104.925;  218.675;    0.000
374.828; 1126.925;  174.675;    0.000
374.888; 1116.925;  197.675;    0.000
374.949; 1133.925;  196.675;    0.000
375.009; 1171.925;  169.675;    0.000
375.070; 1135.925;  157.675;    0.000
375.130; 1122.925;  203.675;    0.000
375.190; 1155.925;  174.675;    0.000
375.251; 1192.925;  230.675;    0.000
375.311; 1137.925;  198.675;    0.000
375.372; 1149.925;  160.675;    0.000
375.432; 1168.925;  169.675;    0.000
375.493; 1111.925;  159.675;    0.000
375.553; 1157.925;  179.675;    0.000
375.613; 1154.925;  157.675;    0.000
375.674; 1176.925;  174.675;    0.000
375.734; 1199.925;  180.675;    0.000
375.794; 1201.925;  175.675;    0.000
375.855; 1164.925;  193.675;    0.000
375.915; 1122.925;  148.675;    0.000
375.975; 1167.925;  183.675;    0.000
376.036; 1099.925;  144.675;    0.000
376.096; 1152.925;  195.675;    0.000
376.156; 1099.925;  200.675;    0.000
376.217; 1150.925;  160.675;    0.000
376.277; 1151.925;  193.675;    0.000
376.337; 1107.925;  168.675;    0.000
376.398; 1129.925;  183.675;    0.000
376.458; 1149.925;  168.675;    0.000
376.518; 1142.925;  184.675;    0.000
376.578; 1125.925;  176.675;    0.000
376.639; 1161.925;  158.675;    0.000
376.699; 1180.925;  157.675;    0.000
376.759; 1186.925;  184.675;    0.000
376.819; 1204.925;  166.675;    0.000
376.880; 1206.925;  220.675;    0.000
376.940; 1160.925;  195.675;    0.000
377.000; 1149.925;  178.675;    0.000
377.060; 1184.925;  212.675;    0.000
377.120; 1125.925;  161.675;    0.000
377.180; 1146.925;  168.675;    0.000
377.241; 1147.925;  167.675;    0.000
377.301; 1244.925;  171.675;    0.000
377.361; 1153.925;  174.675;    0.000
377.421; 1220.925;  216.675;    0.000
377.481; 1210.925;  164.675;    0.000
377.541; 1099.925;  163.675;    0.000
377.601; 1157.925;  197.675;    0.000
377.661; 1210.925;  175.675;    0.000
377.722; 1177.925;  196.675;    0.000
377.782; 1180.925;  162.675;    0.000
377.842; 1207.925;  179.675;    0.000
377.902; 1174.925;  140.675;    0.000
377.962; 1182.925;  121.675;    0.000
378.022; 1236.925;  174.675;    0.000
378.082; 1273.925;  167.675;    0.000
378.142; 1247.925;  151.675;    0.000
378.202; 1268.925;  174.675;    0.000
378.262; 1244.925;  168.675;    0.000
378.322; 1219.925;  183.675;    0.000
378.382; 1168.925;  159.675;    0.000
378.442; 1219.925;  177.675;    0.000
378.502; 1177.925;  137.675;    0.000
378.562; 1241.925;  140.675;    0.000
378.622; 1239.925;  197.675;    0.000
378.682; 1269.925;  205.675;    0.000
378.742; 1241.925;  160.675;    0.000
378.802; 1192.925;  132.675;    0.000
378.862; 1336.925;  222.675;    0.000
378.921; 1311.925;  178.675;    0.000
378.981; 1270.925;  160.675;    0.000
379.041; 1276.925;  136.675;    0.000
379.101; 1331.925;  184.675;    0.000
379.161; 1243.925;  147.675;    0.000
379.221; 1309.925;  139.675;    0.000
379.281; 1284.925;  204.675;    0.000
379.341; 1285.925;  142.675;    0.000
379.401; 1273.925;  136.675;    0.000
379.460; 1263.925;  161.675;    0.000
379.520; 1318.925;  171.675;    0.000
379.580; 1291.925;  168.675;    0.000
379.640; 1314.925;  183.675;    0.000
379.700; 1354.925;  182.675;    0.000
379.759; 1333.925;  190.675;    0.000
379.819; 1296.925;  149.675;    0.000
379.879; 1319.925;  140.675;    0.000
379.939; 1326.925;  155.675;    0.000
379.999; 1350.925;  199.675;    0.000
380.058; 1362.925;  163.675;    0.000
380.118; 1313.925;  190.675;    0.000
380.178; 1343.925;  220.675;    0.000
380.237; 1300.925;  181.675;    0.000
380.297; 1304.925;  187.675;    0.000
380.357; 1358.925;  193.675;    0.000
380.417; 1422.925;  157.675;    0.000
380.476; 1375.925;  176.675;    0.000
380.536; 1315.925;  180.675;    0.000
380.596; 1409.925;  191.675;    0.000
380.655; 1344.925;  190.675;    0.000
380.715; 1426.925;  180.675;    0.000
380.775; 1397.925;  202.675;    0.000
380.834; 1417.925;  190.675;    0.000
380.894; 1336.925;  163.675;    0.000
380.954; 1351.925;  181.675;    0.000
381.013; 1422.925;  218.675;    0.000
381.073; 1436.925;  181.675;    0.000
381.132; 1332.925;  193.675;    0.000
381.192; 1407.925;  209.675;    0.000
381.252; 1493.925;  206.675;    0.000
381.311; 1404.925;  173.675;    0.000
381.371; 1439.925;  188.675;    0.000
381.430; 1493.925;  162.675;    0.000
381.490; 1431.925;  168.675;    0.000
381.549; 1448.925;  213.675;    0.000
381.609; 1519.925;  194.675;    0.000
381.668; 1495.925;  190.675;    0.000
381.728; 1536.925;  183.675;    0.000
381.787; 1497.925;  172.675;    0.000
381.847; 1451.925;  198.675;    0.000
381.906; 1441.925;  197.675;    0.000
381.966; 1493.925;  201.675;    0.000
382.025; 1531.925;  219.675;    0.000
382.085; 1514.925;  194.675;    0.000
382.144; 1643.925;  187.675;    0.000
382.204; 1624.925;  196.675;    0.000
382.263; 1572.925;  168.675;    0.000
382.323; 1661.925;  135.675;    0.000
382.382; 1618.925;  173.675;    0.000
382.441; 1693.925;  155.675;    0.000
382.501; 1723.925;  168.675;    0.000
382.560; 1815.925;  200.675;    0.000
382.619; 1766.925;  155.675;    0.000
382.679; 1810.925;  198.675;    0.000
382.738; 1958.925;  211.675;    0.000
382.798; 2097.925;  214.675;    0.000
382.857; 2145.925;  146.675;    0.000
382.916; 2340.925;  183.675;    0.000
382.976; 2374.925;  173.675;    0.000
383.035; 2326.925;  165.675;    0.000
383.094; 2412.925;  173.675;    0.000
383.154; 2638.925;  143.675;    0.000
383.213; 2879.925;  173.675;    0.000
383.272; 2758.925;  166.675;    0.000
383.331; 2394.925;  154.675;    0.000
383.391; 2329.925;  232.675;    0.000
383.450; 2264.925;  185.675;    0.000
383.509; 2281.925;  204.675;    0.000
383.568; 2348.925;  197.675;    0.000
383.628; 2500.925;  171.675;    0.000
383.687; 2604.925;  202.675;    0.000
383.746; 2803.925;  116.675;    0.000
383.805; 3200.925;  156.675;    0.000
383.864; 3063.925;  150.675;    0.000
383.924; 2617.925;  195.675;    0.000
383.983; 2255.925;  157.675;    0.000
384.042; 2123.925;  184.675;    0.000
384.101; 2057.925;  210.675;    0.000
384.160; 1909.925;  123.675;    0.000
384.219; 1872.925;  191.675;    0.000
384.279; 1761.925;  184.675;    0.000
384.338; 1733.925;  172.675;    0.000
384.397; 1726.925;  153.675;    0.000
384.456; 1670.925;  181.675;    0.000
384.515; 1687.925;  171.675;    0.000
384.574; 1672.925;  172.675;    0.000
384.633; 1630.925;  174.675;    0.000
384.692; 1560.925;  178.675;    0.000
384.751; 1664.925;  180.675;    0.000
384.810; 1633.925;  161.675;    0.000
384.869; 1555.925;  162.675;    0.000
384.929; 1626.925;  157.675;    0.000
384.988; 1615.925;  153.675;    0.000
385.047; 1509.925;  178.675;    0.000
385.106; 1578.925;  164.675;    0.000
385.165; 1565.925;  127.675;    0.000
385.224; 1556.925;  156.675;    0.000
385.283; 1553.925;  178.675;    0.000
385.342; 1574.925;  177.675;    0.000
385.401; 1546.925;  178.675;    0.000
385.459; 1600.925;  177.675;    0.000
385.518; 1541.925;  152.675;    0.000
385.577; 1522.925;  133.675;    0.000
385.636; 1634.925;  204.675;    0.000
385.695; 1520.925;  161.675;    0.000
385.754; 1605.925;  190.675;    0.000
385.813; 1564.925;  160.675;    0.000
385.872; 1612.925;  138.675;    0.000
385.931; 1566.925;  192.675;    0.000
385.990; 1557.925;  158.675;    0.000
386.049; 1554.925;  187.675;    0.000
386.107; 1581.925;  140.675;    0.000
386.166; 1509.925;  139.675;    0.000
386.225; 1568.925;  182.675;    0.000
386.284; 1552.925;  123.675;    0.000
386.343; 1588.925;  207.675;    0.000
386.402; 1554.925;  150.675;    0.000
386.460; 1552.925;  185.675;    0.000
386.519; 1531.925;  145.675;    0.000
386.578; 1549.925;  153.675;    0.000
386.637; 1597.925;  153.675;    0.000
386.696; 1544.925;  189.675;    0.000
386.754; 1487.925;  128.675;    0.000
386.813; 1533.925;  202.675;    0.000
386.872; 1478.925;  152.675;    0.000
386.931; 1572.925;  166.675;    0.000
386.989; 1575.925;  194.675;    0.000
387.048; 1537.925;  176.675;    0.000
387.107; 1576.925;  203.675;    0.000
387.165; 1506.925;  136.675;    0.000
387.224; 1613.925;  193.675;    0.000
387.283; 1539.925;  157.675;    0.000
387.342; 1540.925;  194.675;    0.000
387.400; 1545.925;  191.675;    0.000
387.459; 1522.925;  142.675;    0.000
387.517; 1580.925;  202.675;    0.000
387.576; 1475.925;  164.675;    0.000
387.635; 1579.925;  147.675;    0.000
387.693; 1564.925;  199.675;    0.000
387.752; 1542.925;  181.675;    0.000
387.811; 1433.925;  161.675;    0.000
387.869; 1585.925;  184.675;    0.000
387.928; 1455.925;  175.675;    0.000
387.986; 1525.925;  143.675;    0.000
388.045; 1488.925;  146.675;    0.000
388.103; 1518.925;  164.675;    0.000
388.162; 1464.925;  170.675;    0.000
388.221; 1433.925;  169.675;    0.000
388.279; 1540.925;  151.675;    0.000
388.338; 1541.925;  175.675;    0.000
388.396; 1558.925;  170.675;    0.000
388.455; 1527.925;  193.675;    0.000
388.513; 1466.925;  134.675;    0.000
388.572; 1433.925;  201.675;    0.000
388.630; 1496.925;  181.675;    0.000
388.689; 1550.925;  165.675;    0.000
388.747; 1459.925;  164.675;    0.000
388.806; 1454.925;  155.675;    0.000
388.864; 1476.925;  172.675;    0.000
388.922; 1507.925;  190.675;    0.000
388.981; 1446.925;  170.675;    0.000
389.039; 1543.925;  142.675;    0.000
389.098; 1544.925;  177.675;    0.000
389.156; 1499.925;  184.675;    0.000
389.214; 1571.925;  197.675;    0.000
389.273; 1434.925;  141.675;    0.000
389.331; 1483.925;  145.675;    0.000
389.390; 1475.925;  160.675;    0.000
389.448; 1451.925;  142.675;    0.000
389.506; 1475.925;  192.675;    0.000
389.565; 1532.925;  176.675;    0.000
389.623; 1535.925;  174.675;    0.000
389.681; 1561.925;  184.675;    0.000
389.740; 1501.925;  193.675;    0.000
389.798; 1505.925;  130.675;    0.000
389.856; 1585.925;  224.675;    0.000
389.914; 1545.925;  223.675;    0.000
389.973; 1510.925;  164.675;    0.000
390.031; 1448.925;  198.675;    0.000
390.089; 1500.925;  177.675;    0.000
390.147; 1476.925;  158.675;    0.000
390.206; 1574.925;  213.675;    0.000
390.264; 1502.925;  178.675;    0.000
390.322; 1485.925;  181.675;    0.000
390.380; 1473.925;  148.675;    0.000
390.439; 1523.925;  185.675;    0.000
390.497; 1506.925;  208.675;    0.000
390.555; 1504.925;  175.675;    0.000
390.613; 1462.925;  178.675;    0.000
390.671; 1550.925;  190.675;    0.000
390.729; 1531.925;  172.675;    0.000
390.788; 1510.925;  194.675;    0.000
390.846; 1545.925;  187.675;    0.000
390.904; 1522.925;  207.675;    0.000
390.962; 1484.925;  211.675;    0.000
391.020; 1571.925;  218.675;    0.000
391.078; 1524.925;  179.675;    0.000
391.136; 1518.925;  223.675;    0.000
391.194; 1502.925;  209.675;    0.000
391.253; 1521.925;  217.675;    0.000
391.311; 1539.925;  217.675;    0.000
391.369; 1519.925;  217.675;    0.000
391.427; 1572.925;  253.675;    0.000
391.485; 1572.925;  176.675;    0.000
391.543; 1604.925;  252.675;    0.000
391.601; 1627.925;  168.675;    0.000
391.659; 1533.925;  206.675;    0.000
391.717; 1559.925;  172.675;    0.000
391.775; 1509.925;  170.675;    0.000
391.833; 1591.925;  196.675;    0.000
391.891; 1523.925;  180.675;    0.000
391.949; 1602.925;  201.675;    0.000
392.007; 1533.925;  196.675;    0.000
392.065; 1582.925;  191.675;    0.000
392.123; 1533.925;  158.675;    0.000
392.180; 1555.925;  192.675;    0.000
392.238; 1596.925;  186.675;    0.000
392.296; 1632.925;  150.675;    0.000
392.354; 1584.925;  175.675;    0.000
392.412; 1584.925;  219.675;    0.000
392.470; 1563.925;  200.675;    0.000
392.528; 1579.925;  177.675;    0.000
392.586; 1519.925;  169.675;    0.000
392.644; 1547.925;  155.675;    0.000
392.701; 1627.925;  215.675;    0.000
392.759; 1585.925;  218.675;    0.000
392.817; 1513.925;  178.675;    0.000
392.875; 1589.925;  190.675;    0.000
392.933; 1587.925;  197.675;    0.000
392.991; 1597.925;  179.675;    0.000
393.048; 1588.925;  205.675;    0.000
393.106; 1576.925;  229.675;    0.000
393.164; 1606.925;  167.675;    0.000
393.222; 1633.925;  156.675;    0.000
393.279; 1684.925;  203.675;    0.000
393.337; 1599.925;  216.675;    0.000
393.395; 1597.925;  180.675;    0.000
393.453; 1544.925;  163.675;    0.000
393.510; 1640.925;  194.675;    0.000
393.568; 1631.925;  207.675;    0.000
393.626; 1637.925;  200.675;    0.000
393.684; 1586.925;  234.675;    0.000
393.741; 1641.925;  197.675;    0.000
393.799; 1589.925;  201.675;    0.000
393.857; 1613.925;  185.675;    0.000
393.914; 1618.925;  200.675;    0.000
393.972; 1574.925;  181.675;    0.000
394.030; 1636.925;  188.675;    0.000
394.087; 1660.925;  202.675;    0.000
394.145; 1608.925;  214.675;    0.000
394.202; 1668.925;  204.675;    0.000
394.260; 1566.925;  178.675;    0.000
394.318; 1707.925;  208.675;    0.000
394.375; 1653.925;  183.675;    0.000
394.433; 1617.925;  175.675;    0.000
394.490; 1595.925;  170.675;    0.000
394.548; 1610.925;  161.675;    0.000
394.605; 1671.925;  196.675;    0.000
394.663; 1638.925;  191.675;    0.000
394.720; 1586.925;  179.675;    0.000
394.778; 1617.925;  193.675;    0.000
394.836; 1608.925;  160.675;    0.000
394.893; 1663.925;  152.675;    0.000
394.951; 1620.925;  179.675;    0.000
395.008; 1596.925;  185.675;    0.000
395.065; 1654.925;  154.675;    0.000
395.123; 1705.925;  176.675;    0.000
395.180; 1701.925;  202.675;    0.000
395.238; 1641.925;  135.675;    0.000
395.295; 1683.925;  178.675;    0.000
395.353; 1616.925;  181.675;    0.000
395.410; 1648.925;  160.675;    0.000
395.468; 1670.925;  179.675;    0.000
395.525; 1696.925;  187.675;    0.000
395.582; 1669.925;  221.675;    0.000
395.640; 1687.925;  220.675;    0.000
395.697; 1665.925;  174.675;    0.000
395.754; 1634.925;  177.675;    0.000
395.812; 1685.925;  193.675;    0.000
395.869; 1736.925;  220.675;    0.000
395.927; 1699.925;  206.675;    0.000
395.984; 1694.925;  213.675;    0.000
396.041; 1652.925;  194.675;    0.000
396.098; 1656.925;  144.675;    0.000
396.156; 1639.925;  168.675;    0.000
396.213; 1767.925;  181.675;    0.000
396.270; 1666.925;  186.675;    0.000
396.328; 1699.925;  165.675;    0.000
396.385; 1675.925;  192.675;    0.000
396.442; 1707.925;  196.675;    0.000
396.499; 1653.925;  162.675;    0.000
396.557; 1676.925;  177.675;    0.000
396.614; 1675.925;  184.675;    0.000
396.671; 1699.925;  180.675;    0.000
396.728; 1751.925;  194.675;    0.000
396.785; 1766.925;  173.675;    0.000
396.843; 1691.925;  154.675;    0.000
396.900; 1703.925;  200.675;    0.000
396.957; 1727.925;  158.675;    0.000
397.014; 1793.925;  203.675;    0.000
397.071; 1792.925;  178.675;    0.000
397.128; 1811.925;  201.675;    0.000
397.186; 1775.925;  200.675;    0.000
397.243; 1733.925;  187.675;    0.000
397.300; 1678.925;  173.675;    0.000
397.357; 1661.925;  189.675;    0.000
397.414; 1803.925;  202.675;    0.000
397.471; 1797.925;  156.675;    0.000
397.528; 1780.925;  197.675;    0.000
397.585; 1738.925;  174.675;    0.000
397.642; 1806.925;  202.675;    0.000
397.699; 1863.925;  197.675;    0.000
397.756; 1736.925;  188.675;    0.000
397.814; 1741.925;  210.675;    0.000
397.871; 1782.925;  203.675;    0.000
397.928; 1808.925;  189.675;    0.000
397.985; 1797.925;  192.675;    0.000
398.042; 1835.925;  198.675;    0.000
398.099; 1722.925;  181.675;    0.000
398.156; 1798.925;  201.675;    0.000
398.212; 1783.925;  216.675;    0.000
398.269; 1808.925;  206.675;    0.000
398.326; 1745.925;  213.675;    0.000
398.383; 1794.925;  168.675;    0.000
398.440; 1824.925;  184.675;    0.000
398.497; 1855.925;  194.675;    0.000
398.554; 1803.925;  219.675;    0.000
398.611; 1936.925;  190.675;    0.000
398.668; 1812.925;  138.675;    0.000
398.725; 1873.925;  170.675;    0.000
398.782; 1859.925;  223.675;    0.000
398.839; 1855.925;  211.675;    0.000
398.895; 1893.925;  173.675;    0.000
398.952; 1909.925;  207.675;    0.000
399.009; 1888.925;  173.675;    0.000
399.066; 1937.925;  171.675;    0.000
399.123; 1939.925;  189.675;    0.000
399.180; 1970.925;  170.675;    0.000
399.236; 1966.925;  193.675;    0.000
399.293; 1899.925;  222.675;    0.000
399.350; 1944.925;  195.675;    0.000
399.407; 1961.925;  214.675;    0.000
399.463; 1958.925;  181.675;    0.000
399.520; 2068.925;  168.675;    0.000
399.577; 2065.925;  231.675;    0.000
399.634; 2035.925;  215.675;    0.000
399.690; 2006.925;  177.675;    0.000
399.747; 2072.925;  212.675;    0.000
399.804; 2059.925;  208.675;    0.000
399.861; 2062.925;  225.675;    0.000
399.917; 2141.925;  191.675;    0.000
399.974; 2028.925;  182.675;    0.000
400.031; 1937.925;  218.675;    0.000
400.087; 2021.925;  202.675;    0.000
400.144; 2014.925;  192.675;    0.000
400.201; 2020.925;  187.675;    0.000
400.257; 2013.925;  193.675;    0.000
400.314; 2006.925;  185.675;    0.000
400.370; 2012.925;  201.675;    0.000
400.427; 1984.925;  208.675;    0.000
400.484; 1933.925;  201.675;    0.000
400.540; 1942.925;  204.675;    0.000
400.597; 1904.925;  210.675;    0.000
400.653; 1949.925;  224.675;    0.000
400.710; 1951.925;  196.675;    0.000
400.766; 1958.925;  224.675;    0.000
400.823; 1910.925;  210.675;    0.000
400.879; 1951.925;  213.675;    0.000
400.936; 1952.925;  182.675;    0.000
400.993; 1863.925;  184.675;    0.000
401.049; 1938.925;  216.675;    0.000
401.105; 1962.925;  235.675;    0.000
401.162; 1959.925;  196.675;    0.000
401.218; 1913.925;  221.675;    0.000
401.275; 1973.925;  216.675;    0.000
401.331; 1954.925;  198.675;    0.000
401.388; 1980.925;  205.675;    0.000
401.444; 1935.925;  154.675;    0.000
401.501; 1954.925;  208.675;    0.000
401.557; 1906.925;  162.675;    0.000
401.614; 1914.925;  157.675;    0.000
401.670; 1943.925;  198.675;    0.000
401.726; 1945.925;  195.675;    0.000
401.783; 1832.925;  186.675;    0.000
401.839; 1950.925;  205.675;    0.000
401.895; 1882.925;  202.675;    0.000
401.952; 1895.925;  143.675;    0.000
402.008; 1964.925;  177.675;    0.000
402.064; 1941.925;  177.675;    0.000
402.121; 2002.925;  194.675;    0.000
402.177; 1976.925;  181.675;    0.000
402.233; 1915.925;  205.675;    0.000
402.290; 1875.925;  190.675;    0.000
402.346; 1952.925;  190.675;    0.000
402.402; 1962.925;  151.675;    0.000
402.458; 2021.925;  194.675;    0.000
402.515; 1957.925;  212.675;    0.000
402.571; 1947.925;  209.675;    0.000
402.627; 1983.925;  199.675;    0.000
402.683; 1948.925;  213.675;    0.000
402.740; 1902.925;  165.675;    0.000
402.796; 1928.925;  168.675;    0.000
402.852; 2007.925;  200.675;    0.000
402.908; 1995.925;  193.675;    0.000
402.964; 1969.925;  166.675;    0.000
403.021; 1912.925;  196.675;    0.000
403.077; 1991.925;  212.675;    0.000
403.133; 1889.925;  186.675;    0.000
403.189; 2029.925;  206.675;    0.000
403.245; 2040.925;  207.675;    0.000
403.301; 2001.925;  204.675;    0.000
403.357; 2043.925;  246.675;    0.000
403.414; 1954.925;  227.675;    0.000
403.470; 2064.925;  207.675;    0.000
403.526; 1995.925;  171.675;    0.000
403.582; 2022.925;  200.675;    0.000
403.638; 1983.925;  213.675;    0.000
403.694; 2064.925;  239.675;    0.000
403.750; 2023.925;  221.675;    0.000
403.806; 2059.925;  197.675;    0.000
403.862; 2028.925;  222.675;    0.000
403.918; 1995.925;  174.675;    0.000
403.974; 2047.925;  183.675;    0.000
404.030; 2065.925;  184.675;    0.000
404.086; 2033.925;  170.675;    0.000
404.142; 2055.925;  215.675;    0.000
404.198; 2071.925;  189.675;    0.000
404.254; 2005.925;  195.675;    0.000
404.310; 2014.925;  206.675;    0.000
404.366; 2098.925;  179.675;    0.000
404.422; 2091.925;  197.675;    0.000
404.478; 2085.925;  176.675;    0.000
404.534; 2002.925;  165.675;    0.000
404.590; 2016.925;  203.675;    0.000
404.646; 1996.925;  195.675;    0.000
404.701; 2119.925;  180.675;    0.000
404.757; 2082.925;  218.675;    0.000
404.813; 2026.925;  160.675;    0.000
404.869; 2085.925;  213.675;    0.000
404.925; 2097.925;  171.675;    0.000
404.981; 2099.925;  194.675;    0.000
405.037; 2086.925;  211.675;    0.000
405.092; 2022.925;  158.675;    0.000
405.148; 2042.925;  140.675;    0.000
405.204; 2062.925;  161.675;    0.000
405.260; 2111.925;  161.675;    0.000
405.316; 2008.925;  155.675;    0.000
405.371; 2070.925;  151.675;    0.000
405.427; 2068.925;  186.675;    0.000
405.483; 2158.925;  206.675;    0.000
405.539; 2075.925;  162.675;    0.000
405.594; 2079.925;  205.675;    0.000
405.650; 2068.925;  153.675;    0.000
405.706; 2137.925;  185.675;    0.000
405.761; 2126.925;  205.675;    0.000
405.817; 2105.925;  185.675;    0.000
405.873; 2155.925;  160.675;    0.000
405.928; 2123.925;  182.675;    0.000
405.984; 2100.925;  206.675;    0.000
406.040; 2100.925;  200.675;    0.000
406.095; 2076.925;  138.675;    0.000
406.151; 2141.925;  178.675;    0.000
406.207; 2123.925;  225.675;    0.000
406.262; 2217.925;  161.675;    0.000
406.318; 2133.925;  186.675;    0.000
406.374; 2155.925;  173.675;    0.000
406.429; 2106.925;  197.675;    0.000
406.485; 2183.925;  260.675;    0.000
406.540; 2152.925;  184.675;    0.000
406.596; 2202.925;  193.675;    0.000
406.651; 2177.925;  176.675;    0.000
406.707; 2144.925;  158.675;    0.000
406.763; 2203.925;  174.675;    0.000
406.818; 2145.925;  188.675;    0.000
406.874; 2156.925;  176.675;    0.000
406.929; 2356.925;  220.675;    0.000
406.985; 2295.925;  167.675;    0.000
407.040; 2259.925;  191.675;    0.000
407.095; 2276.925;  190.675;    0.000
407.151; 2335.925;  196.675;    0.000
407.206; 2287.925;  184.675;    0.000
407.262; 2309.925;  167.675;    0.000
407.317; 2337.925;  199.675;    0.000
407.373; 2431.925;  211.675;    0.000
407.428; 2357.925;  202.675;    0.000
407.484; 2367.925;  172.675;    0.000
407.539; 2314.925;  171.675;    0.000
407.594; 2390.925;  219.675;    0.000
407.650; 2313.925;  179.675;    0.000
407.705; 2280.925;  141.675;    0.000
407.760; 2369.925;  182.675;    0.000
407.816; 2378.925;  203.675;    0.000
407.871; 2324.925;  219.675;    0.000
407.926; 2346.925;  197.675;    0.000
407.982; 2247.925;  176.675;    0.000
408.037; 2354.925;  187.675;    0.000
408.092; 2358.925;  161.675;    0.000
408.148; 2261.925;  185.675;    0.000
408.203; 2372.925;  196.675;    0.000
408.258; 2337.925;  188.675;    0.000
408.314; 2370.925;  225.675;    0.000
408.369; 2362.925;  172.675;    0.000
408.424; 2350.925;  204.675;    0.000
408.479; 2335.925;  182.675;    0.000
408.534; 2308.925;  220.675;    0.000
408.590; 2298.925;  196.675;    0.000
408.645; 2342.925;  170.675;    0.000
408.700; 2444.925;  204.675;    0.000
408.755; 2291.925;  219.675;    0.000
408.810; 2293.925;  174.675;    0.000
408.866; 2276.925;  212.675;    0.000
408.921; 2316.925;  233.675;    0.000
408.976; 2221.925;  198.675;    0.000
409.031; 2269.925;  179.675;    0.000
409.086; 2278.925;  181.675;    0.000
409.141; 2345.925;  192.675;    0.000
409.196; 2235.925;  172.675;    0.000
409.252; 2276.925;  199.675;    0.000
409.307; 2282.925;  159.675;    0.000
409.362; 2296.925;  158.675;    0.000
409.417; 2264.925;  164.675;    0.000
409.472; 2337.925;  186.675;    0.000
409.527; 2273.925;  215.675;    0.000
409.582; 2324.925;  227.675;    0.000
409.637; 2233.925;  211.675;    0.000
409.692; 2275.925;  224.675;    0.000
409.747; 2244.925;  147.675;    0.000
409.802; 2282.925;  203.675;    0.000
409.857; 2247.925;  203.675;    0.000
409.912; 2258.925;  219.675;    0.000
409.967; 2275.925;  200.675;    0.000
410.022; 2373.925;  199.675;    0.000
410.077; 2230.925;  171.675;    0.000
410.132; 2277.925;  193.675;    0.000
410.187; 2282.925;  167.675;    0.000
410.242; 2187.925;  188.675;    0.000
410.297; 2228.925;  195.675;    0.000
410.351; 2246.925;  225.675;    0.000
410.406; 2344.925;  188.675;    0.000
410.461; 2292.925;  197.675;    0.000
410.516; 2341.925;  212.675;    0.000
410.571; 2277.925;  173.675;    0.000
410.626; 2254.925;  180.675;    0.000
410.681; 2313.925;  198.675;    0.000
410.736; 2263.925;  190.675;    0.000
410.790; 2318.925;  204.675;    0.000
410.845; 2270.925;  214.675;    0.000
410.900; 2272.925;  184.675;    0.000
410.955; 2326.925;  231.675;    0.000
411.010; 2261.925;  211.675;    0.000
411.064; 2234.925;  204.675;    0.000
411.119; 2344.925;  219.675;    0.000
411.174; 2355.925;  208.675;    0.000
411.229; 2320.925;  207.675;    0.000
411.283; 2278.925;  199.675;    0.000
411.338; 2348.925;  198.675;    0.000
411.393; 2257.925;  155.675;    0.000
411.447; 2319.925;  200.675;    0.000
411.502; 2291.925;  229.675;    0.000
411.557; 2342.925;  197.675;    0.000
411.612; 2329.925;  171.675;    0.000
411.666; 2234.925;  201.675;    0.000
411.721; 2229.925;  174.675;    0.000
411.776; 2295.925;  222.675;    0.000
411.830; 2268.925;  150.675;    0.000
411.885; 2374.925;  169.675;    0.000
411.939; 2364.925;  216.675;    0.000
411.994; 2258.925;  215.675;    0.000
412.049; 2293.925;  219.675;    0.000
412.103; 2433.925;  225.675;    0.000
412.158; 2366.925;  216.675;    0.000
412.212; 2293.925;  218.675;    0.000
412.267; 2336.925;  219.675;    0.000
412.322; 2336.925;  235.675;    0.000
412.376; 2244.925;  208.675;    0.000
412.431; 2332.925;  232.675;    0.000
412.485; 2260.925;  223.675;    0.000
412.540; 2333.925;  217.675;    0.000
412.594; 2351.925;  195.675;    0.000
412.649; 2355.925;  236.675;    0.000
412.703; 2241.925;  216.675;    0.000
412.758; 2265.925;  201.675;    0.000
412.812; 2316.925;  176.675;    0.000
412.866; 2279.925;  179.675;    0.000
412.921; 2369.925;  196.675;    0.000
412.975; 2288.925;  238.675;    0.000
413.030; 2280.925;  272.675;    0.000
413.084; 2257.925;  208.675;    0.000
413.139; 2365.925;  201.675;    0.000
413.193; 2260.925;  198.675;    0.000
413.247; 2293.925;  213.675;    0.000
413.302; 2235.925;  202.675;    0.000
413.356; 2354.925;  184.675;    0.000
413.410; 2266.925;  202.675;    0.000
413.465; 2247.925;  145.675;    0.000
413.519; 2272.925;  200.675;    0.000
413.573; 2283.925;  197.675;    0.000
413.628; 2402.925;  224.675;    0.000
413.682; 2230.925;  211.675;    0.000
413.736; 2263.925;  202.675;    0.000
413.791; 2277.925;  228.675;    0.000
413.845; 2337.925;  184.675;    0.000
413.899; 2282.925;  226.675;    0.000
413.953; 2340.925;  213.675;    0.000
414.008; 2313.925;  175.675;    0.000
414.062; 2320.925;  216.675;    0.000
414.116; 2234.925;  206.675;    0.000
414.170; 2286.925;  229.675;    0.000
414.225; 2253.925;  196.675;    0.000
414.279; 2326.925;  199.675;    0.000
414.333; 2303.925;  220.675;    0.000
414.387; 2350.925;  217.675;    0.000
414.441; 2306.925;  206.675;    0.000
414.496; 2316.925;  264.675;    0.000
414.550; 2300.925;  217.675;    0.000
414.604; 2381.925;  224.675;    0.000
414.658; 2242.925;  156.675;    0.000
414.712; 2252.925;  203.675;    0.000
414.766; 2419.925;  216.675;    0.000
414.820; 2319.925;  218.675;    0.000
414.874; 2332.925;  240.675;    0.000
414.928; 2366.925;  204.675;    0.000
414.982; 2281.925;  195.675;    0.000
415.037; 2329.925;  212.675;    0.000
415.091; 2243.925;  211.675;    0.000
415.145; 2319.925;  230.675;    0.000
415.199; 2290.925;  208.675;    0.000
415.253; 2280.925;  213.675;    0.000
415.307; 2292.925;  208.675;    0.000
415.361; 2289.925;  193.675;    0.000
415.415; 2311.925;  207.675;    0.000
415.469; 2370.925;  214.675;    0.000
415.523; 2431.925;  226.675;    0.000
415.577; 2293.925;  194.675;    0.000
415.631; 2402.925;  258.675;    0.000
415.684; 2401.925;  239.675;    0.000
415.738; 2360.925;  191.675;    0.000
415.792; 2309.925;  185.675;    0.000
415.846; 2296.925;  239.675;    0.000
415.900; 2302.925;  209.675;    0.000
415.954; 2392.925;  215.675;    0.000
416.008; 2415.925;  229.675;    0.000
416.062; 2242.925;  200.675;    0.000
416.116; 2259.925;  195.675;    0.000
416.169; 2312.925;  238.675;    0.000
416.223; 2359.925;  271.675;    0.000
416.277; 2311.925;  232.675;    0.000
416.331; 2312.925;  226.675;    0.000
416.385; 2385.925;  207.675;    0.000
416.439; 2249.925;  221.675;    0.000
416.492; 2397.925;  269.675;    0.000
416.546; 2313.925;  254.675;    0.000
416.600; 2285.925;  225.675;    0.000
416.654; 2288.925;  269.675;    0.000
416.707; 2324.925;  232.675;    0.000
416.761; 2256.925;  226.675;    0.000
416.815; 2358.925;  219.675;    0.000
416.869; 2288.925;  234.675;    0.000
416.922; 2351.925;  230.675;    0.000
416.976; 2273.925;  216.675;    0.000
417.030; 2307.925;  271.675;    0.000
417.083; 2308.925;  229.675;    0.000
417.137; 2291.925;  249.675;    0.000
417.191; 2313.925;  241.675;    0.000
417.244; 2266.925;  230.675;    0.000
417.298; 2325.925;  215.675;    0.000
417.352; 2357.925;  188.675;    0.000
417.405; 2203.925;  248.675;    0.000
417.459; 2334.925;  256.675;    0.000
417.512; 2294.925;  263.675;    0.000
417.566; 2272.925;  227.675;    0.000
417.620; 2340.925;  270.675;    0.000
417.673; 2247.925;  216.675;    0.000
417.727; 2274.925;  234.675;    0.000
417.780; 2298.925;  215.675;    0.000
417.834; 2275.925;  203.675;    0.000
417.887; 2323.925;  257.675;    0.000
417.941; 2303.925;  216.675;    0.000
417.994; 2232.925;  245.675;    0.000
418.048; 2338.925;  209.675;    0.000
418.101; 2321.925;  207.675;    0.000
418.155; 2305.925;  204.675;    0.000
418.208; 2277.925;  270.675;    0.000
418.262; 2329.925;  228.675;    0.000
418.315; 2388.925;  254.675;    0.000
418.369; 2292.925;  245.675;    0.000
418.422; 2280.925;  224.675;    0.000
418.476; 2308.925;  221.675;    0.000
418.529; 2294.925;  234.675;    0.000
418.582; 2319.925;  249.675;    0.000
418.636; 2293.925;  224.675;    0.000
418.689; 2341.925;  228.675;    0.000
418.743; 2333.925;  240.675;    0.000
418.796; 2336.925;  197.675;    0.000
418.849; 2267.925;  220.675;    0.000
418.903; 2332.925;  246.675;    0.000
418.956; 2348.925;  250.675;    0.000
419.009; 2322.925;  276.675;    0.000
419.063; 2319.925;  232.675;    0.000
419.116; 2231.925;  228.675;    0.000
419.169; 2297.925;  249.675;    0.000
419.222; 2311.925;  215.675;    0.000
419.276; 2284.925;  228.675;    0.000
419.329; 2315.925;  246.675;    0.000
419.382; 2253.925;  188.675;    0.000
419.435; 2242.925;  240.675;    0.000
419.489; 2319.925;  261.675;    0.000
419.542; 2191.925;  224.675;    0.000
419.595; 2275.925;  251.675;    0.000
419.648; 2394.925;  236.675;    0.000
419.701; 2216.925;  244.675;    0.000
419.755; 2229.925;  242.675;    0.000
419.808; 2295.925;  242.675;    0.000
419.861; 2205.925;  189.675;    0.000
419.914; 2284.925;  258.675;    0.000
419.967; 2211.925;  230.675;    0.000
420.020; 2264.925;  223.675;    0.000
420.073; 2279.925;  221.675;    0.000
420.127; 2270.925;  252.675;    0.000
420.180; 2215.925;  219.675;    0.000
420.233; 2249.925;  201.675;    0.000
420.286; 2209.925;  221.675;    0.000
420.339; 2261.925;  250.675;    0.000
420.392; 2186.925;  268.675;    0.000
420.445; 2229.925;  223.675;    0.000
420.498; 2184.925;  240.675;    0.000
420.551; 2260.925;  220.675;    0.000
420.604; 2216.925;  231.675;    0.000
420.657; 2138.925;  228.675;    0.000
420.710; 2176.925;  219.675;    0.000
420.763; 2215.925;  280.675;    0.000
420.816; 2127.925;  202.675;    0.000
420.869; 2217.925;  219.675;    0.000
420.922; 2128.925;  218.675;    0.000
420.975; 2187.925;  237.675;    0.000
421.028; 2223.925;  242.675;    0.000
421.081; 2199.925;  247.675;    0.000
421.134; 2114.925;  239.675;    0.000
421.187; 2211.925;  229.675;    0.000
421.239; 2093.925;  200.675;    0.000
421.292; 2159.925;  205.675;    0.000
421.345; 2181.925;  219.675;    0.000
421.398; 2196.925;  187.675;    0.000
421.451; 2217.925;  226.675;    0.000
421.504; 2180.925;  206.675;    0.000
421.557; 2117.925;  226.675;    0.000
421.609; 2090.925;  209.675;    0.000
421.662; 2227.925;  229.675;    0.000
421.715; 2228.925;  231.675;    0.000
421.768; 2143.925;  215.675;    0.000
421.821; 2172.925;  211.675;    0.000
421.873; 2110.925;  220.675;    0.000
421.926; 2177.925;  212.675;    0.000
421.979; 2191.925;  209.675;    0.000
422.032; 2171.925;  203.675;    0.000
422.084; 2133.925;  213.675;    0.000
422.137; 2158.925;  196.675;    0.000
422.190; 2196.925;  246.675;    0.000
422.243; 2065.925;  194.675;    0.000
422.295; 2139.925;  225.675;    0.000
422.348; 2142.925;  248.675;    0.000
422.401; 2120.925;  252.675;    0.000
422.453; 2167.925;  249.675;    0.000
422.506; 2184.925;  233.675;    0.000
422.559; 2099.925;  228.675;    0.000
422.611; 2156.925;  224.675;    0.000
422.664; 2139.925;  226.675;    0.000
422.716; 2175.925;  226.675;    0.000
422.769; 2129.925;  216.675;    0.000
422.822; 2165.925;  256.675;    0.000
422.874; 2095.925;  206.675;    0.000
422.927; 2175.925;  257.675;    0.000
422.979; 2109.925;  209.675;    0.000
423.032; 2136.925;  244.675;    0.000
423.084; 2032.925;  244.675;    0.000
423.137; 2065.925;  213.675;    0.000
423.189; 2167.925;  208.675;    0.000
423.242; 2150.925;  226.675;    0.000
423.294; 2151.925;  250.675;    0.000
423.347; 2101.925;  206.675;    0.000
423.399; 2118.925;  268.675;    0.000
423.452; 2099.925;  262.675;    0.000
423.504; 2192.925;  237.675;    0.000
423.557; 2063.925;  245.675;    0.000
423.609; 2074.925;  211.675;    0.000
423.662; 2116.925;  222.675;    0.000
423.714; 2121.925;  219.675;    0.000
423.766; 2093.925;  250.675;    0.000
423.819; 2109.925;  220.675;    0.000
423.871; 2074.925;  229.675;    0.000
423.923; 1999.925;  219.675;    0.000
423.976; 2080.925;  221.675;    0.000
424.028; 2026.925;  211.675;    0.000
424.081; 2108.925;  254.675;    0.000
424.133; 2102.925;  230.675;    0.000
424.185; 2157.925;  241.675;    0.000
424.238; 2117.925;  182.675;    0.000
424.290; 2042.925;  215.675;    0.000
424.342; 1997.925;  235.675;    0.000
424.394; 2076.925;  225.675;    0.000
424.447; 2056.925;  264.675;    0.000
424.499; 2076.925;  225.675;    0.000
424.551; 2046.925;  237.675;    0.000
424.603; 2074.925;  219.675;    0.000
424.656; 2079.925;  240.675;    0.000
424.708; 2055.925;  266.675;    0.000
424.760; 2039.925;  230.675;    0.000
424.812; 2074.925;  284.675;    0.000
424.864; 1996.925;  189.675;    0.000
424.917; 2049.925;  226.675;    0.000
424.969; 2103.925;  253.675;    0.000
425.021; 2149.925;  233.675;    0.000
425.073; 2052.925;  246.675;    0.000
425.125; 2147.925;  238.675;    0.000
425.177; 2030.925;  253.675;    0.000
425.229; 2045.925;  254.675;    0.000
425.282; 2036.925;  252.675;    0.000
425.334; 2129.925;  261.675;    0.000
425.386; 2091.925;  227.675;    0.000
425.438; 2066.925;  246.675;    0.000
425.490; 2054.925;  249.675;    0.000
425.542; 2039.925;  236.675;    0.000
425.594; 2008.925;  236.675;    0.000
425.646; 2087.925;  237.675;    0.000
425.698; 2008.925;  271.675;    0.000
425.750; 2004.925;  240.675;    0.000
425.802; 1929.925;  238.675;    0.000
425.854; 2039.925;  256.675;    0.000
425.906; 2067.925;  230.675;    0.000
425.958; 2035.925;  231.675;    0.000
426.010; 2017.925;  268.675;    0.000
426.062; 2032.925;  227.675;    0.000
426.114; 2071.925;  234.675;    0.000
426.166; 2011.925;  239.675;    0.000
426.218; 2027.925;  255.675;    0.000
426.270; 1934.925;  196.675;    0.000
426.321; 1985.925;  231.675;    0.000
426.373; 1983.925;  199.675;    0.000
426.425; 2029.925;  245.675;    0.000
426.477; 1997.925;  259.675;    0.000
426.529; 2088.925;  274.675;    0.000
426.581; 1976.925;  221.675;    0.000
426.633; 2009.925;  231.675;    0.000
426.684; 2010.925;  248.675;    0.000
426.736; 1996.925;  237.675;    0.000
426.788; 1927.925;  191.675;    0.000
426.840; 1989.925;  180.675;    0.000
426.892; 2002.925;  259.675;    0.000
426.943; 2028.925;  256.675;    0.000
426.995; 2001.925;  212.675;    0.000
427.047; 2013.925;  233.675;    0.000
427.099; 1952.925;  222.675;    0.000
427.150; 1980.925;  203.675;    0.000
427.202; 1981.925;  218.675;    0.000
427.254; 1910.925;  198.675;    0.000
427.306; 1960.925;  248.675;    0.000
427.357; 1985.925;  239.675;    0.000
427.409; 2015.925;  193.675;    0.000
427.461; 1928.925;  215.675;    0.000
427.512; 1970.925;  251.675;    0.000
427.564; 1913.925;  210.675;    0.000
427.616; 1930.925;  251.675;    0.000
427.667; 1953.925;  246.675;    0.000
427.719; 1967.925;  227.675;    0.000
427.770; 1970.925;  247.675;    0.000
427.822; 1984.925;  261.675;    0.000
427.874; 1978.925;  231.675;    0.000
427.925; 1984.925;  231.675;    0.000
427.977; 1973.925;  243.675;    0.000
428.028; 1952.925;  249.675;    0.000
428.080; 1981.925;  224.675;    0.000
428.131; 1946.925;  247.675;    0.000
428.183; 1917.925;  213.675;    0.000
428.234; 1894.925;  213.675;    0.000
428.286; 1943.925;  224.675;    0.000
428.337; 1914.925;  212.675;    0.000
428.389; 2004.925;  231.675;    0.000
428.440; 2010.925;  248.675;    0.000
428.492; 1926.925;  242.675;    0.000
428.543; 1943.925;  220.675;    0.000
428.595; 1902.925;  212.675;    0.000
428.646; 1889.925;  231.675;    0.000
428.697; 1992.925;  232.675;    0.000
428.749; 1964.925;  231.675;    0.000
428.800; 1885.925;  270.675;    0.000
428.852; 1940.925;  266.675;    0.000
428.903; 1890.925;  215.675;    0.000
428.954; 1891.925;  200.675;    0.000
429.006; 1907.925;  247.675;    0.000
429.057; 1976.925;  247.675;    0.000
429.108; 1903.925;  193.675;    0.000
429.160; 1876.925;  249.675;    0.000
429.211; 1891.925;  228.675;    0.000
429.262; 1937.925;  243.675;    0.000
429.314; 1963.925;  227.675;    0.000
429.365; 1889.925;  242.675;    0.000
429.416; 1931.925;  240.675;    0.000
429.467; 1913.925;  222.675;    0.000
429.519; 1928.925;  233.675;    0.000
429.570; 1883.925;  223.675;    0.000
429.621; 1886.925;  257.675;    0.000
429.672; 1857.925;  220.675;    0.000
429.724; 1874.925;  203.675;    0.000
429.775; 1989.925;  242.675;    0.000
429.826; 1881.925;  195.675;    0.000
429.877; 1928.925;  248.675;    0.000
429.928; 1902.925;  226.675;    0.000
429.980; 1826.925;  189.675;    0.000
430.031; 1880.925;  223.675;    0.000
430.082; 1844.925;  217.675;    0.000
430.133; 1857.925;  210.675;    0.000
430.184; 1868.925;  271.675;    0.000
430.235; 1850.925;  190.675;    0.000
430.286; 1869.925;  233.675;    0.000
430.337; 1837.925;  232.675;    0.000
430.388; 1872.925;  221.675;    0.000
430.439; 1841.925;  221.675;    0.000
430.490; 1900.925;  229.675;    0.000
430.542; 1812.925;  196.675;    0.000
430.593; 1828.925;  214.675;    0.000
430.644; 1759.925;  224.675;    0.000
430.695; 1826.925;  216.675;    0.000
430.746; 1841.925;  228.675;    0.000
430.797; 1819.925;  190.675;    0.000
430.848; 1815.925;  231.675;    0.000
430.898; 1873.925;  232.675;    0.000
430.949; 1958.925;  224.675;    0.000
431.000; 1824.925;  236.675;    0.000
431.051; 1877.925;  251.675;    0.000
431.102; 1833.925;  205.675;    0.000
431.153; 1870.925;  212.675;    0.000
431.204; 1832.925;  200.675;    0.000
431.255; 1865.925;  220.675;    0.000
431.306; 1782.925;  223.675;    0.000
431.357; 1808.925;  240.675;    0.000
431.408; 1846.925;  232.675;    0.000
431.458; 1879.925;  204.675;    0.000
431.509; 1820.925;  196.675;    0.000
431.560; 1870.925;  243.675;    0.000
431.611; 1859.925;  222.675;    0.000
431.662; 1826.925;  246.675;    0.000
431.713; 1883.925;  188.675;    0.000
431.763; 1893.925;  226.675;    0.000
431.814; 1856.925;  239.675;    0.000
431.865; 1811.925;  245.675;    0.000
431.916; 1858.925;  173.675;    0.000
431.966; 1827.925;  220.675;    0.000
432.017; 1866.925;  247.675;    0.000
432.068; 1915.925;  241.675;    0.000
432.118; 1905.925;  220.675;    0.000
432.169; 1922.925;  244.675;    0.000
432.220; 1809.925;  246.675;    0.000
432.271; 1808.925;  203.675;    0.000
432.321; 1867.925;  244.675;    0.000
432.372; 1818.925;  254.675;    0.000
432.423; 1810.925;  224.675;    0.000
432.473; 1814.925;  211.675;    0.000
432.524; 1869.925;  227.675;    0.000
432.574; 1843.925;  228.675;    0.000
432.625; 1850.925;  223.675;    0.000
432.676; 1898.925;  220.675;    0.000
432.726; 1874.925;  257.675;    0.000
432.777; 1800.925;  257.675;    0.000
432.827; 1823.925;  240.675;    0.000
432.878; 1840.925;  219.675;    0.000
432.928; 1836.925;  234.675;    0.000
432.979; 1854.925;  226.675;    0.000
433.029; 1825.925;  216.675;    0.000
433.080; 1833.925;  232.675;    0.000
433.130; 1843.925;  257.675;    0.000
433.181; 1903.925;  243.675;    0.000
433.231; 1828.925;  239.675;    0.000
433.282; 1874.925;  232.675;    0.000
433.332; 1860.925;  256.675;    0.000
433.383; 1899.925;  268.675;    0.000
433.433; 1891.925;  291.675;    0.000
433.484; 1901.925;  263.675;    0.000
433.534; 1836.925;  248.675;    0.000
433.585; 1863.925;  244.675;    0.000
433.635; 1877.925;  242.675;    0.000
433.685; 1915.925;  243.675;    0.000
433.736; 1814.925;  283.675;    0.000
433.786; 1813.925;  264.675;    0.000
433.836; 1915.925;  282.675;    0.000
433.887; 1852.925;  265.675;    0.000
433.937; 1783.925;  255.675;    0.000
433.987; 1836.925;  245.675;    0.000
434.038; 1786.925;  276.675;    0.000
434.088; 1839.925;  249.675;    0.000
434.138; 1899.925;  260.675;    0.000
434.189; 1915.925;  241.675;    0.000
434.239; 1867.925;  232.675;    0.000
434.289; 1984.925;  272.675;    0.000
434.339; 1883.925;  288.675;    0.000
434.389; 1863.925;  258.675;    0.000
434.440; 1833.925;  244.675;    0.000
434.490; 1917.925;  288.675;    0.000
434.540; 1851.925;  252.675;    0.000
434.590; 1931.925;  256.675;    0.000
434.640; 1949.925;  259.675;    0.000
434.691; 1894.925;  220.675;    0.000
434.741; 1846.925;  238.675;    0.000
434.791; 1897.925;  276.675;    0.000
434.841; 1791.925;  256.675;    0.000
434.891; 1930.925;  297.675;    0.000
434.941; 1898.925;  290.675;    0.000
434.991; 1824.925;  261.675;    0.000
435.042; 1920.925;  300.675;    0.000
435.092; 1917.925;  248.675;    0.000
435.142; 1856.925;  246.675;    0.000
435.192; 1886.925;  201.675;    0.000
435.242; 1893.925;  234.675;    0.000
435.292; 1787.925;  266.675;    0.000
435.342; 1850.925;  250.675;    0.000
435.392; 1837.925;  279.675;    0.000
435.442; 1818.925;  242.675;    0.000
435.492; 1838.925;  265.675;    0.000
435.542; 1859.925;  243.675;    0.000
435.592; 1836.925;  243.675;    0.000
435.642; 1850.925;  241.675;    0.000
435.692; 1808.925;  263.675;    0.000
435.742; 1750.925;  264.675;    0.000
435.792; 1759.925;  291.675;    0.000
435.842; 1855.925;  257.675;    0.000
435.891; 1766.925;  224.675;    0.000
435.941; 1795.925;  243.675;    0.000
435.991; 1802.925;  300.675;    0.000
436.041; 1801.925;  197.675;    0.000
436.091; 1725.925;  238.675;    0.000
436.141; 1792.925;  222.675;    0.000
436.191; 1809.925;  249.675;    0.000
436.241; 1774.925;  208.675;    0.000
436.290; 1796.925;  282.675;    0.000
436.340; 1766.925;  233.675;    0.000
436.390; 1813.925;  223.675;    0.000
436.440; 1806.925;  252.675;    0.000
436.490; 1794.925;  254.675;    0.000
436.539; 1759.925;  271.675;    0.000
436.589; 1750.925;  248.675;    0.000
436.639; 1656.925;  235.675;    0.000
436.689; 1688.925;  238.675;    0.000
436.738; 1818.925;  267.675;    0.000
436.788; 1733.925;  239.675;    0.000
436.838; 1772.925;  244.675;    0.000
436.887; 1723.925;  265.675;    0.000
436.937; 1741.925;  261.675;    0.000
436.987; 1774.925;  235.675;    0.000
437.036; 1830.925;  267.675;    0.000
437.086; 1723.925;  258.675;    0.000
437.136; 1717.925;  250.675;    0.000
437.185; 1756.925;  214.675;    0.000
437.235; 1776.925;  257.675;    0.000
437.285; 1686.925;  259.675;    0.000
437.334; 1737.925;  241.675;    0.000
437.384; 1718.925;  231.675;    0.000
437.433; 1697.925;  239.675;    0.000
437.483; 1749.925;  260.675;    0.000
437.532; 1764.925;  277.675;    0.000
437.582; 1778.925;  268.675;    0.000
437.631; 1752.925;  239.675;    0.000
437.681; 1754.925;  251.675;    0.000
437.730; 1736.925;  246.675;    0.000
437.780; 1733.925;  226.675;    0.000
437.829; 1730.925;  256.675;    0.000
437.879; 1691.925;  239.675;    0.000
437.928; 1666.925;  253.675;    0.000
437.978; 1687.925;  245.675;    0.000
438.027; 1694.925;  277.675;    0.000
438.077; 1760.925;  248.675;    0.000
438.126; 1687.925;  201.675;    0.000
438.176; 1740.925;  220.675;    0.000
438.225; 1697.925;  250.675;    0.000
438.274; 1700.925;  234.675;    0.000
438.324; 1637.925;  276.675;    0.000
438.373; 1693.925;  226.675;    0.000
438.422; 1727.925;  228.675;    0.000
438.472; 1704.925;  225.675;    0.000
438.521; 1681.925;  227.675;    0.000
438.570; 1706.925;  242.675;    0.000
438.620; 1720.925;  277.675;    0.000
438.669; 1701.925;  256.675;    0.000
438.718; 1683.925;  248.675;    0.000
438.768; 1688.925;  225.675;    0.000
438.817; 1696.925;  229.675;    0.000
438.866; 1651.925;  218.675;    0.000
438.915; 1698.925;  256.675;    0.000
438.965; 1689.925;  242.675;    0.000
439.014; 1637.925;  260.675;    0.000
439.063; 1731.925;  238.675;    0.000
439.112; 1655.925;  209.675;    0.000
439.162; 1724.925;  258.675;    0.000
439.211; 1742.925;  275.675;    0.000
439.260; 1608.925;  238.675;    0.000
439.309; 1683.925;  237.675;    0.000
439.358; 1657.925;  252.675;    0.000
439.407; 1767.925;  239.675;    0.000
439.456; 1682.925;  211.675;    0.000
439.506; 1709.925;  261.675;    0.000
439.555; 1731.925;  274.675;    0.000
439.604; 1702.925;  262.675;    0.000
439.653; 1695.925;  245.675;    0.000
439.702; 1738.925;  247.675;    0.000
439.751; 1686.925;  228.675;    0.000
439.800; 1723.925;  253.675;    0.000
439.849; 1742.925;  219.675;    0.000
439.898; 1659.925;  246.675;    0.000
439.947; 1586.925;  229.675;    0.000
439.996; 1784.925;  274.675;    0.000
440.045; 1723.925;  224.675;    0.000
440.094; 1696.925;  225.675;    0.000
440.143; 1671.925;  277.675;    0.000
440.192; 1680.925;  252.675;    0.000
440.241; 1771.925;  253.675;    0.000
440.290; 1767.925;  242.675;    0.000
440.339; 1641.925;  220.675;    0.000
440.388; 1709.925;  244.675;    0.000
440.437; 1809.925;  268.675;    0.000
440.486; 1717.925;  242.675;    0.000
440.535; 1783.925;  269.675;    0.000
440.583; 1694.925;  258.675;    0.000
440.632; 1702.925;  286.675;    0.000
440.681; 1686.925;  238.675;    0.000
440.730; 1788.925;  271.675;    0.000
440.779; 1799.925;  226.675;    0.000
440.828; 1646.925;  213.675;    0.000
440.876; 1666.925;  207.675;    0.000
440.925; 1738.925;  247.675;    0.000
440.974; 1711.925;  229.675;    0.000
441.023; 1739.925;  227.675;    0.000
441.072; 1732.925;  222.675;    0.000
441.120; 1834.925;  273.675;    0.000
441.169; 1772.925;  263.675;    0.000
441.218; 1717.925;  264.675;    0.000
441.267; 1829.925;  287.675;    0.000
441.315; 1789.925;  251.675;    0.000
441.364; 1766.925;  252.675;    0.000
441.413; 1815.925;  227.675;    0.000
441.461; 1736.925;  198.675;    0.000
441.510; 1816.925;  273.675;    0.000
441.559; 1790.925;  245.675;    0.000
441.607; 1780.925;  218.675;    0.000
441.656; 1781.925;  261.675;    0.000
441.705; 1761.925;  259.675;    0.000
441.753; 1767.925;  272.675;    0.000
441.802; 1796.925;  246.675;    0.000
441.850; 1779.925;  255.675;    0.000
441.899; 1718.925;  236.675;    0.000
441.948; 1792.925;  267.675;    0.000
441.996; 1727.925;  246.675;    0.000
442.045; 1759.925;  279.675;    0.000
442.093; 1775.925;  251.675;    0.000
442.142; 1820.925;  274.675;    0.000
442.190; 1755.925;  279.675;    0.000
442.239; 1761.925;  295.675;    0.000
442.287; 1743.925;  229.675;    0.000
442.336; 1757.925;  265.675;    0.000
442.384; 1727.925;  219.675;    0.000
442.433; 1825.925;  287.675;    0.000
442.481; 1720.925;  271.675;    0.000
442.529; 1767.925;  262.675;    0.000
442.578; 1776.925;  282.675;    0.000
442.626; 1751.925;  245.675;    0.000
442.675; 1790.925;  283.675;    0.000
442.723; 1851.925;  247.675;    0.000
442.771; 1685.925;  221.675;    0.000
442.820; 1781.925;  253.675;    0.000
442.868; 1787.925;  204.675;    0.000
442.917; 1696.925;  263.675;    0.000
442.965; 1839.925;  255.675;    0.000
443.013; 1774.925;  282.675;    0.000
443.062; 1738.925;  258.675;    0.000
443.110; 1747.925;  268.675;    0.000
443.158; 1805.925;  247.675;    0.000
443.206; 1733.925;  243.675;    0.000
443.255; 1846.925;  271.675;    0.000
443.303; 1860.925;  279.675;    0.000
443.351; 1705.925;  264.675;    0.000
443.399; 1752.925;  245.675;    0.000
443.448; 1752.925;  259.675;    0.000
443.496; 1824.925;  281.675;    0.000
443.544; 1771.925;  213.675;    0.000
443.592; 1794.925;  290.675;    0.000
443.640; 1875.925;  270.675;    0.000
443.689; 1773.925;  229.675;    0.000
443.737; 1867.925;  254.675;    0.000
443.785; 1801.925;  234.675;    0.000
443.833; 1868.925;  287.675;    0.000
443.881; 1777.925;  229.675;    0.000
443.929; 1850.925;  260.675;    0.000
443.977; 1931.925;  265.675;    0.000
444.025; 1760.925;  257.675;    0.000
444.074; 1867.925;  245.675;    0.000
444.122; 1828.925;  282.675;    0.000
444.170; 1850.925;  240.675;    0.000
444.218; 1797.925;  270.675;    0.000
444.266; 1777.925;  254.675;    0.000
444.314; 1807.925;  264.675;    0.000
444.362; 1835.925;  287.675;    0.000
444.410; 1826.925;  236.675;    0.000
444.458; 1844.925;  273.675;    0.000
444.506; 1842.925;  235.675;    0.000
444.554; 1759.925;  242.675;    0.000
444.602; 1805.925;  283.675;    0.000
444.650; 1876.925;  266.675;    0.000
444.698; 1809.925;  248.675;    0.000
444.746; 1784.925;  247.675;    0.000
444.793; 1863.925;  211.675;    0.000
444.841; 1812.925;  259.675;    0.000
444.889; 1891.925;  253.675;    0.000
444.937; 1820.925;  248.675;    0.000
444.985; 1869.925;  233.675;    0.000
445.033; 1829.925;  245.675;    0.000
445.081; 1891.925;  243.675;    0.000
445.129; 1823.925;  238.675;    0.000
445.176; 1833.925;  204.675;    0.000
445.224; 1832.925;  262.675;    0.000
445.272; 1852.925;  256.675;    0.000
445.320; 1831.925;  235.675;    0.000
445.368; 1831.925;  251.675;    0.000
445.415; 1860.925;  250.675;    0.000
445.463; 1837.925;  225.675;    0.000
445.511; 1809.925;  226.675;    0.000
445.559; 1795.925;  251.675;    0.000
445.606; 1851.925;  213.675;    0.000
445.654; 1851.925;  261.675;    0.000
445.702; 1840.925;  222.675;    0.000
445.749; 1836.925;  257.675;    0.000
445.797; 1815.925;  263.675;    0.000
445.845; 1797.925;  218.675;    0.000
445.892; 1879.925;  228.675;    0.000
445.940; 1829.925;  249.675;    0.000
445.988; 1865.925;  276.675;    0.000
446.035; 1883.925;  229.675;    0.000
446.083; 1852.925;  255.675;    0.000
446.130; 1805.925;  200.675;    0.000
446.178; 1928.925;  256.675;    0.000
446.226; 1886.925;  238.675;    0.000
446.273; 1877.925;  250.675;    0.000
446.321; 1853.925;  233.675;    0.000
446.368; 1876.925;  244.675;    0.000
446.416; 1921.925;  214.675;    0.000
446.463; 1786.925;  225.675;    0.000
446.511; 1884.925;  253.675;    0.000
446.558; 1888.925;  246.675;    0.000
446.606; 1941.925;  238.675;    0.000
446.653; 1912.925;  215.675;    0.000
446.701; 1900.925;  248.675;    0.000
446.748; 1909.925;  258.675;    0.000
446.796; 1993.925;  259.675;    0.000
446.843; 1926.925;  269.675;    0.000
446.891; 1987.925;  259.675;    0.000
446.938; 1953.925;  226.675;    0.000
446.985; 1932.925;  225.675;    0.000
447.033; 1934.925;  269.675;    0.000
447.080; 1990.925;  258.675;    0.000
447.128; 1915.925;  225.675;    0.000
447.175; 2050.925;  259.675;    0.000
447.222; 2017.925;  238.675;    0.000
447.270; 2088.925;  250.675;    0.000
447.317; 1978.925;  217.675;    0.000
447.364; 1947.925;  262.675;    0.000
447.411; 2052.925;  269.675;    0.000
447.459; 2074.925;  251.675;    0.000
447.506; 2061.925;  227.675;    0.000
447.553; 2090.925;  250.675;    0.000
447.601; 2079.925;  251.675;    0.000
447.648; 2121.925;  276.675;    0.000
447.695; 2082.925;  229.675;    0.000
447.742; 2038.925;  245.675;    0.000
447.789; 2162.925;  243.675;    0.000
447.837; 2235.925;  267.675;    0.000
447.884; 2208.925;  246.675;    0.000
447.931; 2232.925;  266.675;    0.000
447.978; 2226.925;  242.675;    0.000
448.025; 2192.925;  267.675;    0.000
448.072; 2243.925;  257.675;    0.000
448.120; 2265.925;  279.675;    0.000
448.167; 2273.925;  275.675;    0.000
448.214; 2190.925;  241.675;    0.000
448.261; 2221.925;  271.675;    0.000
448.308; 2189.925;  256.675;    0.000
448.355; 2210.925;  253.675;    0.000
448.402; 2188.925;  267.675;    0.000
448.449; 2090.925;  252.675;    0.000
448.496; 2106.925;  241.675;    0.000
448.543; 2076.925;  250.675;    0.000
448.590; 2052.925;  288.675;    0.000
448.637; 1995.925;  255.675;    0.000
448.684; 2022.925;  284.675;    0.000
448.731; 2038.925;  244.675;    0.000
448.778; 2019.925;  257.675;    0.000
448.825; 2045.925;  252.675;    0.000
448.872; 2019.925;  205.675;    0.000
448.919; 1940.925;  244.675;    0.000
448.966; 1968.925;  278.675;    0.000
449.013; 1951.925;  262.675;    0.000
449.060; 1962.925;  278.675;    0.000
449.107; 1941.925;  248.675;    0.000
449.154; 1817.925;  230.675;    0.000
449.200; 1923.925;  211.675;    0.000
449.247; 1935.925;  283.675;    0.000
449.294; 1866.925;  251.675;    0.000
449.341; 1850.925;  280.675;    0.000
449.388; 1810.925;  247.675;    0.000
449.435; 1795.925;  267.675;    0.000
449.481; 1925.925;  303.675;    0.000
449.528; 1866.925;  279.675;    0.000
449.575; 1806.925;  226.675;    0.000
449.622; 1832.925;  263.675;    0.000
449.668; 1843.925;  249.675;    0.000
449.715; 1880.925;  257.675;    0.000
449.762; 1784.925;  251.675;    0.000
449.809; 1898.925;  289.675;    0.000
449.855; 1837.925;  239.675;    0.000
449.902; 1771.925;  262.675;    0.000
449.949; 1813.925;  262.675;    0.000
449.995; 1839.925;  265.675;    0.000
450.042; 1778.925;  280.675;    0.000
450.089; 1796.925;  277.675;    0.000
450.135; 1839.925;  285.675;    0.000
450.182; 1808.925;  275.675;    0.000
450.229; 1699.925;  278.675;    0.000
450.275; 1804.925;  288.675;    0.000
450.322; 1753.925;  238.675;    0.000
450.368; 1831.925;  276.675;    0.000
450.415; 1839.925;  295.675;    0.000
450.462; 1779.925;  283.675;    0.000
450.508; 1773.925;  264.675;    0.000
450.555; 1750.925;  275.675;    0.000
450.601; 1759.925;  278.675;    0.000
450.648; 1743.925;  251.675;    0.000
450.694; 1759.925;  237.675;    0.000
450.741; 1772.925;  280.675;    0.000
450.787; 1770.925;  279.675;    0.000
450.834; 1775.925;  287.675;    0.000
450.880; 1659.925;  265.675;    0.000
450.927; 1801.925;  270.675;    0.000
450.973; 1741.925;  308.675;    0.000
451.019; 1736.925;  253.675;    0.000
451.066; 1735.925;  261.675;    0.000
451.112; 1703.925;  276.675;    0.000
451.159; 1714.925;  235.675;    0.000
451.205; 1748.925;  284.675;    0.000
451.251; 1701.925;  264.675;    0.000
451.298; 1665.925;  262.675;    0.000
451.344; 1775.925;  278.675;    0.000
451.390; 1762.925;  273.675;    0.000
451.437; 1721.925;  272.675;    0.000
451.483; 1744.925;  302.675;    0.000
451.529; 1652.925;  255.675;    0.000
451.576; 1783.925;  287.675;    0.000
451.622; 1694.925;  254.675;    0.000
451.668; 1652.925;  260.675;    0.000
451.714; 1691.925;  289.675;    0.000
451.761; 1705.925;  273.675;    0.000
451.807; 1611.925;  307.675;    0.000
451.853; 1766.925;  281.675;    0.000
451.899; 1645.925;  246.675;    0.000
451.945; 1653.925;  258.675;    0.000
451.992; 1696.925;  276.675;    0.000
452.038; 1701.925;  287.675;    0.000
452.084; 1716.925;  288.675;    0.000
452.130; 1696.925;  259.675;    0.000
452.176; 1680.925;  265.675;    0.000
452.222; 1625.925;  222.675;    0.000
452.268; 1724.925;  271.675;    0.000
452.315; 1641.925;  258.675;    0.000
452.361; 1629.925;  233.675;    0.000
452.407; 1705.925;  270.675;    0.000
452.453; 1634.925;  261.675;    0.000
452.499; 1661.925;  279.675;    0.000
452.545; 1600.925;  269.675;    0.000
452.591; 1680.925;  288.675;    0.000
452.637; 1696.925;  279.675;    0.000
452.683; 1666.925;  232.675;    0.000
452.729; 1678.925;  285.675;    0.000
452.775; 1629.925;  280.675;    0.000
452.821; 1637.925;  260.675;    0.000
452.867; 1587.925;  239.675;    0.000
452.913; 1694.925;  240.675;    0.000
452.959; 1640.925;  214.675;    0.000
453.005; 1616.925;  266.675;    0.000
453.051; 1706.925;  258.675;    0.000
453.097; 1655.925;  253.675;    0.000
453.142; 1574.925;  244.675;    0.000
453.188; 1659.925;  241.675;    0.000
453.234; 1627.925;  257.675;    0.000
453.280; 1638.925;  231.675;    0.000
453.326; 1667.925;  240.675;    0.000
453.372; 1586.925;  208.675;    0.000
453.418; 1635.925;  266.675;    0.000
453.463; 1673.925;  232.675;    0.000
453.509; 1598.925;  221.675;    0.000
453.555; 1675.925;  268.675;    0.000
453.601; 1560.925;  242.675;    0.000
453.647; 1647.925;  283.675;    0.000
453.692; 1648.925;  242.675;    0.000
453.738; 1640.925;  294.675;    0.000
453.784; 1663.925;  256.675;    0.000
453.829; 1681.925;  267.675;    0.000
453.875; 1575.925;  233.675;    0.000
453.921; 1641.925;  247.675;    0.000
453.967; 1627.925;  249.675;    0.000
454.012; 1665.925;  274.675;    0.000
454.058; 1678.925;  249.675;    0.000
454.104; 1665.925;  272.675;    0.000
454.149; 1636.925;  277.675;    0.000
454.195; 1643.925;  256.675;    0.000
454.240; 1594.925;  263.675;    0.000
454.286; 1630.925;  276.675;    0.000
454.332; 1610.925;  290.675;    0.000
454.377; 1627.925;  274.675;    0.000
454.423; 1631.925;  282.675;    0.000
454.468; 1664.925;  275.675;    0.000
454.514; 1554.925;  270.675;    0.000
454.559; 1714.925;  249.675;    0.000
454.605; 1607.925;  241.675;    0.000
454.650; 1599.925;  269.675;    0.000
454.696; 1629.925;  253.675;    0.000
454.741; 1638.925;  279.675;    0.000
454.787; 1614.925;  252.675;    0.000
454.832; 1619.925;  246.675;    0.000
454.878; 1585.925;  264.675;    0.000
454.923; 1572.925;  268.675;    0.000
454.969; 1636.925;  253.675;    0.000
455.014; 1608.925;  264.675;    0.000
455.060; 1613.925;  265.675;    0.000
455.105; 1640.925;  270.675;    0.000
455.150; 1595.925;  284.675;    0.000
455.196; 1619.925;  278.675;    0.000
455.241; 1617.925;  248.675;    0.000
455.286; 1616.925;  274.675;    0.000
455.332; 1607.925;  269.675;    0.000
455.377; 1627.925;  218.675;    0.000
455.422; 1607.925;  261.675;    0.000
455.468; 1576.925;  278.675;    0.000
455.513; 1623.925;  235.675;    0.000
455.558; 1523.925;  232.675;    0.000
455.604; 1641.925;  285.675;    0.000
455.649; 1611.925;  264.675;    0.000
455.694; 1557.925;  235.675;    0.000
455.739; 1651.925;  265.675;    0.000
455.785; 1611.925;  266.675;    0.000
455.830; 1608.925;  272.675;    0.000
455.875; 1549.925;  256.675;    0.000
455.920; 1604.925;  191.675;    0.000
455.965; 1529.925;  280.675;    0.000
456.010; 1563.925;  267.675;    0.000
456.056; 1615.925;  270.675;    0.000
456.101; 1566.925;  248.675;    0.000
456.146; 1529.925;  287.675;    0.000
456.191; 1640.925;  280.675;    0.000
456.236; 1583.925;  229.675;    0.000
456.281; 1585.925;  241.675;    0.000
456.326; 1618.925;  248.675;    0.000
456.371; 1616.925;  233.675;    0.000
456.416; 1625.925;  284.675;    0.000
456.461; 1661.925;  256.675;    0.000
456.507; 1590.925;  250.675;    0.000
456.552; 1562.925;  290.675;    0.000
456.597; 1607.925;  260.675;    0.000
456.642; 1610.925;  252.675;    0.000
456.687; 1640.925;  272.675;    0.000
456.732; 1684.925;  303.675;    0.000
456.776; 1598.925;  269.675;    0.000
456.821; 1643.925;  256.675;    0.000
456.866; 1616.925;  278.675;    0.000
456.911; 1541.925;  230.675;    0.000
456.956; 1595.925;  275.675;    0.000
457.001; 1556.925;  248.675;    0.000
457.046; 1609.925;  222.675;    0.000
457.091; 1585.925;  251.675;    0.000
457.136; 1560.925;  231.675;    0.000
457.181; 1597.925;  245.675;    0.000
457.225; 1603.925;  262.675;    0.000
457.270; 1610.925;  277.675;    0.000
457.315; 1640.925;  235.675;    0.000
457.360; 1649.925;  231.675;    0.000
457.405; 1562.925;  214.675;    0.000
457.450; 1657.925;  255.675;    0.000
457.494; 1600.925;  220.675;    0.000
457.539; 1593.925;  257.675;    0.000
457.584; 1560.925;  279.675;    0.000
457.629; 1610.925;  249.675;    0.000
457.673; 1612.925;  237.675;    0.000
457.718; 1637.925;  232.675;    0.000
457.763; 1694.925;  278.675;    0.000
457.807; 1641.925;  279.675;    0.000
457.852; 1614.925;  246.675;    0.000
457.897; 1657.925;  284.675;    0.000
457.941; 1638.925;  272.675;    0.000
457.986; 1618.925;  285.675;    0.000
458.031; 1646.925;  235.675;    0.000
458.075; 1636.925;  299.675;    0.000
458.120; 1682.925;  284.675;    0.000
458.165; 1626.925;  212.675;    0.000
458.209; 1664.925;  254.675;    0.000
458.254; 1660.925;  257.675;    0.000
458.298; 1663.925;  265.675;    0.000
458.343; 1692.925;  278.675;    0.000
458.387; 1694.925;  316.675;    0.000
458.432; 1683.925;  279.675;    0.000
458.476; 1663.925;  272.675;    0.000
458.521; 1669.925;  240.675;    0.000
458.565; 1683.925;  307.675;    0.000
458.610; 1724.925;  246.675;    0.000
458.654; 1671.925;  275.675;    0.000
458.699; 1683.925;  288.675;    0.000
458.743; 1694.925;  244.675;    0.000
458.788; 1663.925;  245.675;    0.000
458.832; 1701.925;  277.675;    0.000
458.877; 1657.925;  285.675;    0.000
458.921; 1641.925;  216.675;    0.000
458.965; 1710.925;  260.675;    0.000
459.010; 1717.925;  284.675;    0.000
459.054; 1680.925;  272.675;    0.000
459.099; 1702.925;  262.675;    0.000
459.143; 1750.925;  276.675;    0.000
459.187; 1706.925;  258.675;    0.000
459.231; 1732.925;  278.675;    0.000
459.276; 1667.925;  262.675;    0.000
459.320; 1770.925;  291.675;    0.000
459.364; 1744.925;  294.675;    0.000
459.409; 1742.925;  269.675;    0.000
459.453; 1665.925;  257.675;    0.000
459.497; 1781.925;  283.675;    0.000
459.541; 1758.925;  275.675;    0.000
459.586; 1665.925;  261.675;    0.000
459.630; 1736.925;  284.675;    0.000
459.674; 1686.925;  244.675;    0.000
459.718; 1752.925;  309.675;    0.000
459.762; 1702.925;  281.675;    0.000
459.807; 1768.925;  250.675;    0.000
459.851; 1777.925;  286.675;    0.000
459.895; 1712.925;  230.675;    0.000
459.939; 1745.925;  262.675;    0.000
459.983; 1762.925;  250.675;    0.000
460.027; 1747.925;  275.675;    0.000
460.071; 1782.925;  301.675;    0.000
460.115; 1761.925;  279.675;    0.000
460.159; 1776.925;  301.675;    0.000
460.204; 1788.925;  287.675;    0.000
460.248; 1835.925;  293.675;    0.000
460.292; 1826.925;  310.675;    0.000
460.336; 1810.925;  263.675;    0.000
460.380; 1791.925;  268.675;    0.000
460.424; 1849.925;  281.675;    0.000
460.468; 1763.925;  310.675;    0.000
460.512; 1806.925;  273.675;    0.000
460.556; 1798.925;  291.675;    0.000
460.599; 1807.925;  240.675;    0.000
460.643; 1842.925;  260.675;    0.000
460.687; 1811.925;  283.675;    0.000
460.731; 1852.925;  254.675;    0.000
460.775; 1784.925;  265.675;    0.000
460.819; 1791.925;  280.675;    0.000
460.863; 1840.925;  316.675;    0.000
460.907; 1763.925;  231.675;    0.000
460.951; 1809.925;  275.675;    0.000
460.995; 1813.925;  290.675;    0.000
461.038; 1821.925;  284.675;    0.000
461.082; 1805.925;  278.675;    0.000
461.126; 1809.925;  321.675;    0.000
461.170; 1832.925;  273.675;    0.000
461.214; 1792.925;  289.675;    0.000
461.257; 1864.925;  296.675;    0.000
461.301; 1876.925;  287.675;    0.000
461.345; 1826.925;  290.675;    0.000
461.389; 1789.925;  260.675;    0.000
461.432; 1807.925;  262.675;    0.000
461.476; 1775.925;  254.675;    0.000
461.520; 1781.925;  305.675;    0.000
461.563; 1830.925;  289.675;    0.000
461.607; 1870.925;  286.675;    0.000
461.651; 1803.925;  271.675;    0.000
461.694; 1765.925;  245.675;    0.000
461.738; 1840.925;  278.675;    0.000
461.782; 1798.925;  284.675;    0.000
461.825; 1850.925;  305.675;    0.000
461.869; 1829.925;  293.675;    0.000
461.913; 1792.925;  280.675;    0.000
461.956; 1771.925;  237.675;    0.000
462.000; 1808.925;  288.675;    0.000
462.043; 1854.925;  282.675;    0.000
462.087; 1810.925;  268.675;    0.000
462.130; 1823.925;  286.675;    0.000
462.174; 1867.925;  312.675;    0.000
462.217; 1887.925;  270.675;    0.000
462.261; 1866.925;  281.675;    0.000
462.304; 1836.925;  248.675;    0.000
462.348; 1819.925;  267.675;    0.000
462.391; 1913.925;  270.675;    0.000
462.435; 1951.925;  287.675;    0.000
462.478; 1866.925;  290.675;    0.000
462.522; 1875.925;  296.675;    0.000
462.565; 1923.925;  275.675;    0.000
462.608; 1976.925;  325.675;    0.000
462.652; 1929.925;  303.675;    0.000
462.695; 1996.925;  355.675;    0.000
462.739; 1919.925;  272.675;    0.000
462.782; 1957.925;  295.675;    0.000
462.825; 1943.925;  300.675;    0.000
462.869; 1984.925;  319.675;    0.000
462.912; 2111.925;  363.675;    0.000
462.955; 1891.925;  298.675;    0.000
462.998; 2032.925;  321.675;    0.000
463.042; 1983.925;  310.675;    0.000
463.085; 2093.925;  305.675;    0.000
463.128; 1991.925;  345.675;    0.000
463.172; 1943.925;  341.675;    0.000
463.215;  375.925;  300.675;    0.000
463.258;  297.925;  287.675;    0.000
463.301;  290.925;  290.675;    0.000
463.344;  325.925;  320.675;    0.000
463.388;  349.925;  340.675;    0.000
463.431;  279.925;  278.675;    0.000
463.474;  328.925;  353.675;    0.000
463.517;  310.925;  295.675;    0.000
463.560;  304.925;  328.675;    0.000
463.603;  356.925;  316.675;    0.000
463.646;  341.925;  295.675;    0.000
463.690;  293.925;  334.675;    0.000
463.733;  338.925;  343.675;    0.000
463.776;  273.925;  300.675;    0.000
463.819;  321.925;  368.675;    0.000
463.862;  280.925;  327.675;    0.000

