
Integration time [ms]:   0.300
Averaging Nr. [scans]: 1
Smoothing Nr. [pixels]: 0
Data measured with spectrometer [name]: VIS
Wave   ;Sample   ;Dark     ;Reference
[nm]   ;[counts] ;[counts] ;[counts] 

450.961;  195.250;  204.350;    0.000
451.100;  225.250;  243.350;    0.000
451.239;  194.250;  228.350;    0.000
451.377;  246.250;  250.350;    0.000
451.516;  219.250;  189.350;    0.000
451.655;  231.250;  235.350;    0.000
451.794;  216.250;  223.350;    0.000
451.932;  236.250;  269.350;    0.000
452.071;  192.250;  250.350;    0.000
452.210;  245.250;  262.350;    0.000
452.348;  217.250;  259.350;    0.000
452.487;  225.250;  231.350;    0.000
452.626;  203.250;  220.350;    0.000
452.764;  239.250;  252.350;    0.000
452.903;  222.250;  236.350;    0.000
453.042;  288.250;  217.350;    0.000
453.180; 3010.250;  273.350;    0.000
453.319; 3183.250;  261.350;    0.000
453.458; 3127.250;  219.350;    0.000
453.596; 3204.250;  307.350;    0.000
453.735; 3139.250;  246.350;    0.000
453.873; 3258.250;  270.350;    0.000
454.012; 3227.250;  232.350;    0.000
454.150; 3297.250;  211.350;    0.000
454.289; 3327.250;  245.350;    0.000
454.427; 3303.250;  224.350;    0.000
454.566; 3388.250;  252.350;    0.000
454.704; 3363.250;  225.350;    0.000
454.843; 3464.250;  195.350;    0.000
454.981; 3465.250;  258.350;    0.000
455.120; 3453.250;  191.350;    0.000
455.258; 3519.250;  243.350;    0.000
455.397; 3507.250;  188.350;    0.000
455.535; 3555.250;  219.350;    0.000
455.674; 3580.250;  184.350;    0.000
455.812; 3536.250;  225.350;    0.000
455.951; 3677.250;  201.350;    0.000
456.089; 3721.250;  187.350;    0.000
456.227; 3631.250;  199.350;    0.000
456.366; 3751.250;  235.350;    0.000
456.504; 3781.250;  216.350;    0.000
456.642; 3796.250;  256.350;    0.000
456.781; 3810.250;  201.350;    0.000
456.919; 3875.250;  231.350;    0.000
457.057; 3909.250;  181.350;    0.000
457.196; 3932.250;  231.350;    0.000
457.334; 4055.250;  229.350;    0.000
457.472; 4066.250;  242.350;    0.000
457.610; 4027.250;  221.350;    0.000
457.749; 4106.250;  218.350;    0.000
457.887; 4257.250;  213.350;    0.000
458.025; 4295.250;  228.350;    0.000
458.163; 4228.250;  204.350;    0.000
458.301; 4365.250;  230.350;    0.000
458.440; 4388.250;  200.350;    0.000
458.578; 4488.250;  222.350;    0.000
458.716; 4577.250;  137.350;    0.000
458.854; 4625.250;  259.350;    0.000
458.992; 4536.250;  172.350;    0.000
459.130; 4691.250;  253.350;    0.000
459.269; 4625.250;  212.350;    0.000
459.407; 4696.250;  212.350;    0.000
459.545; 4854.250;  225.350;    0.000
459.683; 4753.250;  225.350;    0.000
459.821; 4915.250;  192.350;    0.000
459.959; 4848.250;  205.350;    0.000
460.097; 4971.250;  199.350;    0.000
460.235; 5108.250;  232.350;    0.000
460.373; 5006.250;  248.350;    0.000
460.511; 5129.250;  225.350;    0.000
460.649; 5081.250;  204.350;    0.000
460.787; 5199.250;  221.350;    0.000
460.925; 5109.250;  181.350;    0.000
461.063; 5250.250;  243.350;    0.000
461.201; 5332.250;  212.350;    0.000
461.339; 5366.250;  229.350;    0.000
461.477; 5233.250;  162.350;    0.000
461.615; 5390.250;  232.350;    0.000
461.753; 5330.250;  193.350;    0.000
461.891; 5499.250;  217.350;    0.000
462.029; 5630.250;  224.350;    0.000
462.166; 5524.250;  222.350;    0.000
462.304; 5606.250;  185.350;    0.000
462.442; 5718.250;  246.350;    0.000
462.580; 5747.250;  246.350;    0.000
462.718; 5822.250;  235.350;    0.000
462.856; 5701.250;  230.350;    0.000
462.993; 5888.250;  266.350;    0.000
463.131; 5700.250;  208.350;    0.000
463.269; 5625.250;  218.350;    0.000
463.407; 5600.250;  215.350;    0.000
463.545; 5540.250;  200.350;    0.000
463.682; 5635.250;  206.350;    0.000
463.820; 5919.250;  211.350;    0.000
463.958; 6094.250;  206.350;    0.000
464.095; 6141.250;  193.350;    0.000
464.233; 6125.250;  203.350;    0.000
464.371; 6193.250;  258.350;    0.000
464.509; 6121.250;  219.350;    0.000
464.646; 6072.250;  210.350;    0.000
464.784; 6162.250;  206.350;    0.000
464.921; 6032.250;  233.350;    0.000
465.059; 6026.250;  186.350;    0.000
465.197; 5984.250;  213.350;    0.000
465.334; 5771.250;  202.350;    0.000
465.472; 5866.250;  236.350;    0.000
465.609; 5829.250;  206.350;    0.000
465.747; 5622.250;  208.350;    0.000
465.885; 5765.250;  198.350;    0.000
466.022; 5585.250;  210.350;    0.000
466.160; 5740.250;  245.350;    0.000
466.297; 5542.250;  226.350;    0.000
466.435; 5642.250;  235.350;    0.000
466.572; 5678.250;  226.350;    0.000
466.710; 5584.250;  266.350;    0.000
466.847; 5685.250;  258.350;    0.000
466.985; 5500.250;  228.350;    0.000
467.122; 5448.250;  201.350;    0.000
467.260; 5524.250;  170.350;    0.000
467.397; 5573.250;  174.350;    0.000
467.534; 5462.250;  244.350;    0.000
467.672; 5499.250;  247.350;    0.000
467.809; 5305.250;  182.350;    0.000
467.947; 5563.250;  208.350;    0.000
468.084; 5380.250;  206.350;    0.000
468.221; 5520.250;  249.350;    0.000
468.359; 5645.250;  253.350;    0.000
468.496; 5530.250;  208.350;    0.000
468.633; 5459.250;  189.350;    0.000
468.771; 5467.250;  216.350;    0.000
468.908; 5461.250;  240.350;    0.000
469.045; 5662.250;  234.350;    0.000
469.183; 5584.250;  203.350;    0.000
469.320; 5689.250;  230.350;    0.000
469.457; 5757.250;  219.350;    0.000
469.594; 5712.250;  233.350;    0.000
469.732; 5712.250;  230.350;    0.000
469.869; 5769.250;  239.350;    0.000
470.006; 5764.250;  224.350;    0.000
470.143; 5822.250;  241.350;    0.000
470.280; 5939.250;  234.350;    0.000
470.417; 5851.250;  236.350;    0.000
470.555; 5864.250;  207.350;    0.000
470.692; 5817.250;  251.350;    0.000
470.829; 5914.250;  238.350;    0.000
470.966; 5839.250;  242.350;    0.000
471.103; 5809.250;  215.350;    0.000
471.240; 5811.250;  237.350;    0.000
471.377; 5928.250;  235.350;    0.000
471.514; 5756.250;  256.350;    0.000
471.651; 5673.250;  198.350;    0.000
471.789; 5840.250;  215.350;    0.000
471.926; 5701.250;  210.350;    0.000
472.063; 5723.250;  237.350;    0.000
472.200; 5781.250;  265.350;    0.000
472.337; 5646.250;  240.350;    0.000
472.474; 5693.250;  195.350;    0.000
472.611; 5606.250;  228.350;    0.000
472.748; 5571.250;  234.350;    0.000
472.884; 5582.250;  230.350;    0.000
473.021; 5598.250;  219.350;    0.000
473.158; 5676.250;  253.350;    0.000
473.295; 5544.250;  207.350;    0.000
473.432; 5633.250;  238.350;    0.000
473.569; 5644.250;  236.350;    0.000
473.706; 5676.250;  203.350;    0.000
473.843; 5639.250;  232.350;    0.000
473.980; 5573.250;  207.350;    0.000
474.117; 5654.250;  182.350;    0.000
474.253; 5679.250;  261.350;    0.000
474.390; 5577.250;  211.350;    0.000
474.527; 5643.250;  229.350;    0.000
474.664; 5616.250;  181.350;    0.000
474.801; 5738.250;  250.350;    0.000
474.937; 5615.250;  196.350;    0.000
475.074; 5584.250;  213.350;    0.000
475.211; 5759.250;  232.350;    0.000
475.348; 5737.250;  228.350;    0.000
475.484; 5660.250;  240.350;    0.000
475.621; 5689.250;  235.350;    0.000
475.758; 5839.250;  232.350;    0.000
475.894; 5733.250;  227.350;    0.000
476.031; 5810.250;  233.350;    0.000
476.168; 5745.250;  205.350;    0.000
476.304; 5780.250;  263.350;    0.000
476.441; 5881.250;  255.350;    0.000
476.578; 5814.250;  191.350;    0.000
476.714; 5806.250;  218.350;    0.000
476.851; 5940.250;  224.350;    0.000
476.987; 5919.250;  225.350;    0.000
477.124; 6072.250;  231.350;    0.000
477.261; 5914.250;  291.350;    0.000
477.397; 5866.250;  218.350;    0.000
477.534; 6027.250;  209.350;    0.000
477.670; 6061.250;  210.350;    0.000
477.807; 6037.250;  199.350;    0.000
477.943; 6030.250;  219.350;    0.000
478.080; 6082.250;  234.350;    0.000
478.216; 6223.250;  196.350;    0.000
478.353; 6144.250;  234.350;    0.000
478.489; 6202.250;  219.350;    0.000
478.626; 6120.250;  209.350;    0.000
478.762; 6224.250;  206.350;    0.000
478.898; 6139.250;  209.350;    0.000
479.035; 6233.250;  232.350;    0.000
479.171; 6256.250;  219.350;    0.000
479.308; 6307.250;  226.350;    0.000
479.444; 6253.250;  184.350;    0.000
479.580; 6285.250;  192.350;    0.000
479.717; 6440.250;  247.350;    0.000
479.853; 6299.250;  181.350;    0.000
479.989; 6267.250;  212.350;    0.000
480.126; 6320.250;  187.350;    0.000
480.262; 6464.250;  217.350;    0.000
480.398; 6371.250;  249.350;    0.000
480.535; 6461.250;  196.350;    0.000
480.671; 6357.250;  199.350;    0.000
480.807; 6453.250;  231.350;    0.000
480.943; 6319.250;  192.350;    0.000
481.080; 6365.250;  206.350;    0.000
481.216; 6548.250;  189.350;    0.000
481.352; 6396.250;  215.350;    0.000
481.488; 6298.250;  223.350;    0.000
481.624; 6341.250;  235.350;    0.000
481.760; 6402.250;  218.350;    0.000
481.897; 6263.250;  204.350;    0.000
482.033; 6403.250;  243.350;    0.000
482.169; 6242.250;  239.350;    0.000
482.305; 6234.250;  221.350;    0.000
482.441; 6262.250;  162.350;    0.000
482.577; 6395.250;  241.350;    0.000
482.713; 6549.250;  223.350;    0.000
482.849; 6368.250;  195.350;    0.000
482.985; 6276.250;  230.350;    0.000
483.121; 6238.250;  230.350;    0.000
483.258; 6273.250;  254.350;    0.000
483.394; 6346.250;  199.350;    0.000
483.530; 6291.250;  209.350;    0.000
483.665; 6279.250;  196.350;    0.000
483.801; 6356.250;  208.350;    0.000
483.937; 6332.250;  202.350;    0.000
484.073; 6234.250;  247.350;    0.000
484.209; 6387.250;  188.350;    0.000
484.345; 6393.250;  241.350;    0.000
484.481; 6393.250;  247.350;    0.000
484.617; 6235.250;  248.350;    0.000
484.753; 6340.250;  255.350;    0.000
484.889; 6367.250;  253.350;    0.000
485.025; 6496.250;  226.350;    0.000
485.161; 6434.250;  207.350;    0.000
485.296; 6459.250;  247.350;    0.000
485.432; 6407.250;  255.350;    0.000
485.568; 6591.250;  216.350;    0.000
485.704; 6425.250;  232.350;    0.000
485.840; 6412.250;  231.350;    0.000
485.975; 6513.250;  233.350;    0.000
486.111; 6353.250;  207.350;    0.000
486.247; 6515.250;  211.350;    0.000
486.383; 6504.250;  219.350;    0.000
486.518; 6491.250;  213.350;    0.000
486.654; 6620.250;  216.350;    0.000
486.790; 6516.250;  253.350;    0.000
486.926; 6429.250;  229.350;    0.000
487.061; 6475.250;  241.350;    0.000
487.197; 6605.250;  218.350;    0.000
487.333; 6403.250;  221.350;    0.000
487.468; 6397.250;  206.350;    0.000
487.604; 6522.250;  254.350;    0.000
487.740; 6411.250;  240.350;    0.000
487.875; 6364.250;  260.350;    0.000
488.011; 6485.250;  232.350;    0.000
488.146; 6436.250;  206.350;    0.000
488.282; 6458.250;  236.350;    0.000
488.417; 6485.250;  255.350;    0.000
488.553; 6371.250;  221.350;    0.000
488.688; 6488.250;  233.350;    0.000
488.824; 6477.250;  246.350;    0.000
488.960; 6592.250;  267.350;    0.000
489.095; 6518.250;  217.350;    0.000
489.230; 6709.250;  226.350;    0.000
489.366; 6543.250;  232.350;    0.000
489.501; 6592.250;  220.350;    0.000
489.637; 6617.250;  245.350;    0.000
489.772; 6626.250;  228.350;    0.000
489.908; 6636.250;  250.350;    0.000
490.043; 6565.250;  239.350;    0.000
490.178; 6531.250;  213.350;    0.000
490.314; 6600.250;  270.350;    0.000
490.449; 6616.250;  245.350;    0.000
490.585; 6673.250;  218.350;    0.000
490.720; 6646.250;  243.350;    0.000
490.855; 6571.250;  196.350;    0.000
490.991; 6505.250;  208.350;    0.000
491.126; 6665.250;  268.350;    0.000
491.261; 6600.250;  226.350;    0.000
491.396; 6642.250;  201.350;    0.000
491.532; 6705.250;  213.350;    0.000
491.667; 6664.250;  183.350;    0.000
491.802; 6558.250;  239.350;    0.000
491.937; 6697.250;  228.350;    0.000
492.073; 6880.250;  258.350;    0.000
492.208; 6738.250;  218.350;    0.000
492.343; 6749.250;  205.350;    0.000
492.478; 6860.250;  247.350;    0.000
492.613; 6866.250;  217.350;    0.000
492.749; 6679.250;  258.350;    0.000
492.884; 6806.250;  208.350;    0.000
493.019; 6782.250;  248.350;    0.000
493.154; 6839.250;  231.350;    0.000
493.289; 6790.250;  226.350;    0.000
493.424; 6683.250;  216.350;    0.000
493.559; 6680.250;  205.350;    0.000
493.694; 6752.250;  203.350;    0.000
493.829; 6733.250;  231.350;    0.000
493.964; 6698.250;  200.350;    0.000
494.099; 6845.250;  253.350;    0.000
494.234; 6853.250;  244.350;    0.000
494.369; 6817.250;  239.350;    0.000
494.504; 6626.250;  223.350;    0.000
494.639; 6746.250;  263.350;    0.000
494.774; 6770.250;  240.350;    0.000
494.909; 6614.250;  231.350;    0.000
495.044; 6722.250;  195.350;    0.000
495.179; 6702.250;  231.350;    0.000
495.314; 6690.250;  231.350;    0.000
495.449; 6742.250;  239.350;    0.000
495.584; 6734.250;  201.350;    0.000
495.719; 6800.250;  201.350;    0.000
495.854; 6840.250;  201.350;    0.000
495.988; 6778.250;  239.350;    0.000
496.123; 6766.250;  199.350;    0.000
496.258; 6882.250;  256.350;    0.000
496.393; 6939.250;  214.350;    0.000
496.528; 6897.250;  220.350;    0.000
496.663; 6980.250;  207.350;    0.000
496.797; 6804.250;  241.350;    0.000
496.932; 7140.250;  215.350;    0.000
497.067; 7115.250;  240.350;    0.000
497.202; 7198.250;  177.350;    0.000
497.336; 7233.250;  221.350;    0.000
497.471; 7405.250;  228.350;    0.000
497.606; 7501.250;  213.350;    0.000
497.740; 7441.250;  217.350;    0.000
497.875; 7794.250;  182.350;    0.000
498.010; 7994.250;  230.350;    0.000
498.144; 8170.250;  217.350;    0.000
498.279; 8318.250;  194.350;    0.000
498.414; 8442.250;  270.350;    0.000
498.548; 8442.250;  184.350;    0.000
498.683; 8332.250;  188.350;    0.000
498.817; 8616.250;  216.350;    0.000
498.952; 8702.250;  208.350;    0.000
499.087; 8892.250;  236.350;    0.000
499.221; 9100.250;  219.350;    0.000
499.356; 9091.250;  263.350;    0.000
499.490; 9169.250;  221.350;    0.000
499.625; 9408.250;  233.350;    0.000
499.759; 9777.250;  245.350;    0.000
499.894; 9931.250;  241.350;    0.000
500.028;10229.250;  237.350;    0.000
500.162;10364.250;  282.350;    0.000
500.297;10467.250;  232.350;    0.000
500.431;10416.250;  266.350;    0.000
500.566;10541.250;  254.350;    0.000
500.700;10510.250;  238.350;    0.000
500.835;10133.250;  264.350;    0.000
500.969;10077.250;  165.350;    0.000
501.103; 9929.250;  190.350;    0.000
501.238; 9606.250;  274.350;    0.000
501.372; 9466.250;  270.350;    0.000
501.506; 9238.250;  231.350;    0.000
501.641; 8880.250;  224.350;    0.000
501.775; 8620.250;  224.350;    0.000
501.909; 8470.250;  218.350;    0.000
502.043; 8278.250;  238.350;    0.000
502.178; 8314.250;  289.350;    0.000
502.312; 8075.250;  225.350;    0.000
502.446; 7943.250;  295.350;    0.000
502.580; 7746.250;  200.350;    0.000
502.715; 7696.250;  256.350;    0.000
502.849; 7536.250;  226.350;    0.000
502.983; 7423.250;  250.350;    0.000
503.117; 7427.250;  229.350;    0.000
503.251; 7306.250;  267.350;    0.000
503.385; 7263.250;  237.350;    0.000
503.520; 7151.250;  210.350;    0.000
503.654; 7175.250;  204.350;    0.000
503.788; 6947.250;  236.350;    0.000
503.922; 6954.250;  225.350;    0.000
504.056; 6797.250;  222.350;    0.000
504.190; 6873.250;  220.350;    0.000
504.324; 6777.250;  257.350;    0.000
504.458; 6745.250;  223.350;    0.000
504.592; 6548.250;  252.350;    0.000
504.726; 6552.250;  216.350;    0.000
504.860; 6502.250;  231.350;    0.000
504.994; 6332.250;  228.350;    0.000
505.128; 6496.250;  239.350;    0.000
505.262; 6319.250;  245.350;    0.000
505.396; 6127.250;  231.350;    0.000
505.530; 6102.250;  211.350;    0.000
505.664; 6021.250;  223.350;    0.000
505.798; 6001.250;  239.350;    0.000
505.932; 5967.250;  232.350;    0.000
506.066; 5957.250;  263.350;    0.000
506.199; 5812.250;  231.350;    0.000
506.333; 5862.250;  213.350;    0.000
506.467; 5690.250;  241.350;    0.000
506.601; 5655.250;  233.350;    0.000
506.735; 5710.250;  235.350;    0.000
506.869; 5587.250;  269.350;    0.000
507.002; 5592.250;  244.350;    0.000
507.136; 5544.250;  258.350;    0.000
507.270; 5461.250;  218.350;    0.000
507.404; 5502.250;  191.350;    0.000
507.537; 5395.250;  226.350;    0.000
507.671; 5459.250;  243.350;    0.000
507.805; 5381.250;  234.350;    0.000
507.939; 5346.250;  234.350;    0.000
508.072; 5414.250;  261.350;    0.000
508.206; 5431.250;  220.350;    0.000
508.340; 5345.250;  241.350;    0.000
508.473; 5336.250;  214.350;    0.000
508.607; 5344.250;  232.350;    0.000
508.740; 5268.250;  222.350;    0.000
508.874; 5251.250;  225.350;    0.000
509.008; 5166.250;  258.350;    0.000
509.141; 5199.250;  210.350;    0.000
509.275; 5231.250;  199.350;    0.000
509.408; 5205.250;  260.350;    0.000
509.542; 5221.250;  252.350;    0.000
509.675; 5266.250;  276.350;    0.000
509.809; 5127.250;  266.350;    0.000
509.942; 5193.250;  227.350;    0.000
510.076; 5092.250;  243.350;    0.000
510.209; 4932.250;  221.350;    0.000
510.343; 4948.250;  229.350;    0.000
510.476; 5381.250;  246.350;    0.000
510.610; 5024.250;  211.350;    0.000
510.743; 5193.250;  279.350;    0.000
510.877; 4951.250;  274.350;    0.000
511.010; 4991.250;  252.350;    0.000
511.143; 4884.250;  228.350;    0.000
511.277; 5045.250;  261.350;    0.000
511.410; 5012.250;  217.350;    0.000
511.543; 4961.250;  230.350;    0.000
511.677; 4959.250;  245.350;    0.000
511.810; 4917.250;  237.350;    0.000
511.943; 4936.250;  224.350;    0.000
512.077; 4977.250;  194.350;    0.000
512.210; 4946.250;  212.350;    0.000
512.343; 4905.250;  236.350;    0.000
512.476; 4888.250;  248.350;    0.000
512.610; 4979.250;  249.350;    0.000
512.743; 4888.250;  224.350;    0.000
512.876; 4902.250;  277.350;    0.000
513.009; 4976.250;  261.350;    0.000
513.142; 4833.250;  213.350;    0.000
513.276; 4851.250;  192.350;    0.000
513.409; 4919.250;  267.350;    0.000
513.542; 4918.250;  224.350;    0.000
513.675; 4931.250;  244.350;    0.000
513.808; 4864.250;  218.350;    0.000
513.941; 4901.250;  237.350;    0.000
514.074; 5031.250;  257.350;    0.000
514.207; 4944.250;  245.350;    0.000
514.340; 4937.250;  195.350;    0.000
514.474; 4999.250;  244.350;    0.000
514.607; 4988.250;  230.350;    0.000
514.740; 5047.250;  246.350;    0.000
514.873; 5071.250;  268.350;    0.000
515.006; 5084.250;  253.350;    0.000
515.139; 5021.250;  235.350;    0.000
515.272; 5155.250;  214.350;    0.000
515.404; 5087.250;  228.350;    0.000
515.537; 5259.250;  263.350;    0.000
515.670; 5047.250;  270.350;    0.000
515.803; 5100.250;  243.350;    0.000
515.936; 5249.250;  226.350;    0.000
516.069; 5203.250;  227.350;    0.000
516.202; 5227.250;  259.350;    0.000
516.335; 5257.250;  260.350;    0.000
516.468; 5569.250;  243.350;    0.000
516.600; 5986.250;  258.350;    0.000
516.733; 7061.250;  235.350;    0.000
516.866; 7321.250;  267.350;    0.000
516.999; 6846.250;  251.350;    0.000
517.132; 8026.250;  261.350;    0.000
517.264;10498.250;  260.350;    0.000
517.397;10502.250;  231.350;    0.000
517.530; 8426.250;  257.350;    0.000
517.663; 7112.250;  263.350;    0.000
517.795; 7090.250;  250.350;    0.000
517.928; 6750.250;  257.350;    0.000
518.061; 6720.250;  227.350;    0.000
518.193; 8118.250;  252.350;    0.000
518.326;12317.250;  227.350;    0.000
518.459;13436.250;  210.350;    0.000
518.591;10642.250;  214.350;    0.000
518.724; 8273.250;  269.350;    0.000
518.857; 7112.250;  215.350;    0.000
518.989; 6790.250;  259.350;    0.000
519.122; 6413.250;  238.350;    0.000
519.254; 6186.250;  248.350;    0.000
519.387; 5908.250;  246.350;    0.000
519.519; 5819.250;  239.350;    0.000
519.652; 5634.250;  249.350;    0.000
519.784; 5374.250;  238.350;    0.000
519.917; 5378.250;  231.350;    0.000
520.049; 5317.250;  244.350;    0.000
520.182; 5245.250;  205.350;    0.000
520.314; 5158.250;  262.350;    0.000
520.447; 5014.250;  234.350;    0.000
520.579; 5068.250;  273.350;    0.000
520.712; 4958.250;  215.350;    0.000
520.844; 4974.250;  258.350;    0.000
520.976; 4882.250;  242.350;    0.000
521.109; 4806.250;  232.350;    0.000
521.241; 4805.250;  236.350;    0.000
521.373; 4798.250;  227.350;    0.000
521.506; 4662.250;  212.350;    0.000
521.638; 4726.250;  292.350;    0.000
521.770; 4694.250;  259.350;    0.000
521.903; 4694.250;  263.350;    0.000
522.035; 4518.250;  269.350;    0.000
522.167; 4472.250;  289.350;    0.000
522.300; 4540.250;  255.350;    0.000
522.432; 4568.250;  247.350;    0.000
522.564; 4454.250;  239.350;    0.000
522.696; 4520.250;  246.350;    0.000
522.828; 4527.250;  230.350;    0.000
522.961; 4437.250;  239.350;    0.000
523.093; 4421.250;  269.350;    0.000
523.225; 4426.250;  251.350;    0.000
523.357; 4401.250;  244.350;    0.000
523.489; 4391.250;  266.350;    0.000
523.621; 4402.250;  267.350;    0.000
523.753; 4262.250;  234.350;    0.000
523.885; 4268.250;  229.350;    0.000
524.018; 4286.250;  221.350;    0.000
524.150; 4173.250;  264.350;    0.000
524.282; 4310.250;  283.350;    0.000
524.414; 4298.250;  258.350;    0.000
524.546; 4165.250;  286.350;    0.000
524.678; 4114.250;  274.350;    0.000
524.810; 4278.250;  253.350;    0.000
524.942; 4098.250;  183.350;    0.000
525.074; 4160.250;  232.350;    0.000
525.206; 4236.250;  250.350;    0.000
525.338; 4144.250;  228.350;    0.000
525.469; 4076.250;  224.350;    0.000
525.601; 4090.250;  247.350;    0.000
525.733; 4009.250;  199.350;    0.000
525.865; 4033.250;  230.350;    0.000
525.997; 4115.250;  209.350;    0.000
526.129; 4071.250;  211.350;    0.000
526.261; 4054.250;  233.350;    0.000
526.393; 4060.250;  261.350;    0.000
526.524; 4062.250;  206.350;    0.000
526.656; 4005.250;  260.350;    0.000
526.788; 3901.250;  293.350;    0.000
526.920; 3930.250;  208.350;    0.000
527.052; 3921.250;  204.350;    0.000
527.183; 3948.250;  244.350;    0.000
527.315; 3962.250;  237.350;    0.000
527.447; 3986.250;  236.350;    0.000
527.578; 3866.250;  235.350;    0.000
527.710; 4094.250;  253.350;    0.000
527.842; 3973.250;  231.350;    0.000
527.973; 3940.250;  224.350;    0.000
528.105; 4064.250;  237.350;    0.000
528.237; 3976.250;  213.350;    0.000
528.368; 3962.250;  194.350;    0.000
528.500; 4044.250;  195.350;    0.000
528.632; 3987.250;  201.350;    0.000
528.763; 3943.250;  196.350;    0.000
528.895; 3899.250;  204.350;    0.000
529.026; 3904.250;  214.350;    0.000
529.158; 3949.250;  197.350;    0.000
529.289; 3953.250;  230.350;    0.000
529.421; 4019.250;  247.350;    0.000
529.552; 4001.250;  255.350;    0.000
529.684; 3891.250;  270.350;    0.000
529.815; 4074.250;  248.350;    0.000
529.947; 3858.250;  234.350;    0.000
530.078; 3871.250;  223.350;    0.000
530.210; 3966.250;  243.350;    0.000
530.341; 3897.250;  222.350;    0.000
530.472; 3896.250;  217.350;    0.000
530.604; 4014.250;  242.350;    0.000
530.735; 3881.250;  249.350;    0.000
530.867; 3880.250;  257.350;    0.000
530.998; 3972.250;  250.350;    0.000
531.129; 4067.250;  244.350;    0.000
531.260; 4032.250;  276.350;    0.000
531.392; 3994.250;  220.350;    0.000
531.523; 4045.250;  262.350;    0.000
531.654; 3947.250;  264.350;    0.000
531.786; 4005.250;  225.350;    0.000
531.917; 4021.250;  285.350;    0.000
532.048; 4008.250;  239.350;    0.000
532.179; 4064.250;  248.350;    0.000
532.311; 4081.250;  219.350;    0.000
532.442; 3966.250;  264.350;    0.000
532.573; 4008.250;  230.350;    0.000
532.704; 3907.250;  253.350;    0.000
532.835; 3973.250;  239.350;    0.000
532.966; 3978.250;  247.350;    0.000
533.097; 3942.250;  225.350;    0.000
533.229; 3933.250;  282.350;    0.000
533.360; 3921.250;  236.350;    0.000
533.491; 3962.250;  247.350;    0.000
533.622; 3922.250;  265.350;    0.000
533.753; 4038.250;  226.350;    0.000
533.884; 3972.250;  294.350;    0.000
534.015; 4004.250;  215.350;    0.000
534.146; 3886.250;  223.350;    0.000
534.277; 3936.250;  264.350;    0.000
534.408; 4080.250;  232.350;    0.000
534.539; 4021.250;  274.350;    0.000
534.670; 4001.250;  275.350;    0.000
534.801; 3898.250;  261.350;    0.000
534.932; 3821.250;  225.350;    0.000
535.063; 3831.250;  235.350;    0.000
535.194; 3878.250;  300.350;    0.000
535.324; 3944.250;  249.350;    0.000
535.455; 3834.250;  260.350;    0.000
535.586; 3868.250;  288.350;    0.000
535.717; 3909.250;  237.350;    0.000
535.848; 3840.250;  271.350;    0.000
535.979; 3827.250;  234.350;    0.000
536.109; 3838.250;  255.350;    0.000
536.240; 3901.250;  269.350;    0.000
536.371; 3726.250;  232.350;    0.000
536.502; 3849.250;  253.350;    0.000
536.632; 3749.250;  240.350;    0.000
536.763; 3896.250;  251.350;    0.000
536.894; 3844.250;  256.350;    0.000
537.025; 3662.250;  247.350;    0.000
537.155; 3898.250;  272.350;    0.000
537.286; 3810.250;  241.350;    0.000
537.417; 3905.250;  279.350;    0.000
537.547; 3719.250;  229.350;    0.000
537.678; 3824.250;  227.350;    0.000
537.808; 3770.250;  225.350;    0.000
537.939; 3716.250;  250.350;    0.000
538.070; 3870.250;  263.350;    0.000
538.200; 3667.250;  270.350;    0.000
538.331; 3795.250;  249.350;    0.000
538.461; 3796.250;  230.350;    0.000
538.592; 3811.250;  282.350;    0.000
538.722; 3820.250;  253.350;    0.000
538.853; 3729.250;  240.350;    0.000
538.983; 3809.250;  232.350;    0.000
539.114; 3727.250;  248.350;    0.000
539.244; 3787.250;  256.350;    0.000
539.375; 3725.250;  248.350;    0.000
539.505; 3774.250;  235.350;    0.000
539.636; 3724.250;  237.350;    0.000
539.766; 3775.250;  263.350;    0.000
539.896; 3817.250;  217.350;    0.000
540.027; 3780.250;  217.350;    0.000
540.157; 3892.250;  231.350;    0.000
540.287; 3777.250;  210.350;    0.000
540.418; 3755.250;  239.350;    0.000
540.548; 3780.250;  260.350;    0.000
540.678; 3813.250;  228.350;    0.000
540.809; 3737.250;  241.350;    0.000
540.939; 3848.250;  238.350;    0.000
541.069; 3779.250;  245.350;    0.000
541.200; 3733.250;  225.350;    0.000
541.330; 3880.250;  219.350;    0.000
541.460; 3802.250;  254.350;    0.000
541.590; 3829.250;  234.350;    0.000
541.720; 3887.250;  196.350;    0.000
541.851; 3812.250;  200.350;    0.000
541.981; 3849.250;  235.350;    0.000
542.111; 4000.250;  246.350;    0.000
542.241; 3882.250;  214.350;    0.000
542.371; 4031.250;  221.350;    0.000
542.501; 4013.250;  259.350;    0.000
542.631; 4044.250;  213.350;    0.000
542.761; 4181.250;  240.350;    0.000
542.891; 4090.250;  242.350;    0.000
543.021; 4129.250;  230.350;    0.000
543.151; 4154.250;  261.350;    0.000
543.281; 4073.250;  212.350;    0.000
543.411; 4170.250;  229.350;    0.000
543.542; 3990.250;  204.350;    0.000
543.671; 4092.250;  260.350;    0.000
543.801; 4018.250;  236.350;    0.000
543.931; 4064.250;  243.350;    0.000
544.061; 4006.250;  262.350;    0.000
544.191; 4002.250;  223.350;    0.000
544.321; 4007.250;  217.350;    0.000
544.451; 4070.250;  209.350;    0.000
544.581; 4017.250;  213.350;    0.000
544.711; 4024.250;  256.350;    0.000
544.841; 4106.250;  235.350;    0.000
544.970; 4157.250;  260.350;    0.000
545.100; 4088.250;  236.350;    0.000
545.230; 4312.250;  220.350;    0.000
545.360; 4283.250;  219.350;    0.000
545.490; 4092.250;  217.350;    0.000
545.619; 4104.250;  199.350;    0.000
545.749; 4065.250;  183.350;    0.000
545.879; 4099.250;  169.350;    0.000
546.009; 4065.250;  215.350;    0.000
546.138; 4029.250;  228.350;    0.000
546.268; 3953.250;  209.350;    0.000
546.398; 4086.250;  167.350;    0.000
546.527; 4003.250;  178.350;    0.000
546.657; 3918.250;  175.350;    0.000
546.786; 3988.250;  225.350;    0.000
546.916; 3972.250;  196.350;    0.000
547.046; 3926.250;  185.350;    0.000
547.175; 3981.250;  184.350;    0.000
547.305; 3998.250;  197.350;    0.000
547.434; 3965.250;  168.350;    0.000
547.564; 3901.250;  183.350;    0.000
547.693; 3970.250;  204.350;    0.000
547.823; 3950.250;  211.350;    0.000
547.953; 3906.250;  174.350;    0.000
548.082; 3848.250;  217.350;    0.000
548.211; 3924.250;  201.350;    0.000
548.341; 3862.250;  195.350;    0.000
548.470; 3930.250;  225.350;    0.000
548.600; 3936.250;  194.350;    0.000
548.729; 3861.250;  218.350;    0.000
548.859; 3923.250;  202.350;    0.000
548.988; 3962.250;  193.350;    0.000
549.117; 3984.250;  182.350;    0.000
549.247; 3917.250;  198.350;    0.000
549.376; 3912.250;  200.350;    0.000
549.505; 3961.250;  200.350;    0.000
549.635; 4084.250;  224.350;    0.000
549.764; 3929.250;  200.350;    0.000
549.893; 3966.250;  224.350;    0.000
550.023; 4015.250;  207.350;    0.000
550.152; 4100.250;  167.350;    0.000
550.281; 4009.250;  219.350;    0.000
550.410; 4006.250;  217.350;    0.000
550.539; 3970.250;  211.350;    0.000
550.669; 4085.250;  173.350;    0.000
550.798; 4161.250;  211.350;    0.000
550.927; 3960.250;  195.350;    0.000
551.056; 4064.250;  176.350;    0.000
551.185; 4078.250;  203.350;    0.000
551.314; 4060.250;  178.350;    0.000
551.443; 4014.250;  185.350;    0.000
551.573; 4093.250;  167.350;    0.000
551.702; 4115.250;  193.350;    0.000
551.831; 4104.250;  245.350;    0.000
551.960; 4019.250;  190.350;    0.000
552.089; 4092.250;  202.350;    0.000
552.218; 4008.250;  211.350;    0.000
552.347; 4135.250;  184.350;    0.000
552.476; 4127.250;  200.350;    0.000
552.605; 4223.250;  174.350;    0.000
552.734; 4221.250;  206.350;    0.000
552.863; 4357.250;  189.350;    0.000
552.992; 4267.250;  209.350;    0.000
553.121; 4393.250;  201.350;    0.000
553.249; 4311.250;  208.350;    0.000
553.378; 4188.250;  142.350;    0.000
553.507; 4190.250;  208.350;    0.000
553.636; 4209.250;  192.350;    0.000
553.765; 4236.250;  182.350;    0.000
553.894; 4143.250;  183.350;    0.000
554.023; 4145.250;  182.350;    0.000
554.151; 4134.250;  211.350;    0.000
554.280; 4088.250;  179.350;    0.000
554.409; 4061.250;  182.350;    0.000
554.538; 4121.250;  209.350;    0.000
554.666; 4156.250;  182.350;    0.000
554.795; 4156.250;  179.350;    0.000
554.924; 4021.250;  217.350;    0.000
555.052; 4058.250;  220.350;    0.000
555.181; 4150.250;  228.350;    0.000
555.310; 3965.250;  212.350;    0.000
555.439; 4065.250;  199.350;    0.000
555.567; 3988.250;  220.350;    0.000
555.696; 4024.250;  187.350;    0.000
555.824; 4010.250;  189.350;    0.000
555.953; 4030.250;  217.350;    0.000
556.082; 4024.250;  187.350;    0.000
556.210; 3969.250;  245.350;    0.000
556.339; 4065.250;  195.350;    0.000
556.467; 3992.250;  218.350;    0.000
556.596; 3958.250;  198.350;    0.000
556.724; 3991.250;  201.350;    0.000
556.853; 4002.250;  196.350;    0.000
556.981; 3972.250;  175.350;    0.000
557.110; 3993.250;  210.350;    0.000
557.238; 3982.250;  190.350;    0.000
557.367; 3921.250;  192.350;    0.000
557.495; 3818.250;  219.350;    0.000
557.623; 3903.250;  203.350;    0.000
557.752; 3914.250;  166.350;    0.000
557.880; 3992.250;  172.350;    0.000
558.008; 3936.250;  221.350;    0.000
558.137; 3990.250;  211.350;    0.000
558.265; 3921.250;  157.350;    0.000
558.393; 3968.250;  198.350;    0.000
558.522; 3995.250;  209.350;    0.000
558.650; 3989.250;  260.350;    0.000
558.778; 3956.250;  203.350;    0.000
558.906; 3994.250;  210.350;    0.000
559.035; 3893.250;  194.350;    0.000
559.163; 3909.250;  192.350;    0.000
559.291; 3958.250;  215.350;    0.000
559.419; 3929.250;  197.350;    0.000
559.548; 3960.250;  160.350;    0.000
559.676; 3904.250;  200.350;    0.000
559.804; 4048.250;  223.350;    0.000
559.932; 3932.250;  213.350;    0.000
560.060; 4030.250;  224.350;    0.000
560.188; 4207.250;  221.350;    0.000
560.316; 4117.250;  223.350;    0.000
560.444; 4131.250;  159.350;    0.000
560.572; 4157.250;  204.350;    0.000
560.700; 4228.250;  213.350;    0.000
560.828; 4225.250;  216.350;    0.000
560.956; 4234.250;  207.350;    0.000
561.085; 4287.250;  231.350;    0.000
561.212; 4190.250;  197.350;    0.000
561.340; 4199.250;  192.350;    0.000
561.468; 4234.250;  215.350;    0.000
561.596; 4222.250;  215.350;    0.000
561.724; 4287.250;  181.350;    0.000
561.852; 4234.250;  184.350;    0.000
561.980; 4279.250;  217.350;    0.000
562.108; 4234.250;  199.350;    0.000
562.236; 4310.250;  181.350;    0.000
562.364; 4339.250;  234.350;    0.000
562.492; 4344.250;  225.350;    0.000
562.619; 4375.250;  204.350;    0.000
562.747; 4346.250;  223.350;    0.000
562.875; 4400.250;  210.350;    0.000
563.003; 4465.250;  232.350;    0.000
563.130; 4367.250;  224.350;    0.000
563.258; 4479.250;  213.350;    0.000
563.386; 4536.250;  191.350;    0.000
563.514; 4655.250;  252.350;    0.000
563.641; 4580.250;  201.350;    0.000
563.769; 4753.250;  201.350;    0.000
563.897; 4653.250;  176.350;    0.000
564.024; 4837.250;  167.350;    0.000
564.152; 4911.250;  205.350;    0.000
564.280; 4899.250;  222.350;    0.000
564.407; 4862.250;  192.350;    0.000
564.535; 4814.250;  231.350;    0.000
564.662; 4942.250;  197.350;    0.000
564.790; 5015.250;  200.350;    0.000
564.917; 5023.250;  172.350;    0.000
565.045; 4974.250;  187.350;    0.000
565.173; 5042.250;  173.350;    0.000
565.300; 5012.250;  196.350;    0.000
565.428; 5051.250;  195.350;    0.000
565.555; 5051.250;  191.350;    0.000
565.682; 5130.250;  169.350;    0.000
565.810; 5344.250;  198.350;    0.000
565.937; 5435.250;  213.350;    0.000
566.065; 5465.250;  221.350;    0.000
566.192; 5491.250;  173.350;    0.000
566.320; 5634.250;  214.350;    0.000
566.447; 5789.250;  214.350;    0.000
566.574; 5727.250;  188.350;    0.000
566.702; 5808.250;  198.350;    0.000
566.829; 5979.250;  200.350;    0.000
566.956; 6024.250;  194.350;    0.000
567.083; 5984.250;  176.350;    0.000
567.211; 6069.250;  189.350;    0.000
567.338; 6063.250;  184.350;    0.000
567.465; 6035.250;  181.350;    0.000
567.593; 6175.250;  194.350;    0.000
567.720; 6139.250;  193.350;    0.000
567.847; 6026.250;  196.350;    0.000
567.974; 6163.250;  199.350;    0.000
568.101; 6445.250;  150.350;    0.000
568.228; 7227.250;  174.350;    0.000
568.356; 7387.250;  164.350;    0.000
568.483; 7140.250;  163.350;    0.000
568.610; 6993.250;  187.350;    0.000
568.737; 7874.250;  192.350;    0.000
568.864; 8793.250;  218.350;    0.000
568.991; 8473.250;  169.350;    0.000
569.118; 7575.250;  161.350;    0.000
569.245; 6958.250;  161.350;    0.000
569.372; 6554.250;  187.350;    0.000
569.499; 6204.250;  146.350;    0.000
569.626; 6124.250;  172.350;    0.000
569.753; 5893.250;  188.350;    0.000
569.880; 5734.250;  180.350;    0.000
570.007; 5576.250;  187.350;    0.000
570.134; 5417.250;  196.350;    0.000
570.261; 5477.250;  127.350;    0.000
570.388; 5324.250;  189.350;    0.000
570.515; 5334.250;  219.350;    0.000
570.642; 5199.250;  187.350;    0.000
570.768; 5170.250;  175.350;    0.000
570.895; 5044.250;  165.350;    0.000
571.022; 5071.250;  180.350;    0.000
571.149; 5014.250;  209.350;    0.000
571.276; 4951.250;  187.350;    0.000
571.402; 4988.250;  227.350;    0.000
571.529; 5003.250;  166.350;    0.000
571.656; 4823.250;  203.350;    0.000
571.783; 4762.250;  156.350;    0.000
571.909; 4763.250;  195.350;    0.000
572.036; 4733.250;  165.350;    0.000
572.163; 4705.250;  156.350;    0.000
572.289; 4589.250;  193.350;    0.000
572.416; 4620.250;  199.350;    0.000
572.543; 4629.250;  185.350;    0.000
572.669; 4684.250;  180.350;    0.000
572.796; 4474.250;  173.350;    0.000
572.922; 4514.250;  186.350;    0.000
573.049; 4613.250;  185.350;    0.000
573.176; 4514.250;  196.350;    0.000
573.302; 4489.250;  189.350;    0.000
573.429; 4548.250;  186.350;    0.000
573.555; 4456.250;  220.350;    0.000
573.682; 4420.250;  196.350;    0.000
573.808; 4354.250;  201.350;    0.000
573.935; 4402.250;  188.350;    0.000
574.061; 4421.250;  216.350;    0.000
574.188; 4377.250;  161.350;    0.000
574.314; 4375.250;  189.350;    0.000
574.440; 4362.250;  190.350;    0.000
574.567; 4392.250;  201.350;    0.000
574.693; 4522.250;  175.350;    0.000
574.820; 4372.250;  188.350;    0.000
574.946; 4317.250;  182.350;    0.000
575.072; 4452.250;  188.350;    0.000
575.198; 4439.250;  232.350;    0.000
575.325; 4438.250;  159.350;    0.000
575.451; 4275.250;  231.350;    0.000
575.577; 4380.250;  196.350;    0.000
575.704; 4389.250;  177.350;    0.000
575.830; 4375.250;  171.350;    0.000
575.956; 4326.250;  163.350;    0.000
576.082; 4285.250;  197.350;    0.000
576.208; 4363.250;  181.350;    0.000
576.335; 4304.250;  218.350;    0.000
576.461; 4351.250;  207.350;    0.000
576.587; 4380.250;  173.350;    0.000
576.713; 4392.250;  170.350;    0.000
576.839; 4391.250;  186.350;    0.000
576.965; 4373.250;  194.350;    0.000
577.091; 4247.250;  167.350;    0.000
577.217; 4313.250;  212.350;    0.000
577.343; 4343.250;  214.350;    0.000
577.469; 4371.250;  208.350;    0.000
577.596; 4356.250;  188.350;    0.000
577.722; 4331.250;  221.350;    0.000
577.848; 4224.250;  197.350;    0.000
577.974; 4321.250;  222.350;    0.000
578.099; 4245.250;  187.350;    0.000
578.225; 4369.250;  213.350;    0.000
578.351; 4389.250;  190.350;    0.000
578.477; 4349.250;  212.350;    0.000
578.603; 4342.250;  178.350;    0.000
578.729; 4348.250;  193.350;    0.000
578.855; 4222.250;  194.350;    0.000
578.981; 4398.250;  152.350;    0.000
579.107; 4508.250;  175.350;    0.000
579.232; 4484.250;  192.350;    0.000
579.358; 4397.250;  186.350;    0.000
579.484; 4438.250;  186.350;    0.000
579.610; 4490.250;  199.350;    0.000
579.735; 4519.250;  197.350;    0.000
579.861; 4361.250;  203.350;    0.000
579.987; 4492.250;  220.350;    0.000
580.113; 4432.250;  210.350;    0.000
580.238; 4458.250;  189.350;    0.000
580.364; 4591.250;  214.350;    0.000
580.490; 4562.250;  205.350;    0.000
580.615; 4577.250;  231.350;    0.000
580.741; 4579.250;  212.350;    0.000
580.867; 4604.250;  196.350;    0.000
580.992; 4571.250;  214.350;    0.000
581.118; 4558.250;  178.350;    0.000
581.243; 4642.250;  209.350;    0.000
581.369; 4601.250;  173.350;    0.000
581.494; 4719.250;  209.350;    0.000
581.620; 4793.250;  204.350;    0.000
581.745; 4762.250;  168.350;    0.000
581.871; 4678.250;  236.350;    0.000
581.996; 4696.250;  212.350;    0.000
582.122; 4681.250;  192.350;    0.000
582.247; 4696.250;  179.350;    0.000
582.373; 4832.250;  189.350;    0.000
582.498; 4916.250;  217.350;    0.000
582.624; 4977.250;  231.350;    0.000
582.749; 4924.250;  237.350;    0.000
582.874; 5073.250;  205.350;    0.000
583.000; 5045.250;  204.350;    0.000
583.125; 5093.250;  192.350;    0.000
583.250; 5056.250;  229.350;    0.000
583.376; 5257.250;  256.350;    0.000
583.501; 5146.250;  200.350;    0.000
583.626; 5416.250;  207.350;    0.000
583.751; 5316.250;  215.350;    0.000
583.877; 5331.250;  212.350;    0.000
584.002; 5444.250;  227.350;    0.000
584.127; 5492.250;  153.350;    0.000
584.252; 5563.250;  197.350;    0.000
584.377; 5633.250;  183.350;    0.000
584.503; 5785.250;  211.350;    0.000
584.628; 5843.250;  215.350;    0.000
584.753; 5979.250;  194.350;    0.000
584.878; 5973.250;  154.350;    0.000
585.003; 6168.250;  213.350;    0.000
585.128; 6274.250;  199.350;    0.000
585.253; 6575.250;  219.350;    0.000
585.378; 6335.250;  174.350;    0.000
585.503; 6534.250;  202.350;    0.000
585.628; 6683.250;  186.350;    0.000
585.753; 7050.250;  209.350;    0.000
585.878; 7119.250;  167.350;    0.000
586.003; 7235.250;  226.350;    0.000
586.128; 7326.250;  206.350;    0.000
586.253; 7625.250;  198.350;    0.000
586.378; 7942.250;  180.350;    0.000
586.503; 8095.250;  201.350;    0.000
586.628; 8487.250;  206.350;    0.000
586.753; 8866.250;  178.350;    0.000
586.878; 9210.250;  228.350;    0.000
587.003; 9506.250;  199.350;    0.000
587.127; 9983.250;  194.350;    0.000
587.252;10387.250;  212.350;    0.000
587.377;11006.250;  172.350;    0.000
587.502;11752.250;  219.350;    0.000
587.627;12506.250;  247.350;    0.000
587.751;13529.250;  184.350;    0.000
587.876;14699.250;  215.350;    0.000
588.001;15656.250;  163.350;    0.000
588.125;17509.250;  185.350;    0.000
588.250;19514.250;  171.350;    0.000
588.375;22270.250;  255.350;    0.000
588.499;25851.250;  185.350;    0.000
588.624;31147.250;  167.350;    0.000
588.749;39834.250;  170.350;    0.000
588.873;49978.250;  173.350;    0.000
588.998;58484.250;  203.350;    0.000
589.122;59895.250;  184.350;    0.000
589.247;53387.250;  217.350;    0.000
589.372;48572.250;  250.350;    0.000
589.496;51338.250;  200.350;    0.000
589.621;55739.250;  199.350;    0.000
589.745;52131.250;  235.350;    0.000
589.870;42367.250;  206.350;    0.000
589.994;33683.250;  194.350;    0.000
590.118;28178.250;  177.350;    0.000
590.243;24145.250;  231.350;    0.000
590.367;21379.250;  173.350;    0.000
590.492;19101.250;  170.350;    0.000
590.616;17549.250;  182.350;    0.000
590.740;16060.250;  178.350;    0.000
590.865;14878.250;  219.350;    0.000
590.989;13847.250;  210.350;    0.000
591.114;13080.250;  194.350;    0.000
591.238;12144.250;  154.350;    0.000
591.362;11747.250;  210.350;    0.000
591.486;11102.250;  215.350;    0.000
591.611;10543.250;  194.350;    0.000
591.735;10057.250;  206.350;    0.000
591.859; 9791.250;  188.350;    0.000
591.983; 9571.250;  202.350;    0.000
592.107; 9082.250;  175.350;    0.000
592.232; 9075.250;  214.350;    0.000
592.356; 8562.250;  232.350;    0.000
592.480; 8717.250;  203.350;    0.000
592.604; 8335.250;  204.350;    0.000
592.728; 8082.250;  187.350;    0.000
592.852; 7823.250;  204.350;    0.000
592.976; 7616.250;  163.350;    0.000
593.100; 7462.250;  177.350;    0.000
593.224; 7377.250;  209.350;    0.000
593.349; 7206.250;  255.350;    0.000
593.473; 7001.250;  225.350;    0.000
593.597; 7089.250;  211.350;    0.000
593.721; 6912.250;  222.350;    0.000
593.844; 6666.250;  202.350;    0.000
593.968; 6664.250;  223.350;    0.000
594.092; 6458.250;  162.350;    0.000
594.216; 6368.250;  211.350;    0.000
594.340; 6433.250;  198.350;    0.000
594.464; 6232.250;  242.350;    0.000
594.588; 6067.250;  213.350;    0.000
594.712; 6194.250;  198.350;    0.000
594.836; 5913.250;  207.350;    0.000
594.959; 5934.250;  192.350;    0.000
595.083; 5871.250;  180.350;    0.000
595.207; 5753.250;  242.350;    0.000
595.331; 5718.250;  172.350;    0.000
595.455; 5530.250;  185.350;    0.000
595.578; 5524.250;  221.350;    0.000
595.702; 5449.250;  233.350;    0.000
595.826; 5378.250;  164.350;    0.000
595.949; 5380.250;  215.350;    0.000
596.073; 5144.250;  198.350;    0.000
596.197; 5309.250;  266.350;    0.000
596.320; 5022.250;  236.350;    0.000
596.444; 5120.250;  215.350;    0.000
596.568; 5013.250;  213.350;    0.000
596.691; 4863.250;  198.350;    0.000
596.815; 4908.250;  210.350;    0.000
596.938; 4892.250;  207.350;    0.000
597.062; 4851.250;  187.350;    0.000
597.186; 4760.250;  234.350;    0.000
597.309; 4725.250;  176.350;    0.000
597.433; 4761.250;  222.350;    0.000
597.556; 4639.250;  219.350;    0.000
597.680; 4675.250;  227.350;    0.000
597.803; 4659.250;  240.350;    0.000
597.926; 4502.250;  227.350;    0.000
598.050; 4606.250;  198.350;    0.000
598.173; 4591.250;  235.350;    0.000
598.297; 4495.250;  233.350;    0.000
598.420; 4501.250;  211.350;    0.000
598.543; 4358.250;  207.350;    0.000
598.667; 4442.250;  232.350;    0.000
598.790; 4411.250;  205.350;    0.000
598.913; 4449.250;  200.350;    0.000
599.037; 4380.250;  193.350;    0.000
599.160; 4238.250;  199.350;    0.000
599.283; 4254.250;  237.350;    0.000
599.406; 4263.250;  168.350;    0.000
599.530; 4382.250;  231.350;    0.000
599.653; 4291.250;  220.350;    0.000
599.776; 4314.250;  203.350;    0.000
599.899; 4162.250;  202.350;    0.000
600.022; 4127.250;  189.350;    0.000
600.145; 4152.250;  175.350;    0.000
600.269; 4253.250;  235.350;    0.000
600.392; 4128.250;  213.350;    0.000
600.515; 4184.250;  236.350;    0.000
600.638; 4067.250;  198.350;    0.000
600.761; 4079.250;  195.350;    0.000
600.884; 4090.250;  221.350;    0.000
601.007; 4087.250;  236.350;    0.000
601.130; 3993.250;  223.350;    0.000
601.253; 4027.250;  250.350;    0.000
601.376; 3939.250;  195.350;    0.000
601.499; 3960.250;  168.350;    0.000
601.622; 3977.250;  221.350;    0.000
601.745; 3884.250;  223.350;    0.000
601.868; 4023.250;  204.350;    0.000
601.991; 3969.250;  207.350;    0.000
602.113; 3933.250;  223.350;    0.000
602.236; 3842.250;  182.350;    0.000
602.359; 3915.250;  235.350;    0.000
602.482; 3819.250;  173.350;    0.000
602.605; 3954.250;  227.350;    0.000
602.728; 3818.250;  227.350;    0.000
602.850; 3916.250;  250.350;    0.000
602.973; 3741.250;  195.350;    0.000
603.096; 3769.250;  270.350;    0.000
603.219; 3870.250;  197.350;    0.000
603.341; 3792.250;  195.350;    0.000
603.464; 3841.250;  204.350;    0.000
603.587; 3856.250;  243.350;    0.000
603.709; 3754.250;  188.350;    0.000
603.832; 3872.250;  214.350;    0.000
603.955; 3791.250;  213.350;    0.000
604.077; 3758.250;  201.350;    0.000
604.200; 3663.250;  209.350;    0.000
604.323; 3780.250;  201.350;    0.000
604.445; 3685.250;  202.350;    0.000
604.568; 3629.250;  230.350;    0.000
604.690; 3638.250;  212.350;    0.000
604.813; 3723.250;  226.350;    0.000
604.935; 3591.250;  216.350;    0.000
605.058; 3572.250;  182.350;    0.000
605.180; 3632.250;  204.350;    0.000
605.303; 3662.250;  199.350;    0.000
605.425; 3699.250;  178.350;    0.000
605.547; 3717.250;  209.350;    0.000
605.670; 3597.250;  206.350;    0.000
605.792; 3637.250;  199.350;    0.000
605.915; 3676.250;  221.350;    0.000
606.037; 3687.250;  222.350;    0.000
606.159; 3662.250;  160.350;    0.000
606.282; 3668.250;  188.350;    0.000
606.404; 3632.250;  205.350;    0.000
606.526; 3635.250;  228.350;    0.000
606.648; 3633.250;  184.350;    0.000
606.771; 3546.250;  195.350;    0.000
606.893; 3553.250;  193.350;    0.000
607.015; 3701.250;  202.350;    0.000
607.137; 3621.250;  189.350;    0.000
607.260; 3548.250;  201.350;    0.000
607.382; 3480.250;  211.350;    0.000
607.504; 3520.250;  206.350;    0.000
607.626; 3576.250;  236.350;    0.000
607.748; 3528.250;  228.350;    0.000
607.870; 3541.250;  212.350;    0.000
607.992; 3531.250;  201.350;    0.000
608.114; 3533.250;  214.350;    0.000
608.237; 3527.250;  235.350;    0.000
608.359; 3493.250;  215.350;    0.000
608.481; 3560.250;  183.350;    0.000
608.603; 3531.250;  206.350;    0.000
608.725; 3496.250;  238.350;    0.000
608.847; 3617.250;  237.350;    0.000
608.969; 3618.250;  227.350;    0.000
609.090; 3433.250;  205.350;    0.000
609.212; 3443.250;  182.350;    0.000
609.334; 3443.250;  210.350;    0.000
609.456; 3540.250;  208.350;    0.000
609.578; 3460.250;  195.350;    0.000
609.700; 3434.250;  196.350;    0.000
609.822; 3433.250;  184.350;    0.000
609.944; 3439.250;  258.350;    0.000
610.065; 3395.250;  219.350;    0.000
610.187; 3491.250;  217.350;    0.000
610.309; 3350.250;  179.350;    0.000
610.431; 3406.250;  189.350;    0.000
610.552; 3399.250;  212.350;    0.000
610.674; 3453.250;  211.350;    0.000
610.796; 3463.250;  168.350;    0.000
610.918; 3416.250;  201.350;    0.000
611.039; 3388.250;  212.350;    0.000
611.161; 3367.250;  207.350;    0.000
611.282; 3394.250;  219.350;    0.000
611.404; 3451.250;  243.350;    0.000
611.526; 3319.250;  180.350;    0.000
611.647; 3507.250;  235.350;    0.000
611.769; 3431.250;  189.350;    0.000
611.890; 3372.250;  201.350;    0.000
612.012; 3403.250;  191.350;    0.000
612.133; 3355.250;  227.350;    0.000
612.255; 3409.250;  191.350;    0.000
612.377; 3387.250;  192.350;    0.000
612.498; 3395.250;  202.350;    0.000
612.619; 3401.250;  207.350;    0.000
612.741; 3423.250;  241.350;    0.000
612.862; 3468.250;  219.350;    0.000
612.984; 3339.250;  203.350;    0.000
613.105; 3347.250;  228.350;    0.000
613.226; 3346.250;  199.350;    0.000
613.348; 3349.250;  238.350;    0.000
613.469; 3363.250;  239.350;    0.000
613.590; 3281.250;  183.350;    0.000
613.712; 3383.250;  245.350;    0.000
613.833; 3278.250;  241.350;    0.000
613.954; 3384.250;  208.350;    0.000
614.076; 3281.250;  181.350;    0.000
614.197; 3354.250;  217.350;    0.000
614.318; 3379.250;  182.350;    0.000
614.439; 3278.250;  204.350;    0.000
614.560; 3369.250;  219.350;    0.000
614.682; 3394.250;  238.350;    0.000
614.803; 3314.250;  240.350;    0.000
614.924; 3395.250;  212.350;    0.000
615.045; 3366.250;  225.350;    0.000
615.166; 3398.250;  227.350;    0.000
615.287; 3566.250;  230.350;    0.000
615.408; 3858.250;  187.350;    0.000
615.529; 4017.250;  211.350;    0.000
615.650; 3680.250;  202.350;    0.000
615.771; 3710.250;  203.350;    0.000
615.892; 3740.250;  222.350;    0.000
616.013; 4272.250;  215.350;    0.000
616.134; 4466.250;  193.350;    0.000
616.255; 4409.250;  242.350;    0.000
616.376; 4004.250;  205.350;    0.000
616.497; 3711.250;  200.350;    0.000
616.618; 3671.250;  177.350;    0.000
616.739; 3552.250;  218.350;    0.000
616.860; 3690.250;  214.350;    0.000
616.981; 3525.250;  208.350;    0.000
617.102; 3429.250;  203.350;    0.000
617.222; 3537.250;  212.350;    0.000
617.343; 3523.250;  162.350;    0.000
617.464; 3498.250;  230.350;    0.000
617.585; 3420.250;  197.350;    0.000
617.705; 3290.250;  209.350;    0.000
617.826; 3354.250;  229.350;    0.000
617.947; 3383.250;  216.350;    0.000
618.068; 3310.250;  192.350;    0.000
618.188; 3297.250;  230.350;    0.000
618.309; 3332.250;  238.350;    0.000
618.430; 3346.250;  242.350;    0.000
618.550; 3323.250;  235.350;    0.000
618.671; 3322.250;  207.350;    0.000
618.791; 3366.250;  228.350;    0.000
618.912; 3271.250;  266.350;    0.000
619.033; 3306.250;  232.350;    0.000
619.153; 3299.250;  207.350;    0.000
619.274; 3180.250;  193.350;    0.000
619.394; 3298.250;  237.350;    0.000
619.515; 3239.250;  216.350;    0.000
619.635; 3236.250;  203.350;    0.000
619.756; 3239.250;  227.350;    0.000
619.876; 3245.250;  244.350;    0.000
619.996; 3248.250;  220.350;    0.000
620.117; 3257.250;  231.350;    0.000
620.237; 3195.250;  235.350;    0.000
620.358; 3335.250;  241.350;    0.000
620.478; 3206.250;  237.350;    0.000
620.598; 3213.250;  255.350;    0.000
620.719; 3230.250;  243.350;    0.000
620.839; 3297.250;  237.350;    0.000
620.959; 3121.250;  216.350;    0.000
621.079; 3150.250;  240.350;    0.000
621.200; 3200.250;  195.350;    0.000
621.320; 3184.250;  287.350;    0.000
621.440; 3138.250;  236.350;    0.000
621.560; 3118.250;  231.350;    0.000
621.681; 3146.250;  177.350;    0.000
621.801; 3195.250;  257.350;    0.000
621.921; 3149.250;  241.350;    0.000
622.041; 3154.250;  239.350;    0.000
622.161; 3242.250;  233.350;    0.000
622.281; 3158.250;  204.350;    0.000
622.401; 3139.250;  204.350;    0.000
622.521; 3140.250;  242.350;    0.000
622.641; 3094.250;  205.350;    0.000
622.761; 3128.250;  254.350;    0.000
622.882; 3164.250;  225.350;    0.000
623.002; 3137.250;  255.350;    0.000
623.121; 3133.250;  244.350;    0.000
623.241; 3020.250;  238.350;    0.000
623.361; 3075.250;  208.350;    0.000
623.481; 3057.250;  194.350;    0.000
623.601; 3066.250;  249.350;    0.000
623.721; 3134.250;  229.350;    0.000
623.841; 3163.250;  244.350;    0.000
623.961; 3107.250;  253.350;    0.000
624.081; 3110.250;  218.350;    0.000
624.201; 3108.250;  218.350;    0.000
624.320; 3032.250;  212.350;    0.000
624.440; 3123.250;  251.350;    0.000
624.560; 3009.250;  244.350;    0.000
624.680; 3022.250;  224.350;    0.000
624.799; 2955.250;  198.350;    0.000
624.919; 3001.250;  215.350;    0.000
625.039; 3067.250;  225.350;    0.000
625.159; 3020.250;  209.350;    0.000
625.278; 3030.250;  211.350;    0.000
625.398; 3029.250;  260.350;    0.000
625.518; 3054.250;  205.350;    0.000
625.637; 3081.250;  240.350;    0.000
625.757; 3051.250;  208.350;    0.000
625.876; 2974.250;  221.350;    0.000
625.996; 3004.250;  245.350;    0.000
626.115; 3122.250;  196.350;    0.000
626.235; 2948.250;  241.350;    0.000
626.354; 3039.250;  231.350;    0.000
626.474; 2972.250;  220.350;    0.000
626.594; 3075.250;  210.350;    0.000
626.713; 2922.250;  229.350;    0.000
626.832; 3029.250;  236.350;    0.000
626.952; 2949.250;  223.350;    0.000
627.071; 3015.250;  211.350;    0.000
627.191; 3035.250;  220.350;    0.000
627.310; 2908.250;  206.350;    0.000
627.429; 3066.250;  223.350;    0.000
627.549; 2938.250;  205.350;    0.000
627.668; 2947.250;  227.350;    0.000
627.787; 2941.250;  221.350;    0.000
627.907; 2933.250;  194.350;    0.000
628.026; 3060.250;  231.350;    0.000
628.145; 2960.250;  210.350;    0.000
628.264; 2909.250;  245.350;    0.000
628.384; 3020.250;  234.350;    0.000
628.503; 2938.250;  210.350;    0.000
628.622; 2951.250;  223.350;    0.000
628.741; 2979.250;  210.350;    0.000
628.860; 2924.250;  222.350;    0.000
628.980; 2985.250;  184.350;    0.000
629.099; 2976.250;  234.350;    0.000
629.218; 2953.250;  157.350;    0.000
629.337; 2987.250;  220.350;    0.000
629.456; 2947.250;  210.350;    0.000
629.575; 2884.250;  239.350;    0.000
629.694; 2999.250;  216.350;    0.000
629.813; 3024.250;  218.350;    0.000
629.932; 2971.250;  175.350;    0.000
630.051; 2907.250;  218.350;    0.000
630.170; 2943.250;  215.350;    0.000
630.289; 2829.250;  203.350;    0.000
630.408; 2865.250;  180.350;    0.000
630.527; 2897.250;  249.350;    0.000
630.646; 2897.250;  186.350;    0.000
630.764; 2847.250;  189.350;    0.000
630.883; 2954.250;  221.350;    0.000
631.002; 2946.250;  191.350;    0.000
631.121; 2868.250;  210.350;    0.000
631.240; 2924.250;  256.350;    0.000
631.359; 2889.250;  246.350;    0.000
631.477; 2948.250;  230.350;    0.000
631.596; 2948.250;  229.350;    0.000
631.715; 2909.250;  242.350;    0.000
631.834; 2903.250;  261.350;    0.000
631.952; 2972.250;  250.350;    0.000
632.071; 2893.250;  218.350;    0.000
632.190; 2775.250;  200.350;    0.000
632.308; 2874.250;  226.350;    0.000
632.427; 2793.250;  234.350;    0.000
632.546; 2833.250;  250.350;    0.000
632.664; 2806.250;  224.350;    0.000
632.783; 2893.250;  211.350;    0.000
632.901; 2912.250;  254.350;    0.000
633.020; 2860.250;  204.350;    0.000
633.138; 2916.250;  228.350;    0.000
633.257; 2822.250;  219.350;    0.000
633.375; 2828.250;  243.350;    0.000
633.494; 2749.250;  242.350;    0.000
633.612; 2873.250;  227.350;    0.000
633.731; 2745.250;  221.350;    0.000
633.849; 2868.250;  239.350;    0.000
633.968; 2753.250;  219.350;    0.000
634.086; 2790.250;  218.350;    0.000
634.204; 2802.250;  203.350;    0.000
634.323; 2826.250;  222.350;    0.000
634.441; 2861.250;  257.350;    0.000
634.559; 2838.250;  201.350;    0.000
634.678; 2766.250;  214.350;    0.000
634.796; 2842.250;  207.350;    0.000
634.914; 2852.250;  226.350;    0.000
635.032; 2798.250;  250.350;    0.000
635.151; 2824.250;  228.350;    0.000
635.269; 2782.250;  188.350;    0.000
635.387; 2822.250;  247.350;    0.000
635.505; 2811.250;  250.350;    0.000
635.623; 2792.250;  230.350;    0.000
635.742; 2759.250;  209.350;    0.000
635.860; 2764.250;  239.350;    0.000
635.978; 2766.250;  213.350;    0.000
636.096; 2791.250;  176.350;    0.000
636.214; 2677.250;  246.350;    0.000
636.332; 2719.250;  224.350;    0.000
636.450; 2839.250;  215.350;    0.000
636.568; 2778.250;  246.350;    0.000
636.686; 2753.250;  225.350;    0.000
636.804; 2712.250;  218.350;    0.000
636.922; 2713.250;  195.350;    0.000
637.040; 2805.250;  213.350;    0.000
637.158; 2762.250;  228.350;    0.000
637.276; 2814.250;  206.350;    0.000
637.394; 2753.250;  224.350;    0.000
637.512; 2792.250;  245.350;    0.000
637.629; 2722.250;  234.350;    0.000
637.747; 2780.250;  233.350;    0.000
637.865; 2756.250;  236.350;    0.000
637.983; 2770.250;  235.350;    0.000
638.101; 2753.250;  232.350;    0.000
638.218; 2764.250;  256.350;    0.000
638.336; 2759.250;  216.350;    0.000
638.454; 2685.250;  255.350;    0.000
638.572; 2748.250;  237.350;    0.000
638.689; 2718.250;  271.350;    0.000
638.807; 2739.250;  243.350;    0.000
638.925; 2679.250;  259.350;    0.000
639.042; 2702.250;  185.350;    0.000
639.160; 2721.250;  250.350;    0.000
639.278; 2676.250;  207.350;    0.000
639.395; 2789.250;  243.350;    0.000
639.513; 2709.250;  235.350;    0.000
639.630; 2754.250;  230.350;    0.000
639.748; 2688.250;  192.350;    0.000
639.865; 2761.250;  219.350;    0.000
639.983; 2766.250;  183.350;    0.000
640.100; 2680.250;  251.350;    0.000
640.218; 2714.250;  246.350;    0.000
640.335; 2715.250;  227.350;    0.000
640.453; 2734.250;  259.350;    0.000
640.570; 2702.250;  251.350;    0.000
640.688; 2627.250;  223.350;    0.000
640.805; 2646.250;  246.350;    0.000
640.922; 2699.250;  249.350;    0.000
641.040; 2698.250;  257.350;    0.000
641.157; 2694.250;  207.350;    0.000
641.274; 2711.250;  241.350;    0.000
641.391; 2684.250;  246.350;    0.000
641.509; 2705.250;  216.350;    0.000
641.626; 2746.250;  252.350;    0.000
641.743; 2676.250;  215.350;    0.000
641.860; 2681.250;  234.350;    0.000
641.978; 2661.250;  216.350;    0.000
642.095; 2754.250;  247.350;    0.000
642.212; 2724.250;  199.350;    0.000
642.329; 2783.250;  237.350;    0.000
642.446; 2654.250;  222.350;    0.000
642.563; 2710.250;  287.350;    0.000
642.681; 2666.250;  261.350;    0.000
642.798; 2705.250;  251.350;    0.000
642.915; 2679.250;  238.350;    0.000
643.032; 2748.250;  246.350;    0.000
643.149; 2742.250;  239.350;    0.000
643.266; 2738.250;  238.350;    0.000
643.383; 2698.250;  231.350;    0.000
643.500; 2663.250;  212.350;    0.000
643.617; 2675.250;  236.350;    0.000
643.734; 2602.250;  239.350;    0.000
643.850; 2586.250;  234.350;    0.000
643.967; 2696.250;  253.350;    0.000
644.084; 2709.250;  253.350;    0.000
644.201; 2619.250;  227.350;    0.000
644.318; 2638.250;  247.350;    0.000
644.435; 2814.250;  264.350;    0.000
644.552; 2693.250;  230.350;    0.000
644.668; 2740.250;  250.350;    0.000
644.785; 2831.250;  235.350;    0.000
644.902; 2684.250;  227.350;    0.000
645.019; 2674.250;  203.350;    0.000
645.135; 2712.250;  210.350;    0.000
645.252; 2779.250;  206.350;    0.000
645.369; 2717.250;  235.350;    0.000
645.485; 2723.250;  223.350;    0.000
645.602; 2776.250;  205.350;    0.000
645.719; 2713.250;  222.350;    0.000
645.835; 2739.250;  246.350;    0.000
645.952; 2780.250;  239.350;    0.000
646.068; 2719.250;  225.350;    0.000
646.185; 2835.250;  248.350;    0.000
646.302; 2802.250;  226.350;    0.000
646.418; 2771.250;  228.350;    0.000
646.535; 2757.250;  219.350;    0.000
646.651; 2813.250;  204.350;    0.000
646.768; 2823.250;  247.350;    0.000
646.884; 2792.250;  228.350;    0.000
647.000; 2809.250;  223.350;    0.000
647.117; 2788.250;  251.350;    0.000
647.233; 2768.250;  223.350;    0.000
647.350; 2795.250;  237.350;    0.000
647.466; 2855.250;  223.350;    0.000
647.582; 2792.250;  243.350;    0.000
647.699; 2901.250;  223.350;    0.000
647.815; 2873.250;  215.350;    0.000
647.931; 2785.250;  214.350;    0.000
648.047; 2877.250;  199.350;    0.000
648.164; 2953.250;  233.350;    0.000
648.280; 2866.250;  231.350;    0.000
648.396; 2882.250;  215.350;    0.000
648.512; 2986.250;  252.350;    0.000
648.629; 2912.250;  237.350;    0.000
648.745; 2866.250;  216.350;    0.000
648.861; 2992.250;  207.350;    0.000
648.977; 2962.250;  247.350;    0.000
649.093; 2944.250;  221.350;    0.000
649.209; 2841.250;  232.350;    0.000
649.325; 2914.250;  245.350;    0.000
649.441; 3007.250;  253.350;    0.000
649.557; 2910.250;  221.350;    0.000
649.673; 2921.250;  182.350;    0.000
649.789; 2918.250;  245.350;    0.000
649.905; 2864.250;  204.350;    0.000
650.021; 3001.250;  270.350;    0.000
650.137; 2958.250;  218.350;    0.000
650.253; 2924.250;  268.350;    0.000
650.369; 2936.250;  222.350;    0.000
650.485; 2955.250;  215.350;    0.000
650.601; 2950.250;  218.350;    0.000
650.717; 2994.250;  208.350;    0.000
650.833; 3009.250;  263.350;    0.000
650.948; 2989.250;  266.350;    0.000
651.064; 3105.250;  271.350;    0.000
651.180; 3076.250;  232.350;    0.000
651.296; 2966.250;  237.350;    0.000
651.411; 3008.250;  233.350;    0.000
651.527; 3064.250;  232.350;    0.000
651.643; 3084.250;  259.350;    0.000
651.759; 3043.250;  257.350;    0.000
651.874; 3010.250;  216.350;    0.000
651.990; 3037.250;  234.350;    0.000
652.105; 3121.250;  195.350;    0.000
652.221; 3145.250;  245.350;    0.000
652.337; 3259.250;  210.350;    0.000
652.452; 3100.250;  259.350;    0.000
652.568; 3154.250;  202.350;    0.000
652.683; 3182.250;  233.350;    0.000
652.799; 3182.250;  230.350;    0.000
652.914; 3203.250;  198.350;    0.000
653.030; 3191.250;  203.350;    0.000
653.145; 3336.250;  228.350;    0.000
653.261; 3332.250;  244.350;    0.000
653.376; 3272.250;  214.350;    0.000
653.492; 3369.250;  246.350;    0.000
653.607; 3405.250;  241.350;    0.000
653.722; 3467.250;  257.350;    0.000
653.838; 3441.250;  265.350;    0.000
653.953; 3547.250;  252.350;    0.000
654.068; 3662.250;  270.350;    0.000
654.184; 3584.250;  248.350;    0.000
654.299; 3689.250;  226.350;    0.000
654.414; 3752.250;  190.350;    0.000
654.530; 3711.250;  263.350;    0.000
654.645; 3820.250;  240.350;    0.000
654.760; 3829.250;  243.350;    0.000
654.875; 3924.250;  210.350;    0.000
654.990; 4007.250;  250.350;    0.000
655.106; 4249.250;  277.350;    0.000
655.221; 4235.250;  249.350;    0.000
655.336; 4296.250;  239.350;    0.000
655.451; 4527.250;  226.350;    0.000
655.566; 4555.250;  236.350;    0.000
655.681; 4780.250;  272.350;    0.000
655.796; 4793.250;  224.350;    0.000
655.911; 5077.250;  247.350;    0.000
656.026; 5263.250;  240.350;    0.000
656.141; 5343.250;  239.350;    0.000
656.256; 5517.250;  241.350;    0.000
656.371; 5570.250;  213.350;    0.000
656.486; 5516.250;  275.350;    0.000
656.601; 5531.250;  225.350;    0.000
656.716; 5355.250;  239.350;    0.000
656.831; 5272.250;  260.350;    0.000
656.946; 5100.250;  250.350;    0.000
657.060; 5061.250;  257.350;    0.000
657.175; 4855.250;  256.350;    0.000
657.290; 4795.250;  255.350;    0.000
657.405; 4709.250;  303.350;    0.000
657.520; 4529.250;  272.350;    0.000
657.634; 4550.250;  268.350;    0.000
657.749; 4397.250;  261.350;    0.000
657.864; 4245.250;  235.350;    0.000
657.979; 4204.250;  257.350;    0.000
658.093; 4122.250;  243.350;    0.000
658.208; 4066.250;  281.350;    0.000
658.323; 3908.250;  240.350;    0.000
658.437; 3924.250;  285.350;    0.000
658.552; 3989.250;  262.350;    0.000
658.666; 3940.250;  269.350;    0.000
658.781; 3846.250;  244.350;    0.000
658.895; 3783.250;  259.350;    0.000
659.010; 3641.250;  254.350;    0.000
659.125; 3584.250;  210.350;    0.000
659.239; 3675.250;  212.350;    0.000
659.353; 3614.250;  269.350;    0.000
659.468; 3541.250;  269.350;    0.000
659.582; 3532.250;  244.350;    0.000
659.697; 3477.250;  262.350;    0.000
659.811; 3421.250;  271.350;    0.000
659.926; 3410.250;  232.350;    0.000
660.040; 3372.250;  250.350;    0.000
660.154; 3339.250;  209.350;    0.000
660.269; 3314.250;  212.350;    0.000
660.383; 3306.250;  237.350;    0.000
660.497; 3288.250;  231.350;    0.000
660.612; 3241.250;  232.350;    0.000
660.726; 3245.250;  276.350;    0.000
660.840; 3302.250;  235.350;    0.000
660.954; 3132.250;  224.350;    0.000
661.068; 3137.250;  241.350;    0.000
661.183; 3078.250;  223.350;    0.000
661.297; 3056.250;  255.350;    0.000
661.411; 3052.250;  223.350;    0.000
661.525; 3063.250;  249.350;    0.000
661.639; 3020.250;  264.350;    0.000
661.753; 2914.250;  225.350;    0.000
661.867; 2917.250;  245.350;    0.000
661.981; 2807.250;  225.350;    0.000
662.095; 2969.250;  262.350;    0.000
662.209; 2913.250;  225.350;    0.000
662.323; 2886.250;  228.350;    0.000
662.437; 2840.250;  230.350;    0.000
662.551; 2823.250;  234.350;    0.000
662.665; 2796.250;  212.350;    0.000
662.779; 2862.250;  254.350;    0.000
662.893; 2828.250;  269.350;    0.000
663.007; 2693.250;  196.350;    0.000
663.121; 2697.250;  262.350;    0.000
663.235; 2737.250;  263.350;    0.000
663.349; 2760.250;  242.350;    0.000
663.462; 2735.250;  234.350;    0.000
663.576; 2770.250;  219.350;    0.000
663.690; 2654.250;  234.350;    0.000
663.804; 2638.250;  205.350;    0.000
663.917; 2667.250;  224.350;    0.000
664.031; 2579.250;  208.350;    0.000
664.145; 2754.250;  241.350;    0.000
664.258; 2608.250;  188.350;    0.000
664.372; 2552.250;  214.350;    0.000
664.486; 2505.250;  203.350;    0.000
664.599; 2621.250;  217.350;    0.000
664.713; 2534.250;  286.350;    0.000
664.827; 2571.250;  199.350;    0.000
664.940; 2555.250;  250.350;    0.000
665.054; 2468.250;  261.350;    0.000
665.167; 2492.250;  258.350;    0.000
665.281; 2516.250;  234.350;    0.000
665.394; 2445.250;  213.350;    0.000
665.508; 2451.250;  222.350;    0.000
665.621; 2525.250;  254.350;    0.000
665.735; 2523.250;  252.350;    0.000
665.848; 2531.250;  248.350;    0.000
665.961; 2548.250;  234.350;    0.000
666.075; 2485.250;  262.350;    0.000
666.188; 2464.250;  270.350;    0.000
666.301; 2487.250;  237.350;    0.000
666.415; 2391.250;  245.350;    0.000
666.528; 2459.250;  248.350;    0.000
666.641; 2374.250;  210.350;    0.000
666.755; 2437.250;  218.350;    0.000
666.868; 2417.250;  224.350;    0.000
666.981; 2477.250;  244.350;    0.000
667.094; 2375.250;  279.350;    0.000
667.207; 2404.250;  190.350;    0.000
667.321; 2336.250;  210.350;    0.000
667.434; 2332.250;  205.350;    0.000
667.547; 2400.250;  253.350;    0.000
667.660; 2313.250;  243.350;    0.000
667.773; 2309.250;  242.350;    0.000
667.886; 2315.250;  218.350;    0.000
667.999; 2381.250;  226.350;    0.000
668.112; 2315.250;  258.350;    0.000
668.225; 2364.250;  243.350;    0.000
668.338; 2338.250;  224.350;    0.000
668.451; 2235.250;  250.350;    0.000
668.564; 2264.250;  260.350;    0.000
668.677; 2289.250;  204.350;    0.000
668.790; 2253.250;  229.350;    0.000
668.903; 2216.250;  269.350;    0.000
669.016; 2185.250;  228.350;    0.000
669.129; 2251.250;  253.350;    0.000
669.242; 2240.250;  245.350;    0.000
669.354; 2324.250;  234.350;    0.000
669.467; 2209.250;  256.350;    0.000
669.580; 2300.250;  223.350;    0.000
669.693; 2251.250;  252.350;    0.000
669.806; 2195.250;  212.350;    0.000
669.918; 2177.250;  228.350;    0.000
670.031; 2206.250;  265.350;    0.000
670.144; 2235.250;  255.350;    0.000
670.256; 2239.250;  229.350;    0.000
670.369; 2241.250;  301.350;    0.000
670.482; 2226.250;  263.350;    0.000
670.594; 2228.250;  246.350;    0.000
670.707; 2261.250;  255.350;    0.000
670.820; 2237.250;  256.350;    0.000
670.932; 2166.250;  210.350;    0.000
671.045; 2250.250;  249.350;    0.000
671.157; 2249.250;  254.350;    0.000
671.270; 2168.250;  265.350;    0.000
671.382; 2190.250;  219.350;    0.000
671.495; 2182.250;  242.350;    0.000
671.607; 2216.250;  266.350;    0.000
671.720; 2202.250;  238.350;    0.000
671.832; 2127.250;  220.350;    0.000
671.944; 2192.250;  251.350;    0.000
672.057; 2190.250;  232.350;    0.000
672.169; 2149.250;  240.350;    0.000
672.281; 2128.250;  270.350;    0.000
672.394; 2147.250;  257.350;    0.000
672.506; 2131.250;  247.350;    0.000
672.618; 2122.250;  229.350;    0.000
672.731; 2120.250;  227.350;    0.000
672.843; 2101.250;  282.350;    0.000
672.955; 2247.250;  262.350;    0.000
673.067; 2169.250;  277.350;    0.000
673.180; 2162.250;  280.350;    0.000
673.292; 2145.250;  241.350;    0.000
673.404; 2164.250;  234.350;    0.000
673.516; 2121.250;  224.350;    0.000
673.628; 2130.250;  272.350;    0.000
673.740; 2132.250;  249.350;    0.000
673.852; 2178.250;  288.350;    0.000
673.964; 2101.250;  278.350;    0.000
674.076; 2110.250;  273.350;    0.000
674.188; 2090.250;  251.350;    0.000
674.300; 2151.250;  244.350;    0.000
674.412; 2102.250;  267.350;    0.000
674.524; 2070.250;  276.350;    0.000
674.636; 2140.250;  234.350;    0.000
674.748; 2054.250;  267.350;    0.000
674.860; 2107.250;  255.350;    0.000
674.972; 2108.250;  253.350;    0.000
675.084; 2016.250;  253.350;    0.000
675.196; 2157.250;  300.350;    0.000
675.307; 2104.250;  307.350;    0.000
675.419; 1987.250;  245.350;    0.000
675.531; 2095.250;  292.350;    0.000
675.643; 2057.250;  244.350;    0.000
675.755; 2100.250;  265.350;    0.000
675.866; 2107.250;  281.350;    0.000
675.978; 2057.250;  266.350;    0.000
676.090; 2041.250;  267.350;    0.000
676.201; 2062.250;  265.350;    0.000
676.313; 2069.250;  222.350;    0.000
676.425; 2101.250;  248.350;    0.000
676.536; 2088.250;  234.350;    0.000
676.648; 1990.250;  261.350;    0.000
676.759; 2068.250;  280.350;    0.000
676.871; 2026.250;  260.350;    0.000
676.983; 2078.250;  277.350;    0.000
677.094; 2057.250;  252.350;    0.000
677.206; 2038.250;  238.350;    0.000
677.317; 1947.250;  269.350;    0.000
677.429; 2030.250;  245.350;    0.000
677.540; 1968.250;  244.350;    0.000
677.651; 2004.250;  225.350;    0.000
677.763; 2002.250;  216.350;    0.000
677.874; 2053.250;  226.350;    0.000
677.986; 1948.250;  234.350;    0.000
678.097; 1995.250;  237.350;    0.000
678.208; 2021.250;  278.350;    0.000
678.320; 2082.250;  243.350;    0.000
678.431; 1934.250;  248.350;    0.000
678.542; 1935.250;  240.350;    0.000
678.653; 1983.250;  250.350;    0.000
678.765; 1982.250;  258.350;    0.000
678.876; 2002.250;  221.350;    0.000
678.987; 1932.250;  229.350;    0.000
679.098; 1953.250;  233.350;    0.000
679.209; 1935.250;  274.350;    0.000
679.320; 1900.250;  216.350;    0.000
679.432; 1934.250;  246.350;    0.000
679.543; 1891.250;  226.350;    0.000
679.654; 1918.250;  232.350;    0.000
679.765; 1995.250;  246.350;    0.000
679.876; 1989.250;  263.350;    0.000
679.987; 1904.250;  216.350;    0.000
680.098; 1937.250;  262.350;    0.000
680.209; 1902.250;  219.350;    0.000
680.320; 1891.250;  232.350;    0.000
680.431; 1930.250;  261.350;    0.000
680.542; 1911.250;  219.350;    0.000
680.653; 1914.250;  238.350;    0.000
680.763; 1908.250;  191.350;    0.000
680.874; 1867.250;  267.350;    0.000
680.985; 1912.250;  240.350;    0.000
681.096; 1879.250;  251.350;    0.000
681.207; 1890.250;  232.350;    0.000
681.318; 1891.250;  211.350;    0.000
681.428; 1841.250;  233.350;    0.000
681.539; 1881.250;  197.350;    0.000
681.650; 1887.250;  197.350;    0.000
681.760; 1866.250;  243.350;    0.000
681.871; 1885.250;  245.350;    0.000
681.982; 1866.250;  218.350;    0.000
682.093; 1908.250;  262.350;    0.000
682.203; 1915.250;  250.350;    0.000
682.314; 1884.250;  239.350;    0.000
682.424; 1864.250;  250.350;    0.000
682.535; 1876.250;  206.350;    0.000
682.646; 1857.250;  302.350;    0.000
682.756; 1921.250;  258.350;    0.000
682.867; 1953.250;  265.350;    0.000
682.977; 1863.250;  218.350;    0.000
683.088; 1871.250;  264.350;    0.000
683.198; 1892.250;  236.350;    0.000
683.308; 1878.250;  246.350;    0.000
683.419; 1896.250;  296.350;    0.000
683.529; 1857.250;  242.350;    0.000
683.640; 1855.250;  245.350;    0.000
683.750; 1873.250;  213.350;    0.000
683.860; 1884.250;  256.350;    0.000
683.971; 1849.250;  251.350;    0.000
684.081; 1886.250;  232.350;    0.000
684.191; 1921.250;  252.350;    0.000
684.301; 1934.250;  214.350;    0.000
684.412; 1907.250;  261.350;    0.000
684.522; 1856.250;  243.350;    0.000
684.632; 1820.250;  257.350;    0.000
684.742; 1936.250;  271.350;    0.000
684.852; 1942.250;  258.350;    0.000
684.963; 1913.250;  262.350;    0.000
685.073; 1879.250;  219.350;    0.000
685.183; 1891.250;  270.350;    0.000
685.293; 1835.250;  233.350;    0.000
685.403; 1840.250;  274.350;    0.000
685.513; 1916.250;  280.350;    0.000
685.623; 1879.250;  267.350;    0.000
685.733; 1879.250;  274.350;    0.000
685.843; 1833.250;  274.350;    0.000
685.953; 1923.250;  244.350;    0.000
686.063; 1799.250;  261.350;    0.000
686.173; 1963.250;  283.350;    0.000
686.283; 1879.250;  260.350;    0.000
686.393; 1872.250;  256.350;    0.000
686.503; 1909.250;  295.350;    0.000
686.612; 1903.250;  294.350;    0.000
686.722; 1893.250;  263.350;    0.000
686.832; 1935.250;  291.350;    0.000
686.942; 1891.250;  229.350;    0.000
687.052; 1856.250;  241.350;    0.000
687.161; 1909.250;  304.350;    0.000
687.271; 1796.250;  223.350;    0.000
687.381; 1859.250;  273.350;    0.000
687.491; 1841.250;  246.350;    0.000
687.600; 1831.250;  242.350;    0.000
687.710; 1844.250;  225.350;    0.000
687.820; 1849.250;  259.350;    0.000
687.929; 1861.250;  232.350;    0.000
688.039; 1838.250;  248.350;    0.000
688.148; 1841.250;  250.350;    0.000
688.258; 1875.250;  240.350;    0.000
688.367; 1842.250;  253.350;    0.000
688.477; 1822.250;  229.350;    0.000
688.586; 1832.250;  259.350;    0.000
688.696; 1842.250;  250.350;    0.000
688.805; 1837.250;  279.350;    0.000
688.915; 1808.250;  250.350;    0.000
689.024; 1790.250;  240.350;    0.000
689.134; 1827.250;  269.350;    0.000
689.243; 1760.250;  214.350;    0.000
689.352; 1874.250;  257.350;    0.000
689.462; 1731.250;  248.350;    0.000
689.571; 1840.250;  233.350;    0.000
689.680; 1781.250;  236.350;    0.000
689.790; 1769.250;  238.350;    0.000
689.899; 1774.250;  232.350;    0.000
690.008; 1761.250;  259.350;    0.000
690.117; 1809.250;  254.350;    0.000
690.227; 1842.250;  251.350;    0.000
690.336; 1752.250;  240.350;    0.000
690.445; 1832.250;  235.350;    0.000
690.554; 1774.250;  243.350;    0.000
690.663; 1812.250;  214.350;    0.000
690.772; 1830.250;  247.350;    0.000
690.881; 1785.250;  249.350;    0.000
690.990; 1857.250;  265.350;    0.000
691.099; 1842.250;  217.350;    0.000
691.209; 1833.250;  272.350;    0.000
691.318; 1786.250;  223.350;    0.000
691.427; 1746.250;  212.350;    0.000
691.536; 1816.250;  260.350;    0.000
691.644; 1766.250;  246.350;    0.000
691.753; 1746.250;  251.350;    0.000
691.862; 1786.250;  239.350;    0.000
691.971; 1834.250;  253.350;    0.000
692.080; 1845.250;  255.350;    0.000
692.189; 1752.250;  228.350;    0.000
692.298; 1832.250;  243.350;    0.000
692.406; 1778.250;  269.350;    0.000
692.515; 1830.250;  254.350;    0.000
692.624; 1782.250;  225.350;    0.000
692.733; 1727.250;  245.350;    0.000
692.842; 1783.250;  259.350;    0.000
692.950; 1818.250;  226.350;    0.000
693.059; 1770.250;  216.350;    0.000
693.168; 1832.250;  266.350;    0.000
693.276; 1781.250;  236.350;    0.000
693.385; 1823.250;  257.350;    0.000
693.494; 1754.250;  268.350;    0.000
693.602; 1758.250;  239.350;    0.000
693.711; 1821.250;  224.350;    0.000
693.819; 1734.250;  263.350;    0.000
693.928; 1859.250;  270.350;    0.000
694.036; 1754.250;  247.350;    0.000
694.145; 1782.250;  261.350;    0.000
694.253; 1752.250;  261.350;    0.000
694.362; 1794.250;  253.350;    0.000
694.470; 1785.250;  270.350;    0.000
694.579; 1768.250;  233.350;    0.000
694.687; 1796.250;  260.350;    0.000
694.795; 1841.250;  228.350;    0.000
694.904; 1764.250;  228.350;    0.000
695.012; 1800.250;  288.350;    0.000
695.120; 1847.250;  230.350;    0.000
695.229; 1867.250;  287.350;    0.000
695.337; 1722.250;  249.350;    0.000
695.445; 1831.250;  283.350;    0.000
695.553; 1761.250;  251.350;    0.000
695.662; 1849.250;  236.350;    0.000
695.770; 1735.250;  267.350;    0.000
695.878; 1864.250;  268.350;    0.000
695.986; 1737.250;  297.350;    0.000
696.094; 1804.250;  275.350;    0.000
696.202; 1742.250;  201.350;    0.000
696.310; 1763.250;  283.350;    0.000
696.419; 1801.250;  261.350;    0.000
696.527; 1730.250;  252.350;    0.000
696.635; 1829.250;  249.350;    0.000
696.743; 1778.250;  236.350;    0.000
696.851; 1833.250;  241.350;    0.000
696.959; 1742.250;  278.350;    0.000
697.067; 1868.250;  239.350;    0.000
697.174; 1750.250;  260.350;    0.000
697.282; 1790.250;  259.350;    0.000
697.390; 1818.250;  302.350;    0.000
697.498; 1788.250;  216.350;    0.000
697.606; 1789.250;  245.350;    0.000
697.714; 1764.250;  279.350;    0.000
697.822; 1802.250;  267.350;    0.000
697.929; 1808.250;  234.350;    0.000
698.037; 1761.250;  255.350;    0.000
698.145; 1718.250;  226.350;    0.000
698.253; 1755.250;  261.350;    0.000
698.360; 1818.250;  299.350;    0.000
698.468; 1745.250;  254.350;    0.000
698.576; 1852.250;  307.350;    0.000
698.683; 1804.250;  280.350;    0.000
698.791; 1819.250;  284.350;    0.000
698.899; 1754.250;  279.350;    0.000
699.006; 1800.250;  264.350;    0.000
699.114; 1769.250;  263.350;    0.000
699.221; 1785.250;  291.350;    0.000
699.329; 1765.250;  309.350;    0.000
699.436; 1784.250;  261.350;    0.000
699.544; 1805.250;  259.350;    0.000
699.651; 1726.250;  251.350;    0.000
699.759; 1728.250;  251.350;    0.000
699.866; 1768.250;  266.350;    0.000
699.974; 1801.250;  264.350;    0.000
700.081; 1776.250;  295.350;    0.000
700.188; 1764.250;  293.350;    0.000
700.296; 1715.250;  233.350;    0.000
700.403; 1795.250;  290.350;    0.000
700.510; 1726.250;  275.350;    0.000
700.618; 1745.250;  273.350;    0.000
700.725; 1673.250;  262.350;    0.000
700.832; 1757.250;  250.350;    0.000
700.940; 1757.250;  300.350;    0.000
701.047; 1716.250;  245.350;    0.000
701.154; 1744.250;  280.350;    0.000
701.261; 1736.250;  270.350;    0.000
701.368; 1714.250;  286.350;    0.000
701.475; 1764.250;  301.350;    0.000
701.582; 1721.250;  286.350;    0.000
701.690; 1671.250;  279.350;    0.000
701.797; 1815.250;  292.350;    0.000
701.904; 1818.250;  314.350;    0.000
702.011; 1737.250;  340.350;    0.000
702.118; 1770.250;  276.350;    0.000
702.225; 1807.250;  351.350;    0.000
702.332; 1741.250;  301.350;    0.000
702.439; 1882.250;  334.350;    0.000
702.546; 1882.250;  325.350;    0.000
702.652; 1756.250;  343.350;    0.000
702.759; 1825.250;  339.350;    0.000
702.866; 1808.250;  344.350;    0.000
702.973; 1848.250;  330.350;    0.000
703.080; 1800.250;  322.350;    0.000
703.187; 1777.250;  327.350;    0.000
703.294; 1786.250;  339.350;    0.000
703.400; 1683.250;  325.350;    0.000
703.507;  491.250;  372.350;    0.000
703.614;  299.250;  348.350;    0.000
703.720;  304.250;  333.350;    0.000
703.827;  358.250;  331.350;    0.000
703.934;  315.250;  330.350;    0.000
704.040;  307.250;  327.350;    0.000
704.147;  341.250;  327.350;    0.000
704.254;  329.250;  354.350;    0.000
704.360;  292.250;  337.350;    0.000
704.467;  343.250;  370.350;    0.000
704.573;  331.250;  367.350;    0.000
704.680;  302.250;  339.350;    0.000
704.786;  326.250;  356.350;    0.000
704.893;  299.250;  352.350;    0.000
704.999;  343.250;  332.350;    0.000
705.106;  345.250;  359.350;    0.000

