
Integration time [ms]:   0.300
Averaging Nr. [scans]: 1
Smoothing Nr. [pixels]: 0
Data measured with spectrometer [name]: VIS
Wave   ;Sample   ;Dark     ;Reference
[nm]   ;[counts] ;[counts] ;[counts] 

450.961;  223.425;  204.125;    0.000
451.100;  200.425;  219.125;    0.000
451.239;  211.425;  196.125;    0.000
451.377;  243.425;  252.125;    0.000
451.516;  228.425;  215.125;    0.000
451.655;  220.425;  214.125;    0.000
451.794;  216.425;  241.125;    0.000
451.932;  222.425;  242.125;    0.000
452.071;  222.425;  204.125;    0.000
452.210;  212.425;  243.125;    0.000
452.348;  210.425;  241.125;    0.000
452.487;  214.425;  246.125;    0.000
452.626;  195.425;  235.125;    0.000
452.764;  231.425;  230.125;    0.000
452.903;  212.425;  199.125;    0.000
453.042;  293.425;  178.125;    0.000
453.180; 3777.425;  291.125;    0.000
453.319; 3878.425;  335.125;    0.000
453.458; 3856.425;  245.125;    0.000
453.596; 3956.425;  325.125;    0.000
453.735; 4055.425;  291.125;    0.000
453.873; 3923.425;  295.125;    0.000
454.012; 3985.425;  291.125;    0.000
454.150; 4174.425;  292.125;    0.000
454.289; 4096.425;  328.125;    0.000
454.427; 4244.425;  295.125;    0.000
454.566; 4244.425;  295.125;    0.000
454.704; 4387.425;  301.125;    0.000
454.843; 4239.425;  278.125;    0.000
454.981; 4362.425;  306.125;    0.000
455.120; 4386.425;  237.125;    0.000
455.258; 4540.425;  325.125;    0.000
455.397; 4560.425;  276.125;    0.000
455.535; 4572.425;  269.125;    0.000
455.674; 4527.425;  259.125;    0.000
455.812; 4609.425;  264.125;    0.000
455.951; 4602.425;  286.125;    0.000
456.089; 4626.425;  302.125;    0.000
456.227; 4706.425;  230.125;    0.000
456.366; 4706.425;  303.125;    0.000
456.504; 4853.425;  316.125;    0.000
456.642; 4921.425;  309.125;    0.000
456.781; 4889.425;  299.125;    0.000
456.919; 4875.425;  281.125;    0.000
457.057; 5109.425;  253.125;    0.000
457.196; 5097.425;  268.125;    0.000
457.334; 5163.425;  292.125;    0.000
457.472; 5221.425;  287.125;    0.000
457.610; 5346.425;  300.125;    0.000
457.749; 5403.425;  342.125;    0.000
457.887; 5355.425;  310.125;    0.000
458.025; 5526.425;  310.125;    0.000
458.163; 5521.425;  323.125;    0.000
458.301; 5715.425;  336.125;    0.000
458.440; 5618.425;  297.125;    0.000
458.578; 5962.425;  295.125;    0.000
458.716; 5943.425;  309.125;    0.000
458.854; 5945.425;  335.125;    0.000
458.992; 6106.425;  244.125;    0.000
459.130; 6261.425;  370.125;    0.000
459.269; 6291.425;  313.125;    0.000
459.407; 6268.425;  370.125;    0.000
459.545; 6607.425;  341.125;    0.000
459.683; 6455.425;  336.125;    0.000
459.821; 6475.425;  311.125;    0.000
459.959; 6742.425;  330.125;    0.000
460.097; 6888.425;  355.125;    0.000
460.235; 6968.425;  348.125;    0.000
460.373; 7024.425;  338.125;    0.000
460.511; 7116.425;  361.125;    0.000
460.649; 7067.425;  295.125;    0.000
460.787; 7112.425;  325.125;    0.000
460.925; 7074.425;  266.125;    0.000
461.063; 7196.425;  365.125;    0.000
461.201; 7230.425;  334.125;    0.000
461.339; 7240.425;  341.125;    0.000
461.477; 7204.425;  304.125;    0.000
461.615; 7403.425;  311.125;    0.000
461.753; 7384.425;  342.125;    0.000
461.891; 7571.425;  333.125;    0.000
462.029; 7792.425;  336.125;    0.000
462.166; 7954.425;  272.125;    0.000
462.304; 7818.425;  313.125;    0.000
462.442; 8194.425;  313.125;    0.000
462.580; 8318.425;  328.125;    0.000
462.718; 8304.425;  358.125;    0.000
462.856; 8403.425;  302.125;    0.000
462.993; 8765.425;  360.125;    0.000
463.131; 8527.425;  280.125;    0.000
463.269; 8515.425;  312.125;    0.000
463.407; 8098.425;  263.125;    0.000
463.545; 8004.425;  253.125;    0.000
463.682; 8023.425;  296.125;    0.000
463.820; 8236.425;  308.125;    0.000
463.958; 8830.425;  300.125;    0.000
464.095; 8855.425;  289.125;    0.000
464.233; 8926.425;  340.125;    0.000
464.371; 8894.425;  300.125;    0.000
464.509; 8756.425;  266.125;    0.000
464.646; 8749.425;  294.125;    0.000
464.784; 8624.425;  284.125;    0.000
464.921; 8427.425;  350.125;    0.000
465.059; 8479.425;  256.125;    0.000
465.197; 8210.425;  289.125;    0.000
465.334; 7957.425;  287.125;    0.000
465.472; 7730.425;  322.125;    0.000
465.609; 7680.425;  311.125;    0.000
465.747; 7498.425;  336.125;    0.000
465.885; 7453.425;  308.125;    0.000
466.022; 7487.425;  299.125;    0.000
466.160; 7419.425;  293.125;    0.000
466.297; 7308.425;  317.125;    0.000
466.435; 7179.425;  336.125;    0.000
466.572; 7391.425;  282.125;    0.000
466.710; 7232.425;  299.125;    0.000
466.847; 7334.425;  288.125;    0.000
466.985; 7238.425;  274.125;    0.000
467.122; 7280.425;  302.125;    0.000
467.260; 7230.425;  271.125;    0.000
467.397; 7260.425;  263.125;    0.000
467.534; 7303.425;  320.125;    0.000
467.672; 7251.425;  309.125;    0.000
467.809; 7222.425;  275.125;    0.000
467.947; 7175.425;  319.125;    0.000
468.084; 7226.425;  309.125;    0.000
468.221; 7234.425;  302.125;    0.000
468.359; 7294.425;  286.125;    0.000
468.496; 7069.425;  293.125;    0.000
468.633; 7130.425;  273.125;    0.000
468.771; 7195.425;  296.125;    0.000
468.908; 7235.425;  277.125;    0.000
469.045; 7227.425;  303.125;    0.000
469.183; 7357.425;  314.125;    0.000
469.320; 7493.425;  278.125;    0.000
469.457; 7496.425;  308.125;    0.000
469.594; 7556.425;  272.125;    0.000
469.732; 7672.425;  321.125;    0.000
469.869; 7725.425;  299.125;    0.000
470.006; 7789.425;  267.125;    0.000
470.143; 7836.425;  298.125;    0.000
470.280; 7864.425;  272.125;    0.000
470.417; 7850.425;  314.125;    0.000
470.555; 7951.425;  305.125;    0.000
470.692; 7873.425;  309.125;    0.000
470.829; 7722.425;  311.125;    0.000
470.966; 7608.425;  260.125;    0.000
471.103; 7665.425;  267.125;    0.000
471.240; 7656.425;  290.125;    0.000
471.377; 7805.425;  290.125;    0.000
471.514; 7707.425;  295.125;    0.000
471.651; 7668.425;  300.125;    0.000
471.789; 7533.425;  281.125;    0.000
471.926; 7670.425;  291.125;    0.000
472.063; 7549.425;  305.125;    0.000
472.200; 7370.425;  285.125;    0.000
472.337; 7326.425;  288.125;    0.000
472.474; 7355.425;  276.125;    0.000
472.611; 7317.425;  309.125;    0.000
472.748; 7349.425;  280.125;    0.000
472.884; 7341.425;  300.125;    0.000
473.021; 7313.425;  280.125;    0.000
473.158; 7132.425;  304.125;    0.000
473.295; 7221.425;  308.125;    0.000
473.432; 7279.425;  294.125;    0.000
473.569; 7283.425;  288.125;    0.000
473.706; 7077.425;  254.125;    0.000
473.843; 7232.425;  282.125;    0.000
473.980; 7163.425;  286.125;    0.000
474.117; 6992.425;  257.125;    0.000
474.253; 7394.425;  298.125;    0.000
474.390; 7169.425;  253.125;    0.000
474.527; 7302.425;  271.125;    0.000
474.664; 7304.425;  257.125;    0.000
474.801; 7308.425;  296.125;    0.000
474.937; 7353.425;  263.125;    0.000
475.074; 7413.425;  262.125;    0.000
475.211; 7463.425;  299.125;    0.000
475.348; 7488.425;  308.125;    0.000
475.484; 7418.425;  278.125;    0.000
475.621; 7311.425;  287.125;    0.000
475.758; 7471.425;  231.125;    0.000
475.894; 7430.425;  295.125;    0.000
476.031; 7620.425;  290.125;    0.000
476.168; 7401.425;  287.125;    0.000
476.304; 7588.425;  331.125;    0.000
476.441; 7462.425;  301.125;    0.000
476.578; 7587.425;  263.125;    0.000
476.714; 7616.425;  261.125;    0.000
476.851; 7755.425;  247.125;    0.000
476.987; 7640.425;  297.125;    0.000
477.124; 7649.425;  296.125;    0.000
477.261; 7802.425;  299.125;    0.000
477.397; 7914.425;  292.125;    0.000
477.534; 7878.425;  289.125;    0.000
477.670; 7830.425;  268.125;    0.000
477.807; 8045.425;  234.125;    0.000
477.943; 8235.425;  279.125;    0.000
478.080; 8209.425;  276.125;    0.000
478.216; 8135.425;  248.125;    0.000
478.353; 8285.425;  296.125;    0.000
478.489; 8423.425;  267.125;    0.000
478.626; 8492.425;  243.125;    0.000
478.762; 8303.425;  252.125;    0.000
478.898; 8620.425;  266.125;    0.000
479.035; 8619.425;  290.125;    0.000
479.171; 8446.425;  247.125;    0.000
479.308; 8434.425;  283.125;    0.000
479.444; 8522.425;  244.125;    0.000
479.580; 8594.425;  259.125;    0.000
479.717; 8612.425;  301.125;    0.000
479.853; 8453.425;  257.125;    0.000
479.989; 8683.425;  249.125;    0.000
480.126; 8701.425;  218.125;    0.000
480.262; 9049.425;  275.125;    0.000
480.398; 8950.425;  246.125;    0.000
480.535; 8919.425;  246.125;    0.000
480.671; 8836.425;  272.125;    0.000
480.807; 8691.425;  281.125;    0.000
480.943; 8709.425;  233.125;    0.000
481.080; 8727.425;  303.125;    0.000
481.216; 8582.425;  229.125;    0.000
481.352; 8622.425;  240.125;    0.000
481.488; 8438.425;  284.125;    0.000
481.624; 8511.425;  236.125;    0.000
481.760; 8414.425;  255.125;    0.000
481.897; 8319.425;  206.125;    0.000
482.033; 8419.425;  254.125;    0.000
482.169; 8465.425;  268.125;    0.000
482.305; 8274.425;  214.125;    0.000
482.441; 8449.425;  225.125;    0.000
482.577; 8400.425;  251.125;    0.000
482.713; 8430.425;  221.125;    0.000
482.849; 8515.425;  218.125;    0.000
482.985; 8381.425;  245.125;    0.000
483.121; 8321.425;  224.125;    0.000
483.258; 8436.425;  249.125;    0.000
483.394; 8341.425;  224.125;    0.000
483.530; 8530.425;  247.125;    0.000
483.665; 8345.425;  256.125;    0.000
483.801; 8401.425;  220.125;    0.000
483.937; 8558.425;  200.125;    0.000
484.073; 8527.425;  272.125;    0.000
484.209; 8605.425;  243.125;    0.000
484.345; 8619.425;  274.125;    0.000
484.481; 8661.425;  264.125;    0.000
484.617; 8745.425;  270.125;    0.000
484.753; 8744.425;  244.125;    0.000
484.889; 8765.425;  293.125;    0.000
485.025; 8704.425;  257.125;    0.000
485.161; 8751.425;  264.125;    0.000
485.296; 8849.425;  247.125;    0.000
485.432; 8878.425;  240.125;    0.000
485.568; 8805.425;  240.125;    0.000
485.704; 8868.425;  232.125;    0.000
485.840; 8794.425;  280.125;    0.000
485.975; 8865.425;  253.125;    0.000
486.111; 8787.425;  250.125;    0.000
486.247; 8847.425;  272.125;    0.000
486.383; 8856.425;  258.125;    0.000
486.518; 8779.425;  256.125;    0.000
486.654; 8905.425;  250.125;    0.000
486.790; 8740.425;  259.125;    0.000
486.926; 8708.425;  256.125;    0.000
487.061; 8754.425;  267.125;    0.000
487.197; 8748.425;  224.125;    0.000
487.333; 8589.425;  265.125;    0.000
487.468; 8666.425;  223.125;    0.000
487.604; 8704.425;  298.125;    0.000
487.740; 8795.425;  261.125;    0.000
487.875; 8716.425;  278.125;    0.000
488.011; 8677.425;  292.125;    0.000
488.146; 8859.425;  239.125;    0.000
488.282; 8692.425;  265.125;    0.000
488.417; 8630.425;  286.125;    0.000
488.553; 8726.425;  271.125;    0.000
488.688; 8793.425;  252.125;    0.000
488.824; 8600.425;  239.125;    0.000
488.960; 8720.425;  266.125;    0.000
489.095; 8731.425;  229.125;    0.000
489.230; 8849.425;  247.125;    0.000
489.366; 8681.425;  260.125;    0.000
489.501; 8656.425;  257.125;    0.000
489.637; 8638.425;  233.125;    0.000
489.772; 8728.425;  254.125;    0.000
489.908; 8683.425;  235.125;    0.000
490.043; 8715.425;  266.125;    0.000
490.178; 8816.425;  228.125;    0.000
490.314; 8733.425;  310.125;    0.000
490.449; 8752.425;  251.125;    0.000
490.585; 8556.425;  221.125;    0.000
490.720; 8594.425;  203.125;    0.000
490.855; 8694.425;  266.125;    0.000
490.991; 8741.425;  249.125;    0.000
491.126; 8676.425;  313.125;    0.000
491.261; 8872.425;  284.125;    0.000
491.396; 8623.425;  225.125;    0.000
491.532; 8577.425;  227.125;    0.000
491.667; 8821.425;  210.125;    0.000
491.802; 8658.425;  214.125;    0.000
491.937; 8782.425;  246.125;    0.000
492.073; 8846.425;  250.125;    0.000
492.208; 8765.425;  267.125;    0.000
492.343; 8861.425;  245.125;    0.000
492.478; 9055.425;  271.125;    0.000
492.613; 8963.425;  253.125;    0.000
492.749; 9029.425;  249.125;    0.000
492.884; 8955.425;  217.125;    0.000
493.019; 8889.425;  244.125;    0.000
493.154; 8964.425;  265.125;    0.000
493.289; 8874.425;  266.125;    0.000
493.424; 8919.425;  226.125;    0.000
493.559; 8888.425;  222.125;    0.000
493.694; 8659.425;  218.125;    0.000
493.829; 8878.425;  246.125;    0.000
493.964; 8937.425;  243.125;    0.000
494.099; 8882.425;  269.125;    0.000
494.234; 8978.425;  249.125;    0.000
494.369; 8886.425;  279.125;    0.000
494.504; 8861.425;  261.125;    0.000
494.639; 8889.425;  289.125;    0.000
494.774; 8689.425;  252.125;    0.000
494.909; 8743.425;  250.125;    0.000
495.044; 8763.425;  207.125;    0.000
495.179; 8647.425;  266.125;    0.000
495.314; 8839.425;  228.125;    0.000
495.449; 8797.425;  262.125;    0.000
495.584; 8810.425;  281.125;    0.000
495.719; 8788.425;  251.125;    0.000
495.854; 8896.425;  237.125;    0.000
495.988; 8954.425;  238.125;    0.000
496.123; 8757.425;  255.125;    0.000
496.258; 9001.425;  264.125;    0.000
496.393; 9038.425;  253.125;    0.000
496.528; 9180.425;  244.125;    0.000
496.663; 9149.425;  267.125;    0.000
496.797; 9277.425;  271.125;    0.000
496.932; 9361.425;  262.125;    0.000
497.067; 9525.425;  260.125;    0.000
497.202; 9560.425;  264.125;    0.000
497.336; 9671.425;  243.125;    0.000
497.471; 9863.425;  251.125;    0.000
497.606;10063.425;  219.125;    0.000
497.740;10087.425;  264.125;    0.000
497.875;10450.425;  252.125;    0.000
498.010;10658.425;  241.125;    0.000
498.144;10938.425;  261.125;    0.000
498.279;11284.425;  221.125;    0.000
498.414;11482.425;  246.125;    0.000
498.548;11689.425;  212.125;    0.000
498.683;11807.425;  260.125;    0.000
498.817;12001.425;  244.125;    0.000
498.952;12112.425;  252.125;    0.000
499.087;12733.425;  251.125;    0.000
499.221;13265.425;  282.125;    0.000
499.356;13576.425;  264.125;    0.000
499.490;14165.425;  280.125;    0.000
499.625;14548.425;  256.125;    0.000
499.759;15243.425;  253.125;    0.000
499.894;16165.425;  261.125;    0.000
500.028;16732.426;  304.125;    0.000
500.162;17353.426;  272.125;    0.000
500.297;17626.426;  274.125;    0.000
500.431;17954.426;  320.125;    0.000
500.566;17923.426;  268.125;    0.000
500.700;17516.426;  280.125;    0.000
500.835;17033.426;  288.125;    0.000
500.969;16209.425;  253.125;    0.000
501.103;15749.425;  234.125;    0.000
501.238;14958.425;  302.125;    0.000
501.372;14096.425;  292.125;    0.000
501.506;13767.425;  222.125;    0.000
501.641;13023.425;  274.125;    0.000
501.775;12459.425;  245.125;    0.000
501.909;12041.425;  283.125;    0.000
502.043;11670.425;  252.125;    0.000
502.178;11384.425;  293.125;    0.000
502.312;11056.425;  223.125;    0.000
502.446;11004.425;  292.125;    0.000
502.580;10569.425;  253.125;    0.000
502.715;10407.425;  282.125;    0.000
502.849;10428.425;  258.125;    0.000
502.983;10128.425;  267.125;    0.000
503.117; 9910.425;  226.125;    0.000
503.251; 9827.425;  260.125;    0.000
503.385; 9802.425;  291.125;    0.000
503.520; 9614.425;  279.125;    0.000
503.654; 9378.425;  229.125;    0.000
503.788; 9323.425;  259.125;    0.000
503.922; 9314.425;  246.125;    0.000
504.056; 9085.425;  269.125;    0.000
504.190; 9091.425;  265.125;    0.000
504.324; 9093.425;  298.125;    0.000
504.458; 9166.425;  235.125;    0.000
504.592; 9101.425;  275.125;    0.000
504.726; 8803.425;  226.125;    0.000
504.860; 8694.425;  298.125;    0.000
504.994; 8517.425;  253.125;    0.000
505.128; 8439.425;  283.125;    0.000
505.262; 8193.425;  255.125;    0.000
505.396; 8022.425;  219.125;    0.000
505.530; 7973.425;  279.125;    0.000
505.664; 7819.425;  306.125;    0.000
505.798; 7748.425;  297.125;    0.000
505.932; 7681.425;  273.125;    0.000
506.066; 7601.425;  271.125;    0.000
506.199; 7483.425;  273.125;    0.000
506.333; 7446.425;  227.125;    0.000
506.467; 7328.425;  302.125;    0.000
506.601; 7325.425;  254.125;    0.000
506.735; 7373.425;  299.125;    0.000
506.869; 7196.425;  278.125;    0.000
507.002; 7279.425;  259.125;    0.000
507.136; 7268.425;  285.125;    0.000
507.270; 7123.425;  255.125;    0.000
507.404; 7015.425;  273.125;    0.000
507.537; 7026.425;  245.125;    0.000
507.671; 6986.425;  251.125;    0.000
507.805; 6924.425;  286.125;    0.000
507.939; 6908.425;  261.125;    0.000
508.072; 6980.425;  298.125;    0.000
508.206; 6871.425;  238.125;    0.000
508.340; 6927.425;  289.125;    0.000
508.473; 6770.425;  255.125;    0.000
508.607; 6766.425;  266.125;    0.000
508.740; 6714.425;  253.125;    0.000
508.874; 6628.425;  233.125;    0.000
509.008; 6754.425;  274.125;    0.000
509.141; 6823.425;  235.125;    0.000
509.275; 6623.425;  225.125;    0.000
509.408; 6617.425;  254.125;    0.000
509.542; 6594.425;  244.125;    0.000
509.675; 6531.425;  263.125;    0.000
509.809; 6512.425;  271.125;    0.000
509.942; 6610.425;  246.125;    0.000
510.076; 6505.425;  221.125;    0.000
510.209; 6595.425;  270.125;    0.000
510.343; 6660.425;  265.125;    0.000
510.476; 6426.425;  291.125;    0.000
510.610; 6289.425;  251.125;    0.000
510.743; 6507.425;  304.125;    0.000
510.877; 6290.425;  259.125;    0.000
511.010; 6322.425;  274.125;    0.000
511.143; 6419.425;  255.125;    0.000
511.277; 6383.425;  267.125;    0.000
511.410; 6346.425;  270.125;    0.000
511.543; 6349.425;  231.125;    0.000
511.677; 6237.425;  275.125;    0.000
511.810; 6334.425;  265.125;    0.000
511.943; 6344.425;  231.125;    0.000
512.077; 6321.425;  225.125;    0.000
512.210; 6175.425;  235.125;    0.000
512.343; 6355.425;  251.125;    0.000
512.476; 6333.425;  260.125;    0.000
512.610; 6364.425;  289.125;    0.000
512.743; 6233.425;  270.125;    0.000
512.876; 6312.425;  289.125;    0.000
513.009; 6174.425;  293.125;    0.000
513.142; 6347.425;  282.125;    0.000
513.276; 6266.425;  244.125;    0.000
513.409; 6351.425;  277.125;    0.000
513.542; 6246.425;  254.125;    0.000
513.675; 6355.425;  258.125;    0.000
513.808; 6248.425;  243.125;    0.000
513.941; 6235.425;  274.125;    0.000
514.074; 6284.425;  296.125;    0.000
514.207; 6349.425;  267.125;    0.000
514.340; 6284.425;  283.125;    0.000
514.474; 6314.425;  255.125;    0.000
514.607; 6414.425;  291.125;    0.000
514.740; 6308.425;  296.125;    0.000
514.873; 6401.425;  275.125;    0.000
515.006; 6520.425;  313.125;    0.000
515.139; 6473.425;  253.125;    0.000
515.272; 6431.425;  263.125;    0.000
515.404; 6648.425;  258.125;    0.000
515.537; 6671.425;  285.125;    0.000
515.670; 6610.425;  286.125;    0.000
515.803; 6617.425;  266.125;    0.000
515.936; 6622.425;  251.125;    0.000
516.069; 6750.425;  231.125;    0.000
516.202; 6874.425;  278.125;    0.000
516.335; 6905.425;  295.125;    0.000
516.468; 7113.425;  239.125;    0.000
516.600; 7941.425;  229.125;    0.000
516.733; 9087.425;  301.125;    0.000
516.866; 9185.425;  287.125;    0.000
516.999; 8599.425;  265.125;    0.000
517.132; 9913.425;  291.125;    0.000
517.264;12743.425;  262.125;    0.000
517.397;12478.425;  292.125;    0.000
517.530;10211.425;  299.125;    0.000
517.663; 9116.425;  268.125;    0.000
517.795; 8627.425;  323.125;    0.000
517.928; 8542.425;  281.125;    0.000
518.061; 8457.425;  242.125;    0.000
518.193;10078.425;  279.125;    0.000
518.326;14296.425;  288.125;    0.000
518.459;15090.425;  251.125;    0.000
518.591;12005.425;  314.125;    0.000
518.724; 9433.425;  279.125;    0.000
518.857; 8453.425;  245.125;    0.000
518.989; 8048.425;  290.125;    0.000
519.122; 7563.425;  319.125;    0.000
519.254; 7323.425;  295.125;    0.000
519.387; 7055.425;  271.125;    0.000
519.519; 6987.425;  312.125;    0.000
519.652; 6838.425;  289.125;    0.000
519.784; 6668.425;  311.125;    0.000
519.917; 6514.425;  283.125;    0.000
520.049; 6462.425;  281.125;    0.000
520.182; 6402.425;  242.125;    0.000
520.314; 6357.425;  310.125;    0.000
520.447; 6286.425;  215.125;    0.000
520.579; 6239.425;  277.125;    0.000
520.712; 6249.425;  224.125;    0.000
520.844; 6337.425;  293.125;    0.000
520.976; 5949.425;  281.125;    0.000
521.109; 6089.425;  279.125;    0.000
521.241; 5930.425;  318.125;    0.000
521.373; 5935.425;  242.125;    0.000
521.506; 5911.425;  246.125;    0.000
521.638; 5889.425;  312.125;    0.000
521.770; 5879.425;  257.125;    0.000
521.903; 5825.425;  295.125;    0.000
522.035; 5734.425;  283.125;    0.000
522.167; 5694.425;  281.125;    0.000
522.300; 5619.425;  262.125;    0.000
522.432; 5612.425;  272.125;    0.000
522.564; 5569.425;  277.125;    0.000
522.696; 5547.425;  295.125;    0.000
522.828; 5549.425;  284.125;    0.000
522.961; 5520.425;  295.125;    0.000
523.093; 5550.425;  282.125;    0.000
523.225; 5335.425;  270.125;    0.000
523.357; 5428.425;  285.125;    0.000
523.489; 5401.425;  292.125;    0.000
523.621; 5404.425;  285.125;    0.000
523.753; 5331.425;  273.125;    0.000
523.885; 5370.425;  271.125;    0.000
524.018; 5384.425;  276.125;    0.000
524.150; 5247.425;  320.125;    0.000
524.282; 5266.425;  304.125;    0.000
524.414; 5362.425;  302.125;    0.000
524.546; 5219.425;  305.125;    0.000
524.678; 5204.425;  264.125;    0.000
524.810; 5290.425;  258.125;    0.000
524.942; 5099.425;  252.125;    0.000
525.074; 5185.425;  275.125;    0.000
525.206; 5234.425;  286.125;    0.000
525.338; 5158.425;  280.125;    0.000
525.469; 5187.425;  267.125;    0.000
525.601; 5152.425;  266.125;    0.000
525.733; 5157.425;  283.125;    0.000
525.865; 5101.425;  273.125;    0.000
525.997; 5105.425;  286.125;    0.000
526.129; 5086.425;  249.125;    0.000
526.261; 5072.425;  233.125;    0.000
526.393; 5055.425;  257.125;    0.000
526.524; 5095.425;  184.125;    0.000
526.656; 5043.425;  259.125;    0.000
526.788; 5087.425;  268.125;    0.000
526.920; 5120.425;  262.125;    0.000
527.052; 5024.425;  250.125;    0.000
527.183; 5060.425;  264.125;    0.000
527.315; 4958.425;  301.125;    0.000
527.447; 5020.425;  262.125;    0.000
527.578; 4994.425;  267.125;    0.000
527.710; 4876.425;  299.125;    0.000
527.842; 4976.425;  266.125;    0.000
527.973; 4905.425;  240.125;    0.000
528.105; 4996.425;  275.125;    0.000
528.237; 5141.425;  239.125;    0.000
528.368; 4906.425;  275.125;    0.000
528.500; 4938.425;  271.125;    0.000
528.632; 4951.425;  252.125;    0.000
528.763; 5030.425;  253.125;    0.000
528.895; 4881.425;  259.125;    0.000
529.026; 4923.425;  209.125;    0.000
529.158; 4897.425;  291.125;    0.000
529.289; 4942.425;  280.125;    0.000
529.421; 4857.425;  274.125;    0.000
529.552; 4947.425;  253.125;    0.000
529.684; 5040.425;  310.125;    0.000
529.815; 5027.425;  305.125;    0.000
529.947; 4943.425;  234.125;    0.000
530.078; 4939.425;  259.125;    0.000
530.210; 4930.425;  264.125;    0.000
530.341; 4960.425;  267.125;    0.000
530.472; 4958.425;  232.125;    0.000
530.604; 4998.425;  293.125;    0.000
530.735; 5156.425;  275.125;    0.000
530.867; 4983.425;  280.125;    0.000
530.998; 5120.425;  295.125;    0.000
531.129; 4973.425;  274.125;    0.000
531.260; 5039.425;  272.125;    0.000
531.392; 5006.425;  275.125;    0.000
531.523; 5074.425;  244.125;    0.000
531.654; 5244.425;  289.125;    0.000
531.786; 5159.425;  259.125;    0.000
531.917; 5276.425;  286.125;    0.000
532.048; 5183.425;  293.125;    0.000
532.179; 5167.425;  288.125;    0.000
532.311; 5134.425;  296.125;    0.000
532.442; 5150.425;  277.125;    0.000
532.573; 5130.425;  273.125;    0.000
532.704; 5014.425;  308.125;    0.000
532.835; 5084.425;  308.125;    0.000
532.966; 5055.425;  274.125;    0.000
533.097; 4961.425;  310.125;    0.000
533.229; 4843.425;  294.125;    0.000
533.360; 4989.425;  324.125;    0.000
533.491; 4892.425;  278.125;    0.000
533.622; 5020.425;  319.125;    0.000
533.753; 5069.425;  303.125;    0.000
533.884; 5050.425;  269.125;    0.000
534.015; 5093.425;  266.125;    0.000
534.146; 5060.425;  283.125;    0.000
534.277; 5042.425;  299.125;    0.000
534.408; 5175.425;  265.125;    0.000
534.539; 5103.425;  310.125;    0.000
534.670; 5077.425;  319.125;    0.000
534.801; 5010.425;  281.125;    0.000
534.932; 4903.425;  239.125;    0.000
535.063; 4936.425;  276.125;    0.000
535.194; 4906.425;  361.125;    0.000
535.324; 4933.425;  283.125;    0.000
535.455; 4949.425;  282.125;    0.000
535.586; 4948.425;  331.125;    0.000
535.717; 5014.425;  262.125;    0.000
535.848; 5017.425;  308.125;    0.000
535.979; 5015.425;  273.125;    0.000
536.109; 4959.425;  277.125;    0.000
536.240; 4898.425;  293.125;    0.000
536.371; 4861.425;  295.125;    0.000
536.502; 4923.425;  330.125;    0.000
536.632; 4800.425;  280.125;    0.000
536.763; 4958.425;  332.125;    0.000
536.894; 4781.425;  334.125;    0.000
537.025; 4797.425;  295.125;    0.000
537.155; 4796.425;  321.125;    0.000
537.286; 4790.425;  292.125;    0.000
537.417; 4827.425;  314.125;    0.000
537.547; 4823.425;  287.125;    0.000
537.678; 4749.425;  287.125;    0.000
537.808; 4748.425;  278.125;    0.000
537.939; 4681.425;  304.125;    0.000
538.070; 4676.425;  303.125;    0.000
538.200; 4818.425;  279.125;    0.000
538.331; 4709.425;  321.125;    0.000
538.461; 4750.425;  313.125;    0.000
538.592; 4739.425;  290.125;    0.000
538.722; 4828.425;  285.125;    0.000
538.853; 4679.425;  261.125;    0.000
538.983; 4717.425;  280.125;    0.000
539.114; 4707.425;  310.125;    0.000
539.244; 4742.425;  281.125;    0.000
539.375; 4744.425;  292.125;    0.000
539.505; 4770.425;  286.125;    0.000
539.636; 4711.425;  276.125;    0.000
539.766; 4726.425;  287.125;    0.000
539.896; 4809.425;  292.125;    0.000
540.027; 4710.425;  262.125;    0.000
540.157; 4723.425;  269.125;    0.000
540.287; 4750.425;  282.125;    0.000
540.418; 4739.425;  269.125;    0.000
540.548; 4735.425;  328.125;    0.000
540.678; 4775.425;  271.125;    0.000
540.809; 4778.425;  272.125;    0.000
540.939; 4793.425;  299.125;    0.000
541.069; 4846.425;  266.125;    0.000
541.200; 4744.425;  242.125;    0.000
541.330; 4806.425;  257.125;    0.000
541.460; 4853.425;  270.125;    0.000
541.590; 4873.425;  287.125;    0.000
541.720; 4917.425;  255.125;    0.000
541.851; 4846.425;  273.125;    0.000
541.981; 4859.425;  244.125;    0.000
542.111; 4921.425;  263.125;    0.000
542.241; 4833.425;  271.125;    0.000
542.371; 4957.425;  263.125;    0.000
542.501; 5037.425;  274.125;    0.000
542.631; 5158.425;  288.125;    0.000
542.761; 5231.425;  261.125;    0.000
542.891; 5113.425;  253.125;    0.000
543.021; 5069.425;  249.125;    0.000
543.151; 5123.425;  261.125;    0.000
543.281; 5161.425;  256.125;    0.000
543.411; 5040.425;  290.125;    0.000
543.542; 5081.425;  278.125;    0.000
543.671; 5065.425;  238.125;    0.000
543.801; 4878.425;  256.125;    0.000
543.931; 5089.425;  254.125;    0.000
544.061; 5030.425;  237.125;    0.000
544.191; 4923.425;  245.125;    0.000
544.321; 5075.425;  267.125;    0.000
544.451; 5025.425;  262.125;    0.000
544.581; 5115.425;  221.125;    0.000
544.711; 5283.425;  252.125;    0.000
544.841; 5114.425;  264.125;    0.000
544.970; 5164.425;  315.125;    0.000
545.100; 5411.425;  245.125;    0.000
545.230; 5414.425;  276.125;    0.000
545.360; 5232.425;  278.125;    0.000
545.490; 5351.425;  268.125;    0.000
545.619; 5318.425;  237.125;    0.000
545.749; 5236.425;  228.125;    0.000
545.879; 5147.425;  234.125;    0.000
546.009; 5168.425;  287.125;    0.000
546.138; 5064.425;  222.125;    0.000
546.268; 5021.425;  228.125;    0.000
546.398; 5102.425;  244.125;    0.000
546.527; 5000.425;  233.125;    0.000
546.657; 5010.425;  189.125;    0.000
546.786; 4976.425;  247.125;    0.000
546.916; 5079.425;  244.125;    0.000
547.046; 5165.425;  214.125;    0.000
547.175; 5146.425;  242.125;    0.000
547.305; 5059.425;  252.125;    0.000
547.434; 4988.425;  191.125;    0.000
547.564; 5032.425;  208.125;    0.000
547.693; 5163.425;  213.125;    0.000
547.823; 5087.425;  209.125;    0.000
547.953; 5016.425;  250.125;    0.000
548.082; 5108.425;  231.125;    0.000
548.211; 5084.425;  226.125;    0.000
548.341; 5040.425;  254.125;    0.000
548.470; 5068.425;  266.125;    0.000
548.600; 5088.425;  229.125;    0.000
548.729; 4972.425;  225.125;    0.000
548.859; 5162.425;  185.125;    0.000
548.988; 5188.425;  225.125;    0.000
549.117; 5010.425;  241.125;    0.000
549.247; 5166.425;  236.125;    0.000
549.376; 5060.425;  220.125;    0.000
549.505; 5195.425;  254.125;    0.000
549.635; 5322.425;  268.125;    0.000
549.764; 5179.425;  194.125;    0.000
549.893; 5375.425;  232.125;    0.000
550.023; 5190.425;  222.125;    0.000
550.152; 5120.425;  223.125;    0.000
550.281; 5265.425;  210.125;    0.000
550.410; 5206.425;  197.125;    0.000
550.539; 5384.425;  222.125;    0.000
550.669; 5303.425;  245.125;    0.000
550.798; 5244.425;  265.125;    0.000
550.927; 5159.425;  249.125;    0.000
551.056; 5267.425;  184.125;    0.000
551.185; 5240.425;  247.125;    0.000
551.314; 5204.425;  258.125;    0.000
551.443; 5228.425;  224.125;    0.000
551.573; 5168.425;  204.125;    0.000
551.702; 5258.425;  220.125;    0.000
551.831; 5412.425;  287.125;    0.000
551.960; 5190.425;  259.125;    0.000
552.089; 5412.425;  222.125;    0.000
552.218; 5336.425;  254.125;    0.000
552.347; 5417.425;  260.125;    0.000
552.476; 5492.425;  251.125;    0.000
552.605; 5663.425;  229.125;    0.000
552.734; 5556.425;  261.125;    0.000
552.863; 5712.425;  225.125;    0.000
552.992; 5771.425;  202.125;    0.000
553.121; 5770.425;  193.125;    0.000
553.249; 5736.425;  224.125;    0.000
553.378; 5812.425;  274.125;    0.000
553.507; 5730.425;  248.125;    0.000
553.636; 5570.425;  203.125;    0.000
553.765; 5435.425;  224.125;    0.000
553.894; 5500.425;  246.125;    0.000
554.023; 5496.425;  229.125;    0.000
554.151; 5455.425;  216.125;    0.000
554.280; 5415.425;  223.125;    0.000
554.409; 5400.425;  240.125;    0.000
554.538; 5470.425;  277.125;    0.000
554.666; 5416.425;  244.125;    0.000
554.795; 5346.425;  240.125;    0.000
554.924; 5222.425;  257.125;    0.000
555.052; 5312.425;  266.125;    0.000
555.181; 5247.425;  244.125;    0.000
555.310; 5276.425;  262.125;    0.000
555.439; 5207.425;  260.125;    0.000
555.567; 5289.425;  234.125;    0.000
555.696; 5084.425;  237.125;    0.000
555.824; 5104.425;  232.125;    0.000
555.953; 5118.425;  279.125;    0.000
556.082; 5056.425;  234.125;    0.000
556.210; 5075.425;  235.125;    0.000
556.339; 5016.425;  198.125;    0.000
556.467; 5182.425;  216.125;    0.000
556.596; 5131.425;  273.125;    0.000
556.724; 5078.425;  245.125;    0.000
556.853; 5006.425;  241.125;    0.000
556.981; 4936.425;  219.125;    0.000
557.110; 5027.425;  242.125;    0.000
557.238; 5052.425;  202.125;    0.000
557.367; 4981.425;  254.125;    0.000
557.495; 4955.425;  260.125;    0.000
557.623; 5050.425;  207.125;    0.000
557.752; 5080.425;  219.125;    0.000
557.880; 5040.425;  209.125;    0.000
558.008; 4933.425;  243.125;    0.000
558.137; 5070.425;  244.125;    0.000
558.265; 4963.425;  221.125;    0.000
558.393; 5030.425;  297.125;    0.000
558.522; 4968.425;  232.125;    0.000
558.650; 4919.425;  299.125;    0.000
558.778; 4999.425;  210.125;    0.000
558.906; 4956.425;  240.125;    0.000
559.035; 5007.425;  252.125;    0.000
559.163; 5026.425;  246.125;    0.000
559.291; 5194.425;  213.125;    0.000
559.419; 5012.425;  221.125;    0.000
559.548; 5162.425;  208.125;    0.000
559.676; 5088.425;  254.125;    0.000
559.804; 5079.425;  213.125;    0.000
559.932; 5173.425;  208.125;    0.000
560.060; 5186.425;  276.125;    0.000
560.188; 5085.425;  278.125;    0.000
560.316; 5240.425;  217.125;    0.000
560.444; 5150.425;  254.125;    0.000
560.572; 5253.425;  226.125;    0.000
560.700; 5283.425;  282.125;    0.000
560.828; 5339.425;  211.125;    0.000
560.956; 5254.425;  264.125;    0.000
561.085; 5211.425;  295.125;    0.000
561.212; 5387.425;  229.125;    0.000
561.340; 5270.425;  259.125;    0.000
561.468; 5372.425;  253.125;    0.000
561.596; 5321.425;  240.125;    0.000
561.724; 5272.425;  259.125;    0.000
561.852; 5340.425;  224.125;    0.000
561.980; 5309.425;  251.125;    0.000
562.108; 5298.425;  214.125;    0.000
562.236; 5339.425;  258.125;    0.000
562.364; 5448.425;  237.125;    0.000
562.492; 5374.425;  228.125;    0.000
562.619; 5575.425;  223.125;    0.000
562.747; 5383.425;  263.125;    0.000
562.875; 5546.425;  257.125;    0.000
563.003; 5486.425;  216.125;    0.000
563.130; 5733.425;  190.125;    0.000
563.258; 5652.425;  225.125;    0.000
563.386; 5768.425;  259.125;    0.000
563.514; 5715.425;  264.125;    0.000
563.641; 5857.425;  230.125;    0.000
563.769; 5883.425;  257.125;    0.000
563.897; 6008.425;  210.125;    0.000
564.024; 6108.425;  221.125;    0.000
564.152; 6228.425;  256.125;    0.000
564.280; 6059.425;  225.125;    0.000
564.407; 6174.425;  262.125;    0.000
564.535; 6182.425;  235.125;    0.000
564.662; 6296.425;  238.125;    0.000
564.790; 6452.425;  248.125;    0.000
564.917; 6270.425;  214.125;    0.000
565.045; 6471.425;  253.125;    0.000
565.173; 6389.425;  225.125;    0.000
565.300; 6520.425;  261.125;    0.000
565.428; 6676.425;  218.125;    0.000
565.555; 6743.425;  245.125;    0.000
565.682; 6784.425;  242.125;    0.000
565.810; 6953.425;  228.125;    0.000
565.937; 7282.425;  230.125;    0.000
566.065; 7422.425;  251.125;    0.000
566.192; 7670.425;  196.125;    0.000
566.320; 7802.425;  217.125;    0.000
566.447; 8097.425;  224.125;    0.000
566.574; 8195.425;  221.125;    0.000
566.702; 8355.425;  221.125;    0.000
566.829; 8525.425;  252.125;    0.000
566.956; 8531.425;  214.125;    0.000
567.083; 8475.425;  204.125;    0.000
567.211; 8622.425;  216.125;    0.000
567.338; 8782.425;  228.125;    0.000
567.465; 8847.425;  208.125;    0.000
567.593; 9050.425;  205.125;    0.000
567.720; 9212.425;  194.125;    0.000
567.847; 9215.425;  268.125;    0.000
567.974; 9077.425;  198.125;    0.000
568.101; 9534.425;  224.125;    0.000
568.228;10075.425;  236.125;    0.000
568.356;10198.425;  207.125;    0.000
568.483; 9752.425;  220.125;    0.000
568.610; 9433.425;  181.125;    0.000
568.737;10617.425;  216.125;    0.000
568.864;11658.425;  258.125;    0.000
568.991;10967.425;  203.125;    0.000
569.118; 9636.425;  232.125;    0.000
569.245; 8811.425;  192.125;    0.000
569.372; 8409.425;  226.125;    0.000
569.499; 7821.425;  211.125;    0.000
569.626; 7752.425;  247.125;    0.000
569.753; 7404.425;  248.125;    0.000
569.880; 7216.425;  226.125;    0.000
570.007; 7159.425;  215.125;    0.000
570.134; 6953.425;  205.125;    0.000
570.261; 6732.425;  187.125;    0.000
570.388; 6788.425;  258.125;    0.000
570.515; 6714.425;  241.125;    0.000
570.642; 6716.425;  211.125;    0.000
570.768; 6611.425;  228.125;    0.000
570.895; 6486.425;  229.125;    0.000
571.022; 6484.425;  203.125;    0.000
571.149; 6427.425;  206.125;    0.000
571.276; 6242.425;  191.125;    0.000
571.402; 6318.425;  218.125;    0.000
571.529; 6207.425;  192.125;    0.000
571.656; 6170.425;  209.125;    0.000
571.783; 6154.425;  181.125;    0.000
571.909; 5933.425;  251.125;    0.000
572.036; 5889.425;  225.125;    0.000
572.163; 5690.425;  214.125;    0.000
572.289; 5973.425;  252.125;    0.000
572.416; 5643.425;  220.125;    0.000
572.543; 5713.425;  225.125;    0.000
572.669; 5697.425;  226.125;    0.000
572.796; 5535.425;  231.125;    0.000
572.922; 5541.425;  258.125;    0.000
573.049; 5568.425;  202.125;    0.000
573.176; 5635.425;  254.125;    0.000
573.302; 5527.425;  215.125;    0.000
573.429; 5588.425;  251.125;    0.000
573.555; 5511.425;  221.125;    0.000
573.682; 5420.425;  227.125;    0.000
573.808; 5564.425;  259.125;    0.000
573.935; 5528.425;  233.125;    0.000
574.061; 5448.425;  241.125;    0.000
574.188; 5610.425;  238.125;    0.000
574.314; 5408.425;  221.125;    0.000
574.440; 5384.425;  221.125;    0.000
574.567; 5404.425;  216.125;    0.000
574.693; 5498.425;  224.125;    0.000
574.820; 5427.425;  199.125;    0.000
574.946; 5388.425;  248.125;    0.000
575.072; 5404.425;  220.125;    0.000
575.198; 5406.425;  262.125;    0.000
575.325; 5311.425;  232.125;    0.000
575.451; 5396.425;  225.125;    0.000
575.577; 5336.425;  216.125;    0.000
575.704; 5412.425;  248.125;    0.000
575.830; 5265.425;  227.125;    0.000
575.956; 5412.425;  206.125;    0.000
576.082; 5254.425;  222.125;    0.000
576.208; 5308.425;  206.125;    0.000
576.335; 5292.425;  256.125;    0.000
576.461; 5223.425;  247.125;    0.000
576.587; 5368.425;  219.125;    0.000
576.713; 5243.425;  215.125;    0.000
576.839; 5340.425;  225.125;    0.000
576.965; 5310.425;  230.125;    0.000
577.091; 5348.425;  235.125;    0.000
577.217; 5344.425;  235.125;    0.000
577.343; 5178.425;  233.125;    0.000
577.469; 5258.425;  242.125;    0.000
577.596; 5223.425;  241.125;    0.000
577.722; 5176.425;  255.125;    0.000
577.848; 5254.425;  235.125;    0.000
577.974; 5373.425;  210.125;    0.000
578.099; 5239.425;  239.125;    0.000
578.225; 5260.425;  258.125;    0.000
578.351; 5274.425;  209.125;    0.000
578.477; 5183.425;  255.125;    0.000
578.603; 5257.425;  213.125;    0.000
578.729; 5280.425;  221.125;    0.000
578.855; 5246.425;  209.125;    0.000
578.981; 5289.425;  206.125;    0.000
579.107; 5312.425;  221.125;    0.000
579.232; 5157.425;  206.125;    0.000
579.358; 5296.425;  226.125;    0.000
579.484; 5407.425;  244.125;    0.000
579.610; 5411.425;  261.125;    0.000
579.735; 5194.425;  270.125;    0.000
579.861; 5351.425;  255.125;    0.000
579.987; 5276.425;  249.125;    0.000
580.113; 5332.425;  260.125;    0.000
580.238; 5230.425;  206.125;    0.000
580.364; 5347.425;  249.125;    0.000
580.490; 5358.425;  225.125;    0.000
580.615; 5344.425;  266.125;    0.000
580.741; 5382.425;  224.125;    0.000
580.867; 5323.425;  251.125;    0.000
580.992; 5498.425;  270.125;    0.000
581.118; 5395.425;  248.125;    0.000
581.243; 5516.425;  251.125;    0.000
581.369; 5369.425;  192.125;    0.000
581.494; 5550.425;  259.125;    0.000
581.620; 5545.425;  245.125;    0.000
581.745; 5620.425;  232.125;    0.000
581.871; 5640.425;  243.125;    0.000
581.996; 5543.425;  216.125;    0.000
582.122; 5573.425;  263.125;    0.000
582.247; 5523.425;  254.125;    0.000
582.373; 5754.425;  232.125;    0.000
582.498; 5722.425;  275.125;    0.000
582.624; 5640.425;  260.125;    0.000
582.749; 5719.425;  251.125;    0.000
582.874; 5770.425;  245.125;    0.000
583.000; 5805.425;  278.125;    0.000
583.125; 5759.425;  211.125;    0.000
583.250; 5926.425;  246.125;    0.000
583.376; 5838.425;  259.125;    0.000
583.501; 5913.425;  254.125;    0.000
583.626; 6013.425;  209.125;    0.000
583.751; 6034.425;  239.125;    0.000
583.877; 6269.425;  255.125;    0.000
584.002; 6163.425;  263.125;    0.000
584.127; 6099.425;  205.125;    0.000
584.252; 6121.425;  196.125;    0.000
584.377; 6365.425;  249.125;    0.000
584.503; 6393.425;  219.125;    0.000
584.628; 6502.425;  243.125;    0.000
584.753; 6598.425;  250.125;    0.000
584.878; 6505.425;  208.125;    0.000
585.003; 6651.425;  234.125;    0.000
585.128; 7013.425;  207.125;    0.000
585.253; 7035.425;  219.125;    0.000
585.378; 7023.425;  205.125;    0.000
585.503; 6973.425;  256.125;    0.000
585.628; 7176.425;  217.125;    0.000
585.753; 7373.425;  213.125;    0.000
585.878; 7328.425;  147.125;    0.000
586.003; 7604.425;  256.125;    0.000
586.128; 7915.425;  214.125;    0.000
586.253; 7946.425;  254.125;    0.000
586.378; 8359.425;  252.125;    0.000
586.503; 8500.425;  219.125;    0.000
586.628; 8904.425;  226.125;    0.000
586.753; 9046.425;  237.125;    0.000
586.878; 9305.425;  185.125;    0.000
587.003; 9864.425;  248.125;    0.000
587.127;10098.425;  237.125;    0.000
587.252;10806.425;  221.125;    0.000
587.377;11255.425;  244.125;    0.000
587.502;11979.425;  260.125;    0.000
587.627;12612.425;  232.125;    0.000
587.751;13733.425;  250.125;    0.000
587.876;14947.425;  234.125;    0.000
588.001;16174.425;  248.125;    0.000
588.125;18020.426;  236.125;    0.000
588.250;20292.426;  192.125;    0.000
588.375;23763.426;  265.125;    0.000
588.499;27618.426;  235.125;    0.000
588.624;34197.426;  212.125;    0.000
588.749;44936.426;  214.125;    0.000
588.873;60646.426;  236.125;    0.000
588.998;65260.426;  230.125;    0.000
589.122;65260.426;  231.125;    0.000
589.247;61579.426;  250.125;    0.000
589.372;54566.426;  247.125;    0.000
589.496;61069.426;  230.125;    0.000
589.621;65260.426;  237.125;    0.000
589.745;61524.426;  277.125;    0.000
589.870;46916.426;  283.125;    0.000
589.994;36111.426;  263.125;    0.000
590.118;29231.426;  239.125;    0.000
590.243;24609.426;  218.125;    0.000
590.367;21638.426;  226.125;    0.000
590.492;19074.426;  269.125;    0.000
590.616;17280.426;  205.125;    0.000
590.740;15950.425;  243.125;    0.000
590.865;14741.425;  281.125;    0.000
590.989;13711.425;  233.125;    0.000
591.114;12981.425;  222.125;    0.000
591.238;12498.425;  204.125;    0.000
591.362;11785.425;  283.125;    0.000
591.486;11435.425;  236.125;    0.000
591.611;10872.425;  228.125;    0.000
591.735;10695.425;  249.125;    0.000
591.859;10295.425;  202.125;    0.000
591.983; 9937.425;  257.125;    0.000
592.107; 9784.425;  230.125;    0.000
592.232; 9514.425;  266.125;    0.000
592.356; 9382.425;  232.125;    0.000
592.480; 9186.425;  245.125;    0.000
592.604; 9149.425;  254.125;    0.000
592.728; 8962.425;  233.125;    0.000
592.852; 8779.425;  213.125;    0.000
592.976; 8629.425;  234.125;    0.000
593.100; 8509.425;  246.125;    0.000
593.224; 8473.425;  305.125;    0.000
593.349; 8329.425;  240.125;    0.000
593.473; 8188.425;  206.125;    0.000
593.597; 8139.425;  243.125;    0.000
593.721; 8019.425;  247.125;    0.000
593.844; 7879.425;  230.125;    0.000
593.968; 7955.425;  226.125;    0.000
594.092; 7826.425;  193.125;    0.000
594.216; 7690.425;  237.125;    0.000
594.340; 7642.425;  235.125;    0.000
594.464; 7442.425;  225.125;    0.000
594.588; 7432.425;  269.125;    0.000
594.712; 7077.425;  242.125;    0.000
594.836; 6991.425;  240.125;    0.000
594.959; 7089.425;  255.125;    0.000
595.083; 6703.425;  258.125;    0.000
595.207; 6678.425;  264.125;    0.000
595.331; 6711.425;  215.125;    0.000
595.455; 6604.425;  234.125;    0.000
595.578; 6557.425;  215.125;    0.000
595.702; 6236.425;  259.125;    0.000
595.826; 6207.425;  232.125;    0.000
595.949; 6022.425;  251.125;    0.000
596.073; 6180.425;  197.125;    0.000
596.197; 6101.425;  239.125;    0.000
596.320; 5950.425;  229.125;    0.000
596.444; 5906.425;  264.125;    0.000
596.568; 5875.425;  207.125;    0.000
596.691; 5784.425;  234.125;    0.000
596.815; 5733.425;  241.125;    0.000
596.938; 5765.425;  244.125;    0.000
597.062; 5673.425;  210.125;    0.000
597.186; 5688.425;  247.125;    0.000
597.309; 5738.425;  215.125;    0.000
597.433; 5671.425;  266.125;    0.000
597.556; 5437.425;  234.125;    0.000
597.680; 5589.425;  261.125;    0.000
597.803; 5358.425;  239.125;    0.000
597.926; 5441.425;  251.125;    0.000
598.050; 5294.425;  227.125;    0.000
598.173; 5315.425;  247.125;    0.000
598.297; 5235.425;  244.125;    0.000
598.420; 5271.425;  243.125;    0.000
598.543; 5383.425;  237.125;    0.000
598.667; 5267.425;  239.125;    0.000
598.790; 5272.425;  217.125;    0.000
598.913; 5202.425;  244.125;    0.000
599.037; 5216.425;  249.125;    0.000
599.160; 5166.425;  222.125;    0.000
599.283; 5262.425;  235.125;    0.000
599.406; 5010.425;  228.125;    0.000
599.530; 5195.425;  234.125;    0.000
599.653; 4970.425;  228.125;    0.000
599.776; 5049.425;  263.125;    0.000
599.899; 5001.425;  197.125;    0.000
600.022; 5011.425;  224.125;    0.000
600.145; 5050.425;  211.125;    0.000
600.269; 5113.425;  246.125;    0.000
600.392; 4891.425;  233.125;    0.000
600.515; 4925.425;  266.125;    0.000
600.638; 4856.425;  246.125;    0.000
600.761; 4859.425;  213.125;    0.000
600.884; 4981.425;  279.125;    0.000
601.007; 4790.425;  268.125;    0.000
601.130; 4805.425;  203.125;    0.000
601.253; 4892.425;  241.125;    0.000
601.376; 4876.425;  248.125;    0.000
601.499; 4863.425;  241.125;    0.000
601.622; 4853.425;  266.125;    0.000
601.745; 4839.425;  237.125;    0.000
601.868; 4706.425;  256.125;    0.000
601.991; 4884.425;  260.125;    0.000
602.113; 4890.425;  246.125;    0.000
602.236; 4797.425;  243.125;    0.000
602.359; 4784.425;  220.125;    0.000
602.482; 4739.425;  236.125;    0.000
602.605; 4790.425;  216.125;    0.000
602.728; 4749.425;  247.125;    0.000
602.850; 4815.425;  255.125;    0.000
602.973; 4588.425;  224.125;    0.000
603.096; 4644.425;  258.125;    0.000
603.219; 4699.425;  222.125;    0.000
603.341; 4825.425;  235.125;    0.000
603.464; 4636.425;  223.125;    0.000
603.587; 4640.425;  250.125;    0.000
603.709; 4626.425;  229.125;    0.000
603.832; 4662.425;  285.125;    0.000
603.955; 4713.425;  225.125;    0.000
604.077; 4646.425;  235.125;    0.000
604.200; 4762.425;  209.125;    0.000
604.323; 4585.425;  240.125;    0.000
604.445; 4611.425;  198.125;    0.000
604.568; 4609.425;  230.125;    0.000
604.690; 4589.425;  225.125;    0.000
604.813; 4561.425;  248.125;    0.000
604.935; 4595.425;  204.125;    0.000
605.058; 4572.425;  191.125;    0.000
605.180; 4569.425;  237.125;    0.000
605.303; 4591.425;  224.125;    0.000
605.425; 4549.425;  244.125;    0.000
605.547; 4656.425;  268.125;    0.000
605.670; 4562.425;  211.125;    0.000
605.792; 4557.425;  266.125;    0.000
605.915; 4584.425;  202.125;    0.000
606.037; 4577.425;  236.125;    0.000
606.159; 4540.425;  234.125;    0.000
606.282; 4515.425;  223.125;    0.000
606.404; 4611.425;  217.125;    0.000
606.526; 4582.425;  221.125;    0.000
606.648; 4469.425;  204.125;    0.000
606.771; 4484.425;  265.125;    0.000
606.893; 4500.425;  211.125;    0.000
607.015; 4448.425;  206.125;    0.000
607.137; 4505.425;  222.125;    0.000
607.260; 4519.425;  228.125;    0.000
607.382; 4588.425;  202.125;    0.000
607.504; 4614.425;  257.125;    0.000
607.626; 4426.425;  249.125;    0.000
607.748; 4557.425;  233.125;    0.000
607.870; 4400.425;  222.125;    0.000
607.992; 4456.425;  227.125;    0.000
608.114; 4465.425;  228.125;    0.000
608.237; 4449.425;  254.125;    0.000
608.359; 4325.425;  216.125;    0.000
608.481; 4488.425;  197.125;    0.000
608.603; 4464.425;  209.125;    0.000
608.725; 4383.425;  220.125;    0.000
608.847; 4485.425;  259.125;    0.000
608.969; 4403.425;  242.125;    0.000
609.090; 4342.425;  218.125;    0.000
609.212; 4474.425;  200.125;    0.000
609.334; 4478.425;  212.125;    0.000
609.456; 4499.425;  231.125;    0.000
609.578; 4430.425;  249.125;    0.000
609.700; 4353.425;  185.125;    0.000
609.822; 4385.425;  200.125;    0.000
609.944; 4479.425;  236.125;    0.000
610.065; 4372.425;  255.125;    0.000
610.187; 4331.425;  208.125;    0.000
610.309; 4385.425;  202.125;    0.000
610.431; 4377.425;  232.125;    0.000
610.552; 4462.425;  232.125;    0.000
610.674; 4394.425;  217.125;    0.000
610.796; 4484.425;  186.125;    0.000
610.918; 4329.425;  211.125;    0.000
611.039; 4357.425;  244.125;    0.000
611.161; 4365.425;  202.125;    0.000
611.282; 4329.425;  212.125;    0.000
611.404; 4374.425;  235.125;    0.000
611.526; 4377.425;  213.125;    0.000
611.647; 4359.425;  248.125;    0.000
611.769; 4333.425;  205.125;    0.000
611.890; 4419.425;  224.125;    0.000
612.012; 4237.425;  189.125;    0.000
612.133; 4349.425;  186.125;    0.000
612.255; 4396.425;  246.125;    0.000
612.377; 4439.425;  230.125;    0.000
612.498; 4250.425;  196.125;    0.000
612.619; 4265.425;  234.125;    0.000
612.741; 4293.425;  221.125;    0.000
612.862; 4346.425;  227.125;    0.000
612.984; 4434.425;  189.125;    0.000
613.105; 4245.425;  232.125;    0.000
613.226; 4229.425;  199.125;    0.000
613.348; 4299.425;  260.125;    0.000
613.469; 4317.425;  217.125;    0.000
613.590; 4271.425;  236.125;    0.000
613.712; 4315.425;  226.125;    0.000
613.833; 4293.425;  231.125;    0.000
613.954; 4244.425;  236.125;    0.000
614.076; 4311.425;  236.125;    0.000
614.197; 4332.425;  228.125;    0.000
614.318; 4242.425;  207.125;    0.000
614.439; 4247.425;  237.125;    0.000
614.560; 4334.425;  202.125;    0.000
614.682; 4334.425;  230.125;    0.000
614.803; 4308.425;  236.125;    0.000
614.924; 4399.425;  257.125;    0.000
615.045; 4366.425;  228.125;    0.000
615.166; 4459.425;  221.125;    0.000
615.287; 4629.425;  199.125;    0.000
615.408; 5058.425;  228.125;    0.000
615.529; 5120.425;  200.125;    0.000
615.650; 4915.425;  224.125;    0.000
615.771; 4644.425;  202.125;    0.000
615.892; 4839.425;  215.125;    0.000
616.013; 5521.425;  246.125;    0.000
616.134; 5960.425;  210.125;    0.000
616.255; 5670.425;  232.125;    0.000
616.376; 5068.425;  241.125;    0.000
616.497; 4688.425;  213.125;    0.000
616.618; 4735.425;  171.125;    0.000
616.739; 4756.425;  221.125;    0.000
616.860; 4629.425;  244.125;    0.000
616.981; 4654.425;  240.125;    0.000
617.102; 4548.425;  234.125;    0.000
617.222; 4446.425;  265.125;    0.000
617.343; 4404.425;  206.125;    0.000
617.464; 4483.425;  246.125;    0.000
617.585; 4349.425;  256.125;    0.000
617.705; 4408.425;  249.125;    0.000
617.826; 4499.425;  218.125;    0.000
617.947; 4426.425;  225.125;    0.000
618.068; 4372.425;  199.125;    0.000
618.188; 4283.425;  202.125;    0.000
618.309; 4338.425;  220.125;    0.000
618.430; 4278.425;  229.125;    0.000
618.550; 4359.425;  252.125;    0.000
618.671; 4342.425;  233.125;    0.000
618.791; 4296.425;  227.125;    0.000
618.912; 4289.425;  236.125;    0.000
619.033; 4349.425;  220.125;    0.000
619.153; 4296.425;  228.125;    0.000
619.274; 4293.425;  208.125;    0.000
619.394; 4340.425;  255.125;    0.000
619.515; 4193.425;  206.125;    0.000
619.635; 4177.425;  204.125;    0.000
619.756; 4264.425;  252.125;    0.000
619.876; 4179.425;  238.125;    0.000
619.996; 4162.425;  249.125;    0.000
620.117; 4247.425;  223.125;    0.000
620.237; 4151.425;  210.125;    0.000
620.358; 4228.425;  264.125;    0.000
620.478; 4200.425;  263.125;    0.000
620.598; 4259.425;  238.125;    0.000
620.719; 4260.425;  225.125;    0.000
620.839; 4132.425;  259.125;    0.000
620.959; 4156.425;  218.125;    0.000
621.079; 4154.425;  253.125;    0.000
621.200; 4112.425;  245.125;    0.000
621.320; 4216.425;  254.125;    0.000
621.440; 4002.425;  233.125;    0.000
621.560; 4126.425;  235.125;    0.000
621.681; 4199.425;  234.125;    0.000
621.801; 4060.425;  240.125;    0.000
621.921; 4128.425;  239.125;    0.000
622.041; 4121.425;  288.125;    0.000
622.161; 4141.425;  229.125;    0.000
622.281; 4200.425;  223.125;    0.000
622.401; 4076.425;  240.125;    0.000
622.521; 4086.425;  267.125;    0.000
622.641; 4195.425;  226.125;    0.000
622.761; 4023.425;  252.125;    0.000
622.882; 4052.425;  207.125;    0.000
623.002; 4090.425;  226.125;    0.000
623.121; 4039.425;  207.125;    0.000
623.241; 3980.425;  215.125;    0.000
623.361; 4052.425;  222.125;    0.000
623.481; 4092.425;  187.125;    0.000
623.601; 4091.425;  283.125;    0.000
623.721; 3926.425;  283.125;    0.000
623.841; 3976.425;  233.125;    0.000
623.961; 4060.425;  215.125;    0.000
624.081; 3968.425;  219.125;    0.000
624.201; 4050.425;  221.125;    0.000
624.320; 4055.425;  215.125;    0.000
624.440; 3982.425;  222.125;    0.000
624.560; 4014.425;  231.125;    0.000
624.680; 3994.425;  225.125;    0.000
624.799; 3929.425;  230.125;    0.000
624.919; 3980.425;  243.125;    0.000
625.039; 3985.425;  203.125;    0.000
625.159; 3975.425;  257.125;    0.000
625.278; 3927.425;  230.125;    0.000
625.398; 3911.425;  195.125;    0.000
625.518; 3962.425;  211.125;    0.000
625.637; 3877.425;  267.125;    0.000
625.757; 3908.425;  228.125;    0.000
625.876; 3864.425;  231.125;    0.000
625.996; 3882.425;  219.125;    0.000
626.115; 3943.425;  235.125;    0.000
626.235; 3759.425;  199.125;    0.000
626.354; 3878.425;  226.125;    0.000
626.474; 3872.425;  225.125;    0.000
626.594; 3899.425;  223.125;    0.000
626.713; 3878.425;  231.125;    0.000
626.832; 3966.425;  287.125;    0.000
626.952; 3823.425;  251.125;    0.000
627.071; 3918.425;  254.125;    0.000
627.191; 3920.425;  193.125;    0.000
627.310; 3901.425;  213.125;    0.000
627.429; 4003.425;  259.125;    0.000
627.549; 3870.425;  243.125;    0.000
627.668; 3923.425;  181.125;    0.000
627.787; 3910.425;  232.125;    0.000
627.907; 3883.425;  222.125;    0.000
628.026; 3934.425;  219.125;    0.000
628.145; 3893.425;  201.125;    0.000
628.264; 3886.425;  198.125;    0.000
628.384; 3875.425;  208.125;    0.000
628.503; 3914.425;  251.125;    0.000
628.622; 3839.425;  195.125;    0.000
628.741; 3867.425;  180.125;    0.000
628.860; 3731.425;  235.125;    0.000
628.980; 3828.425;  222.125;    0.000
629.099; 3855.425;  237.125;    0.000
629.218; 3812.425;  175.125;    0.000
629.337; 3892.425;  194.125;    0.000
629.456; 3802.425;  225.125;    0.000
629.575; 3684.425;  239.125;    0.000
629.694; 3832.425;  230.125;    0.000
629.813; 3862.425;  197.125;    0.000
629.932; 3782.425;  225.125;    0.000
630.051; 3853.425;  238.125;    0.000
630.170; 3774.425;  233.125;    0.000
630.289; 3754.425;  231.125;    0.000
630.408; 3797.425;  204.125;    0.000
630.527; 3817.425;  262.125;    0.000
630.646; 3829.425;  181.125;    0.000
630.764; 3783.425;  218.125;    0.000
630.883; 3797.425;  215.125;    0.000
631.002; 3881.425;  224.125;    0.000
631.121; 3851.425;  209.125;    0.000
631.240; 3889.425;  230.125;    0.000
631.359; 3804.425;  235.125;    0.000
631.477; 3821.425;  223.125;    0.000
631.596; 3775.425;  218.125;    0.000
631.715; 3852.425;  234.125;    0.000
631.834; 3799.425;  215.125;    0.000
631.952; 3804.425;  243.125;    0.000
632.071; 3833.425;  219.125;    0.000
632.190; 3844.425;  235.125;    0.000
632.308; 3804.425;  239.125;    0.000
632.427; 3740.425;  211.125;    0.000
632.546; 3734.425;  233.125;    0.000
632.664; 3661.425;  219.125;    0.000
632.783; 3692.425;  203.125;    0.000
632.901; 3868.425;  221.125;    0.000
633.020; 3688.425;  197.125;    0.000
633.138; 3751.425;  244.125;    0.000
633.257; 3679.425;  205.125;    0.000
633.375; 3782.425;  245.125;    0.000
633.494; 3712.425;  218.125;    0.000
633.612; 3772.425;  222.125;    0.000
633.731; 3692.425;  212.125;    0.000
633.849; 3588.425;  218.125;    0.000
633.968; 3701.425;  236.125;    0.000
634.086; 3742.425;  233.125;    0.000
634.204; 3822.425;  215.125;    0.000
634.323; 3696.425;  230.125;    0.000
634.441; 3830.425;  235.125;    0.000
634.559; 3775.425;  202.125;    0.000
634.678; 3805.425;  218.125;    0.000
634.796; 3751.425;  203.125;    0.000
634.914; 3800.425;  227.125;    0.000
635.032; 3833.425;  279.125;    0.000
635.151; 3634.425;  221.125;    0.000
635.269; 3709.425;  207.125;    0.000
635.387; 3736.425;  195.125;    0.000
635.505; 3598.425;  243.125;    0.000
635.623; 3761.425;  269.125;    0.000
635.742; 3651.425;  232.125;    0.000
635.860; 3711.425;  243.125;    0.000
635.978; 3682.425;  215.125;    0.000
636.096; 3715.425;  225.125;    0.000
636.214; 3715.425;  244.125;    0.000
636.332; 3702.425;  226.125;    0.000
636.450; 3712.425;  227.125;    0.000
636.568; 3721.425;  225.125;    0.000
636.686; 3686.425;  194.125;    0.000
636.804; 3698.425;  234.125;    0.000
636.922; 3653.425;  177.125;    0.000
637.040; 3744.425;  225.125;    0.000
637.158; 3617.425;  194.125;    0.000
637.276; 3589.425;  219.125;    0.000
637.394; 3697.425;  219.125;    0.000
637.512; 3683.425;  210.125;    0.000
637.629; 3720.425;  242.125;    0.000
637.747; 3745.425;  193.125;    0.000
637.865; 3629.425;  219.125;    0.000
637.983; 3697.425;  251.125;    0.000
638.101; 3552.425;  221.125;    0.000
638.218; 3644.425;  193.125;    0.000
638.336; 3691.425;  224.125;    0.000
638.454; 3605.425;  227.125;    0.000
638.572; 3675.425;  245.125;    0.000
638.689; 3608.425;  222.125;    0.000
638.807; 3744.425;  244.125;    0.000
638.925; 3684.425;  238.125;    0.000
639.042; 3595.425;  213.125;    0.000
639.160; 3702.425;  186.125;    0.000
639.278; 3540.425;  203.125;    0.000
639.395; 3630.425;  270.125;    0.000
639.513; 3548.425;  227.125;    0.000
639.630; 3586.425;  200.125;    0.000
639.748; 3575.425;  199.125;    0.000
639.865; 3576.425;  233.125;    0.000
639.983; 3633.425;  181.125;    0.000
640.100; 3634.425;  219.125;    0.000
640.218; 3621.425;  234.125;    0.000
640.335; 3728.425;  233.125;    0.000
640.453; 3662.425;  202.125;    0.000
640.570; 3613.425;  214.125;    0.000
640.688; 3569.425;  215.125;    0.000
640.805; 3653.425;  229.125;    0.000
640.922; 3614.425;  244.125;    0.000
641.040; 3669.425;  233.125;    0.000
641.157; 3591.425;  199.125;    0.000
641.274; 3579.425;  205.125;    0.000
641.391; 3633.425;  244.125;    0.000
641.509; 3651.425;  184.125;    0.000
641.626; 3639.425;  244.125;    0.000
641.743; 3514.425;  221.125;    0.000
641.860; 3720.425;  206.125;    0.000
641.978; 3577.425;  272.125;    0.000
642.095; 3670.425;  218.125;    0.000
642.212; 3618.425;  208.125;    0.000
642.329; 3609.425;  218.125;    0.000
642.446; 3660.425;  197.125;    0.000
642.563; 3623.425;  214.125;    0.000
642.681; 3597.425;  203.125;    0.000
642.798; 3653.425;  236.125;    0.000
642.915; 3593.425;  191.125;    0.000
643.032; 3604.425;  226.125;    0.000
643.149; 3628.425;  231.125;    0.000
643.266; 3629.425;  213.125;    0.000
643.383; 3695.425;  240.125;    0.000
643.500; 3675.425;  185.125;    0.000
643.617; 3712.425;  229.125;    0.000
643.734; 3646.425;  205.125;    0.000
643.850; 3677.425;  222.125;    0.000
643.967; 3824.425;  202.125;    0.000
644.084; 3688.425;  264.125;    0.000
644.201; 3560.425;  214.125;    0.000
644.318; 3663.425;  206.125;    0.000
644.435; 3739.425;  225.125;    0.000
644.552; 3762.425;  203.125;    0.000
644.668; 3732.425;  252.125;    0.000
644.785; 3770.425;  213.125;    0.000
644.902; 3716.425;  233.125;    0.000
645.019; 3786.425;  220.125;    0.000
645.135; 3701.425;  225.125;    0.000
645.252; 3788.425;  218.125;    0.000
645.369; 3745.425;  214.125;    0.000
645.485; 3738.425;  210.125;    0.000
645.602; 3801.425;  198.125;    0.000
645.719; 3785.425;  228.125;    0.000
645.835; 3792.425;  209.125;    0.000
645.952; 3855.425;  213.125;    0.000
646.068; 3871.425;  241.125;    0.000
646.185; 3797.425;  219.125;    0.000
646.302; 3949.425;  246.125;    0.000
646.418; 3890.425;  228.125;    0.000
646.535; 3936.425;  256.125;    0.000
646.651; 3926.425;  222.125;    0.000
646.768; 3917.425;  203.125;    0.000
646.884; 3947.425;  199.125;    0.000
647.000; 4007.425;  194.125;    0.000
647.117; 3962.425;  214.125;    0.000
647.233; 3923.425;  209.125;    0.000
647.350; 4041.425;  235.125;    0.000
647.466; 4038.425;  237.125;    0.000
647.582; 4074.425;  231.125;    0.000
647.699; 4083.425;  219.125;    0.000
647.815; 4068.425;  200.125;    0.000
647.931; 4155.425;  173.125;    0.000
648.047; 4115.425;  184.125;    0.000
648.164; 4169.425;  199.125;    0.000
648.280; 4156.425;  209.125;    0.000
648.396; 4194.425;  220.125;    0.000
648.512; 4262.425;  212.125;    0.000
648.629; 4222.425;  214.125;    0.000
648.745; 4205.425;  197.125;    0.000
648.861; 4154.425;  228.125;    0.000
648.977; 4237.425;  238.125;    0.000
649.093; 4013.425;  208.125;    0.000
649.209; 4267.425;  179.125;    0.000
649.325; 4239.425;  256.125;    0.000
649.441; 4215.425;  224.125;    0.000
649.557; 4173.425;  247.125;    0.000
649.673; 4231.425;  214.125;    0.000
649.789; 4308.425;  213.125;    0.000
649.905; 4210.425;  170.125;    0.000
650.021; 4292.425;  236.125;    0.000
650.137; 4221.425;  229.125;    0.000
650.253; 4234.425;  207.125;    0.000
650.369; 4326.425;  198.125;    0.000
650.485; 4377.425;  225.125;    0.000
650.601; 4372.425;  260.125;    0.000
650.717; 4389.425;  196.125;    0.000
650.833; 4267.425;  219.125;    0.000
650.948; 4429.425;  203.125;    0.000
651.064; 4483.425;  232.125;    0.000
651.180; 4398.425;  252.125;    0.000
651.296; 4375.425;  190.125;    0.000
651.411; 4452.425;  235.125;    0.000
651.527; 4447.425;  227.125;    0.000
651.643; 4572.425;  238.125;    0.000
651.759; 4585.425;  260.125;    0.000
651.874; 4550.425;  217.125;    0.000
651.990; 4658.425;  239.125;    0.000
652.105; 4758.425;  215.125;    0.000
652.221; 4732.425;  237.125;    0.000
652.337; 4831.425;  238.125;    0.000
652.452; 4927.425;  230.125;    0.000
652.568; 4899.425;  201.125;    0.000
652.683; 4945.425;  243.125;    0.000
652.799; 5032.425;  218.125;    0.000
652.914; 5002.425;  189.125;    0.000
653.030; 5156.425;  191.125;    0.000
653.145; 5058.425;  240.125;    0.000
653.261; 5155.425;  225.125;    0.000
653.376; 5254.425;  241.125;    0.000
653.492; 5345.425;  188.125;    0.000
653.607; 5558.425;  219.125;    0.000
653.722; 5589.425;  268.125;    0.000
653.838; 5630.425;  262.125;    0.000
653.953; 5723.425;  188.125;    0.000
654.068; 5881.425;  244.125;    0.000
654.184; 6171.425;  247.125;    0.000
654.299; 6113.425;  228.125;    0.000
654.414; 6141.425;  181.125;    0.000
654.530; 6486.425;  210.125;    0.000
654.645; 6647.425;  240.125;    0.000
654.760; 6758.425;  219.125;    0.000
654.875; 6997.425;  178.125;    0.000
654.990; 7361.425;  222.125;    0.000
655.106; 7391.425;  227.125;    0.000
655.221; 7706.425;  270.125;    0.000
655.336; 7887.425;  199.125;    0.000
655.451; 8213.425;  235.125;    0.000
655.566; 8533.425;  251.125;    0.000
655.681; 9062.425;  253.125;    0.000
655.796; 9497.425;  207.125;    0.000
655.911;10090.425;  213.125;    0.000
656.026;10647.425;  247.125;    0.000
656.141;11329.425;  209.125;    0.000
656.256;11827.425;  226.125;    0.000
656.371;12071.425;  201.125;    0.000
656.486;11749.425;  196.125;    0.000
656.601;11380.425;  239.125;    0.000
656.716;11065.425;  234.125;    0.000
656.831;10614.425;  223.125;    0.000
656.946;10344.425;  246.125;    0.000
657.060; 9733.425;  230.125;    0.000
657.175; 9434.425;  207.125;    0.000
657.290; 9071.425;  213.125;    0.000
657.405; 8699.425;  319.125;    0.000
657.520; 8622.425;  241.125;    0.000
657.634; 8269.425;  235.125;    0.000
657.749; 7951.425;  275.125;    0.000
657.864; 7770.425;  210.125;    0.000
657.979; 7510.425;  227.125;    0.000
658.093; 7223.425;  206.125;    0.000
658.208; 7209.425;  217.125;    0.000
658.323; 7052.425;  227.125;    0.000
658.437; 6843.425;  217.125;    0.000
658.552; 6741.425;  237.125;    0.000
658.666; 6528.425;  233.125;    0.000
658.781; 6453.425;  248.125;    0.000
658.895; 6432.425;  233.125;    0.000
659.010; 6176.425;  238.125;    0.000
659.125; 6139.425;  206.125;    0.000
659.239; 5962.425;  220.125;    0.000
659.353; 5775.425;  236.125;    0.000
659.468; 5804.425;  238.125;    0.000
659.582; 5732.425;  275.125;    0.000
659.697; 5588.425;  239.125;    0.000
659.811; 5471.425;  232.125;    0.000
659.926; 5478.425;  230.125;    0.000
660.040; 5396.425;  257.125;    0.000
660.154; 5446.425;  221.125;    0.000
660.269; 5284.425;  219.125;    0.000
660.383; 5232.425;  228.125;    0.000
660.497; 5215.425;  243.125;    0.000
660.612; 5224.425;  238.125;    0.000
660.726; 5067.425;  260.125;    0.000
660.840; 4938.425;  239.125;    0.000
660.954; 4996.425;  236.125;    0.000
661.068; 4984.425;  239.125;    0.000
661.183; 4860.425;  245.125;    0.000
661.297; 4822.425;  198.125;    0.000
661.411; 4721.425;  203.125;    0.000
661.525; 4760.425;  244.125;    0.000
661.639; 4614.425;  229.125;    0.000
661.753; 4514.425;  238.125;    0.000
661.867; 4523.425;  237.125;    0.000
661.981; 4495.425;  219.125;    0.000
662.095; 4446.425;  232.125;    0.000
662.209; 4207.425;  236.125;    0.000
662.323; 4247.425;  209.125;    0.000
662.437; 4210.425;  206.125;    0.000
662.551; 4168.425;  217.125;    0.000
662.665; 4173.425;  262.125;    0.000
662.779; 4138.425;  234.125;    0.000
662.893; 4064.425;  222.125;    0.000
663.007; 4025.425;  189.125;    0.000
663.121; 4068.425;  258.125;    0.000
663.235; 4023.425;  191.125;    0.000
663.349; 3921.425;  259.125;    0.000
663.462; 3940.425;  209.125;    0.000
663.576; 3875.425;  244.125;    0.000
663.690; 3818.425;  237.125;    0.000
663.804; 3794.425;  205.125;    0.000
663.917; 3785.425;  207.125;    0.000
664.031; 3808.425;  234.125;    0.000
664.145; 3764.425;  216.125;    0.000
664.258; 3739.425;  202.125;    0.000
664.372; 3695.425;  198.125;    0.000
664.486; 3649.425;  181.125;    0.000
664.599; 3736.425;  229.125;    0.000
664.713; 3676.425;  266.125;    0.000
664.827; 3648.425;  185.125;    0.000
664.940; 3620.425;  225.125;    0.000
665.054; 3547.425;  198.125;    0.000
665.167; 3546.425;  208.125;    0.000
665.281; 3540.425;  231.125;    0.000
665.394; 3544.425;  228.125;    0.000
665.508; 3484.425;  204.125;    0.000
665.621; 3550.425;  263.125;    0.000
665.735; 3535.425;  222.125;    0.000
665.848; 3512.425;  237.125;    0.000
665.961; 3520.425;  180.125;    0.000
666.075; 3328.425;  212.125;    0.000
666.188; 3467.425;  229.125;    0.000
666.301; 3466.425;  247.125;    0.000
666.415; 3310.425;  212.125;    0.000
666.528; 3458.425;  268.125;    0.000
666.641; 3422.425;  210.125;    0.000
666.755; 3326.425;  178.125;    0.000
666.868; 3283.425;  227.125;    0.000
666.981; 3385.425;  250.125;    0.000
667.094; 3283.425;  228.125;    0.000
667.207; 3227.425;  235.125;    0.000
667.321; 3285.425;  171.125;    0.000
667.434; 3236.425;  191.125;    0.000
667.547; 3259.425;  279.125;    0.000
667.660; 3326.425;  210.125;    0.000
667.773; 3280.425;  217.125;    0.000
667.886; 3111.425;  209.125;    0.000
667.999; 3230.425;  239.125;    0.000
668.112; 3334.425;  227.125;    0.000
668.225; 3163.425;  185.125;    0.000
668.338; 3136.425;  222.125;    0.000
668.451; 3222.425;  200.125;    0.000
668.564; 3199.425;  237.125;    0.000
668.677; 3095.425;  207.125;    0.000
668.790; 3058.425;  208.125;    0.000
668.903; 3146.425;  243.125;    0.000
669.016; 3037.425;  190.125;    0.000
669.129; 3056.425;  234.125;    0.000
669.242; 2976.425;  185.125;    0.000
669.354; 3081.425;  224.125;    0.000
669.467; 2983.425;  219.125;    0.000
669.580; 3073.425;  249.125;    0.000
669.693; 3092.425;  187.125;    0.000
669.806; 3112.425;  206.125;    0.000
669.918; 3031.425;  192.125;    0.000
670.031; 2956.425;  235.125;    0.000
670.144; 3019.425;  238.125;    0.000
670.256; 3032.425;  237.125;    0.000
670.369; 2996.425;  237.125;    0.000
670.482; 3044.425;  250.125;    0.000
670.594; 2966.425;  273.125;    0.000
670.707; 2952.425;  223.125;    0.000
670.820; 2922.425;  238.125;    0.000
670.932; 2892.425;  224.125;    0.000
671.045; 2984.425;  219.125;    0.000
671.157; 2939.425;  242.125;    0.000
671.270; 2892.425;  235.125;    0.000
671.382; 2909.425;  213.125;    0.000
671.495; 2898.425;  254.125;    0.000
671.607; 2918.425;  253.125;    0.000
671.720; 2890.425;  169.125;    0.000
671.832; 2864.425;  201.125;    0.000
671.944; 2851.425;  250.125;    0.000
672.057; 2941.425;  187.125;    0.000
672.169; 2901.425;  224.125;    0.000
672.281; 2939.425;  238.125;    0.000
672.394; 2850.425;  250.125;    0.000
672.506; 2876.425;  227.125;    0.000
672.618; 2875.425;  223.125;    0.000
672.731; 2891.425;  210.125;    0.000
672.843; 2876.425;  245.125;    0.000
672.955; 2883.425;  263.125;    0.000
673.067; 2910.425;  239.125;    0.000
673.180; 2836.425;  253.125;    0.000
673.292; 2910.425;  243.125;    0.000
673.404; 2830.425;  226.125;    0.000
673.516; 2744.425;  223.125;    0.000
673.628; 2829.425;  223.125;    0.000
673.740; 2856.425;  216.125;    0.000
673.852; 2829.425;  277.125;    0.000
673.964; 2829.425;  211.125;    0.000
674.076; 2834.425;  241.125;    0.000
674.188; 2775.425;  251.125;    0.000
674.300; 2830.425;  268.125;    0.000
674.412; 2801.425;  260.125;    0.000
674.524; 2799.425;  257.125;    0.000
674.636; 2749.425;  222.125;    0.000
674.748; 2704.425;  227.125;    0.000
674.860; 2759.425;  250.125;    0.000
674.972; 2801.425;  240.125;    0.000
675.084; 2700.425;  262.125;    0.000
675.196; 2793.425;  287.125;    0.000
675.307; 2716.425;  257.125;    0.000
675.419; 2764.425;  231.125;    0.000
675.531; 2813.425;  274.125;    0.000
675.643; 2708.425;  235.125;    0.000
675.755; 2777.425;  275.125;    0.000
675.866; 2708.425;  238.125;    0.000
675.978; 2652.425;  209.125;    0.000
676.090; 2687.425;  239.125;    0.000
676.201; 2750.425;  249.125;    0.000
676.313; 2713.425;  237.125;    0.000
676.425; 2688.425;  263.125;    0.000
676.536; 2738.425;  178.125;    0.000
676.648; 2634.425;  245.125;    0.000
676.759; 2663.425;  244.125;    0.000
676.871; 2695.425;  242.125;    0.000
676.983; 2724.425;  245.125;    0.000
677.094; 2759.425;  209.125;    0.000
677.206; 2629.425;  248.125;    0.000
677.317; 2632.425;  260.125;    0.000
677.429; 2680.425;  237.125;    0.000
677.540; 2624.425;  226.125;    0.000
677.651; 2610.425;  226.125;    0.000
677.763; 2693.425;  194.125;    0.000
677.874; 2680.425;  230.125;    0.000
677.986; 2592.425;  202.125;    0.000
678.097; 2612.425;  229.125;    0.000
678.208; 2689.425;  263.125;    0.000
678.320; 2605.425;  243.125;    0.000
678.431; 2624.425;  229.125;    0.000
678.542; 2574.425;  231.125;    0.000
678.653; 2586.425;  224.125;    0.000
678.765; 2513.425;  255.125;    0.000
678.876; 2447.425;  175.125;    0.000
678.987; 2528.425;  204.125;    0.000
679.098; 2439.425;  227.125;    0.000
679.209; 2575.425;  228.125;    0.000
679.320; 2601.425;  223.125;    0.000
679.432; 2542.425;  219.125;    0.000
679.543; 2412.425;  210.125;    0.000
679.654; 2598.425;  249.125;    0.000
679.765; 2564.425;  222.125;    0.000
679.876; 2491.425;  219.125;    0.000
679.987; 2521.425;  213.125;    0.000
680.098; 2582.425;  237.125;    0.000
680.209; 2509.425;  188.125;    0.000
680.320; 2516.425;  243.125;    0.000
680.431; 2566.425;  227.125;    0.000
680.542; 2593.425;  212.125;    0.000
680.653; 2593.425;  266.125;    0.000
680.763; 2413.425;  198.125;    0.000
680.874; 2532.425;  211.125;    0.000
680.985; 2427.425;  207.125;    0.000
681.096; 2479.425;  244.125;    0.000
681.207; 2505.425;  209.125;    0.000
681.318; 2477.425;  215.125;    0.000
681.428; 2462.425;  199.125;    0.000
681.539; 2450.425;  175.125;    0.000
681.650; 2452.425;  224.125;    0.000
681.760; 2453.425;  216.125;    0.000
681.871; 2493.425;  187.125;    0.000
681.982; 2487.425;  237.125;    0.000
682.093; 2443.425;  213.125;    0.000
682.203; 2498.425;  190.125;    0.000
682.314; 2495.425;  230.125;    0.000
682.424; 2539.425;  223.125;    0.000
682.535; 2514.425;  172.125;    0.000
682.646; 2554.425;  268.125;    0.000
682.756; 2505.425;  249.125;    0.000
682.867; 2484.425;  225.125;    0.000
682.977; 2452.425;  211.125;    0.000
683.088; 2453.425;  238.125;    0.000
683.198; 2443.425;  202.125;    0.000
683.308; 2381.425;  196.125;    0.000
683.419; 2410.425;  230.125;    0.000
683.529; 2394.425;  213.125;    0.000
683.640; 2397.425;  225.125;    0.000
683.750; 2378.425;  203.125;    0.000
683.860; 2465.425;  200.125;    0.000
683.971; 2499.425;  269.125;    0.000
684.081; 2413.425;  204.125;    0.000
684.191; 2427.425;  228.125;    0.000
684.301; 2375.425;  219.125;    0.000
684.412; 2423.425;  222.125;    0.000
684.522; 2406.425;  242.125;    0.000
684.632; 2439.425;  234.125;    0.000
684.742; 2468.425;  240.125;    0.000
684.852; 2392.425;  229.125;    0.000
684.963; 2444.425;  237.125;    0.000
685.073; 2321.425;  205.125;    0.000
685.183; 2438.425;  241.125;    0.000
685.293; 2386.425;  202.125;    0.000
685.403; 2454.425;  232.125;    0.000
685.513; 2420.425;  244.125;    0.000
685.623; 2423.425;  224.125;    0.000
685.733; 2397.425;  236.125;    0.000
685.843; 2475.425;  235.125;    0.000
685.953; 2445.425;  216.125;    0.000
686.063; 2448.425;  214.125;    0.000
686.173; 2460.425;  198.125;    0.000
686.283; 2391.425;  250.125;    0.000
686.393; 2370.425;  227.125;    0.000
686.503; 2447.425;  244.125;    0.000
686.612; 2382.425;  247.125;    0.000
686.722; 2476.425;  265.125;    0.000
686.832; 2446.425;  213.125;    0.000
686.942; 2441.425;  241.125;    0.000
687.052; 2436.425;  238.125;    0.000
687.161; 2543.425;  233.125;    0.000
687.271; 2446.425;  232.125;    0.000
687.381; 2395.425;  220.125;    0.000
687.491; 2413.425;  206.125;    0.000
687.600; 2398.425;  283.125;    0.000
687.710; 2450.425;  212.125;    0.000
687.820; 2415.425;  226.125;    0.000
687.929; 2406.425;  202.125;    0.000
688.039; 2377.425;  225.125;    0.000
688.148; 2351.425;  235.125;    0.000
688.258; 2375.425;  224.125;    0.000
688.367; 2438.425;  239.125;    0.000
688.477; 2345.425;  193.125;    0.000
688.586; 2391.425;  226.125;    0.000
688.696; 2394.425;  185.125;    0.000
688.805; 2330.425;  190.125;    0.000
688.915; 2419.425;  209.125;    0.000
689.024; 2345.425;  214.125;    0.000
689.134; 2418.425;  205.125;    0.000
689.243; 2325.425;  190.125;    0.000
689.352; 2371.425;  233.125;    0.000
689.462; 2440.425;  196.125;    0.000
689.571; 2297.425;  227.125;    0.000
689.680; 2363.425;  206.125;    0.000
689.790; 2271.425;  193.125;    0.000
689.899; 2362.425;  204.125;    0.000
690.008; 2388.425;  228.125;    0.000
690.117; 2341.425;  207.125;    0.000
690.227; 2366.425;  231.125;    0.000
690.336; 2320.425;  222.125;    0.000
690.445; 2311.425;  198.125;    0.000
690.554; 2320.425;  202.125;    0.000
690.663; 2309.425;  217.125;    0.000
690.772; 2395.425;  213.125;    0.000
690.881; 2286.425;  225.125;    0.000
690.990; 2316.425;  217.125;    0.000
691.099; 2308.425;  205.125;    0.000
691.209; 2319.425;  220.125;    0.000
691.318; 2376.425;  216.125;    0.000
691.427; 2271.425;  188.125;    0.000
691.536; 2352.425;  224.125;    0.000
691.644; 2230.425;  212.125;    0.000
691.753; 2338.425;  216.125;    0.000
691.862; 2262.425;  250.125;    0.000
691.971; 2348.425;  210.125;    0.000
692.080; 2296.425;  232.125;    0.000
692.189; 2359.425;  218.125;    0.000
692.298; 2375.425;  220.125;    0.000
692.406; 2355.425;  261.125;    0.000
692.515; 2314.425;  253.125;    0.000
692.624; 2332.425;  224.125;    0.000
692.733; 2332.425;  209.125;    0.000
692.842; 2274.425;  214.125;    0.000
692.950; 2306.425;  206.125;    0.000
693.059; 2241.425;  180.125;    0.000
693.168; 2340.425;  220.125;    0.000
693.276; 2358.425;  196.125;    0.000
693.385; 2353.425;  203.125;    0.000
693.494; 2327.425;  263.125;    0.000
693.602; 2317.425;  222.125;    0.000
693.711; 2296.425;  178.125;    0.000
693.819; 2295.425;  230.125;    0.000
693.928; 2323.425;  187.125;    0.000
694.036; 2282.425;  219.125;    0.000
694.145; 2321.425;  223.125;    0.000
694.253; 2274.425;  241.125;    0.000
694.362; 2242.425;  229.125;    0.000
694.470; 2374.425;  223.125;    0.000
694.579; 2337.425;  195.125;    0.000
694.687; 2291.425;  257.125;    0.000
694.795; 2311.425;  230.125;    0.000
694.904; 2281.425;  196.125;    0.000
695.012; 2339.425;  247.125;    0.000
695.120; 2379.425;  215.125;    0.000
695.229; 2268.425;  244.125;    0.000
695.337; 2322.425;  197.125;    0.000
695.445; 2345.425;  270.125;    0.000
695.553; 2314.425;  241.125;    0.000
695.662; 2348.425;  249.125;    0.000
695.770; 2276.425;  244.125;    0.000
695.878; 2331.425;  236.125;    0.000
695.986; 2347.425;  253.125;    0.000
696.094; 2325.425;  242.125;    0.000
696.202; 2232.425;  174.125;    0.000
696.310; 2370.425;  230.125;    0.000
696.419; 2226.425;  218.125;    0.000
696.527; 2350.425;  226.125;    0.000
696.635; 2353.425;  217.125;    0.000
696.743; 2276.425;  221.125;    0.000
696.851; 2347.425;  259.125;    0.000
696.959; 2299.425;  245.125;    0.000
697.067; 2393.425;  235.125;    0.000
697.174; 2289.425;  238.125;    0.000
697.282; 2264.425;  208.125;    0.000
697.390; 2308.425;  265.125;    0.000
697.498; 2188.425;  202.125;    0.000
697.606; 2289.425;  219.125;    0.000
697.714; 2357.425;  245.125;    0.000
697.822; 2374.425;  222.125;    0.000
697.929; 2274.425;  194.125;    0.000
698.037; 2190.425;  223.125;    0.000
698.145; 2205.425;  213.125;    0.000
698.253; 2305.425;  234.125;    0.000
698.360; 2323.425;  211.125;    0.000
698.468; 2293.425;  241.125;    0.000
698.576; 2303.425;  249.125;    0.000
698.683; 2289.425;  268.125;    0.000
698.791; 2255.425;  223.125;    0.000
698.899; 2298.425;  251.125;    0.000
699.006; 2311.425;  216.125;    0.000
699.114; 2222.425;  256.125;    0.000
699.221; 2301.425;  226.125;    0.000
699.329; 2286.425;  255.125;    0.000
699.436; 2189.425;  213.125;    0.000
699.544; 2226.425;  258.125;    0.000
699.651; 2275.425;  214.125;    0.000
699.759; 2233.425;  229.125;    0.000
699.866; 2353.425;  239.125;    0.000
699.974; 2257.425;  224.125;    0.000
700.081; 2289.425;  227.125;    0.000
700.188; 2250.425;  267.125;    0.000
700.296; 2339.425;  222.125;    0.000
700.403; 2175.425;  225.125;    0.000
700.510; 2255.425;  248.125;    0.000
700.618; 2327.425;  223.125;    0.000
700.725; 2277.425;  243.125;    0.000
700.832; 2220.425;  239.125;    0.000
700.940; 2262.425;  284.125;    0.000
701.047; 2242.425;  216.125;    0.000
701.154; 2186.425;  249.125;    0.000
701.261; 2221.425;  229.125;    0.000
701.368; 2266.425;  247.125;    0.000
701.475; 2289.425;  208.125;    0.000
701.582; 2243.425;  262.125;    0.000
701.690; 2181.425;  224.125;    0.000
701.797; 2259.425;  294.125;    0.000
701.904; 2339.425;  303.125;    0.000
702.011; 2329.425;  278.125;    0.000
702.118; 2312.425;  279.125;    0.000
702.225; 2291.425;  342.125;    0.000
702.332; 2318.425;  281.125;    0.000
702.439; 2276.425;  313.125;    0.000
702.546; 2327.425;  295.125;    0.000
702.652; 2354.425;  293.125;    0.000
702.759; 2266.425;  333.125;    0.000
702.866; 2301.425;  272.125;    0.000
702.973; 2296.425;  310.125;    0.000
703.080; 2266.425;  313.125;    0.000
703.187; 2263.425;  316.125;    0.000
703.294; 2221.425;  328.125;    0.000
703.400; 2159.425;  312.125;    0.000
703.507;  542.425;  349.125;    0.000
703.614;  319.425;  298.125;    0.000
703.720;  308.425;  300.125;    0.000
703.827;  307.425;  346.125;    0.000
703.934;  298.425;  308.125;    0.000
704.040;  259.425;  300.125;    0.000
704.147;  302.425;  317.125;    0.000
704.254;  328.425;  350.125;    0.000
704.360;  280.425;  285.125;    0.000
704.467;  339.425;  334.125;    0.000
704.573;  360.425;  330.125;    0.000
704.680;  331.425;  312.125;    0.000
704.786;  348.425;  305.125;    0.000
704.893;  332.425;  330.125;    0.000
704.999;  324.425;  315.125;    0.000
705.106;  342.425;  327.125;    0.000

