
Integration time [ms]:   0.300
Averaging Nr. [scans]: 1
Smoothing Nr. [pixels]: 0
Data measured with spectrometer [name]: UV1
Wave   ;Sample   ;Dark     ;Reference
[nm]   ;[counts] ;[counts] ;[counts] 

236.381;  117.425;  160.350;    0.000
236.451;  194.425;  198.350;    0.000
236.520;  191.425;  179.350;    0.000
236.590;  175.425;  205.350;    0.000
236.660;  195.425;  199.350;    0.000
236.730;  185.425;  178.350;    0.000
236.799;  190.425;  201.350;    0.000
236.869;  212.425;  197.350;    0.000
236.939;  162.425;  180.350;    0.000
237.009;  200.425;  165.350;    0.000
237.078;  187.425;  191.350;    0.000
237.148;  142.425;  146.350;    0.000
237.218;  199.425;  142.350;    0.000
237.287;  192.425;  190.350;    0.000
237.357;  185.425;  182.350;    0.000
237.427;  174.425;  139.350;    0.000
237.496; 1270.425;  221.350;    0.000
237.566; 1224.425;  183.350;    0.000
237.636; 1139.425;  157.350;    0.000
237.705; 1243.425;  189.350;    0.000
237.775; 1188.425;  169.350;    0.000
237.845; 1210.425;  156.350;    0.000
237.914; 1193.425;  185.350;    0.000
237.984; 1246.425;  194.350;    0.000
238.054; 1162.425;  138.350;    0.000
238.123; 1247.425;  166.350;    0.000
238.193; 1204.425;  174.350;    0.000
238.263; 1219.425;  158.350;    0.000
238.332; 1160.425;  167.350;    0.000
238.402; 1230.425;  173.350;    0.000
238.471; 1190.425;  153.350;    0.000
238.541; 1163.425;  167.350;    0.000
238.611; 1198.425;  165.350;    0.000
238.680; 1113.425;  157.350;    0.000
238.750; 1198.425;  152.350;    0.000
238.819; 1262.425;  190.350;    0.000
238.889; 1222.425;  151.350;    0.000
238.958; 1204.425;  166.350;    0.000
239.028; 1227.425;  180.350;    0.000
239.097; 1176.425;  170.350;    0.000
239.167; 1252.425;  177.350;    0.000
239.237; 1180.425;  195.350;    0.000
239.306; 1177.425;  145.350;    0.000
239.376; 1268.425;  158.350;    0.000
239.445; 1287.425;  187.350;    0.000
239.515; 1211.425;  160.350;    0.000
239.584; 1185.425;  173.350;    0.000
239.654; 1131.425;  184.350;    0.000
239.723; 1215.425;  195.350;    0.000
239.793; 1216.425;  183.350;    0.000
239.862; 1182.425;  190.350;    0.000
239.932; 1175.425;  168.350;    0.000
240.001; 1168.425;  164.350;    0.000
240.070; 1142.425;  183.350;    0.000
240.140; 1221.425;  175.350;    0.000
240.209; 1214.425;  135.350;    0.000
240.279; 1252.425;  176.350;    0.000
240.348; 1173.425;  184.350;    0.000
240.418; 1138.425;  157.350;    0.000
240.487; 1167.425;  189.350;    0.000
240.556; 1136.425;  157.350;    0.000
240.626; 1167.425;  174.350;    0.000
240.695; 1229.425;  180.350;    0.000
240.765; 1158.425;  152.350;    0.000
240.834; 1184.425;  136.350;    0.000
240.903; 1229.425;  196.350;    0.000
240.973; 1154.425;  183.350;    0.000
241.042; 1151.425;  150.350;    0.000
241.112; 1188.425;  168.350;    0.000
241.181; 1141.425;  152.350;    0.000
241.250; 1085.425;  132.350;    0.000
241.320; 1220.425;  209.350;    0.000
241.389; 1132.425;  169.350;    0.000
241.458; 1181.425;  204.350;    0.000
241.528; 1153.425;  176.350;    0.000
241.597; 1165.425;  170.350;    0.000
241.666; 1095.425;  168.350;    0.000
241.736; 1187.425;  172.350;    0.000
241.805; 1099.425;  160.350;    0.000
241.874; 1073.425;  176.350;    0.000
241.943; 1177.425;  165.350;    0.000
242.013; 1198.425;  206.350;    0.000
242.082; 1144.425;  162.350;    0.000
242.151; 1132.425;  180.350;    0.000
242.221; 1107.425;  154.350;    0.000
242.290; 1095.425;  122.350;    0.000
242.359; 1158.425;  121.350;    0.000
242.428; 1157.425;  187.350;    0.000
242.498; 1117.425;  140.350;    0.000
242.567; 1102.425;  173.350;    0.000
242.636; 1140.425;  155.350;    0.000
242.705; 1166.425;  108.350;    0.000
242.774; 1099.425;  145.350;    0.000
242.844; 1193.425;  162.350;    0.000
242.913; 1140.425;  178.350;    0.000
242.982; 1185.425;  163.350;    0.000
243.051; 1116.425;  138.350;    0.000
243.120; 1136.425;  172.350;    0.000
243.190; 1123.425;  155.350;    0.000
243.259; 1127.425;  159.350;    0.000
243.328; 1111.425;  173.350;    0.000
243.397; 1183.425;  175.350;    0.000
243.466; 1079.425;  170.350;    0.000
243.535; 1084.425;  161.350;    0.000
243.605; 1052.425;  149.350;    0.000
243.674; 1088.425;  162.350;    0.000
243.743; 1068.425;  175.350;    0.000
243.812; 1078.425;  159.350;    0.000
243.881; 1179.425;  158.350;    0.000
243.950; 1087.425;  154.350;    0.000
244.019; 1067.425;  185.350;    0.000
244.088; 1161.425;  175.350;    0.000
244.158; 1156.425;  167.350;    0.000
244.227; 1166.425;  159.350;    0.000
244.296; 1084.425;  143.350;    0.000
244.365; 1124.425;  182.350;    0.000
244.434; 1111.425;  117.350;    0.000
244.503; 1095.425;  109.350;    0.000
244.572; 1060.425;  147.350;    0.000
244.641; 1121.425;  129.350;    0.000
244.710; 1139.425;  159.350;    0.000
244.779; 1058.425;  166.350;    0.000
244.848; 1030.425;  122.350;    0.000
244.917; 1117.425;  167.350;    0.000
244.986; 1097.425;  158.350;    0.000
245.055; 1046.425;  175.350;    0.000
245.124; 1014.425;  153.350;    0.000
245.193; 1086.425;  155.350;    0.000
245.262; 1025.425;  137.350;    0.000
245.331; 1123.425;  145.350;    0.000
245.400; 1030.425;  107.350;    0.000
245.469; 1090.425;  162.350;    0.000
245.538;  952.425;  165.350;    0.000
245.607; 1079.425;  178.350;    0.000
245.676; 1042.425;  166.350;    0.000
245.745; 1000.425;  169.350;    0.000
245.814;  992.425;  155.350;    0.000
245.883; 1005.425;  186.350;    0.000
245.952;  984.425;  165.350;    0.000
246.021; 1030.425;  169.350;    0.000
246.090; 1017.425;  170.350;    0.000
246.159;  955.425;  155.350;    0.000
246.227;  965.425;  161.350;    0.000
246.296;  963.425;  142.350;    0.000
246.365;  998.425;  160.350;    0.000
246.434; 1007.425;  199.350;    0.000
246.503; 1006.425;  155.350;    0.000
246.572; 1009.425;  206.350;    0.000
246.641;  990.425;  177.350;    0.000
246.710;  974.425;  178.350;    0.000
246.779;  978.425;  193.350;    0.000
246.847;  936.425;  147.350;    0.000
246.916;  973.425;  131.350;    0.000
246.985;  946.425;  168.350;    0.000
247.054;  918.425;  143.350;    0.000
247.123;  956.425;  130.350;    0.000
247.192;  933.425;  175.350;    0.000
247.260;  921.425;  171.350;    0.000
247.329;  918.425;  162.350;    0.000
247.398;  902.425;  163.350;    0.000
247.467;  937.425;  155.350;    0.000
247.536; 1027.425;  149.350;    0.000
247.604;  949.425;  191.350;    0.000
247.673;  938.425;  193.350;    0.000
247.742;  938.425;  159.350;    0.000
247.811;  919.425;  167.350;    0.000
247.879;  916.425;  176.350;    0.000
247.948;  891.425;  157.350;    0.000
248.017;  984.425;  150.350;    0.000
248.086;  930.425;  153.350;    0.000
248.154;  960.425;  157.350;    0.000
248.223;  921.425;  198.350;    0.000
248.292;  950.425;  188.350;    0.000
248.361;  943.425;  157.350;    0.000
248.429;  930.425;  138.350;    0.000
248.498;  925.425;  166.350;    0.000
248.567;  967.425;  179.350;    0.000
248.635;  936.425;  210.350;    0.000
248.704;  950.425;  168.350;    0.000
248.773;  830.425;  147.350;    0.000
248.841;  899.425;  155.350;    0.000
248.910;  922.425;  183.350;    0.000
248.979;  985.425;  171.350;    0.000
249.047;  964.425;  152.350;    0.000
249.116;  922.425;  155.350;    0.000
249.185;  958.425;  217.350;    0.000
249.253;  944.425;  149.350;    0.000
249.322;  947.425;  167.350;    0.000
249.390;  935.425;  182.350;    0.000
249.459;  888.425;  173.350;    0.000
249.528;  862.425;  162.350;    0.000
249.596;  891.425;  162.350;    0.000
249.665;  970.425;  163.350;    0.000
249.733;  928.425;  147.350;    0.000
249.802;  893.425;  170.350;    0.000
249.871;  878.425;  179.350;    0.000
249.939;  866.425;  179.350;    0.000
250.008;  910.425;  201.350;    0.000
250.076;  989.425;  189.350;    0.000
250.145;  891.425;  171.350;    0.000
250.213;  838.425;  161.350;    0.000
250.282;  896.425;  171.350;    0.000
250.350;  830.425;  138.350;    0.000
250.419;  869.425;  172.350;    0.000
250.487;  882.425;  207.350;    0.000
250.556;  886.425;  160.350;    0.000
250.624;  921.425;  187.350;    0.000
250.693;  866.425;  141.350;    0.000
250.761;  909.425;  182.350;    0.000
250.830;  900.425;  203.350;    0.000
250.898;  860.425;  160.350;    0.000
250.967;  817.425;  143.350;    0.000
251.035;  836.425;  142.350;    0.000
251.104;  881.425;  159.350;    0.000
251.172;  847.425;  189.350;    0.000
251.241;  843.425;  134.350;    0.000
251.309;  831.425;  179.350;    0.000
251.378;  845.425;  203.350;    0.000
251.446;  819.425;  151.350;    0.000
251.514;  886.425;  176.350;    0.000
251.583;  810.425;  173.350;    0.000
251.651;  772.425;  163.350;    0.000
251.720;  869.425;  151.350;    0.000
251.788;  872.425;  205.350;    0.000
251.856;  840.425;  126.350;    0.000
251.925;  770.425;  118.350;    0.000
251.993;  831.425;  139.350;    0.000
252.062;  913.425;  161.350;    0.000
252.130;  865.425;  180.350;    0.000
252.198;  877.425;  141.350;    0.000
252.267;  770.425;  145.350;    0.000
252.335;  824.425;  159.350;    0.000
252.403;  823.425;  158.350;    0.000
252.472;  845.425;  142.350;    0.000
252.540;  785.425;  162.350;    0.000
252.608;  884.425;  180.350;    0.000
252.677;  799.425;  137.350;    0.000
252.745;  862.425;  183.350;    0.000
252.813;  783.425;  151.350;    0.000
252.881;  823.425;  109.350;    0.000
252.950;  793.425;  174.350;    0.000
253.018;  784.425;  136.350;    0.000
253.086;  774.425;  149.350;    0.000
253.155;  746.425;  127.350;    0.000
253.223;  714.425;  156.350;    0.000
253.291;  747.425;  163.350;    0.000
253.359;  741.425;  174.350;    0.000
253.428;  678.425;  174.350;    0.000
253.496;  690.425;  161.350;    0.000
253.564;  652.425;  128.350;    0.000
253.632;  650.425;  153.350;    0.000
253.700;  707.425;  185.350;    0.000
253.769;  630.425;  163.350;    0.000
253.837;  664.425;  176.350;    0.000
253.905;  675.425;  164.350;    0.000
253.973;  690.425;  156.350;    0.000
254.041;  664.425;  154.350;    0.000
254.110;  686.425;  165.350;    0.000
254.178;  679.425;  148.350;    0.000
254.246;  682.425;  138.350;    0.000
254.314;  706.425;  164.350;    0.000
254.382;  673.425;  167.350;    0.000
254.450;  642.425;  134.350;    0.000
254.518;  694.425;  192.350;    0.000
254.587;  656.425;  139.350;    0.000
254.655;  674.425;  162.350;    0.000
254.723;  671.425;  131.350;    0.000
254.791;  688.425;  181.350;    0.000
254.859;  682.425;  146.350;    0.000
254.927;  745.425;  189.350;    0.000
254.995;  652.425;  141.350;    0.000
255.063;  684.425;  181.350;    0.000
255.131;  709.425;  156.350;    0.000
255.199;  728.425;  175.350;    0.000
255.267;  619.425;  120.350;    0.000
255.336;  751.425;  186.350;    0.000
255.404;  645.425;  134.350;    0.000
255.472;  681.425;  172.350;    0.000
255.540;  681.425;  157.350;    0.000
255.608;  704.425;  186.350;    0.000
255.676;  700.425;  155.350;    0.000
255.744;  715.425;  143.350;    0.000
255.812;  737.425;  134.350;    0.000
255.880;  759.425;  188.350;    0.000
255.948;  745.425;  163.350;    0.000
256.016;  705.425;  175.350;    0.000
256.084;  740.425;  191.350;    0.000
256.152;  757.425;  187.350;    0.000
256.220;  728.425;  152.350;    0.000
256.288;  777.425;  141.350;    0.000
256.356;  757.425;  139.350;    0.000
256.424;  755.425;  121.350;    0.000
256.491;  777.425;  139.350;    0.000
256.559;  799.425;  144.350;    0.000
256.627;  825.425;  158.350;    0.000
256.695;  757.425;  121.350;    0.000
256.763;  834.425;  150.350;    0.000
256.831;  811.425;  181.350;    0.000
256.899;  784.425;  146.350;    0.000
256.967;  783.425;   71.350;    0.000
257.035;  795.425;  164.350;    0.000
257.103;  844.425;  191.350;    0.000
257.171;  872.425;  140.350;    0.000
257.238;  847.425;  165.350;    0.000
257.306;  840.425;  127.350;    0.000
257.374;  882.425;  120.350;    0.000
257.442;  895.425;  139.350;    0.000
257.510;  917.425;  158.350;    0.000
257.578;  978.425;  164.350;    0.000
257.646;  921.425;  151.350;    0.000
257.713;  928.425;  136.350;    0.000
257.781;  936.425;  137.350;    0.000
257.849;  981.425;  151.350;    0.000
257.917;  938.425;  154.350;    0.000
257.985;  969.425;  113.350;    0.000
258.052;  967.425;  140.350;    0.000
258.120;  935.425;  176.350;    0.000
258.188;  977.425;  157.350;    0.000
258.256; 1036.425;  153.350;    0.000
258.324; 1059.425;  184.350;    0.000
258.391;  984.425;  144.350;    0.000
258.459; 1008.425;  162.350;    0.000
258.527; 1077.425;  154.350;    0.000
258.595; 1021.425;  122.350;    0.000
258.662; 1030.425;  164.350;    0.000
258.730; 1065.425;  114.350;    0.000
258.798; 1109.425;  131.350;    0.000
258.865; 1139.425;  171.350;    0.000
258.933; 1169.425;  145.350;    0.000
259.001; 1164.425;  150.350;    0.000
259.069; 1141.425;  123.350;    0.000
259.136; 1179.425;  139.350;    0.000
259.204; 1296.425;  165.350;    0.000
259.272; 1263.425;  114.350;    0.000
259.339; 1233.425;  179.350;    0.000
259.407; 1247.425;  153.350;    0.000
259.475; 1272.425;  143.350;    0.000
259.542; 1259.425;  136.350;    0.000
259.610; 1288.425;  133.350;    0.000
259.677; 1309.425;  159.350;    0.000
259.745; 1302.425;  130.350;    0.000
259.813; 1317.425;  175.350;    0.000
259.880; 1284.425;  158.350;    0.000
259.948; 1357.425;  124.350;    0.000
260.016; 1383.425;  105.350;    0.000
260.083; 1408.425;  169.350;    0.000
260.151; 1359.425;  133.350;    0.000
260.218; 1469.425;  143.350;    0.000
260.286; 1425.425;  134.350;    0.000
260.353; 1440.425;  160.350;    0.000
260.421; 1493.425;  128.350;    0.000
260.489; 1500.425;  150.350;    0.000
260.556; 1539.425;  179.350;    0.000
260.624; 1507.425;  113.350;    0.000
260.691; 1549.425;  128.350;    0.000
260.759; 1631.425;  146.350;    0.000
260.826; 1547.425;  111.350;    0.000
260.894; 1646.425;  115.350;    0.000
260.961; 1610.425;  138.350;    0.000
261.029; 1631.425;  152.350;    0.000
261.096; 1658.425;  175.350;    0.000
261.164; 1596.425;  131.350;    0.000
261.231; 1632.425;  141.350;    0.000
261.299; 1680.425;  125.350;    0.000
261.366; 1692.425;  142.350;    0.000
261.434; 1766.425;  133.350;    0.000
261.501; 1631.425;  137.350;    0.000
261.568; 1749.425;  184.350;    0.000
261.636; 1743.425;  138.350;    0.000
261.703; 1879.425;  161.350;    0.000
261.771; 1808.425;  160.350;    0.000
261.838; 1834.425;  178.350;    0.000
261.906; 1757.425;  128.350;    0.000
261.973; 1804.425;  139.350;    0.000
262.040; 1866.425;  148.350;    0.000
262.108; 1879.425;  130.350;    0.000
262.175; 1912.425;  117.350;    0.000
262.243; 1937.425;  174.350;    0.000
262.310; 1873.425;  145.350;    0.000
262.377; 2030.425;  108.350;    0.000
262.445; 1940.425;  147.350;    0.000
262.512; 1933.425;  124.350;    0.000
262.579; 1941.425;  127.350;    0.000
262.647; 2039.425;  166.350;    0.000
262.714; 2014.425;  150.350;    0.000
262.781; 2087.425;  121.350;    0.000
262.849; 2029.425;  126.350;    0.000
262.916; 1971.425;  119.350;    0.000
262.983; 2026.425;  155.350;    0.000
263.051; 2064.425;  137.350;    0.000
263.118; 2120.425;  160.350;    0.000
263.185; 2177.425;  151.350;    0.000
263.252; 2120.425;  167.350;    0.000
263.320; 2108.425;  123.350;    0.000
263.387; 2175.425;  134.350;    0.000
263.454; 2141.425;  144.350;    0.000
263.522; 2145.425;  153.350;    0.000
263.589; 2211.425;  161.350;    0.000
263.656; 2133.425;  117.350;    0.000
263.723; 2186.425;  101.350;    0.000
263.790; 2263.425;  128.350;    0.000
263.858; 2267.425;  142.350;    0.000
263.925; 2336.425;  182.350;    0.000
263.992; 2317.425;  146.350;    0.000
264.059; 2274.425;  132.350;    0.000
264.126; 2278.425;  154.350;    0.000
264.194; 2342.425;  153.350;    0.000
264.261; 2347.425;  157.350;    0.000
264.328; 2355.425;  171.350;    0.000
264.395; 2452.425;  166.350;    0.000
264.462; 2404.425;  165.350;    0.000
264.529; 2436.425;  124.350;    0.000
264.597; 2434.425;  120.350;    0.000
264.664; 2562.425;  159.350;    0.000
264.731; 2497.425;  145.350;    0.000
264.798; 2437.425;  100.350;    0.000
264.865; 2483.425;  166.350;    0.000
264.932; 2464.425;  132.350;    0.000
264.999; 2496.425;  137.350;    0.000
265.066; 2597.425;  124.350;    0.000
265.133; 2537.425;  162.350;    0.000
265.201; 2470.425;  163.350;    0.000
265.268; 2549.425;  174.350;    0.000
265.335; 2583.425;  132.350;    0.000
265.402; 2575.425;  116.350;    0.000
265.469; 2487.425;  121.350;    0.000
265.536; 2556.425;  157.350;    0.000
265.603; 2719.425;  151.350;    0.000
265.670; 2670.425;  164.350;    0.000
265.737; 2604.425;  142.350;    0.000
265.804; 2640.425;  146.350;    0.000
265.871; 2699.425;  168.350;    0.000
265.938; 2690.425;  131.350;    0.000
266.005; 2662.425;  208.350;    0.000
266.072; 2783.425;  125.350;    0.000
266.139; 2715.425;  161.350;    0.000
266.206; 2636.425;  134.350;    0.000
266.273; 2818.425;  155.350;    0.000
266.340; 2732.425;  122.350;    0.000
266.407; 2804.425;  134.350;    0.000
266.474; 2824.425;  126.350;    0.000
266.541; 2855.425;  153.350;    0.000
266.608; 2912.425;  129.350;    0.000
266.675; 2843.425;  185.350;    0.000
266.742; 2845.425;  153.350;    0.000
266.808; 2815.425;  169.350;    0.000
266.875; 2828.425;  156.350;    0.000
266.942; 2851.425;  172.350;    0.000
267.009; 2926.425;  150.350;    0.000
267.076; 2897.425;  184.350;    0.000
267.143; 2848.425;  170.350;    0.000
267.210; 2885.425;  132.350;    0.000
267.277; 2830.425;  146.350;    0.000
267.344; 2852.425;  159.350;    0.000
267.410; 3039.425;  174.350;    0.000
267.477; 2987.425;  169.350;    0.000
267.544; 2941.425;  130.350;    0.000
267.611; 3004.425;  169.350;    0.000
267.678; 3031.425;  197.350;    0.000
267.745; 3020.425;  185.350;    0.000
267.811; 2934.425;  160.350;    0.000
267.878; 2949.425;  143.350;    0.000
267.945; 2887.425;  126.350;    0.000
268.012; 3058.425;  172.350;    0.000
268.079; 2901.425;  156.350;    0.000
268.145; 2942.425;  128.350;    0.000
268.212; 2883.425;  107.350;    0.000
268.279; 2874.425;  135.350;    0.000
268.346; 2938.425;  166.350;    0.000
268.412; 2923.425;  150.350;    0.000
268.479; 2916.425;  176.350;    0.000
268.546; 2892.425;  119.350;    0.000
268.613; 3006.425;  201.350;    0.000
268.679; 2998.425;  141.350;    0.000
268.746; 3114.425;  177.350;    0.000
268.813; 3005.425;  134.350;    0.000
268.879; 2971.425;  141.350;    0.000
268.946; 3040.425;  172.350;    0.000
269.013; 3024.425;  150.350;    0.000
269.079; 2878.425;  124.350;    0.000
269.146; 2929.425;  135.350;    0.000
269.213; 2988.425;  200.350;    0.000
269.280; 2955.425;  142.350;    0.000
269.346; 2971.425;  153.350;    0.000
269.413; 3042.425;  140.350;    0.000
269.479; 2933.425;  171.350;    0.000
269.546; 2921.425;  156.350;    0.000
269.613; 2848.425;  145.350;    0.000
269.679; 2924.425;  168.350;    0.000
269.746; 2982.425;  136.350;    0.000
269.813; 2997.425;  153.350;    0.000
269.879; 2949.425;  162.350;    0.000
269.946; 2939.425;  156.350;    0.000
270.012; 2955.425;  178.350;    0.000
270.079; 2880.425;  132.350;    0.000
270.145; 2979.425;  146.350;    0.000
270.212; 2991.425;  145.350;    0.000
270.279; 2950.425;  184.350;    0.000
270.345; 2856.425;  143.350;    0.000
270.412; 2999.425;  158.350;    0.000
270.478; 2888.425;  143.350;    0.000
270.545; 2980.425;  150.350;    0.000
270.611; 2980.425;  156.350;    0.000
270.678; 2949.425;  121.350;    0.000
270.744; 2896.425;  161.350;    0.000
270.811; 2899.425;  173.350;    0.000
270.877; 2935.425;  115.350;    0.000
270.944; 2951.425;  114.350;    0.000
271.010; 2843.425;  122.350;    0.000
271.077; 2975.425;  142.350;    0.000
271.143; 2900.425;  152.350;    0.000
271.210; 2938.425;  135.350;    0.000
271.276; 2848.425;  107.350;    0.000
271.342; 2928.425;  173.350;    0.000
271.409; 2904.425;  171.350;    0.000
271.475; 2903.425;  136.350;    0.000
271.542; 2828.425;  121.350;    0.000
271.608; 2913.425;  133.350;    0.000
271.675; 2985.425;  136.350;    0.000
271.741; 2967.425;  151.350;    0.000
271.807; 2882.425;  130.350;    0.000
271.874; 2833.425;  168.350;    0.000
271.940; 2963.425;  156.350;    0.000
272.007; 2873.425;  122.350;    0.000
272.073; 2882.425;  121.350;    0.000
272.139; 2832.425;  137.350;    0.000
272.206; 2977.425;  152.350;    0.000
272.272; 2934.425;  162.350;    0.000
272.338; 2951.425;  197.350;    0.000
272.405; 2790.425;  144.350;    0.000
272.471; 2957.425;  160.350;    0.000
272.537; 3033.425;  142.350;    0.000
272.604; 2962.425;  141.350;    0.000
272.670; 2876.425;  182.350;    0.000
272.736; 2946.425;  126.350;    0.000
272.802; 3001.425;  146.350;    0.000
272.869; 3039.425;  163.350;    0.000
272.935; 2922.425;  132.350;    0.000
273.001; 2969.425;  119.350;    0.000
273.068; 2904.425;  137.350;    0.000
273.134; 2979.425;  155.350;    0.000
273.200; 3054.425;  165.350;    0.000
273.266; 2866.425;  156.350;    0.000
273.333; 2917.425;  143.350;    0.000
273.399; 2885.425;  128.350;    0.000
273.465; 2930.425;  167.350;    0.000
273.531; 2914.425;  122.350;    0.000
273.597; 3006.425;  182.350;    0.000
273.664; 3065.425;  177.350;    0.000
273.730; 2993.425;  124.350;    0.000
273.796; 2950.425;  143.350;    0.000
273.862; 3046.425;  155.350;    0.000
273.928; 3078.425;  137.350;    0.000
273.995; 3019.425;  188.350;    0.000
274.061; 3017.425;  154.350;    0.000
274.127; 3080.425;  161.350;    0.000
274.193; 3030.425;   95.350;    0.000
274.259; 3030.425;  128.350;    0.000
274.325; 3162.425;  146.350;    0.000
274.391; 3097.425;  113.350;    0.000
274.457; 3181.425;  150.350;    0.000
274.524; 3098.425;  165.350;    0.000
274.590; 3060.425;  140.350;    0.000
274.656; 3110.425;  165.350;    0.000
274.722; 3067.425;  118.350;    0.000
274.788; 3191.425;  143.350;    0.000
274.854; 3242.425;  150.350;    0.000
274.920; 3193.425;   88.350;    0.000
274.986; 3122.425;  178.350;    0.000
275.052; 3158.425;  145.350;    0.000
275.118; 3142.425;  105.350;    0.000
275.184; 3202.425;  129.350;    0.000
275.250; 3261.425;  138.350;    0.000
275.316; 3266.425;  173.350;    0.000
275.382; 3234.425;  106.350;    0.000
275.448; 3300.425;  160.350;    0.000
275.514; 3282.425;  162.350;    0.000
275.580; 3311.425;  135.350;    0.000
275.646; 3396.425;  120.350;    0.000
275.712; 3490.425;  157.350;    0.000
275.778; 3495.425;  128.350;    0.000
275.844; 3386.425;  117.350;    0.000
275.910; 3374.425;  121.350;    0.000
275.976; 3549.425;  172.350;    0.000
276.042; 3476.425;  114.350;    0.000
276.108; 3690.425;  200.350;    0.000
276.174; 3664.425;  132.350;    0.000
276.240; 3670.425;  128.350;    0.000
276.306; 3741.425;  124.350;    0.000
276.372; 3687.425;  133.350;    0.000
276.437; 3728.425;  146.350;    0.000
276.503; 3869.425;  136.350;    0.000
276.569; 3962.425;  162.350;    0.000
276.635; 3881.425;  128.350;    0.000
276.701; 4042.425;  148.350;    0.000
276.767; 3993.425;  155.350;    0.000
276.833; 4037.425;  128.350;    0.000
276.899; 4196.425;  145.350;    0.000
276.964; 4205.425;  124.350;    0.000
277.030; 4348.425;  130.350;    0.000
277.096; 4385.425;  139.350;    0.000
277.162; 4413.425;  164.350;    0.000
277.228; 4529.425;  108.350;    0.000
277.293; 4847.425;  138.350;    0.000
277.359; 4917.425;  123.350;    0.000
277.425; 5027.425;  183.350;    0.000
277.491; 5403.425;  144.350;    0.000
277.557; 6457.425;  130.350;    0.000
277.622; 8280.425;  151.350;    0.000
277.688; 8275.425;  169.350;    0.000
277.754; 8526.425;  199.350;    0.000
277.820; 9126.425;  170.350;    0.000
277.885;10587.425;  173.350;    0.000
277.951;12753.425;  187.350;    0.000
278.017;11228.425;  152.350;    0.000
278.083; 9960.425;  137.350;    0.000
278.148; 9402.425;  147.350;    0.000
278.214; 9762.425;  162.350;    0.000
278.280;10185.425;  171.350;    0.000
278.345; 9155.425;  174.350;    0.000
278.411; 8409.425;  152.350;    0.000
278.477; 8776.425;  173.350;    0.000
278.542; 9268.425;  161.350;    0.000
278.608; 9809.425;  155.350;    0.000
278.674;10736.425;  169.350;    0.000
278.739;11787.425;  142.350;    0.000
278.805;13193.425;  164.350;    0.000
278.871;15527.425;  160.350;    0.000
278.936;19425.426;  121.350;    0.000
279.002;28153.426;  166.350;    0.000
279.067;36514.426;  199.350;    0.000
279.133;35469.426;  150.350;    0.000
279.199;32402.426;  154.350;    0.000
279.264;33555.426;  154.350;    0.000
279.330;38689.426;  159.350;    0.000
279.395;48870.426;  143.350;    0.000
279.461;60007.426;  173.350;    0.000
279.527;65138.426;  163.350;    0.000
279.592;62370.426;  167.350;    0.000
279.658;54967.426;  189.350;    0.000
279.723;53812.426;  153.350;    0.000
279.789;55556.426;  174.350;    0.000
279.854;50226.426;  129.350;    0.000
279.920;41892.426;  165.350;    0.000
279.985;38230.426;  152.350;    0.000
280.051;38853.426;  164.350;    0.000
280.116;45813.426;  187.350;    0.000
280.182;56942.426;  160.350;    0.000
280.247;62389.426;  124.350;    0.000
280.313;55430.426;  154.350;    0.000
280.378;41059.426;  152.350;    0.000
280.444;30625.426;  165.350;    0.000
280.509;24584.426;  164.350;    0.000
280.574;20793.426;  160.350;    0.000
280.640;17982.426;  167.350;    0.000
280.705;15996.425;  190.350;    0.000
280.771;14709.425;  154.350;    0.000
280.836;13637.425;  158.350;    0.000
280.902;12765.425;  124.350;    0.000
280.967;11786.425;  179.350;    0.000
281.032;11165.425;  187.350;    0.000
281.098;10669.425;  155.350;    0.000
281.163;10283.425;  133.350;    0.000
281.229; 9911.425;  170.350;    0.000
281.294; 9212.425;  175.350;    0.000
281.359; 9021.425;  163.350;    0.000
281.425; 8895.425;  161.350;    0.000
281.490; 8410.425;  162.350;    0.000
281.555; 8232.425;  137.350;    0.000
281.621; 7937.425;  163.350;    0.000
281.686; 7737.425;  155.350;    0.000
281.751; 7678.425;  158.350;    0.000
281.816; 7280.425;  139.350;    0.000
281.882; 6961.425;  150.350;    0.000
281.947; 6991.425;  165.350;    0.000
282.012; 6935.425;  171.350;    0.000
282.078; 6690.425;  177.350;    0.000
282.143; 6489.425;  149.350;    0.000
282.208; 6401.425;  181.350;    0.000
282.273; 6414.425;  166.350;    0.000
282.339; 6396.425;  165.350;    0.000
282.404; 6394.425;  166.350;    0.000
282.469; 6233.425;  150.350;    0.000
282.534; 6149.425;  176.350;    0.000
282.600; 5992.425;  117.350;    0.000
282.665; 5891.425;  134.350;    0.000
282.730; 5880.425;  155.350;    0.000
282.795; 5899.425;  193.350;    0.000
282.860; 5745.425;  160.350;    0.000
282.926; 5895.425;  174.350;    0.000
282.991; 5572.425;  161.350;    0.000
283.056; 5631.425;  157.350;    0.000
283.121; 5622.425;  178.350;    0.000
283.186; 5587.425;  152.350;    0.000
283.251; 5468.425;  167.350;    0.000
283.316; 5457.425;  186.350;    0.000
283.382; 5444.425;  148.350;    0.000
283.447; 5634.425;  191.350;    0.000
283.512; 5562.425;  132.350;    0.000
283.577; 5355.425;  179.350;    0.000
283.642; 5423.425;  185.350;    0.000
283.707; 5417.425;  136.350;    0.000
283.772; 5416.425;  119.350;    0.000
283.837; 5410.425;  136.350;    0.000
283.902; 5398.425;  135.350;    0.000
283.967; 5212.425;  146.350;    0.000
284.032; 5315.425;  140.350;    0.000
284.097; 5451.425;  199.350;    0.000
284.163; 5284.425;  144.350;    0.000
284.228; 5370.425;  183.350;    0.000
284.293; 5347.425;  141.350;    0.000
284.358; 5518.425;  146.350;    0.000
284.423; 5502.425;  127.350;    0.000
284.488; 5651.425;  186.350;    0.000
284.553; 5776.425;  155.350;    0.000
284.618; 5866.425;  118.350;    0.000
284.683; 6182.425;  145.350;    0.000
284.748; 6418.425;  139.350;    0.000
284.812; 6798.425;  147.350;    0.000
284.877; 7355.425;  123.350;    0.000
284.942; 8370.425;  153.350;    0.000
285.007; 9858.425;  168.350;    0.000
285.072;12964.425;  181.350;    0.000
285.137;18410.426;  147.350;    0.000
285.202;22506.426;  175.350;    0.000
285.267;20740.426;  182.350;    0.000
285.332;15450.425;  136.350;    0.000
285.397;11697.425;  138.350;    0.000
285.462; 9800.425;  151.350;    0.000
285.527; 8648.425;  159.350;    0.000
285.591; 7825.425;  177.350;    0.000
285.656; 7088.425;  144.350;    0.000
285.721; 6661.425;  125.350;    0.000
285.786; 6599.425;  169.350;    0.000
285.851; 6305.425;  175.350;    0.000
285.916; 6069.425;  164.350;    0.000
285.981; 5631.425;  134.350;    0.000
286.045; 5709.425;  154.350;    0.000
286.110; 5772.425;  136.350;    0.000
286.175; 5567.425;  155.350;    0.000
286.240; 5417.425;  138.350;    0.000
286.305; 5456.425;  213.350;    0.000
286.369; 5313.425;  221.350;    0.000
286.434; 5361.425;  172.350;    0.000
286.499; 5362.425;  161.350;    0.000
286.564; 5229.425;  189.350;    0.000
286.628; 5129.425;  144.350;    0.000
286.693; 5229.425;  176.350;    0.000
286.758; 5237.425;  168.350;    0.000
286.823; 5186.425;  142.350;    0.000
286.887; 5037.425;  134.350;    0.000
286.952; 4923.425;  180.350;    0.000
287.017; 5041.425;  204.350;    0.000
287.082; 5005.425;  120.350;    0.000
287.146; 5028.425;  173.350;    0.000
287.211; 4979.425;  167.350;    0.000
287.276; 4920.425;  164.350;    0.000
287.340; 4945.425;  138.350;    0.000
287.405; 4753.425;  172.350;    0.000
287.470; 5001.425;  142.350;    0.000
287.534; 4968.425;  155.350;    0.000
287.599; 4865.425;  166.350;    0.000
287.663; 4869.425;  171.350;    0.000
287.728; 4713.425;  190.350;    0.000
287.793; 4971.425;  197.350;    0.000
287.857; 4953.425;  165.350;    0.000
287.922; 4851.425;  147.350;    0.000
287.987; 4849.425;  167.350;    0.000
288.051; 4837.425;  151.350;    0.000
288.116; 4874.425;  154.350;    0.000
288.180; 4933.425;  186.350;    0.000
288.245; 4918.425;  161.350;    0.000
288.309; 4881.425;  177.350;    0.000
288.374; 4883.425;  151.350;    0.000
288.439; 4718.425;  169.350;    0.000
288.503; 4673.425;  133.350;    0.000
288.568; 4846.425;  206.350;    0.000
288.632; 4651.425;  192.350;    0.000
288.697; 4728.425;  183.350;    0.000
288.761; 4720.425;  148.350;    0.000
288.826; 4699.425;  136.350;    0.000
288.890; 4700.425;  185.350;    0.000
288.955; 4632.425;  150.350;    0.000
289.019; 4689.425;  165.350;    0.000
289.084; 4657.425;  150.350;    0.000
289.148; 4636.425;  146.350;    0.000
289.212; 4719.425;  172.350;    0.000
289.277; 4749.425;  177.350;    0.000
289.341; 4639.425;  190.350;    0.000
289.406; 4659.425;  117.350;    0.000
289.470; 4629.425;  173.350;    0.000
289.535; 4712.425;  170.350;    0.000
289.599; 4629.425;  154.350;    0.000
289.663; 4762.425;  173.350;    0.000
289.728; 4626.425;  176.350;    0.000
289.792; 4707.425;  138.350;    0.000
289.857; 4613.425;  203.350;    0.000
289.921; 4709.425;  143.350;    0.000
289.985; 4504.425;  150.350;    0.000
290.050; 4576.425;  170.350;    0.000
290.114; 4660.425;  125.350;    0.000
290.178; 4687.425;  161.350;    0.000
290.243; 4585.425;  119.350;    0.000
290.307; 4645.425;  169.350;    0.000
290.371; 4709.425;  169.350;    0.000
290.436; 4723.425;  170.350;    0.000
290.500; 4668.425;  144.350;    0.000
290.564; 4701.425;  179.350;    0.000
290.629; 4699.425;  166.350;    0.000
290.693; 4757.425;  156.350;    0.000
290.757; 4602.425;  147.350;    0.000
290.821; 4665.425;  170.350;    0.000
290.886; 4773.425;  167.350;    0.000
290.950; 4678.425;  187.350;    0.000
291.014; 4715.425;  164.350;    0.000
291.078; 4726.425;  115.350;    0.000
291.143; 4879.425;  149.350;    0.000
291.207; 4855.425;  163.350;    0.000
291.271; 4686.425;  177.350;    0.000
291.335; 4922.425;  148.350;    0.000
291.399; 4886.425;  155.350;    0.000
291.464; 5140.425;  114.350;    0.000
291.528; 5288.425;  153.350;    0.000
291.592; 4990.425;  156.350;    0.000
291.656; 5080.425;  170.350;    0.000
291.720; 4924.425;  159.350;    0.000
291.784; 4991.425;  159.350;    0.000
291.849; 4947.425;  154.350;    0.000
291.913; 5048.425;  118.350;    0.000
291.977; 4817.425;  157.350;    0.000
292.041; 5005.425;  163.350;    0.000
292.105; 4976.425;  135.350;    0.000
292.169; 5026.425;  155.350;    0.000
292.233; 5071.425;  163.350;    0.000
292.297; 5117.425;  144.350;    0.000
292.361; 5125.425;  143.350;    0.000
292.425; 5263.425;  177.350;    0.000
292.490; 5298.425;  159.350;    0.000
292.554; 5524.425;  137.350;    0.000
292.618; 5665.425;  144.350;    0.000
292.682; 5909.425;  169.350;    0.000
292.746; 6620.425;  166.350;    0.000
292.810; 8488.425;  147.350;    0.000
292.874; 9891.425;  160.350;    0.000
292.938;10035.425;  174.350;    0.000
293.002; 9101.425;  148.350;    0.000
293.066; 8429.425;  115.350;    0.000
293.130; 8109.425;  133.350;    0.000
293.194; 7568.425;  148.350;    0.000
293.258; 7346.425;  167.350;    0.000
293.322; 7349.425;  166.350;    0.000
293.386; 7331.425;  193.350;    0.000
293.450; 7859.425;  142.350;    0.000
293.514; 8541.425;  170.350;    0.000
293.577;10758.425;  153.350;    0.000
293.641;14107.425;  171.350;    0.000
293.705;15204.425;  168.350;    0.000
293.769;13722.425;  155.350;    0.000
293.833;11901.425;  161.350;    0.000
293.897;10378.425;  124.350;    0.000
293.961; 9592.425;  165.350;    0.000
294.025; 9035.425;  118.350;    0.000
294.089; 8350.425;  125.350;    0.000
294.152; 7673.425;  160.350;    0.000
294.216; 7348.425;  160.350;    0.000
294.280; 7043.425;  158.350;    0.000
294.344; 6726.425;  119.350;    0.000
294.408; 6448.425;  168.350;    0.000
294.472; 6411.425;  156.350;    0.000
294.536; 6119.425;  192.350;    0.000
294.599; 5980.425;  171.350;    0.000
294.663; 5814.425;  139.350;    0.000
294.727; 5813.425;  136.350;    0.000
294.791; 5546.425;  118.350;    0.000
294.855; 5468.425;  118.350;    0.000
294.918; 5397.425;  127.350;    0.000
294.982; 5388.425;  167.350;    0.000
295.046; 5369.425;  178.350;    0.000
295.110; 5324.425;  157.350;    0.000
295.173; 4913.425;  101.350;    0.000
295.237; 5119.425;  145.350;    0.000
295.301; 5075.425;  135.350;    0.000
295.364; 4951.425;  185.350;    0.000
295.428; 4923.425;  112.350;    0.000
295.492; 4829.425;  142.350;    0.000
295.556; 4972.425;  170.350;    0.000
295.619; 4998.425;  193.350;    0.000
295.683; 4960.425;  144.350;    0.000
295.747; 4710.425;  152.350;    0.000
295.810; 4813.425;  139.350;    0.000
295.874; 4801.425;  157.350;    0.000
295.938; 4896.425;  128.350;    0.000
296.001; 4697.425;  164.350;    0.000
296.065; 4588.425;  184.350;    0.000
296.128; 4595.425;  127.350;    0.000
296.192; 4719.425;  166.350;    0.000
296.256; 4587.425;  154.350;    0.000
296.319; 4605.425;  128.350;    0.000
296.383; 4499.425;  146.350;    0.000
296.447; 4668.425;  155.350;    0.000
296.510; 4556.425;  177.350;    0.000
296.574; 4488.425;  169.350;    0.000
296.637; 4435.425;  140.350;    0.000
296.701; 4346.425;  181.350;    0.000
296.764; 4403.425;  131.350;    0.000
296.828; 4393.425;  194.350;    0.000
296.891; 4451.425;  146.350;    0.000
296.955; 4406.425;  160.350;    0.000
297.018; 4320.425;  174.350;    0.000
297.082; 4492.425;  153.350;    0.000
297.145; 4287.425;  133.350;    0.000
297.209; 4282.425;  149.350;    0.000
297.272; 4308.425;  150.350;    0.000
297.336; 4355.425;  119.350;    0.000
297.399; 4325.425;  160.350;    0.000
297.463; 4416.425;  158.350;    0.000
297.526; 4314.425;  160.350;    0.000
297.590; 4315.425;  173.350;    0.000
297.653; 4150.425;  121.350;    0.000
297.717; 4283.425;  168.350;    0.000
297.780; 4197.425;  131.350;    0.000
297.843; 4282.425;  154.350;    0.000
297.907; 4148.425;  126.350;    0.000
297.970; 4182.425;  180.350;    0.000
298.034; 4118.425;  140.350;    0.000
298.097; 4115.425;  207.350;    0.000
298.160; 4210.425;  177.350;    0.000
298.224; 4175.425;  165.350;    0.000
298.287; 4132.425;  160.350;    0.000
298.350; 4192.425;  176.350;    0.000
298.414; 4148.425;  155.350;    0.000
298.477; 4166.425;  132.350;    0.000
298.540; 4116.425;  162.350;    0.000
298.604; 4171.425;  180.350;    0.000
298.667; 4069.425;  208.350;    0.000
298.730; 4145.425;  177.350;    0.000
298.794; 4078.425;  126.350;    0.000
298.857; 4097.425;  171.350;    0.000
298.920; 4024.425;  124.350;    0.000
298.984; 3995.425;  146.350;    0.000
299.047; 3983.425;  140.350;    0.000
299.110; 4056.425;  159.350;    0.000
299.173; 3955.425;  177.350;    0.000
299.237; 3897.425;  196.350;    0.000
299.300; 3906.425;  121.350;    0.000
299.363; 3882.425;  172.350;    0.000
299.426; 4037.425;  117.350;    0.000
299.489; 3966.425;  138.350;    0.000
299.553; 3893.425;  198.350;    0.000
299.616; 3948.425;  158.350;    0.000
299.679; 3954.425;  148.350;    0.000
299.742; 3915.425;  138.350;    0.000
299.805; 3978.425;  157.350;    0.000
299.868; 3883.425;  183.350;    0.000
299.932; 3937.425;  137.350;    0.000
299.995; 3826.425;  152.350;    0.000
300.058; 3826.425;  171.350;    0.000
300.121; 3904.425;  172.350;    0.000
300.184; 3860.425;  161.350;    0.000
300.247; 3793.425;  156.350;    0.000
300.310; 3752.425;  154.350;    0.000
300.374; 3820.425;  147.350;    0.000
300.437; 3839.425;  144.350;    0.000
300.500; 3809.425;  152.350;    0.000
300.563; 3737.425;  160.350;    0.000
300.626; 3823.425;  167.350;    0.000
300.689; 3883.425;  193.350;    0.000
300.752; 3864.425;  134.350;    0.000
300.815; 3813.425;  194.350;    0.000
300.878; 3805.425;  156.350;    0.000
300.941; 3778.425;  177.350;    0.000
301.004; 3756.425;  160.350;    0.000
301.067; 3769.425;  153.350;    0.000
301.130; 3687.425;  167.350;    0.000
301.193; 3687.425;  156.350;    0.000
301.256; 3684.425;  176.350;    0.000
301.319; 3739.425;  172.350;    0.000
301.382; 3649.425;  150.350;    0.000
301.445; 3764.425;  183.350;    0.000
301.508; 3732.425;  118.350;    0.000
301.571; 3723.425;  142.350;    0.000
301.634; 3718.425;  164.350;    0.000
301.697; 3693.425;  169.350;    0.000
301.760; 3769.425;  197.350;    0.000
301.823; 3743.425;  155.350;    0.000
301.885; 3660.425;  165.350;    0.000
301.948; 3616.425;  168.350;    0.000
302.011; 3745.425;  172.350;    0.000
302.074; 3731.425;  182.350;    0.000
302.137; 3704.425;  161.350;    0.000
302.200; 3687.425;  174.350;    0.000
302.263; 3671.425;  158.350;    0.000
302.326; 3711.425;  168.350;    0.000
302.388; 3724.425;  165.350;    0.000
302.451; 3637.425;  158.350;    0.000
302.514; 3572.425;  181.350;    0.000
302.577; 3630.425;  147.350;    0.000
302.640; 3632.425;  178.350;    0.000
302.703; 3645.425;  164.350;    0.000
302.765; 3643.425;  149.350;    0.000
302.828; 3589.425;  192.350;    0.000
302.891; 3542.425;  201.350;    0.000
302.954; 3555.425;  135.350;    0.000
303.016; 3623.425;  180.350;    0.000
303.079; 3600.425;  192.350;    0.000
303.142; 3631.425;  176.350;    0.000
303.205; 3612.425;  176.350;    0.000
303.267; 3556.425;  163.350;    0.000
303.330; 3612.425;  162.350;    0.000
303.393; 3551.425;  164.350;    0.000
303.456; 3546.425;  180.350;    0.000
303.518; 3545.425;  162.350;    0.000
303.581; 3575.425;  137.350;    0.000
303.644; 3553.425;  135.350;    0.000
303.706; 3582.425;  170.350;    0.000
303.769; 3654.425;  216.350;    0.000
303.832; 3535.425;  143.350;    0.000
303.894; 3602.425;  162.350;    0.000
303.957; 3563.425;  149.350;    0.000
304.020; 3600.425;  111.350;    0.000
304.082; 3644.425;  158.350;    0.000
304.145; 3552.425;  149.350;    0.000
304.207; 3552.425;  169.350;    0.000
304.270; 3686.425;  170.350;    0.000
304.333; 3561.425;  185.350;    0.000
304.395; 3575.425;  179.350;    0.000
304.458; 3555.425;  174.350;    0.000
304.520; 3621.425;  160.350;    0.000
304.583; 3598.425;  175.350;    0.000
304.646; 3589.425;  160.350;    0.000
304.708; 3566.425;  173.350;    0.000
304.771; 3634.425;  115.350;    0.000
304.833; 3611.425;  172.350;    0.000
304.896; 3640.425;  187.350;    0.000
304.958; 3513.425;  142.350;    0.000
305.021; 3602.425;  164.350;    0.000
305.083; 3582.425;  139.350;    0.000
305.146; 3608.425;  162.350;    0.000
305.208; 3567.425;  135.350;    0.000
305.271; 3613.425;  159.350;    0.000
305.333; 3664.425;  210.350;    0.000
305.396; 3590.425;  151.350;    0.000
305.458; 3731.425;  195.350;    0.000
305.520; 3658.425;  179.350;    0.000
305.583; 3581.425;  157.350;    0.000
305.645; 3555.425;  187.350;    0.000
305.708; 3596.425;  159.350;    0.000
305.770; 3714.425;  189.350;    0.000
305.833; 3676.425;  147.350;    0.000
305.895; 3593.425;  154.350;    0.000
305.957; 3668.425;  143.350;    0.000
306.020; 3475.425;  133.350;    0.000
306.082; 3650.425;  146.350;    0.000
306.144; 3613.425;  171.350;    0.000
306.207; 3659.425;  151.350;    0.000
306.269; 3723.425;  169.350;    0.000
306.331; 3670.425;  162.350;    0.000
306.394; 3604.425;  171.350;    0.000
306.456; 3511.425;  155.350;    0.000
306.518; 3572.425;  183.350;    0.000
306.581; 3688.425;  180.350;    0.000
306.643; 3598.425;  199.350;    0.000
306.705; 3657.425;  163.350;    0.000
306.768; 3680.425;  183.350;    0.000
306.830; 3687.425;  183.350;    0.000
306.892; 3719.425;  190.350;    0.000
306.954; 3594.425;  161.350;    0.000
307.017; 3729.425;  151.350;    0.000
307.079; 3663.425;  147.350;    0.000
307.141; 3678.425;  179.350;    0.000
307.203; 3694.425;  143.350;    0.000
307.266; 3696.425;  142.350;    0.000
307.328; 3791.425;  161.350;    0.000
307.390; 3826.425;  189.350;    0.000
307.452; 3734.425;  155.350;    0.000
307.514; 3768.425;  211.350;    0.000
307.577; 3777.425;  201.350;    0.000
307.639; 3796.425;  192.350;    0.000
307.701; 3762.425;  162.350;    0.000
307.763; 3814.425;  155.350;    0.000
307.825; 3797.425;  193.350;    0.000
307.887; 3899.425;  214.350;    0.000
307.949; 3865.425;  208.350;    0.000
308.012; 3732.425;  175.350;    0.000
308.074; 3868.425;  155.350;    0.000
308.136; 3885.425;  172.350;    0.000
308.198; 3692.425;  171.350;    0.000
308.260; 3835.425;  182.350;    0.000
308.322; 3971.425;  177.350;    0.000
308.384; 3863.425;  207.350;    0.000
308.446; 3809.425;  170.350;    0.000
308.508; 3945.425;  177.350;    0.000
308.570; 3874.425;  195.350;    0.000
308.632; 3978.425;  190.350;    0.000
308.694; 3968.425;  161.350;    0.000
308.756; 4069.425;  173.350;    0.000
308.818; 4067.425;  190.350;    0.000
308.880; 4074.425;  197.350;    0.000
308.942; 4114.425;  223.350;    0.000
309.004; 4023.425;  176.350;    0.000
309.066; 4051.425;  182.350;    0.000
309.128; 4138.425;  185.350;    0.000
309.190; 4216.425;  166.350;    0.000
309.252; 4348.425;  191.350;    0.000
309.314; 4426.425;  208.350;    0.000
309.376; 4328.425;  205.350;    0.000
309.438; 4346.425;  166.350;    0.000
309.500; 4429.425;  195.350;    0.000
309.562; 4361.425;  163.350;    0.000
309.624; 4370.425;  162.350;    0.000
309.686; 4387.425;  194.350;    0.000
309.747; 4514.425;  179.350;    0.000
309.809; 4455.425;  211.350;    0.000
309.871; 4311.425;  191.350;    0.000
309.933; 4320.425;  151.350;    0.000
309.995; 4206.425;  179.350;    0.000
310.057; 4140.425;  175.350;    0.000
310.119; 4150.425;  161.350;    0.000
310.180; 4216.425;  167.350;    0.000
310.242; 4123.425;  171.350;    0.000
310.304; 4154.425;  209.350;    0.000
310.366; 4077.425;  229.350;    0.000
310.428; 3924.425;  132.350;    0.000
310.489; 4001.425;  165.350;    0.000
310.551; 4006.425;  193.350;    0.000
310.613; 4034.425;  182.350;    0.000
310.675; 4005.425;  186.350;    0.000
310.737; 3937.425;  192.350;    0.000
310.798; 4091.425;  194.350;    0.000
310.860; 3946.425;  220.350;    0.000
310.922; 3972.425;  161.350;    0.000
310.983; 4009.425;  203.350;    0.000
311.045; 4019.425;  198.350;    0.000
311.107; 3986.425;  179.350;    0.000
311.169; 3952.425;  154.350;    0.000
311.230; 3985.425;  134.350;    0.000
311.292; 3979.425;  215.350;    0.000
311.354; 3932.425;  171.350;    0.000
311.415; 3998.425;  195.350;    0.000
311.477; 3935.425;  185.350;    0.000
311.539; 4051.425;  183.350;    0.000
311.600; 3870.425;  183.350;    0.000
311.662; 3857.425;  207.350;    0.000
311.724; 3872.425;  193.350;    0.000
311.785; 3942.425;  180.350;    0.000
311.847; 3906.425;  155.350;    0.000
311.908; 3914.425;  179.350;    0.000
311.970; 3975.425;  193.350;    0.000
312.032; 3957.425;  188.350;    0.000
312.093; 4062.425;  166.350;    0.000
312.155; 3948.425;  147.350;    0.000
312.216; 3954.425;  177.350;    0.000
312.278; 3940.425;  162.350;    0.000
312.339; 3923.425;  158.350;    0.000
312.401; 3860.425;  181.350;    0.000
312.462; 3955.425;  153.350;    0.000
312.524; 3944.425;  186.350;    0.000
312.585; 3923.425;  191.350;    0.000
312.647; 4084.425;  131.350;    0.000
312.708; 3917.425;  170.350;    0.000
312.770; 3982.425;  194.350;    0.000
312.831; 3949.425;  161.350;    0.000
312.893; 4034.425;  179.350;    0.000
312.954; 4073.425;  183.350;    0.000
313.016; 4015.425;  189.350;    0.000
313.077; 4018.425;  169.350;    0.000
313.139; 4121.425;  148.350;    0.000
313.200; 3978.425;  155.350;    0.000
313.261; 3955.425;  213.350;    0.000
313.323; 3952.425;  162.350;    0.000
313.384; 4070.425;  160.350;    0.000
313.446; 3933.425;  202.350;    0.000
313.507; 4034.425;  149.350;    0.000
313.568; 4050.425;  194.350;    0.000
313.630; 3983.425;  163.350;    0.000
313.691; 4010.425;  158.350;    0.000
313.752; 4027.425;  179.350;    0.000
313.814; 3986.425;  180.350;    0.000
313.875; 3994.425;  191.350;    0.000
313.936; 4006.425;  169.350;    0.000
313.998; 3946.425;  165.350;    0.000
314.059; 4056.425;  211.350;    0.000
314.120; 3932.425;  190.350;    0.000
314.182; 3976.425;  185.350;    0.000
314.243; 3982.425;  186.350;    0.000
314.304; 4002.425;  178.350;    0.000
314.365; 4011.425;  187.350;    0.000
314.427; 3933.425;  145.350;    0.000
314.488; 3945.425;  184.350;    0.000
314.549; 3924.425;  181.350;    0.000
314.610; 3996.425;  151.350;    0.000
314.672; 3964.425;  153.350;    0.000
314.733; 3893.425;  148.350;    0.000
314.794; 3951.425;  156.350;    0.000
314.855; 3955.425;  196.350;    0.000
314.917; 4049.425;  157.350;    0.000
314.978; 3923.425;  174.350;    0.000
315.039; 3917.425;  168.350;    0.000
315.100; 3940.425;  154.350;    0.000
315.161; 3984.425;  176.350;    0.000
315.222; 4033.425;  198.350;    0.000
315.283; 3928.425;  169.350;    0.000
315.345; 3845.425;  162.350;    0.000
315.406; 4107.425;  199.350;    0.000
315.467; 3887.425;  180.350;    0.000
315.528; 3995.425;  179.350;    0.000
315.589; 3983.425;  166.350;    0.000
315.650; 3923.425;  179.350;    0.000
315.711; 3930.425;  177.350;    0.000
315.772; 3894.425;  180.350;    0.000
315.833; 3958.425;  157.350;    0.000
315.894; 3882.425;  133.350;    0.000
315.955; 3988.425;  205.350;    0.000
316.016; 3952.425;  190.350;    0.000
316.078; 3804.425;  174.350;    0.000
316.139; 3926.425;  208.350;    0.000
316.200; 3902.425;  166.350;    0.000
316.261; 3921.425;  186.350;    0.000
316.322; 4001.425;  185.350;    0.000
316.383; 3883.425;  179.350;    0.000
316.444; 3796.425;  172.350;    0.000
316.504; 3886.425;  181.350;    0.000
316.565; 3893.425;  197.350;    0.000
316.626; 3853.425;  196.350;    0.000
316.687; 3872.425;  173.350;    0.000
316.748; 3799.425;  178.350;    0.000
316.809; 3926.425;  178.350;    0.000
316.870; 3867.425;  134.350;    0.000
316.931; 3909.425;  166.350;    0.000
316.992; 3937.425;  200.350;    0.000
317.053; 3768.425;  169.350;    0.000
317.114; 3924.425;  185.350;    0.000
317.175; 3864.425;  213.350;    0.000
317.235; 3785.425;  199.350;    0.000
317.296; 3887.425;  190.350;    0.000
317.357; 3811.425;  152.350;    0.000
317.418; 3887.425;  192.350;    0.000
317.479; 3759.425;  170.350;    0.000
317.540; 3803.425;  179.350;    0.000
317.601; 3768.425;  155.350;    0.000
317.661; 3794.425;  154.350;    0.000
317.722; 3964.425;  190.350;    0.000
317.783; 3896.425;  149.350;    0.000
317.844; 3858.425;  207.350;    0.000
317.904; 3855.425;  153.350;    0.000
317.965; 3896.425;  179.350;    0.000
318.026; 3883.425;  235.350;    0.000
318.087; 3851.425;  184.350;    0.000
318.148; 3858.425;  201.350;    0.000
318.208; 3950.425;  220.350;    0.000
318.269; 3827.425;  175.350;    0.000
318.330; 3866.425;  185.350;    0.000
318.390; 3806.425;  180.350;    0.000
318.451; 3832.425;  164.350;    0.000
318.512; 3768.425;  150.350;    0.000
318.572; 3836.425;  205.350;    0.000
318.633; 3798.425;  224.350;    0.000
318.694; 3906.425;  202.350;    0.000
318.754; 3831.425;  196.350;    0.000
318.815; 3889.425;  187.350;    0.000
318.876; 3829.425;  200.350;    0.000
318.936; 3834.425;  232.350;    0.000
318.997; 3792.425;  211.350;    0.000
319.058; 3758.425;  194.350;    0.000
319.118; 3913.425;  197.350;    0.000
319.179; 3781.425;  162.350;    0.000
319.239; 3810.425;  188.350;    0.000
319.300; 3817.425;  205.350;    0.000
319.361; 3812.425;  179.350;    0.000
319.421; 3829.425;  182.350;    0.000
319.482; 3879.425;  189.350;    0.000
319.542; 3848.425;  180.350;    0.000
319.603; 3849.425;  204.350;    0.000
319.663; 3797.425;  195.350;    0.000
319.724; 3737.425;  135.350;    0.000
319.784; 3794.425;  184.350;    0.000
319.845; 3783.425;  160.350;    0.000
319.905; 3783.425;  206.350;    0.000
319.966; 3815.425;  203.350;    0.000
320.026; 3767.425;  203.350;    0.000
320.087; 3714.425;  206.350;    0.000
320.147; 3814.425;  180.350;    0.000
320.208; 3678.425;  189.350;    0.000
320.268; 3716.425;  179.350;    0.000
320.329; 3692.425;  215.350;    0.000
320.389; 3694.425;  193.350;    0.000
320.449; 3706.425;  210.350;    0.000
320.510; 3776.425;  206.350;    0.000
320.570; 3705.425;  221.350;    0.000
320.631; 3681.425;  203.350;    0.000
320.691; 3808.425;  190.350;    0.000
320.751; 3806.425;  205.350;    0.000
320.812; 3759.425;  191.350;    0.000
320.872; 3881.425;  216.350;    0.000
320.932; 3785.425;  209.350;    0.000
320.993; 3755.425;  189.350;    0.000
321.053; 3804.425;  228.350;    0.000
321.113; 3774.425;  163.350;    0.000
321.174; 3815.425;  204.350;    0.000
321.234; 3691.425;  214.350;    0.000
321.294; 3748.425;  184.350;    0.000
321.355; 3733.425;  216.350;    0.000
321.415; 3788.425;  187.350;    0.000
321.475; 3732.425;  216.350;    0.000
321.535; 3752.425;  189.350;    0.000
321.596; 3863.425;  186.350;    0.000
321.656; 3719.425;  204.350;    0.000
321.716; 3709.425;  183.350;    0.000
321.776; 3747.425;  194.350;    0.000
321.837; 3697.425;  190.350;    0.000
321.897; 3750.425;  219.350;    0.000
321.957; 3714.425;  222.350;    0.000
322.017; 3737.425;  183.350;    0.000
322.077; 3778.425;  239.350;    0.000
322.138; 3707.425;  219.350;    0.000
322.198; 3716.425;  185.350;    0.000
322.258; 3666.425;  231.350;    0.000
322.318; 3693.425;  197.350;    0.000
322.378; 3780.425;  179.350;    0.000
322.438; 3630.425;  217.350;    0.000
322.499; 3573.425;  238.350;    0.000
322.559; 3670.425;  197.350;    0.000
322.619; 3771.425;  204.350;    0.000
322.679; 3607.425;  199.350;    0.000
322.739; 3610.425;  194.350;    0.000
322.799; 3717.425;  203.350;    0.000
322.859; 3604.425;  234.350;    0.000
322.919; 3690.425;  194.350;    0.000
322.979; 3678.425;  219.350;    0.000
323.039; 3648.425;  193.350;    0.000
323.099; 3729.425;  207.350;    0.000
323.159; 3663.425;  213.350;    0.000
323.219; 3694.425;  171.350;    0.000
323.279; 3652.425;  215.350;    0.000
323.339; 3653.425;  170.350;    0.000
323.399; 3657.425;  195.350;    0.000
323.459; 3704.425;  234.350;    0.000
323.519; 3752.425;  201.350;    0.000
323.579; 3549.425;  167.350;    0.000
323.639; 3691.425;  209.350;    0.000
323.699; 3585.425;  217.350;    0.000
323.759; 3701.425;  213.350;    0.000
323.819; 3561.425;  216.350;    0.000
323.879; 3743.425;  193.350;    0.000
323.939; 3600.425;  182.350;    0.000
323.999; 3599.425;  206.350;    0.000
324.059; 3597.425;  196.350;    0.000
324.119; 3747.425;  240.350;    0.000
324.178; 3646.425;  186.350;    0.000
324.238; 3741.425;  179.350;    0.000
324.298; 3638.425;  195.350;    0.000
324.358; 3709.425;  208.350;    0.000
324.418; 3682.425;  190.350;    0.000
324.478; 3684.425;  197.350;    0.000
324.538; 3551.425;  157.350;    0.000
324.597; 3668.425;  219.350;    0.000
324.657; 3755.425;  176.350;    0.000
324.717; 3590.425;  179.350;    0.000
324.777; 3717.425;  190.350;    0.000
324.837; 3552.425;  172.350;    0.000
324.896; 3609.425;  199.350;    0.000
324.956; 3618.425;  216.350;    0.000
325.016; 3576.425;  191.350;    0.000
325.076; 3617.425;  185.350;    0.000
325.135; 3575.425;  174.350;    0.000
325.195; 3583.425;  175.350;    0.000
325.255; 3644.425;  144.350;    0.000
325.315; 3559.425;  201.350;    0.000
325.374; 3623.425;  198.350;    0.000
325.434; 3662.425;  181.350;    0.000
325.494; 3688.425;  183.350;    0.000
325.553; 3689.425;  172.350;    0.000
325.613; 3652.425;  200.350;    0.000
325.673; 3598.425;  177.350;    0.000
325.732; 3598.425;  174.350;    0.000
325.792; 3547.425;  181.350;    0.000
325.852; 3559.425;  214.350;    0.000
325.911; 3611.425;  230.350;    0.000
325.971; 3686.425;  198.350;    0.000
326.031; 3608.425;  201.350;    0.000
326.090; 3676.425;  214.350;    0.000
326.150; 3614.425;  163.350;    0.000
326.209; 3650.425;  207.350;    0.000
326.269; 3618.425;  201.350;    0.000
326.328; 3665.425;  208.350;    0.000
326.388; 3609.425;  169.350;    0.000
326.448; 3572.425;  229.350;    0.000
326.507; 3610.425;  243.350;    0.000
326.567; 3576.425;  162.350;    0.000
326.626; 3593.425;  200.350;    0.000
326.686; 3473.425;  166.350;    0.000
326.745; 3607.425;  178.350;    0.000
326.805; 3566.425;  185.350;    0.000
326.864; 3583.425;  209.350;    0.000
326.924; 3623.425;  234.350;    0.000
326.983; 3487.425;  197.350;    0.000
327.043; 3510.425;  217.350;    0.000
327.102; 3578.425;  174.350;    0.000
327.161; 3476.425;  172.350;    0.000
327.221; 3568.425;  183.350;    0.000
327.280; 3476.425;  200.350;    0.000
327.340; 3482.425;  200.350;    0.000
327.399; 3606.425;  219.350;    0.000
327.459; 3469.425;  246.350;    0.000
327.518; 3467.425;  217.350;    0.000
327.577; 3463.425;  212.350;    0.000
327.637; 3574.425;  188.350;    0.000
327.696; 3566.425;  201.350;    0.000
327.755; 3603.425;  199.350;    0.000
327.815; 3498.425;  224.350;    0.000
327.874; 3548.425;  236.350;    0.000
327.933; 3480.425;  182.350;    0.000
327.993; 3502.425;  206.350;    0.000
328.052; 3454.425;  191.350;    0.000
328.111; 3470.425;  222.350;    0.000
328.171; 3415.425;  200.350;    0.000
328.230; 3505.425;  203.350;    0.000
328.289; 3552.425;  219.350;    0.000
328.349; 3504.425;  231.350;    0.000
328.408; 3548.425;  223.350;    0.000
328.467; 3522.425;  226.350;    0.000
328.526; 3475.425;  197.350;    0.000
328.586; 3487.425;  221.350;    0.000
328.645; 3471.425;  199.350;    0.000
328.704; 3491.425;  227.350;    0.000
328.763; 3536.425;  201.350;    0.000
328.822; 3368.425;  230.350;    0.000
328.882; 3540.425;  244.350;    0.000
328.941; 3486.425;  221.350;    0.000
329.000; 3464.425;  207.350;    0.000
329.059; 3381.425;  208.350;    0.000
329.118; 3521.425;  203.350;    0.000
329.177; 3387.425;  198.350;    0.000
329.237; 3578.425;  218.350;    0.000
329.296; 3569.425;  213.350;    0.000
329.355; 3451.425;  208.350;    0.000
329.414; 3467.425;  231.350;    0.000
329.473; 3480.425;  221.350;    0.000
329.532; 3510.425;  243.350;    0.000
329.591; 3587.425;  210.350;    0.000
329.650; 3670.425;  232.350;    0.000
329.709; 3612.425;  211.350;    0.000
329.768; 3655.425;  194.350;    0.000
329.827; 3714.425;  237.350;    0.000
329.886; 3774.425;  213.350;    0.000
329.945; 3816.425;  190.350;    0.000
330.004; 3929.425;  233.350;    0.000
330.063; 4130.425;  191.350;    0.000
330.122; 4674.425;  234.350;    0.000
330.181; 4958.425;  220.350;    0.000
330.240; 5083.425;  191.350;    0.000
330.299; 4649.425;  210.350;    0.000
330.358; 4160.425;  191.350;    0.000
330.417; 3822.425;  225.350;    0.000
330.476; 3682.425;  226.350;    0.000
330.535; 3606.425;  217.350;    0.000
330.594; 3497.425;  205.350;    0.000
330.653; 3445.425;  193.350;    0.000
330.712; 3576.425;  206.350;    0.000
330.771; 3388.425;  175.350;    0.000
330.830; 3576.425;  204.350;    0.000
330.889; 3325.425;  198.350;    0.000
330.948; 3427.425;  198.350;    0.000
331.006; 3435.425;  207.350;    0.000
331.065; 3245.425;  203.350;    0.000
331.124; 3381.425;  210.350;    0.000
331.183; 3291.425;  165.350;    0.000
331.242; 3370.425;  195.350;    0.000
331.301; 3382.425;  191.350;    0.000
331.359; 3377.425;  205.350;    0.000
331.418; 3379.425;  183.350;    0.000
331.477; 3342.425;  198.350;    0.000
331.536; 3236.425;  211.350;    0.000
331.595; 3306.425;  191.350;    0.000
331.653; 3351.425;  232.350;    0.000
331.712; 3276.425;  225.350;    0.000
331.771; 3318.425;  199.350;    0.000
331.830; 3279.425;  189.350;    0.000
331.888; 3298.425;  219.350;    0.000
331.947; 3218.425;  188.350;    0.000
332.006; 3303.425;  180.350;    0.000
332.065; 3244.425;  177.350;    0.000
332.123; 3308.425;  214.350;    0.000
332.182; 3224.425;  223.350;    0.000
332.241; 3338.425;  202.350;    0.000
332.299; 3286.425;  180.350;    0.000
332.358; 3253.425;  206.350;    0.000
332.417; 3383.425;  195.350;    0.000
332.475; 3277.425;  221.350;    0.000
332.534; 3366.425;  207.350;    0.000
332.592; 3302.425;  190.350;    0.000
332.651; 3255.425;  203.350;    0.000
332.710; 3348.425;  219.350;    0.000
332.768; 3305.425;  210.350;    0.000
332.827; 3324.425;  173.350;    0.000
332.885; 3332.425;  239.350;    0.000
332.944; 3352.425;  145.350;    0.000
333.003; 3413.425;  197.350;    0.000
333.061; 3425.425;  179.350;    0.000
333.120; 3461.425;  198.350;    0.000
333.178; 3475.425;  185.350;    0.000
333.237; 3569.425;  204.350;    0.000
333.295; 3561.425;  266.350;    0.000
333.354; 3483.425;  181.350;    0.000
333.412; 3471.425;  189.350;    0.000
333.471; 3422.425;  216.350;    0.000
333.529; 3511.425;  220.350;    0.000
333.588; 3671.425;  193.350;    0.000
333.646; 3620.425;  186.350;    0.000
333.705; 3680.425;  210.350;    0.000
333.763; 3686.425;  222.350;    0.000
333.822; 3662.425;  222.350;    0.000
333.880; 3528.425;  202.350;    0.000
333.938; 3655.425;  205.350;    0.000
333.997; 3479.425;  199.350;    0.000
334.055; 3554.425;  199.350;    0.000
334.114; 3498.425;  237.350;    0.000
334.172; 3433.425;  155.350;    0.000
334.230; 3516.425;  208.350;    0.000
334.289; 3392.425;  191.350;    0.000
334.347; 3456.425;  211.350;    0.000
334.405; 3392.425;  212.350;    0.000
334.464; 3403.425;  179.350;    0.000
334.522; 3393.425;  160.350;    0.000
334.580; 3325.425;  195.350;    0.000
334.639; 3493.425;  191.350;    0.000
334.697; 3395.425;  194.350;    0.000
334.755; 3418.425;  185.350;    0.000
334.814; 3425.425;  214.350;    0.000
334.872; 3373.425;  179.350;    0.000
334.930; 3343.425;  169.350;    0.000
334.988; 3294.425;  201.350;    0.000
335.047; 3336.425;  188.350;    0.000
335.105; 3323.425;  175.350;    0.000
335.163; 3545.425;  191.350;    0.000
335.221; 3372.425;  196.350;    0.000
335.280; 3320.425;  182.350;    0.000
335.338; 3455.425;  202.350;    0.000
335.396; 3376.425;  219.350;    0.000
335.454; 3427.425;  187.350;    0.000
335.512; 3419.425;  236.350;    0.000
335.570; 3455.425;  209.350;    0.000
335.629; 3372.425;  247.350;    0.000
335.687; 3333.425;  219.350;    0.000
335.745; 3378.425;  203.350;    0.000
335.803; 3412.425;  220.350;    0.000
335.861; 3400.425;  208.350;    0.000
335.919; 3419.425;  223.350;    0.000
335.977; 3399.425;  201.350;    0.000
336.035; 3322.425;  193.350;    0.000
336.094; 3385.425;  178.350;    0.000
336.152; 3315.425;  182.350;    0.000
336.210; 3400.425;  199.350;    0.000
336.268; 3362.425;  216.350;    0.000
336.326; 3388.425;  216.350;    0.000
336.384; 3377.425;  201.350;    0.000
336.442; 3298.425;  197.350;    0.000
336.500; 3401.425;  203.350;    0.000
336.558; 3238.425;  198.350;    0.000
336.616; 3355.425;  210.350;    0.000
336.674; 3345.425;  192.350;    0.000
336.732; 3410.425;  182.350;    0.000
336.790; 3365.425;  189.350;    0.000
336.848; 3494.425;  233.350;    0.000
336.906; 3354.425;  235.350;    0.000
336.964; 3319.425;  208.350;    0.000
337.022; 3328.425;  249.350;    0.000
337.080; 3333.425;  204.350;    0.000
337.138; 3288.425;  176.350;    0.000
337.195; 3252.425;  207.350;    0.000
337.253; 3238.425;  214.350;    0.000
337.311; 3343.425;  210.350;    0.000
337.369; 3279.425;  222.350;    0.000
337.427; 3205.425;  236.350;    0.000
337.485; 3263.425;  241.350;    0.000
337.543; 3210.425;  217.350;    0.000
337.601; 3226.425;  221.350;    0.000
337.658; 3324.425;  205.350;    0.000
337.716; 3249.425;  210.350;    0.000
337.774; 3284.425;  196.350;    0.000
337.832; 3170.425;  200.350;    0.000
337.890; 3292.425;  192.350;    0.000
337.947; 3213.425;  192.350;    0.000
338.005; 3253.425;  211.350;    0.000
338.063; 3183.425;  176.350;    0.000
338.121; 3250.425;  222.350;    0.000
338.178; 3233.425;  198.350;    0.000
338.236; 3235.425;  210.350;    0.000
338.294; 3307.425;  211.350;    0.000
338.352; 3286.425;  212.350;    0.000
338.409; 3250.425;  199.350;    0.000
338.467; 3229.425;  205.350;    0.000
338.525; 3146.425;  217.350;    0.000
338.583; 3182.425;  197.350;    0.000
338.640; 3258.425;  226.350;    0.000
338.698; 3214.425;  201.350;    0.000
338.756; 3169.425;  192.350;    0.000
338.813; 3196.425;  220.350;    0.000
338.871; 3262.425;  258.350;    0.000
338.928; 3170.425;  223.350;    0.000
338.986; 3210.425;  200.350;    0.000
339.044; 3179.425;  206.350;    0.000
339.101; 3239.425;  250.350;    0.000
339.159; 3260.425;  245.350;    0.000
339.216; 3304.425;  227.350;    0.000
339.274; 3150.425;  260.350;    0.000
339.332; 3230.425;  223.350;    0.000
339.389; 3154.425;  233.350;    0.000
339.447; 3097.425;  206.350;    0.000
339.504; 3081.425;  229.350;    0.000
339.562; 3272.425;  194.350;    0.000
339.619; 3130.425;  245.350;    0.000
339.677; 3264.425;  238.350;    0.000
339.734; 3051.425;  197.350;    0.000
339.792; 3121.425;  210.350;    0.000
339.849; 3213.425;  201.350;    0.000
339.907; 3190.425;  252.350;    0.000
339.964; 3149.425;  191.350;    0.000
340.022; 3234.425;  246.350;    0.000
340.079; 3119.425;  213.350;    0.000
340.137; 3141.425;  240.350;    0.000
340.194; 3118.425;  208.350;    0.000
340.252; 3151.425;  215.350;    0.000
340.309; 3112.425;  203.350;    0.000
340.366; 3116.425;  194.350;    0.000
340.424; 3099.425;  226.350;    0.000
340.481; 3198.425;  234.350;    0.000
340.538; 3124.425;  205.350;    0.000
340.596; 3143.425;  197.350;    0.000
340.653; 3247.425;  233.350;    0.000
340.711; 3190.425;  273.350;    0.000
340.768; 3222.425;  237.350;    0.000
340.825; 3107.425;  224.350;    0.000
340.883; 3102.425;  240.350;    0.000
340.940; 3156.425;  216.350;    0.000
340.997; 3142.425;  228.350;    0.000
341.054; 3130.425;  200.350;    0.000
341.112; 3168.425;  220.350;    0.000
341.169; 3228.425;  226.350;    0.000
341.226; 3145.425;  206.350;    0.000
341.284; 3122.425;  204.350;    0.000
341.341; 3144.425;  214.350;    0.000
341.398; 3125.425;  160.350;    0.000
341.455; 3201.425;  209.350;    0.000
341.512; 3185.425;  233.350;    0.000
341.570; 3088.425;  240.350;    0.000
341.627; 3115.425;  209.350;    0.000
341.684; 3121.425;  178.350;    0.000
341.741; 3147.425;  254.350;    0.000
341.798; 3225.425;  232.350;    0.000
341.856; 3201.425;  196.350;    0.000
341.913; 3148.425;  244.350;    0.000
341.970; 3163.425;  203.350;    0.000
342.027; 3180.425;  235.350;    0.000
342.084; 3145.425;  214.350;    0.000
342.141; 3113.425;  194.350;    0.000
342.198; 3151.425;  194.350;    0.000
342.255; 3220.425;  219.350;    0.000
342.313; 3281.425;  195.350;    0.000
342.370; 3217.425;  207.350;    0.000
342.427; 3195.425;  217.350;    0.000
342.484; 3118.425;  213.350;    0.000
342.541; 3195.425;  215.350;    0.000
342.598; 3269.425;  247.350;    0.000
342.655; 3221.425;  205.350;    0.000
342.712; 3186.425;  226.350;    0.000
342.769; 3204.425;  212.350;    0.000
342.826; 3180.425;  203.350;    0.000
342.883; 3123.425;  207.350;    0.000
342.940; 3117.425;  204.350;    0.000
342.997; 3282.425;  237.350;    0.000
343.054; 3215.425;  210.350;    0.000
343.111; 3261.425;  209.350;    0.000
343.168; 3218.425;  201.350;    0.000
343.225; 3279.425;  208.350;    0.000
343.282; 3352.425;  216.350;    0.000
343.339; 3284.425;  237.350;    0.000
343.395; 3243.425;  218.350;    0.000
343.452; 3290.425;  234.350;    0.000
343.509; 3416.425;  214.350;    0.000
343.566; 3349.425;  222.350;    0.000
343.623; 3351.425;  226.350;    0.000
343.680; 3442.425;  245.350;    0.000
343.737; 3366.425;  209.350;    0.000
343.794; 3483.425;  227.350;    0.000
343.850; 3503.425;  197.350;    0.000
343.907; 3510.425;  211.350;    0.000
343.964; 3564.425;  190.350;    0.000
344.021; 3568.425;  252.350;    0.000
344.078; 3524.425;  261.350;    0.000
344.134; 3540.425;  206.350;    0.000
344.191; 3524.425;  231.350;    0.000
344.248; 3511.425;  225.350;    0.000
344.305; 3421.425;  210.350;    0.000
344.361; 3505.425;  194.350;    0.000
344.418; 3473.425;  219.350;    0.000
344.475; 3405.425;  245.350;    0.000
344.532; 3492.425;  238.350;    0.000
344.588; 3427.425;  235.350;    0.000
344.645; 3425.425;  229.350;    0.000
344.702; 3475.425;  145.350;    0.000
344.758; 3293.425;  240.350;    0.000
344.815; 3423.425;  215.350;    0.000
344.872; 3324.425;  203.350;    0.000
344.928; 3399.425;  208.350;    0.000
344.985; 3438.425;  216.350;    0.000
345.042; 3277.425;  234.350;    0.000
345.098; 3532.425;  183.350;    0.000
345.155; 3405.425;  241.350;    0.000
345.212; 3390.425;  222.350;    0.000
345.268; 3478.425;  234.350;    0.000
345.325; 3283.425;  181.350;    0.000
345.381; 3481.425;  251.350;    0.000
345.438; 3437.425;  256.350;    0.000
345.495; 3486.425;  247.350;    0.000
345.551; 3396.425;  231.350;    0.000
345.608; 3424.425;  206.350;    0.000
345.664; 3379.425;  201.350;    0.000
345.721; 3425.425;  216.350;    0.000
345.777; 3368.425;  195.350;    0.000
345.834; 3255.425;  195.350;    0.000
345.890; 3301.425;  227.350;    0.000
345.947; 3426.425;  240.350;    0.000
346.003; 3475.425;  248.350;    0.000
346.060; 3323.425;  213.350;    0.000
346.116; 3414.425;  225.350;    0.000
346.173; 3407.425;  199.350;    0.000
346.229; 3384.425;  264.350;    0.000
346.285; 3356.425;  246.350;    0.000
346.342; 3490.425;  240.350;    0.000
346.398; 3298.425;  222.350;    0.000
346.455; 3458.425;  231.350;    0.000
346.511; 3459.425;  214.350;    0.000
346.567; 3463.425;  231.350;    0.000
346.624; 3510.425;  222.350;    0.000
346.680; 3434.425;  197.350;    0.000
346.737; 3476.425;  225.350;    0.000
346.793; 3412.425;  255.350;    0.000
346.849; 3524.425;  245.350;    0.000
346.906; 3472.425;  221.350;    0.000
346.962; 3508.425;  260.350;    0.000
347.018; 3401.425;  238.350;    0.000
347.074; 3449.425;  257.350;    0.000
347.131; 3509.425;  200.350;    0.000
347.187; 3435.425;  232.350;    0.000
347.243; 3469.425;  240.350;    0.000
347.300; 3543.425;  249.350;    0.000
347.356; 3521.425;  250.350;    0.000
347.412; 3525.425;  252.350;    0.000
347.468; 3462.425;  254.350;    0.000
347.524; 3447.425;  280.350;    0.000
347.581; 3496.425;  228.350;    0.000
347.637; 3527.425;  261.350;    0.000
347.693; 3427.425;  238.350;    0.000
347.749; 3500.425;  261.350;    0.000
347.805; 3484.425;  238.350;    0.000
347.862; 3465.425;  246.350;    0.000
347.918; 3432.425;  256.350;    0.000
347.974; 3502.425;  277.350;    0.000
348.030; 3463.425;  242.350;    0.000
348.086; 3503.425;  223.350;    0.000
348.142; 3529.425;  215.350;    0.000
348.198; 3417.425;  272.350;    0.000
348.254; 3500.425;  292.350;    0.000
348.311; 3500.425;  235.350;    0.000
348.367; 3576.425;  263.350;    0.000
348.423; 3631.425;  193.350;    0.000
348.479; 3469.425;  266.350;    0.000
348.535; 3479.425;  238.350;    0.000
348.591; 3563.425;  237.350;    0.000
348.647; 3489.425;  239.350;    0.000
348.703; 3604.425;  240.350;    0.000
348.759; 3531.425;  253.350;    0.000
348.815; 3516.425;  255.350;    0.000
348.871; 3520.425;  256.350;    0.000
348.927; 3581.425;  261.350;    0.000
348.983; 3589.425;  258.350;    0.000
349.039; 3506.425;  204.350;    0.000
349.095; 3543.425;  215.350;    0.000
349.151; 3533.425;  230.350;    0.000
349.207; 3519.425;  216.350;    0.000
349.263; 3627.425;  235.350;    0.000
349.319; 3566.425;  244.350;    0.000
349.374; 3594.425;  213.350;    0.000
349.430; 3587.425;  241.350;    0.000
349.486; 3614.425;  248.350;    0.000
349.542; 3624.425;  259.350;    0.000
349.598; 3536.425;  208.350;    0.000
349.654; 3586.425;  242.350;    0.000
349.710; 3604.425;  246.350;    0.000
349.766; 3578.425;  226.350;    0.000
349.821; 3569.425;  227.350;    0.000
349.877; 3669.425;  226.350;    0.000
349.933; 3594.425;  249.350;    0.000
349.989; 3645.425;  263.350;    0.000
350.045; 3612.425;  267.350;    0.000
350.100; 3617.425;  219.350;    0.000
350.156; 3595.425;  207.350;    0.000
350.212; 3688.425;  230.350;    0.000
350.268; 3527.425;  223.350;    0.000
350.323; 3587.425;  217.350;    0.000
350.379; 3561.425;  227.350;    0.000
350.435; 3612.425;  219.350;    0.000
350.491; 3525.425;  195.350;    0.000
350.546; 3586.425;  229.350;    0.000
350.602; 3628.425;  222.350;    0.000
350.658; 3585.425;  225.350;    0.000
350.713; 3525.425;  231.350;    0.000
350.769; 3615.425;  193.350;    0.000
350.825; 3542.425;  182.350;    0.000
350.880; 3541.425;  193.350;    0.000
350.936; 3569.425;  222.350;    0.000
350.992; 3559.425;  217.350;    0.000
351.047; 3566.425;  226.350;    0.000
351.103; 3596.425;  187.350;    0.000
351.158; 3577.425;  212.350;    0.000
351.214; 3549.425;  207.350;    0.000
351.270; 3544.425;  194.350;    0.000
351.325; 3570.425;  213.350;    0.000
351.381; 3655.425;  223.350;    0.000
351.436; 3629.425;  222.350;    0.000
351.492; 3703.425;  219.350;    0.000
351.547; 3677.425;  205.350;    0.000
351.603; 3660.425;  218.350;    0.000
351.658; 3622.425;  199.350;    0.000
351.714; 3563.425;  201.350;    0.000
351.769; 3606.425;  209.350;    0.000
351.825; 3689.425;  226.350;    0.000
351.880; 3705.425;  189.350;    0.000
351.936; 3730.425;  201.350;    0.000
351.991; 3574.425;  220.350;    0.000
352.047; 3514.425;  232.350;    0.000
352.102; 3597.425;  185.350;    0.000
352.158; 3643.425;  228.350;    0.000
352.213; 3492.425;  204.350;    0.000
352.268; 3654.425;  220.350;    0.000
352.324; 3676.425;  206.350;    0.000
352.379; 3663.425;  182.350;    0.000
352.434; 3662.425;  214.350;    0.000
352.490; 3617.425;  250.350;    0.000
352.545; 3546.425;  290.350;    0.000
352.601; 3659.425;  247.350;    0.000
352.656; 3716.425;  203.350;    0.000
352.711; 3588.425;  197.350;    0.000
352.767; 3623.425;  169.350;    0.000
352.822; 3604.425;  191.350;    0.000
352.877; 3600.425;  235.350;    0.000
352.932; 3623.425;  231.350;    0.000
352.988; 3615.425;  224.350;    0.000
353.043; 3638.425;  226.350;    0.000
353.098; 3663.425;  227.350;    0.000
353.153; 3725.425;  239.350;    0.000
353.209; 3730.425;  217.350;    0.000
353.264; 3666.425;  198.350;    0.000
353.319; 3694.425;  247.350;    0.000
353.374; 3684.425;  199.350;    0.000
353.430; 3679.425;  247.350;    0.000
353.485; 3634.425;  242.350;    0.000
353.540; 3730.425;  237.350;    0.000
353.595; 3602.425;  233.350;    0.000
353.650; 3529.425;  221.350;    0.000
353.705; 3744.425;  259.350;    0.000
353.761; 3764.425;  223.350;    0.000
353.816; 3592.425;  234.350;    0.000
353.871; 3652.425;  226.350;    0.000
353.926; 3715.425;  232.350;    0.000
353.981; 3521.425;  245.350;    0.000
354.036; 3669.425;  247.350;    0.000
354.091; 3737.425;  233.350;    0.000
354.146; 3737.425;  253.350;    0.000
354.201; 3638.425;  236.350;    0.000
354.256; 3675.425;  210.350;    0.000
354.311; 3697.425;  279.350;    0.000
354.367; 3731.425;  208.350;    0.000
354.422; 3681.425;  228.350;    0.000
354.477; 3644.425;  202.350;    0.000
354.532; 3722.425;  215.350;    0.000
354.587; 3683.425;  249.350;    0.000
354.642; 3684.425;  206.350;    0.000
354.697; 3697.425;  226.350;    0.000
354.751; 3731.425;  241.350;    0.000
354.806; 3560.425;  249.350;    0.000
354.861; 3722.425;  216.350;    0.000
354.916; 3643.425;  249.350;    0.000
354.971; 3755.425;  217.350;    0.000
355.026; 3712.425;  236.350;    0.000
355.081; 3673.425;  242.350;    0.000
355.136; 3662.425;  216.350;    0.000
355.191; 3616.425;  216.350;    0.000
355.246; 3648.425;  258.350;    0.000
355.301; 3779.425;  250.350;    0.000
355.355; 3713.425;  251.350;    0.000
355.410; 3586.425;  216.350;    0.000
355.465; 3687.425;  224.350;    0.000
355.520; 3725.425;  221.350;    0.000
355.575; 3788.425;  255.350;    0.000
355.630; 3679.425;  225.350;    0.000
355.684; 3760.425;  210.350;    0.000
355.739; 3772.425;  232.350;    0.000
355.794; 3775.425;  202.350;    0.000
355.849; 3789.425;  211.350;    0.000
355.904; 3702.425;  226.350;    0.000
355.958; 3713.425;  191.350;    0.000
356.013; 3653.425;  208.350;    0.000
356.068; 3714.425;  229.350;    0.000
356.123; 3761.425;  243.350;    0.000
356.177; 3698.425;  227.350;    0.000
356.232; 3675.425;  243.350;    0.000
356.287; 3687.425;  216.350;    0.000
356.341; 3820.425;  242.350;    0.000
356.396; 3765.425;  175.350;    0.000
356.451; 3784.425;  271.350;    0.000
356.505; 3872.425;  225.350;    0.000
356.560; 3740.425;  260.350;    0.000
356.615; 3591.425;  213.350;    0.000
356.669; 3745.425;  213.350;    0.000
356.724; 3833.425;  221.350;    0.000
356.778; 3699.425;  232.350;    0.000
356.833; 3797.425;  178.350;    0.000
356.888; 3700.425;  236.350;    0.000
356.942; 3801.425;  224.350;    0.000
356.997; 3869.425;  228.350;    0.000
357.051; 3752.425;  226.350;    0.000
357.106; 3755.425;  185.350;    0.000
357.160; 3731.425;  202.350;    0.000
357.215; 3689.425;  232.350;    0.000
357.269; 3745.425;  224.350;    0.000
357.324; 3677.425;  219.350;    0.000
357.378; 3718.425;  196.350;    0.000
357.433; 3696.425;  241.350;    0.000
357.487; 3751.425;  244.350;    0.000
357.542; 3771.425;  210.350;    0.000
357.596; 3843.425;  231.350;    0.000
357.651; 3634.425;  248.350;    0.000
357.705; 3741.425;  232.350;    0.000
357.760; 3796.425;  224.350;    0.000
357.814; 3854.425;  221.350;    0.000
357.868; 3720.425;  207.350;    0.000
357.923; 3792.425;  234.350;    0.000
357.977; 3669.425;  218.350;    0.000
358.032; 3761.425;  244.350;    0.000
358.086; 3676.425;  246.350;    0.000
358.140; 3727.425;  235.350;    0.000
358.195; 3713.425;  237.350;    0.000
358.249; 3761.425;  233.350;    0.000
358.303; 3643.425;  254.350;    0.000
358.358; 3635.425;  217.350;    0.000
358.412; 3748.425;  245.350;    0.000
358.466; 3671.425;  230.350;    0.000
358.521; 3707.425;  214.350;    0.000
358.575; 3698.425;  243.350;    0.000
358.629; 3712.425;  230.350;    0.000
358.683; 3759.425;  232.350;    0.000
358.738; 3688.425;  249.350;    0.000
358.792; 3798.425;  249.350;    0.000
358.846; 3780.425;  271.350;    0.000
358.900; 3679.425;  265.350;    0.000
358.954; 3698.425;  236.350;    0.000
359.009; 3637.425;  254.350;    0.000
359.063; 3628.425;  216.350;    0.000
359.117; 3649.425;  245.350;    0.000
359.171; 3906.425;  252.350;    0.000
359.225; 3732.425;  240.350;    0.000
359.280; 3781.425;  239.350;    0.000
359.334; 3743.425;  234.350;    0.000
359.388; 3869.425;  258.350;    0.000
359.442; 3776.425;  220.350;    0.000
359.496; 3689.425;  206.350;    0.000
359.550; 3843.425;  279.350;    0.000
359.604; 3772.425;  263.350;    0.000
359.658; 3629.425;  251.350;    0.000
359.712; 3737.425;  244.350;    0.000
359.766; 3715.425;  217.350;    0.000
359.820; 3710.425;  235.350;    0.000
359.875; 3773.425;  249.350;    0.000
359.929; 3803.425;  269.350;    0.000
359.983; 3627.425;  240.350;    0.000
360.037; 3726.425;  252.350;    0.000
360.091; 3694.425;  271.350;    0.000
360.145; 3717.425;  222.350;    0.000
360.199; 3644.425;  302.350;    0.000
360.253; 3698.425;  234.350;    0.000
360.306; 3650.425;  258.350;    0.000
360.360; 3750.425;  249.350;    0.000
360.414; 3645.425;  231.350;    0.000
360.468; 3641.425;  261.350;    0.000
360.522; 3800.425;  277.350;    0.000
360.576; 3732.425;  273.350;    0.000
360.630; 3880.425;  264.350;    0.000
360.684; 3787.425;  223.350;    0.000
360.738; 3799.425;  266.350;    0.000
360.792; 3753.425;  252.350;    0.000
360.846; 3645.425;  234.350;    0.000
360.899; 3703.425;  296.350;    0.000
360.953; 3754.425;  273.350;    0.000
361.007; 3706.425;  251.350;    0.000
361.061; 3761.425;  250.350;    0.000
361.115; 3665.425;  267.350;    0.000
361.168; 3744.425;  308.350;    0.000
361.222; 3638.425;  246.350;    0.000
361.276; 3688.425;  261.350;    0.000
361.330; 3803.425;  233.350;    0.000
361.384; 3671.425;  269.350;    0.000
361.437; 3765.425;  270.350;    0.000
361.491; 3662.425;  263.350;    0.000
361.545; 3819.425;  288.350;    0.000
361.599; 3794.425;  270.350;    0.000
361.652; 3722.425;  256.350;    0.000
361.706; 3747.425;  263.350;    0.000
361.760; 3756.425;  237.350;    0.000
361.813; 3792.425;  278.350;    0.000
361.867; 3782.425;  317.350;    0.000
361.921; 3662.425;  260.350;    0.000
361.974; 3748.425;  239.350;    0.000
362.028; 3687.425;  266.350;    0.000
362.082; 3729.425;  269.350;    0.000
362.135; 3714.425;  262.350;    0.000
362.189; 3654.425;  258.350;    0.000
362.242; 3671.425;  273.350;    0.000
362.296; 3802.425;  261.350;    0.000
362.350; 3623.425;  272.350;    0.000
362.403; 3770.425;  291.350;    0.000
362.457; 3780.425;  253.350;    0.000
362.510; 3810.425;  266.350;    0.000
362.564; 3620.425;  260.350;    0.000
362.617; 3764.425;  280.350;    0.000
362.671; 3636.425;  281.350;    0.000
362.724; 3713.425;  234.350;    0.000
362.778; 3718.425;  311.350;    0.000
362.831; 3729.425;  276.350;    0.000
362.885; 3677.425;  288.350;    0.000
362.938; 3543.425;  284.350;    0.000
362.992;  339.425;  245.350;    0.000
363.045;  260.425;  277.350;    0.000
363.099;  283.425;  246.350;    0.000
363.152;  281.425;  290.350;    0.000
363.205;  272.425;  256.350;    0.000
363.259;  250.425;  238.350;    0.000
363.312;  291.425;  290.350;    0.000
363.366;  284.425;  287.350;    0.000
363.419;  279.425;  279.350;    0.000
363.472;  281.425;  304.350;    0.000
363.526;  292.425;  305.350;    0.000
363.579;  272.425;  281.350;    0.000
363.632;  307.425;  279.350;    0.000
363.686;  284.425;  277.350;    0.000
363.739;  275.425;  268.350;    0.000
363.792;  277.425;  274.350;    0.000

