
Integration time [ms]:   0.300
Averaging Nr. [scans]: 1
Smoothing Nr. [pixels]: 0
Data measured with spectrometer [name]: UV2
Wave   ;Sample   ;Dark     ;Reference
[nm]   ;[counts] ;[counts] ;[counts] 

353.533;  218.325;  178.050;    0.000
353.597;  221.325;  251.050;    0.000
353.660;  191.325;  213.050;    0.000
353.723;  177.325;  185.050;    0.000
353.786;  174.325;  191.050;    0.000
353.850;  204.325;  238.050;    0.000
353.913;  168.325;  181.050;    0.000
353.976;  203.325;  190.050;    0.000
354.039;  178.325;  184.050;    0.000
354.102;  238.325;  231.050;    0.000
354.166;  199.325;  188.050;    0.000
354.229;  209.325;  224.050;    0.000
354.292;  173.325;  186.050;    0.000
354.355;  172.325;  175.050;    0.000
354.418;  188.325;  191.050;    0.000
354.481;  237.325;  181.050;    0.000
354.545;  816.325;  193.050;    0.000
354.608;  850.325;  210.050;    0.000
354.671;  875.325;  183.050;    0.000
354.734;  875.325;  189.050;    0.000
354.797;  888.325;  168.050;    0.000
354.860;  879.325;  178.050;    0.000
354.923;  976.325;  236.050;    0.000
354.986;  935.325;  181.050;    0.000
355.050;  923.325;  168.050;    0.000
355.113;  941.325;  201.050;    0.000
355.176;  993.325;  206.050;    0.000
355.239;  989.325;  213.050;    0.000
355.302; 1003.325;  198.050;    0.000
355.365; 1059.325;  199.050;    0.000
355.428;  984.325;  200.050;    0.000
355.491; 1088.325;  232.050;    0.000
355.554; 1062.325;  184.050;    0.000
355.617; 1121.325;  214.050;    0.000
355.680; 1049.325;  191.050;    0.000
355.743; 1073.325;  161.050;    0.000
355.806; 1059.325;  153.050;    0.000
355.869; 1142.325;  221.050;    0.000
355.932; 1174.325;  152.050;    0.000
355.995; 1144.325;  195.050;    0.000
356.058; 1164.325;  172.050;    0.000
356.121; 1241.325;  186.050;    0.000
356.184; 1184.325;  196.050;    0.000
356.247; 1162.325;  183.050;    0.000
356.310; 1173.325;  159.050;    0.000
356.373; 1189.325;  183.050;    0.000
356.436; 1254.325;  176.050;    0.000
356.498; 1243.325;  191.050;    0.000
356.561; 1200.325;  145.050;    0.000
356.624; 1252.325;  187.050;    0.000
356.687; 1216.325;  181.050;    0.000
356.750; 1232.325;  227.050;    0.000
356.813; 1227.325;  147.050;    0.000
356.876; 1189.325;  184.050;    0.000
356.939; 1187.325;  141.050;    0.000
357.001; 1211.325;  188.050;    0.000
357.064; 1299.325;  173.050;    0.000
357.127; 1221.325;  159.050;    0.000
357.190; 1264.325;  185.050;    0.000
357.253; 1245.325;  180.050;    0.000
357.316; 1249.325;  199.050;    0.000
357.378; 1345.325;  196.050;    0.000
357.441; 1224.325;  175.050;    0.000
357.504; 1333.325;  164.050;    0.000
357.567; 1266.325;  145.050;    0.000
357.629; 1280.325;  205.050;    0.000
357.692; 1270.325;  175.050;    0.000
357.755; 1363.325;  205.050;    0.000
357.818; 1286.325;  141.050;    0.000
357.880; 1320.325;  170.050;    0.000
357.943; 1335.325;  152.050;    0.000
358.006; 1316.325;  145.050;    0.000
358.069; 1317.325;  164.050;    0.000
358.131; 1334.325;  148.050;    0.000
358.194; 1257.325;  122.050;    0.000
358.257; 1271.325;  147.050;    0.000
358.319; 1329.325;  156.050;    0.000
358.382; 1358.325;  193.050;    0.000
358.445; 1372.325;  155.050;    0.000
358.507; 1316.325;  160.050;    0.000
358.570; 1381.325;  159.050;    0.000
358.633; 1276.325;  163.050;    0.000
358.695; 1374.325;  174.050;    0.000
358.758; 1335.325;  127.050;    0.000
358.821; 1319.325;  165.050;    0.000
358.883; 1334.325;  145.050;    0.000
358.946; 1293.325;  127.050;    0.000
359.008; 1406.325;  180.050;    0.000
359.071; 1421.325;  173.050;    0.000
359.134; 1283.325;  150.050;    0.000
359.196; 1364.325;  158.050;    0.000
359.259; 1372.325;  159.050;    0.000
359.321; 1422.325;  159.050;    0.000
359.384; 1404.325;  182.050;    0.000
359.446; 1419.325;  140.050;    0.000
359.509; 1411.325;  146.050;    0.000
359.571; 1379.325;  133.050;    0.000
359.634; 1412.325;   93.050;    0.000
359.696; 1317.325;  142.050;    0.000
359.759; 1441.325;  161.050;    0.000
359.821; 1377.325;  110.050;    0.000
359.884; 1435.325;  114.050;    0.000
359.946; 1369.325;  180.050;    0.000
360.009; 1390.325;  158.050;    0.000
360.071; 1404.325;  116.050;    0.000
360.134; 1496.325;  170.050;    0.000
360.196; 1461.325;  128.050;    0.000
360.259; 1482.325;  157.050;    0.000
360.321; 1436.325;  122.050;    0.000
360.384; 1459.325;  119.050;    0.000
360.446; 1369.325;  122.050;    0.000
360.508; 1368.325;  195.050;    0.000
360.571; 1476.325;  128.050;    0.000
360.633; 1443.325;  172.050;    0.000
360.696; 1423.325;  115.050;    0.000
360.758; 1522.325;  162.050;    0.000
360.820; 1525.325;  149.050;    0.000
360.883; 1463.325;  151.050;    0.000
360.945; 1457.325;  149.050;    0.000
361.007; 1421.325;  135.050;    0.000
361.070; 1500.325;  162.050;    0.000
361.132; 1504.325;  198.050;    0.000
361.194; 1487.325;  141.050;    0.000
361.257; 1464.325;  154.050;    0.000
361.319; 1554.325;  147.050;    0.000
361.381; 1529.325;  154.050;    0.000
361.443; 1421.325;  144.050;    0.000
361.506; 1483.325;  164.050;    0.000
361.568; 1481.325;  148.050;    0.000
361.630; 1488.325;  127.050;    0.000
361.693; 1538.325;  158.050;    0.000
361.755; 1504.325;  161.050;    0.000
361.817; 1481.325;  173.050;    0.000
361.879; 1634.325;  159.050;    0.000
361.941; 1513.325;  153.050;    0.000
362.004; 1528.325;  148.050;    0.000
362.066; 1513.325;  150.050;    0.000
362.128; 1556.325;  132.050;    0.000
362.190; 1528.325;  207.050;    0.000
362.252; 1566.325;  142.050;    0.000
362.315; 1553.325;  153.050;    0.000
362.377; 1562.325;  164.050;    0.000
362.439; 1537.325;  155.050;    0.000
362.501; 1579.325;  157.050;    0.000
362.563; 1540.325;  188.050;    0.000
362.625; 1578.325;  194.050;    0.000
362.688; 1520.325;  159.050;    0.000
362.750; 1636.325;  205.050;    0.000
362.812; 1523.325;  148.050;    0.000
362.874; 1563.325;  173.050;    0.000
362.936; 1558.325;  152.050;    0.000
362.998; 1575.325;  145.050;    0.000
363.060; 1675.325;  184.050;    0.000
363.122; 1631.325;  147.050;    0.000
363.184; 1615.325;  136.050;    0.000
363.246; 1622.325;  171.050;    0.000
363.308; 1587.325;  154.050;    0.000
363.370; 1599.325;  175.050;    0.000
363.432; 1637.325;  139.050;    0.000
363.494; 1627.325;  163.050;    0.000
363.556; 1562.325;  117.050;    0.000
363.618; 1577.325;  126.050;    0.000
363.680; 1579.325;  147.050;    0.000
363.742; 1644.325;  161.050;    0.000
363.804; 1617.325;  159.050;    0.000
363.866; 1668.325;  170.050;    0.000
363.928; 1616.325;  122.050;    0.000
363.990; 1661.325;  167.050;    0.000
364.052; 1585.325;  180.050;    0.000
364.114; 1630.325;  119.050;    0.000
364.176; 1699.325;  184.050;    0.000
364.238; 1601.325;  180.050;    0.000
364.300; 1664.325;  159.050;    0.000
364.362; 1686.325;  163.050;    0.000
364.424; 1630.325;  139.050;    0.000
364.486; 1655.325;  189.050;    0.000
364.548; 1658.325;  167.050;    0.000
364.609; 1663.325;  165.050;    0.000
364.671; 1610.325;  171.050;    0.000
364.733; 1646.325;  165.050;    0.000
364.795; 1637.325;  122.050;    0.000
364.857; 1586.325;  147.050;    0.000
364.919; 1631.325;  104.050;    0.000
364.981; 1658.325;  143.050;    0.000
365.042; 1750.325;  166.050;    0.000
365.104; 1640.325;  162.050;    0.000
365.166; 1654.325;  155.050;    0.000
365.228; 1617.325;  179.050;    0.000
365.290; 1634.325;  133.050;    0.000
365.351; 1590.325;  142.050;    0.000
365.413; 1707.325;  144.050;    0.000
365.475; 1616.325;  139.050;    0.000
365.537; 1660.325;  181.050;    0.000
365.598; 1634.325;  166.050;    0.000
365.660; 1584.325;  130.050;    0.000
365.722; 1655.325;  177.050;    0.000
365.784; 1733.325;  149.050;    0.000
365.845; 1677.325;  156.050;    0.000
365.907; 1606.325;  122.050;    0.000
365.969; 1655.325;  140.050;    0.000
366.030; 1703.325;  156.050;    0.000
366.092; 1702.325;  140.050;    0.000
366.154; 1692.325;  169.050;    0.000
366.215; 1718.325;  170.050;    0.000
366.277; 1683.325;  143.050;    0.000
366.339; 1729.325;  139.050;    0.000
366.400; 1678.325;  139.050;    0.000
366.462; 1641.325;  140.050;    0.000
366.524; 1642.325;  150.050;    0.000
366.585; 1737.325;  163.050;    0.000
366.647; 1748.325;  193.050;    0.000
366.708; 1682.325;  135.050;    0.000
366.770; 1712.325;  165.050;    0.000
366.832; 1684.325;  168.050;    0.000
366.893; 1780.325;  157.050;    0.000
366.955; 1703.325;  132.050;    0.000
367.016; 1750.325;  127.050;    0.000
367.078; 1753.325;  146.050;    0.000
367.139; 1773.325;  129.050;    0.000
367.201; 1743.325;  148.050;    0.000
367.262; 1699.325;  165.050;    0.000
367.324; 1712.325;  171.050;    0.000
367.385; 1680.325;  118.050;    0.000
367.447; 1726.325;  144.050;    0.000
367.508; 1705.325;  135.050;    0.000
367.570; 1747.325;  160.050;    0.000
367.631; 1743.325;  157.050;    0.000
367.693; 1603.325;  168.050;    0.000
367.754; 1738.325;  139.050;    0.000
367.816; 1700.325;  141.050;    0.000
367.877; 1749.325;  195.050;    0.000
367.939; 1785.325;  166.050;    0.000
368.000; 1767.325;  127.050;    0.000
368.062; 1834.325;  143.050;    0.000
368.123; 1723.325;  156.050;    0.000
368.184; 1734.325;  179.050;    0.000
368.246; 1764.325;  168.050;    0.000
368.307; 1697.325;  203.050;    0.000
368.369; 1692.325;  149.050;    0.000
368.430; 1747.325;  121.050;    0.000
368.491; 1692.325;  131.050;    0.000
368.553; 1755.325;  161.050;    0.000
368.614; 1728.325;  157.050;    0.000
368.675; 1719.325;  152.050;    0.000
368.737; 1701.325;  168.050;    0.000
368.798; 1775.325;  147.050;    0.000
368.859; 1871.325;  174.050;    0.000
368.921; 1809.325;  168.050;    0.000
368.982; 1779.325;  151.050;    0.000
369.043; 1732.325;  169.050;    0.000
369.104; 1771.325;  149.050;    0.000
369.166; 1777.325;  178.050;    0.000
369.227; 1748.325;  149.050;    0.000
369.288; 1793.325;  131.050;    0.000
369.349; 1761.325;  128.050;    0.000
369.411; 1797.325;  198.050;    0.000
369.472; 1772.325;  156.050;    0.000
369.533; 1787.325;  142.050;    0.000
369.594; 1728.325;  125.050;    0.000
369.656; 1804.325;  153.050;    0.000
369.717; 1756.325;  124.050;    0.000
369.778; 1833.325;  163.050;    0.000
369.839; 1835.325;  130.050;    0.000
369.900; 1801.325;  170.050;    0.000
369.961; 1789.325;  142.050;    0.000
370.023; 1917.325;  197.050;    0.000
370.084; 1792.325;  151.050;    0.000
370.145; 1809.325;  128.050;    0.000
370.206; 1806.325;  152.050;    0.000
370.267; 1798.325;  154.050;    0.000
370.328; 1822.325;  154.050;    0.000
370.389; 1821.325;  173.050;    0.000
370.451; 1788.325;  191.050;    0.000
370.512; 1888.325;  155.050;    0.000
370.573; 1882.325;  134.050;    0.000
370.634; 1916.325;  160.050;    0.000
370.695; 1814.325;  124.050;    0.000
370.756; 1843.325;  169.050;    0.000
370.817; 1907.325;  169.050;    0.000
370.878; 1836.325;  200.050;    0.000
370.939; 1807.325;  157.050;    0.000
371.000; 1942.325;  131.050;    0.000
371.061; 1769.325;  136.050;    0.000
371.122; 1855.325;  176.050;    0.000
371.183; 1841.325;   81.050;    0.000
371.244; 1939.325;  156.050;    0.000
371.305; 1846.325;  131.050;    0.000
371.366; 1884.325;  161.050;    0.000
371.427; 1919.325;  127.050;    0.000
371.488; 1810.325;  184.050;    0.000
371.549; 1921.325;  159.050;    0.000
371.610; 1816.325;  147.050;    0.000
371.671; 1785.325;  132.050;    0.000
371.732; 1913.325;  163.050;    0.000
371.793; 1844.325;  179.050;    0.000
371.853; 1860.325;  179.050;    0.000
371.914; 1789.325;  149.050;    0.000
371.975; 1878.325;  117.050;    0.000
372.036; 1848.325;  141.050;    0.000
372.097; 1871.325;  101.050;    0.000
372.158; 1857.325;  115.050;    0.000
372.219; 1924.325;  174.050;    0.000
372.280; 1866.325;  134.050;    0.000
372.340; 1943.325;  180.050;    0.000
372.401; 1839.325;  166.050;    0.000
372.462; 1938.325;  171.050;    0.000
372.523; 1877.325;  132.050;    0.000
372.584; 1860.325;  182.050;    0.000
372.645; 1891.325;  149.050;    0.000
372.705; 1875.325;  182.050;    0.000
372.766; 1942.325;  145.050;    0.000
372.827; 1922.325;  161.050;    0.000
372.888; 1903.325;  156.050;    0.000
372.948; 1817.325;  158.050;    0.000
373.009; 1881.325;  178.050;    0.000
373.070; 1862.325;  166.050;    0.000
373.131; 1914.325;  154.050;    0.000
373.191; 1895.325;  193.050;    0.000
373.252; 1902.325;  148.050;    0.000
373.313; 1896.325;  152.050;    0.000
373.373; 1810.325;  156.050;    0.000
373.434; 1940.325;  166.050;    0.000
373.495; 1921.325;  152.050;    0.000
373.555; 1870.325;  145.050;    0.000
373.616; 1867.325;  141.050;    0.000
373.677; 1920.325;  169.050;    0.000
373.737; 1909.325;  166.050;    0.000
373.798; 1834.325;  151.050;    0.000
373.859; 1924.325;  170.050;    0.000
373.919; 1849.325;  206.050;    0.000
373.980; 1915.325;  140.050;    0.000
374.041; 1968.325;  148.050;    0.000
374.101; 1948.325;  165.050;    0.000
374.162; 2003.325;  166.050;    0.000
374.222; 1978.325;  156.050;    0.000
374.283; 1973.325;  161.050;    0.000
374.343; 2001.325;  185.050;    0.000
374.404; 1959.325;  148.050;    0.000
374.465; 1933.325;  162.050;    0.000
374.525; 1944.325;  177.050;    0.000
374.586; 1958.325;  164.050;    0.000
374.646; 2004.325;  180.050;    0.000
374.707; 2007.325;  203.050;    0.000
374.767; 2064.325;  148.050;    0.000
374.828; 1967.325;  142.050;    0.000
374.888; 2030.325;  187.050;    0.000
374.949; 1973.325;  137.050;    0.000
375.009; 2047.325;  155.050;    0.000
375.070; 2005.325;  165.050;    0.000
375.130; 2039.325;  168.050;    0.000
375.190; 2018.325;  157.050;    0.000
375.251; 2082.325;  206.050;    0.000
375.311; 2015.325;  141.050;    0.000
375.372; 2018.325;  144.050;    0.000
375.432; 2047.325;  153.050;    0.000
375.493; 1986.325;  168.050;    0.000
375.553; 2016.325;  146.050;    0.000
375.613; 1991.325;  142.050;    0.000
375.674; 1984.325;  153.050;    0.000
375.734; 2043.325;  166.050;    0.000
375.794; 1934.325;  145.050;    0.000
375.855; 2027.325;  162.050;    0.000
375.915; 2047.325;  162.050;    0.000
375.975; 1919.325;  144.050;    0.000
376.036; 2001.325;  128.050;    0.000
376.096; 2020.325;  122.050;    0.000
376.156; 2005.325;  140.050;    0.000
376.217; 2019.325;  158.050;    0.000
376.277; 1915.325;  163.050;    0.000
376.337; 1962.325;  139.050;    0.000
376.398; 2009.325;  176.050;    0.000
376.458; 2016.325;  143.050;    0.000
376.518; 1995.325;  136.050;    0.000
376.578; 2021.325;  177.050;    0.000
376.639; 2030.325;  163.050;    0.000
376.699; 1970.325;  183.050;    0.000
376.759; 2043.325;  169.050;    0.000
376.819; 1967.325;  147.050;    0.000
376.880; 2012.325;  188.050;    0.000
376.940; 2074.325;  185.050;    0.000
377.000; 1972.325;  131.050;    0.000
377.060; 2021.325;  182.050;    0.000
377.120; 1935.325;  165.050;    0.000
377.180; 2013.325;  169.050;    0.000
377.241; 1986.325;  146.050;    0.000
377.301; 2059.325;  183.050;    0.000
377.361; 2052.325;  124.050;    0.000
377.421; 2069.325;  186.050;    0.000
377.481; 2052.325;  178.050;    0.000
377.541; 2012.325;  140.050;    0.000
377.601; 2101.325;  175.050;    0.000
377.661; 2089.325;  169.050;    0.000
377.722; 2072.325;  144.050;    0.000
377.782; 2089.325;  182.050;    0.000
377.842; 2131.325;  161.050;    0.000
377.902; 2018.325;  151.050;    0.000
377.962; 2076.325;  134.050;    0.000
378.022; 2095.325;  153.050;    0.000
378.082; 2072.325;  178.050;    0.000
378.142; 2103.325;  118.050;    0.000
378.202; 2152.325;  153.050;    0.000
378.262; 2091.325;  166.050;    0.000
378.322; 2181.325;  174.050;    0.000
378.382; 2055.325;  148.050;    0.000
378.442; 2115.325;  190.050;    0.000
378.502; 2119.325;  136.050;    0.000
378.562; 2049.325;  130.050;    0.000
378.622; 2142.325;  188.050;    0.000
378.682; 2159.325;  163.050;    0.000
378.742; 2193.325;  150.050;    0.000
378.802; 2173.325;  127.050;    0.000
378.862; 2226.325;  186.050;    0.000
378.921; 2214.325;  203.050;    0.000
378.981; 2247.325;  177.050;    0.000
379.041; 2142.325;  134.050;    0.000
379.101; 2198.325;  167.050;    0.000
379.161; 2176.325;  130.050;    0.000
379.221; 2308.325;  169.050;    0.000
379.281; 2255.325;  162.050;    0.000
379.341; 2242.325;  134.050;    0.000
379.401; 2220.325;  151.050;    0.000
379.460; 2261.325;  190.050;    0.000
379.520; 2305.325;  158.050;    0.000
379.580; 2173.325;  162.050;    0.000
379.640; 2276.325;  146.050;    0.000
379.700; 2229.325;  167.050;    0.000
379.759; 2298.325;  194.050;    0.000
379.819; 2272.325;  176.050;    0.000
379.879; 2272.325;  140.050;    0.000
379.939; 2327.325;  184.050;    0.000
379.999; 2242.325;  165.050;    0.000
380.058; 2302.325;  194.050;    0.000
380.118; 2341.325;  137.050;    0.000
380.178; 2339.325;  139.050;    0.000
380.237; 2261.325;  139.050;    0.000
380.297; 2356.325;  160.050;    0.000
380.357; 2358.325;  194.050;    0.000
380.417; 2394.325;  174.050;    0.000
380.476; 2409.325;  153.050;    0.000
380.536; 2392.325;  169.050;    0.000
380.596; 2335.325;  159.050;    0.000
380.655; 2368.325;  178.050;    0.000
380.715; 2354.325;  196.050;    0.000
380.775; 2372.325;  202.050;    0.000
380.834; 2269.325;  186.050;    0.000
380.894; 2351.325;  167.050;    0.000
380.954; 2363.325;  150.050;    0.000
381.013; 2398.325;  187.050;    0.000
381.073; 2385.325;  114.050;    0.000
381.132; 2422.325;  176.050;    0.000
381.192; 2431.325;  197.050;    0.000
381.252; 2419.325;  172.050;    0.000
381.311; 2480.325;  155.050;    0.000
381.371; 2520.325;  172.050;    0.000
381.430; 2452.325;  143.050;    0.000
381.490; 2427.325;  136.050;    0.000
381.549; 2489.325;  131.050;    0.000
381.609; 2499.325;  203.050;    0.000
381.668; 2519.325;  135.050;    0.000
381.728; 2581.325;  163.050;    0.000
381.787; 2611.325;  195.050;    0.000
381.847; 2560.325;  185.050;    0.000
381.906; 2619.325;  187.050;    0.000
381.966; 2615.325;  153.050;    0.000
382.025; 2660.325;  175.050;    0.000
382.085; 2589.325;  195.050;    0.000
382.144; 2607.325;  210.050;    0.000
382.204; 2687.325;  201.050;    0.000
382.263; 2693.325;  178.050;    0.000
382.323; 2733.325;  151.050;    0.000
382.382; 2780.325;  147.050;    0.000
382.441; 2879.325;  144.050;    0.000
382.501; 2871.325;  156.050;    0.000
382.560; 3056.325;  160.050;    0.000
382.619; 2996.325;  173.050;    0.000
382.679; 3093.325;  167.050;    0.000
382.738; 3249.325;  189.050;    0.000
382.798; 3445.325;  181.050;    0.000
382.857; 3731.325;  161.050;    0.000
382.916; 4069.325;  162.050;    0.000
382.976; 4010.325;  169.050;    0.000
383.035; 4014.325;  174.050;    0.000
383.094; 4170.325;  178.050;    0.000
383.154; 4573.325;  188.050;    0.000
383.213; 5144.325;  162.050;    0.000
383.272; 4798.325;  144.050;    0.000
383.331; 4186.325;  144.050;    0.000
383.391; 3812.325;  198.050;    0.000
383.450; 3850.325;  185.050;    0.000
383.509; 3805.325;  132.050;    0.000
383.568; 3966.325;  171.050;    0.000
383.628; 4268.325;  171.050;    0.000
383.687; 4453.325;  172.050;    0.000
383.746; 5000.325;  144.050;    0.000
383.805; 5724.325;  177.050;    0.000
383.864; 5606.325;  145.050;    0.000
383.924; 4581.325;  203.050;    0.000
383.983; 3828.325;  153.050;    0.000
384.042; 3551.325;  171.050;    0.000
384.101; 3487.325;  186.050;    0.000
384.160; 3276.325;  132.050;    0.000
384.219; 3106.325;  157.050;    0.000
384.279; 3025.325;  166.050;    0.000
384.338; 2899.325;  141.050;    0.000
384.397; 2869.325;  142.050;    0.000
384.456; 2941.325;  155.050;    0.000
384.515; 2852.325;  158.050;    0.000
384.574; 2778.325;  208.050;    0.000
384.633; 2753.325;  158.050;    0.000
384.692; 2786.325;  162.050;    0.000
384.751; 2754.325;  179.050;    0.000
384.810; 2785.325;  150.050;    0.000
384.869; 2716.325;  147.050;    0.000
384.929; 2764.325;  132.050;    0.000
384.988; 2758.325;  166.050;    0.000
385.047; 2764.325;  161.050;    0.000
385.106; 2702.325;  180.050;    0.000
385.165; 2681.325;  123.050;    0.000
385.224; 2763.325;  153.050;    0.000
385.283; 2702.325;  158.050;    0.000
385.342; 2639.325;  184.050;    0.000
385.401; 2704.325;  191.050;    0.000
385.459; 2658.325;  143.050;    0.000
385.518; 2731.325;  152.050;    0.000
385.577; 2692.325;  134.050;    0.000
385.636; 2713.325;  187.050;    0.000
385.695; 2701.325;  141.050;    0.000
385.754; 2746.325;  143.050;    0.000
385.813; 2729.325;  145.050;    0.000
385.872; 2713.325;  116.050;    0.000
385.931; 2726.325;  147.050;    0.000
385.990; 2744.325;  170.050;    0.000
386.049; 2702.325;  189.050;    0.000
386.107; 2638.325;  122.050;    0.000
386.166; 2624.325;  155.050;    0.000
386.225; 2684.325;  173.050;    0.000
386.284; 2653.325;  138.050;    0.000
386.343; 2702.325;  216.050;    0.000
386.402; 2708.325;  162.050;    0.000
386.460; 2629.325;  131.050;    0.000
386.519; 2573.325;  122.050;    0.000
386.578; 2714.325;  140.050;    0.000
386.637; 2640.325;  169.050;    0.000
386.696; 2761.325;  176.050;    0.000
386.754; 2710.325;  127.050;    0.000
386.813; 2654.325;  138.050;    0.000
386.872; 2634.325;  135.050;    0.000
386.931; 2757.325;  170.050;    0.000
386.989; 2736.325;  167.050;    0.000
387.048; 2608.325;  131.050;    0.000
387.107; 2710.325;  176.050;    0.000
387.165; 2638.325;  139.050;    0.000
387.224; 2662.325;  150.050;    0.000
387.283; 2587.325;  169.050;    0.000
387.342; 2529.325;  191.050;    0.000
387.400; 2634.325;  131.050;    0.000
387.459; 2658.325;  139.050;    0.000
387.517; 2660.325;  214.050;    0.000
387.576; 2673.325;  146.050;    0.000
387.635; 2684.325;  161.050;    0.000
387.693; 2666.325;  197.050;    0.000
387.752; 2562.325;  159.050;    0.000
387.811; 2649.325;  144.050;    0.000
387.869; 2684.325;  172.050;    0.000
387.928; 2615.325;  160.050;    0.000
387.986; 2742.325;  192.050;    0.000
388.045; 2562.325;  121.050;    0.000
388.103; 2664.325;  129.050;    0.000
388.162; 2625.325;  169.050;    0.000
388.221; 2581.325;  171.050;    0.000
388.279; 2568.325;  135.050;    0.000
388.338; 2708.325;  222.050;    0.000
388.396; 2589.325;  168.050;    0.000
388.455; 2656.325;  178.050;    0.000
388.513; 2524.325;  151.050;    0.000
388.572; 2703.325;  147.050;    0.000
388.630; 2681.325;  158.050;    0.000
388.689; 2618.325;  163.050;    0.000
388.747; 2611.325;  180.050;    0.000
388.806; 2547.325;  119.050;    0.000
388.864; 2633.325;  159.050;    0.000
388.922; 2660.325;  152.050;    0.000
388.981; 2596.325;  125.050;    0.000
389.039; 2693.325;  151.050;    0.000
389.098; 2591.325;  151.050;    0.000
389.156; 2660.325;  175.050;    0.000
389.214; 2647.325;  133.050;    0.000
389.273; 2669.325;  142.050;    0.000
389.331; 2700.325;  179.050;    0.000
389.390; 2585.325;  179.050;    0.000
389.448; 2609.325;  159.050;    0.000
389.506; 2605.325;  140.050;    0.000
389.565; 2662.325;  160.050;    0.000
389.623; 2635.325;  181.050;    0.000
389.681; 2670.325;  181.050;    0.000
389.740; 2706.325;  187.050;    0.000
389.798; 2646.325;  163.050;    0.000
389.856; 2684.325;  185.050;    0.000
389.914; 2555.325;  170.050;    0.000
389.973; 2576.325;  150.050;    0.000
390.031; 2606.325;  149.050;    0.000
390.089; 2668.325;  191.050;    0.000
390.147; 2629.325;  126.050;    0.000
390.206; 2689.325;  174.050;    0.000
390.264; 2661.325;  164.050;    0.000
390.322; 2682.325;  150.050;    0.000
390.380; 2625.325;  137.050;    0.000
390.439; 2658.325;  176.050;    0.000
390.497; 2664.325;  188.050;    0.000
390.555; 2528.325;  143.050;    0.000
390.613; 2606.325;  174.050;    0.000
390.671; 2620.325;  208.050;    0.000
390.729; 2510.325;  135.050;    0.000
390.788; 2591.325;  169.050;    0.000
390.846; 2701.325;  173.050;    0.000
390.904; 2736.325;  176.050;    0.000
390.962; 2725.325;  179.050;    0.000
391.020; 2714.325;  201.050;    0.000
391.078; 2675.325;  192.050;    0.000
391.136; 2632.325;  170.050;    0.000
391.194; 2715.325;  163.050;    0.000
391.253; 2632.325;  203.050;    0.000
391.311; 2696.325;  170.050;    0.000
391.369; 2673.325;  191.050;    0.000
391.427; 2759.325;  226.050;    0.000
391.485; 2653.325;  181.050;    0.000
391.543; 2723.325;  177.050;    0.000
391.601; 2689.325;  150.050;    0.000
391.659; 2702.325;  201.050;    0.000
391.717; 2717.325;  166.050;    0.000
391.775; 2704.325;  200.050;    0.000
391.833; 2819.325;  180.050;    0.000
391.891; 2666.325;  172.050;    0.000
391.949; 2730.325;  174.050;    0.000
392.007; 2788.325;  194.050;    0.000
392.065; 2827.325;  161.050;    0.000
392.123; 2767.325;  159.050;    0.000
392.180; 2760.325;  193.050;    0.000
392.238; 2796.325;  188.050;    0.000
392.296; 2773.325;  206.050;    0.000
392.354; 2789.325;  170.050;    0.000
392.412; 2743.325;  207.050;    0.000
392.470; 2711.325;  168.050;    0.000
392.528; 2857.325;  185.050;    0.000
392.586; 2710.325;  154.050;    0.000
392.644; 2796.325;  190.050;    0.000
392.701; 2801.325;  195.050;    0.000
392.759; 2771.325;  229.050;    0.000
392.817; 2776.325;  176.050;    0.000
392.875; 2772.325;  198.050;    0.000
392.933; 2813.325;  174.050;    0.000
392.991; 2896.325;  237.050;    0.000
393.048; 2795.325;  212.050;    0.000
393.106; 2871.325;  191.050;    0.000
393.164; 2737.325;  136.050;    0.000
393.222; 2872.325;  164.050;    0.000
393.279; 2889.325;  208.050;    0.000
393.337; 2871.325;  203.050;    0.000
393.395; 2895.325;  191.050;    0.000
393.453; 2866.325;  153.050;    0.000
393.510; 2813.325;  171.050;    0.000
393.568; 2876.325;  203.050;    0.000
393.626; 2843.325;  169.050;    0.000
393.684; 2841.325;  201.050;    0.000
393.741; 2880.325;  172.050;    0.000
393.799; 2858.325;  149.050;    0.000
393.857; 2823.325;  151.050;    0.000
393.914; 2773.325;  192.050;    0.000
393.972; 2774.325;  176.050;    0.000
394.030; 2875.325;  165.050;    0.000
394.087; 2746.325;  192.050;    0.000
394.145; 2959.325;  183.050;    0.000
394.202; 2780.325;  161.050;    0.000
394.260; 2930.325;  135.050;    0.000
394.318; 2961.325;  188.050;    0.000
394.375; 2904.325;  163.050;    0.000
394.433; 2943.325;  151.050;    0.000
394.490; 2797.325;  190.050;    0.000
394.548; 2872.325;  157.050;    0.000
394.605; 2956.325;  205.050;    0.000
394.663; 2909.325;  173.050;    0.000
394.720; 2905.325;  171.050;    0.000
394.778; 2912.325;  190.050;    0.000
394.836; 2869.325;  134.050;    0.000
394.893; 2895.325;  142.050;    0.000
394.951; 2942.325;  192.050;    0.000
395.008; 2914.325;  149.050;    0.000
395.065; 2935.325;  194.050;    0.000
395.123; 3028.325;  160.050;    0.000
395.180; 2983.325;  178.050;    0.000
395.238; 2970.325;  191.050;    0.000
395.295; 2950.325;  160.050;    0.000
395.353; 2949.325;  162.050;    0.000
395.410; 2979.325;  165.050;    0.000
395.468; 2961.325;  190.050;    0.000
395.525; 3006.325;  173.050;    0.000
395.582; 3076.325;  161.050;    0.000
395.640; 3030.325;  200.050;    0.000
395.697; 3039.325;  198.050;    0.000
395.754; 2986.325;  136.050;    0.000
395.812; 3042.325;  172.050;    0.000
395.869; 3097.325;  172.050;    0.000
395.927; 3070.325;  145.050;    0.000
395.984; 2983.325;  220.050;    0.000
396.041; 2986.325;  137.050;    0.000
396.098; 2978.325;  161.050;    0.000
396.156; 3040.325;  159.050;    0.000
396.213; 3056.325;  200.050;    0.000
396.270; 3025.325;  209.050;    0.000
396.328; 2930.325;  162.050;    0.000
396.385; 3076.325;  186.050;    0.000
396.442; 2971.325;  177.050;    0.000
396.499; 2995.325;  183.050;    0.000
396.557; 2996.325;  182.050;    0.000
396.614; 3052.325;  186.050;    0.000
396.671; 3091.325;  144.050;    0.000
396.728; 3069.325;  176.050;    0.000
396.785; 3049.325;  169.050;    0.000
396.843; 3125.325;  134.050;    0.000
396.900; 3161.325;  184.050;    0.000
396.957; 3059.325;  197.050;    0.000
397.014; 3144.325;  187.050;    0.000
397.071; 3186.325;  186.050;    0.000
397.128; 3128.325;  200.050;    0.000
397.186; 3194.325;  175.050;    0.000
397.243; 3143.325;  154.050;    0.000
397.300; 3113.325;  191.050;    0.000
397.357; 3174.325;  238.050;    0.000
397.414; 3117.325;  161.050;    0.000
397.471; 3220.325;  135.050;    0.000
397.528; 3181.325;  158.050;    0.000
397.585; 3220.325;  159.050;    0.000
397.642; 3194.325;  180.050;    0.000
397.699; 3216.325;  170.050;    0.000
397.756; 3107.325;  175.050;    0.000
397.814; 3158.325;  182.050;    0.000
397.871; 3121.325;  173.050;    0.000
397.928; 3206.325;  173.050;    0.000
397.985; 3143.325;  176.050;    0.000
398.042; 3163.325;  189.050;    0.000
398.099; 3320.325;  160.050;    0.000
398.156; 3142.325;  218.050;    0.000
398.212; 3268.325;  194.050;    0.000
398.269; 3315.325;  199.050;    0.000
398.326; 3245.325;  188.050;    0.000
398.383; 3329.325;  187.050;    0.000
398.440; 3276.325;  174.050;    0.000
398.497; 3407.325;  214.050;    0.000
398.554; 3263.325;  181.050;    0.000
398.611; 3314.325;  195.050;    0.000
398.668; 3324.325;  145.050;    0.000
398.725; 3399.325;  178.050;    0.000
398.782; 3313.325;  210.050;    0.000
398.839; 3411.325;  216.050;    0.000
398.895; 3396.325;  189.050;    0.000
398.952; 3383.325;  206.050;    0.000
399.009; 3469.325;  142.050;    0.000
399.066; 3430.325;  192.050;    0.000
399.123; 3435.325;  181.050;    0.000
399.180; 3495.325;  200.050;    0.000
399.236; 3599.325;  156.050;    0.000
399.293; 3524.325;  194.050;    0.000
399.350; 3576.325;  167.050;    0.000
399.407; 3747.325;  192.050;    0.000
399.463; 3609.325;  161.050;    0.000
399.520; 3689.325;  149.050;    0.000
399.577; 3905.325;  156.050;    0.000
399.634; 3807.325;  195.050;    0.000
399.690; 3725.325;  163.050;    0.000
399.747; 3812.325;  192.050;    0.000
399.804; 3688.325;  212.050;    0.000
399.861; 3720.325;  203.050;    0.000
399.917; 3753.325;  221.050;    0.000
399.974; 3738.325;  221.050;    0.000
400.031; 3697.325;  195.050;    0.000
400.087; 3641.325;  159.050;    0.000
400.144; 3685.325;  201.050;    0.000
400.201; 3632.325;  206.050;    0.000
400.257; 3632.325;  168.050;    0.000
400.314; 3532.325;  183.050;    0.000
400.370; 3606.325;  209.050;    0.000
400.427; 3688.325;  192.050;    0.000
400.484; 3567.325;  150.050;    0.000
400.540; 3501.325;  213.050;    0.000
400.597; 3553.325;  161.050;    0.000
400.653; 3554.325;  170.050;    0.000
400.710; 3555.325;  173.050;    0.000
400.766; 3651.325;  204.050;    0.000
400.823; 3596.325;  194.050;    0.000
400.879; 3536.325;  188.050;    0.000
400.936; 3466.325;  172.050;    0.000
400.993; 3511.325;  154.050;    0.000
401.049; 3437.325;  157.050;    0.000
401.105; 3503.325;  214.050;    0.000
401.162; 3467.325;  195.050;    0.000
401.218; 3492.325;  195.050;    0.000
401.275; 3639.325;  182.050;    0.000
401.331; 3490.325;  188.050;    0.000
401.388; 3429.325;  194.050;    0.000
401.444; 3527.325;  175.050;    0.000
401.501; 3375.325;  169.050;    0.000
401.557; 3387.325;  176.050;    0.000
401.614; 3536.325;  153.050;    0.000
401.670; 3374.325;  178.050;    0.000
401.726; 3485.325;  179.050;    0.000
401.783; 3429.325;  198.050;    0.000
401.839; 3451.325;  179.050;    0.000
401.895; 3491.325;  154.050;    0.000
401.952; 3532.325;  138.050;    0.000
402.008; 3408.325;  135.050;    0.000
402.064; 3572.325;  154.050;    0.000
402.121; 3517.325;  199.050;    0.000
402.177; 3519.325;  126.050;    0.000
402.233; 3505.325;  190.050;    0.000
402.290; 3471.325;  175.050;    0.000
402.346; 3531.325;  200.050;    0.000
402.402; 3558.325;  191.050;    0.000
402.458; 3519.325;  172.050;    0.000
402.515; 3602.325;  186.050;    0.000
402.571; 3575.325;  189.050;    0.000
402.627; 3479.325;  151.050;    0.000
402.683; 3586.325;  187.050;    0.000
402.740; 3507.325;  147.050;    0.000
402.796; 3508.325;  176.050;    0.000
402.852; 3597.325;  200.050;    0.000
402.908; 3611.325;  201.050;    0.000
402.964; 3532.325;  153.050;    0.000
403.021; 3627.325;  165.050;    0.000
403.077; 3659.325;  195.050;    0.000
403.133; 3688.325;  139.050;    0.000
403.189; 3567.325;  166.050;    0.000
403.245; 3621.325;  194.050;    0.000
403.301; 3685.325;  210.050;    0.000
403.357; 3695.325;  187.050;    0.000
403.414; 3737.325;  195.050;    0.000
403.470; 3699.325;  150.050;    0.000
403.526; 3708.325;  158.050;    0.000
403.582; 3750.325;  184.050;    0.000
403.638; 3633.325;  171.050;    0.000
403.694; 3622.325;  197.050;    0.000
403.750; 3683.325;  196.050;    0.000
403.806; 3775.325;  192.050;    0.000
403.862; 3606.325;  169.050;    0.000
403.918; 3738.325;  199.050;    0.000
403.974; 3722.325;  156.050;    0.000
404.030; 3805.325;  193.050;    0.000
404.086; 3729.325;  161.050;    0.000
404.142; 3682.325;  172.050;    0.000
404.198; 3694.325;  195.050;    0.000
404.254; 3780.325;  167.050;    0.000
404.310; 3830.325;  156.050;    0.000
404.366; 3774.325;  144.050;    0.000
404.422; 3714.325;  161.050;    0.000
404.478; 3688.325;  179.050;    0.000
404.534; 3711.325;  163.050;    0.000
404.590; 3654.325;  183.050;    0.000
404.646; 3758.325;  155.050;    0.000
404.701; 3812.325;  142.050;    0.000
404.757; 3677.325;  175.050;    0.000
404.813; 3685.325;  153.050;    0.000
404.869; 3796.325;  199.050;    0.000
404.925; 3752.325;  153.050;    0.000
404.981; 3823.325;  174.050;    0.000
405.037; 3776.325;  185.050;    0.000
405.092; 3790.325;  166.050;    0.000
405.148; 3739.325;  161.050;    0.000
405.204; 3775.325;  170.050;    0.000
405.260; 3761.325;  154.050;    0.000
405.316; 3785.325;  128.050;    0.000
405.371; 3742.325;  142.050;    0.000
405.427; 3737.325;  196.050;    0.000
405.483; 3827.325;  172.050;    0.000
405.539; 3714.325;  182.050;    0.000
405.594; 3818.325;  153.050;    0.000
405.650; 3800.325;  124.050;    0.000
405.706; 3808.325;  189.050;    0.000
405.761; 3759.325;  165.050;    0.000
405.817; 3802.325;  152.050;    0.000
405.873; 3792.325;  174.050;    0.000
405.928; 3741.325;  167.050;    0.000
405.984; 3781.325;  210.050;    0.000
406.040; 3945.325;  160.050;    0.000
406.095; 3830.325;  163.050;    0.000
406.151; 3903.325;  208.050;    0.000
406.207; 3900.325;  177.050;    0.000
406.262; 3858.325;  176.050;    0.000
406.318; 3872.325;  157.050;    0.000
406.374; 3742.325;  141.050;    0.000
406.429; 3801.325;  189.050;    0.000
406.485; 3925.325;  190.050;    0.000
406.540; 4004.325;  155.050;    0.000
406.596; 3947.325;  182.050;    0.000
406.651; 3902.325;  200.050;    0.000
406.707; 3920.325;  130.050;    0.000
406.763; 3986.325;  174.050;    0.000
406.818; 4005.325;  151.050;    0.000
406.874; 3993.325;  122.050;    0.000
406.929; 4092.325;  153.050;    0.000
406.985; 4123.325;  198.050;    0.000
407.040; 4156.325;  174.050;    0.000
407.095; 4082.325;  161.050;    0.000
407.151; 4168.325;  184.050;    0.000
407.206; 4213.325;  188.050;    0.000
407.262; 4191.325;  180.050;    0.000
407.317; 4333.325;  186.050;    0.000
407.373; 4264.325;  200.050;    0.000
407.428; 4267.325;  211.050;    0.000
407.484; 4210.325;  193.050;    0.000
407.539; 4193.325;  167.050;    0.000
407.594; 4316.325;  178.050;    0.000
407.650; 4221.325;  171.050;    0.000
407.705; 4331.325;  153.050;    0.000
407.760; 4264.325;  196.050;    0.000
407.816; 4280.325;  205.050;    0.000
407.871; 4285.325;  232.050;    0.000
407.926; 4198.325;  215.050;    0.000
407.982; 4199.325;  154.050;    0.000
408.037; 4193.325;  217.050;    0.000
408.092; 4247.325;  190.050;    0.000
408.148; 4200.325;  181.050;    0.000
408.203; 4128.325;  203.050;    0.000
408.258; 4055.325;  154.050;    0.000
408.314; 4264.325;  198.050;    0.000
408.369; 4197.325;  156.050;    0.000
408.424; 4163.325;  216.050;    0.000
408.479; 4135.325;  191.050;    0.000
408.534; 4143.325;  200.050;    0.000
408.590; 4111.325;  182.050;    0.000
408.645; 4074.325;  141.050;    0.000
408.700; 4157.325;  209.050;    0.000
408.755; 4119.325;  205.050;    0.000
408.810; 4081.325;  171.050;    0.000
408.866; 4117.325;  200.050;    0.000
408.921; 4172.325;  188.050;    0.000
408.976; 4062.325;  156.050;    0.000
409.031; 4123.325;  164.050;    0.000
409.086; 4028.325;  155.050;    0.000
409.141; 4104.325;  205.050;    0.000
409.196; 4053.325;  173.050;    0.000
409.252; 4094.325;  179.050;    0.000
409.307; 4047.325;  131.050;    0.000
409.362; 4165.325;  173.050;    0.000
409.417; 4163.325;  120.050;    0.000
409.472; 4202.325;  198.050;    0.000
409.527; 4142.325;  153.050;    0.000
409.582; 4111.325;  177.050;    0.000
409.637; 4086.325;  184.050;    0.000
409.692; 4149.325;  203.050;    0.000
409.747; 4068.325;  158.050;    0.000
409.802; 4170.325;  212.050;    0.000
409.857; 4103.325;  192.050;    0.000
409.912; 4216.325;  179.050;    0.000
409.967; 4106.325;  177.050;    0.000
410.022; 4157.325;  204.050;    0.000
410.077; 4090.325;  175.050;    0.000
410.132; 4073.325;  207.050;    0.000
410.187; 4069.325;  169.050;    0.000
410.242; 4072.325;  186.050;    0.000
410.297; 4110.325;  185.050;    0.000
410.351; 4184.325;  191.050;    0.000
410.406; 4076.325;  215.050;    0.000
410.461; 4104.325;  190.050;    0.000
410.516; 4073.325;  172.050;    0.000
410.571; 4086.325;  190.050;    0.000
410.626; 4199.325;  189.050;    0.000
410.681; 4063.325;  191.050;    0.000
410.736; 4133.325;  166.050;    0.000
410.790; 4070.325;  179.050;    0.000
410.845; 4182.325;  196.050;    0.000
410.900; 4197.325;  168.050;    0.000
410.955; 4057.325;  173.050;    0.000
411.010; 4114.325;  162.050;    0.000
411.064; 4068.325;  205.050;    0.000
411.119; 4142.325;  203.050;    0.000
411.174; 4138.325;  207.050;    0.000
411.229; 4220.325;  218.050;    0.000
411.283; 4080.325;  218.050;    0.000
411.338; 4073.325;  180.050;    0.000
411.393; 4070.325;  191.050;    0.000
411.447; 4180.325;  207.050;    0.000
411.502; 4057.325;  204.050;    0.000
411.557; 3999.325;  208.050;    0.000
411.612; 4150.325;  191.050;    0.000
411.666; 4096.325;  233.050;    0.000
411.721; 4147.325;  193.050;    0.000
411.776; 4188.325;  195.050;    0.000
411.830; 4125.325;  229.050;    0.000
411.885; 4108.325;  181.050;    0.000
411.939; 4085.325;  214.050;    0.000
411.994; 4127.325;  140.050;    0.000
412.049; 4187.325;  205.050;    0.000
412.103; 4130.325;  232.050;    0.000
412.158; 4093.325;  228.050;    0.000
412.212; 4134.325;  204.050;    0.000
412.267; 4183.325;  203.050;    0.000
412.322; 4205.325;  212.050;    0.000
412.376; 4070.325;  195.050;    0.000
412.431; 4194.325;  197.050;    0.000
412.485; 4196.325;  235.050;    0.000
412.540; 4061.325;  197.050;    0.000
412.594; 4168.325;  199.050;    0.000
412.649; 4074.325;  195.050;    0.000
412.703; 4030.325;  214.050;    0.000
412.758; 4043.325;  213.050;    0.000
412.812; 4020.325;  154.050;    0.000
412.866; 4047.325;  159.050;    0.000
412.921; 4014.325;  207.050;    0.000
412.975; 4012.325;  194.050;    0.000
413.030; 4155.325;  214.050;    0.000
413.084; 4113.325;  174.050;    0.000
413.139; 4075.325;  211.050;    0.000
413.193; 4116.325;  223.050;    0.000
413.247; 4121.325;  198.050;    0.000
413.302; 4157.325;  184.050;    0.000
413.356; 4084.325;  194.050;    0.000
413.410; 4051.325;  219.050;    0.000
413.465; 4075.325;  209.050;    0.000
413.519; 3974.325;  178.050;    0.000
413.573; 4086.325;  189.050;    0.000
413.628; 4191.325;  184.050;    0.000
413.682; 4063.325;  189.050;    0.000
413.736; 4069.325;  196.050;    0.000
413.791; 4076.325;  208.050;    0.000
413.845; 4048.325;  206.050;    0.000
413.899; 4145.325;  193.050;    0.000
413.953; 4053.325;  176.050;    0.000
414.008; 4060.325;  163.050;    0.000
414.062; 4151.325;  195.050;    0.000
414.116; 4087.325;  176.050;    0.000
414.170; 4102.325;  218.050;    0.000
414.225; 4082.325;  183.050;    0.000
414.279; 4149.325;  191.050;    0.000
414.333; 4237.325;  215.050;    0.000
414.387; 4133.325;  187.050;    0.000
414.441; 4086.325;  182.050;    0.000
414.496; 4012.325;  205.050;    0.000
414.550; 4102.325;  203.050;    0.000
414.604; 4156.325;  223.050;    0.000
414.658; 4192.325;  159.050;    0.000
414.712; 4112.325;  194.050;    0.000
414.766; 4135.325;  232.050;    0.000
414.820; 4170.325;  235.050;    0.000
414.874; 4111.325;  169.050;    0.000
414.928; 4181.325;  207.050;    0.000
414.982; 4193.325;  174.050;    0.000
415.037; 4029.325;  173.050;    0.000
415.091; 4218.325;  219.050;    0.000
415.145; 4063.325;  174.050;    0.000
415.199; 4082.325;  207.050;    0.000
415.253; 4204.325;  228.050;    0.000
415.307; 4164.325;  182.050;    0.000
415.361; 4168.325;  219.050;    0.000
415.415; 4143.325;  218.050;    0.000
415.469; 4212.325;  233.050;    0.000
415.523; 4097.325;  203.050;    0.000
415.577; 4093.325;  186.050;    0.000
415.631; 4117.325;  215.050;    0.000
415.684; 4095.325;  212.050;    0.000
415.738; 4073.325;  206.050;    0.000
415.792; 4052.325;  219.050;    0.000
415.846; 4134.325;  208.050;    0.000
415.900; 4188.325;  203.050;    0.000
415.954; 4125.325;  237.050;    0.000
416.008; 4028.325;  242.050;    0.000
416.062; 4057.325;  197.050;    0.000
416.116; 3992.325;  189.050;    0.000
416.169; 4029.325;  199.050;    0.000
416.223; 4164.325;  230.050;    0.000
416.277; 4065.325;  226.050;    0.000
416.331; 4060.325;  254.050;    0.000
416.385; 4105.325;  204.050;    0.000
416.439; 3976.325;  201.050;    0.000
416.492; 4133.325;  238.050;    0.000
416.546; 4140.325;  234.050;    0.000
416.600; 4109.325;  244.050;    0.000
416.654; 4126.325;  233.050;    0.000
416.707; 4071.325;  214.050;    0.000
416.761; 4016.325;  214.050;    0.000
416.815; 4083.325;  192.050;    0.000
416.869; 4148.325;  225.050;    0.000
416.922; 4046.325;  214.050;    0.000
416.976; 4039.325;  206.050;    0.000
417.030; 4099.325;  226.050;    0.000
417.083; 4103.325;  207.050;    0.000
417.137; 4039.325;  236.050;    0.000
417.191; 4072.325;  208.050;    0.000
417.244; 3991.325;  260.050;    0.000
417.298; 4063.325;  222.050;    0.000
417.352; 4027.325;  191.050;    0.000
417.405; 4015.325;  229.050;    0.000
417.459; 4127.325;  249.050;    0.000
417.512; 4135.325;  259.050;    0.000
417.566; 4039.325;  220.050;    0.000
417.620; 4039.325;  229.050;    0.000
417.673; 4091.325;  190.050;    0.000
417.727; 4147.325;  204.050;    0.000
417.780; 4083.325;  223.050;    0.000
417.834; 4073.325;  213.050;    0.000
417.887; 4149.325;  238.050;    0.000
417.941; 4131.325;  244.050;    0.000
417.994; 4123.325;  247.050;    0.000
418.048; 4085.325;  225.050;    0.000
418.101; 4124.325;  210.050;    0.000
418.155; 4030.325;  224.050;    0.000
418.208; 4069.325;  229.050;    0.000
418.262; 4139.325;  255.050;    0.000
418.315; 4006.325;  248.050;    0.000
418.369; 4065.325;  212.050;    0.000
418.422; 4018.325;  241.050;    0.000
418.476; 4130.325;  220.050;    0.000
418.529; 4169.325;  257.050;    0.000
418.582; 3994.325;  203.050;    0.000
418.636; 4226.325;  221.050;    0.000
418.689; 4106.325;  202.050;    0.000
418.743; 4074.325;  227.050;    0.000
418.796; 4086.325;  226.050;    0.000
418.849; 3926.325;  199.050;    0.000
418.903; 4118.325;  234.050;    0.000
418.956; 4102.325;  236.050;    0.000
419.009; 4004.325;  305.050;    0.000
419.063; 4132.325;  216.050;    0.000
419.116; 4094.325;  245.050;    0.000
419.169; 4048.325;  208.050;    0.000
419.222; 3990.325;  233.050;    0.000
419.276; 4081.325;  244.050;    0.000
419.329; 4035.325;  197.050;    0.000
419.382; 4026.325;  222.050;    0.000
419.435; 4049.325;  199.050;    0.000
419.489; 4034.325;  226.050;    0.000
419.542; 4098.325;  223.050;    0.000
419.595; 3999.325;  204.050;    0.000
419.648; 4062.325;  234.050;    0.000
419.701; 4018.325;  211.050;    0.000
419.755; 4018.325;  184.050;    0.000
419.808; 3886.325;  223.050;    0.000
419.861; 3985.325;  197.050;    0.000
419.914; 3934.325;  258.050;    0.000
419.967; 3966.325;  205.050;    0.000
420.020; 3934.325;  195.050;    0.000
420.073; 3890.325;  191.050;    0.000
420.127; 4010.325;  256.050;    0.000
420.180; 4024.325;  232.050;    0.000
420.233; 3956.325;  200.050;    0.000
420.286; 4006.325;  207.050;    0.000
420.339; 3962.325;  223.050;    0.000
420.392; 3924.325;  243.050;    0.000
420.445; 3885.325;  195.050;    0.000
420.498; 4001.325;  239.050;    0.000
420.551; 3894.325;  201.050;    0.000
420.604; 3970.325;  245.050;    0.000
420.657; 3899.325;  221.050;    0.000
420.710; 3878.325;  223.050;    0.000
420.763; 4012.325;  241.050;    0.000
420.816; 3830.325;  198.050;    0.000
420.869; 3870.325;  210.050;    0.000
420.922; 3823.325;  206.050;    0.000
420.975; 3894.325;  239.050;    0.000
421.028; 3817.325;  248.050;    0.000
421.081; 3842.325;  236.050;    0.000
421.134; 3894.325;  208.050;    0.000
421.187; 3821.325;  216.050;    0.000
421.239; 3734.325;  199.050;    0.000
421.292; 3934.325;  255.050;    0.000
421.345; 3840.325;  241.050;    0.000
421.398; 3820.325;  221.050;    0.000
421.451; 3806.325;  237.050;    0.000
421.504; 3792.325;  225.050;    0.000
421.557; 3814.325;  213.050;    0.000
421.609; 3757.325;  178.050;    0.000
421.662; 3805.325;  206.050;    0.000
421.715; 3744.325;  212.050;    0.000
421.768; 3745.325;  236.050;    0.000
421.821; 3764.325;  228.050;    0.000
421.873; 3754.325;  200.050;    0.000
421.926; 3756.325;  226.050;    0.000
421.979; 3771.325;  221.050;    0.000
422.032; 3726.325;  219.050;    0.000
422.084; 3901.325;  253.050;    0.000
422.137; 3742.325;  195.050;    0.000
422.190; 3849.325;  192.050;    0.000
422.243; 3795.325;  236.050;    0.000
422.295; 3798.325;  205.050;    0.000
422.348; 3742.325;  198.050;    0.000
422.401; 3806.325;  245.050;    0.000
422.453; 3806.325;  241.050;    0.000
422.506; 3791.325;  255.050;    0.000
422.559; 3852.325;  188.050;    0.000
422.611; 3818.325;  236.050;    0.000
422.664; 3830.325;  218.050;    0.000
422.716; 3820.325;  210.050;    0.000
422.769; 3705.325;  209.050;    0.000
422.822; 3671.325;  213.050;    0.000
422.874; 3760.325;  227.050;    0.000
422.927; 3822.325;  272.050;    0.000
422.979; 3691.325;  204.050;    0.000
423.032; 3780.325;  210.050;    0.000
423.084; 3755.325;  236.050;    0.000
423.137; 3729.325;  223.050;    0.000
423.189; 3818.325;  253.050;    0.000
423.242; 3767.325;  185.050;    0.000
423.294; 3599.325;  232.050;    0.000
423.347; 3705.325;  213.050;    0.000
423.399; 3636.325;  227.050;    0.000
423.452; 3814.325;  236.050;    0.000
423.504; 3753.325;  232.050;    0.000
423.557; 3671.325;  195.050;    0.000
423.609; 3758.325;  238.050;    0.000
423.662; 3655.325;  207.050;    0.000
423.714; 3776.325;  231.050;    0.000
423.766; 3742.325;  211.050;    0.000
423.819; 3703.325;  207.050;    0.000
423.871; 3778.325;  228.050;    0.000
423.923; 3633.325;  223.050;    0.000
423.976; 3735.325;  217.050;    0.000
424.028; 3642.325;  231.050;    0.000
424.081; 3597.325;  219.050;    0.000
424.133; 3662.325;  255.050;    0.000
424.185; 3670.325;  199.050;    0.000
424.238; 3699.325;  238.050;    0.000
424.290; 3672.325;  209.050;    0.000
424.342; 3676.325;  213.050;    0.000
424.394; 3618.325;  215.050;    0.000
424.447; 3720.325;  265.050;    0.000
424.499; 3769.325;  238.050;    0.000
424.551; 3665.325;  256.050;    0.000
424.603; 3555.325;  222.050;    0.000
424.656; 3738.325;  227.050;    0.000
424.708; 3637.325;  250.050;    0.000
424.760; 3626.325;  228.050;    0.000
424.812; 3620.325;  249.050;    0.000
424.864; 3609.325;  222.050;    0.000
424.917; 3618.325;  235.050;    0.000
424.969; 3610.325;  266.050;    0.000
425.021; 3640.325;  233.050;    0.000
425.073; 3581.325;  194.050;    0.000
425.125; 3658.325;  256.050;    0.000
425.177; 3626.325;  225.050;    0.000
425.229; 3718.325;  242.050;    0.000
425.282; 3623.325;  236.050;    0.000
425.334; 3554.325;  250.050;    0.000
425.386; 3652.325;  231.050;    0.000
425.438; 3564.325;  216.050;    0.000
425.490; 3632.325;  240.050;    0.000
425.542; 3563.325;  231.050;    0.000
425.594; 3594.325;  206.050;    0.000
425.646; 3619.325;  201.050;    0.000
425.698; 3521.325;  193.050;    0.000
425.750; 3649.325;  241.050;    0.000
425.802; 3529.325;  199.050;    0.000
425.854; 3542.325;  216.050;    0.000
425.906; 3619.325;  220.050;    0.000
425.958; 3672.325;  200.050;    0.000
426.010; 3554.325;  214.050;    0.000
426.062; 3598.325;  245.050;    0.000
426.114; 3516.325;  241.050;    0.000
426.166; 3475.325;  241.050;    0.000
426.218; 3461.325;  255.050;    0.000
426.270; 3594.325;  228.050;    0.000
426.321; 3444.325;  222.050;    0.000
426.373; 3497.325;  218.050;    0.000
426.425; 3543.325;  258.050;    0.000
426.477; 3502.325;  225.050;    0.000
426.529; 3616.325;  223.050;    0.000
426.581; 3537.325;  198.050;    0.000
426.633; 3484.325;  228.050;    0.000
426.684; 3489.325;  210.050;    0.000
426.736; 3368.325;  208.050;    0.000
426.788; 3461.325;  231.050;    0.000
426.840; 3332.325;  212.050;    0.000
426.892; 3513.325;  221.050;    0.000
426.943; 3488.325;  240.050;    0.000
426.995; 3421.325;  243.050;    0.000
427.047; 3452.325;  231.050;    0.000
427.099; 3455.325;  189.050;    0.000
427.150; 3418.325;  212.050;    0.000
427.202; 3423.325;  219.050;    0.000
427.254; 3322.325;  203.050;    0.000
427.306; 3379.325;  217.050;    0.000
427.357; 3473.325;  232.050;    0.000
427.409; 3440.325;  251.050;    0.000
427.461; 3441.325;  185.050;    0.000
427.512; 3434.325;  239.050;    0.000
427.564; 3455.325;  208.050;    0.000
427.616; 3360.325;  233.050;    0.000
427.667; 3515.325;  223.050;    0.000
427.719; 3328.325;  206.050;    0.000
427.770; 3440.325;  195.050;    0.000
427.822; 3347.325;  223.050;    0.000
427.874; 3303.325;  232.050;    0.000
427.925; 3423.325;  209.050;    0.000
427.977; 3355.325;  208.050;    0.000
428.028; 3351.325;  187.050;    0.000
428.080; 3431.325;  209.050;    0.000
428.131; 3455.325;  237.050;    0.000
428.183; 3327.325;  200.050;    0.000
428.234; 3461.325;  215.050;    0.000
428.286; 3265.325;  229.050;    0.000
428.337; 3345.325;  206.050;    0.000
428.389; 3411.325;  216.050;    0.000
428.440; 3331.325;  287.050;    0.000
428.492; 3392.325;  269.050;    0.000
428.543; 3356.325;  234.050;    0.000
428.595; 3244.325;  214.050;    0.000
428.646; 3365.325;  229.050;    0.000
428.697; 3277.325;  249.050;    0.000
428.749; 3323.325;  250.050;    0.000
428.800; 3327.325;  242.050;    0.000
428.852; 3345.325;  232.050;    0.000
428.903; 3310.325;  196.050;    0.000
428.954; 3282.325;  226.050;    0.000
429.006; 3229.325;  232.050;    0.000
429.057; 3437.325;  188.050;    0.000
429.108; 3274.325;  237.050;    0.000
429.160; 3290.325;  221.050;    0.000
429.211; 3366.325;  222.050;    0.000
429.262; 3234.325;  215.050;    0.000
429.314; 3234.325;  225.050;    0.000
429.365; 3208.325;  220.050;    0.000
429.416; 3280.325;  242.050;    0.000
429.467; 3280.325;  220.050;    0.000
429.519; 3220.325;  217.050;    0.000
429.570; 3224.325;  248.050;    0.000
429.621; 3291.325;  233.050;    0.000
429.672; 3273.325;  220.050;    0.000
429.724; 3181.325;  179.050;    0.000
429.775; 3203.325;  218.050;    0.000
429.826; 3207.325;  197.050;    0.000
429.877; 3189.325;  206.050;    0.000
429.928; 3200.325;  229.050;    0.000
429.980; 3266.325;  207.050;    0.000
430.031; 3223.325;  264.050;    0.000
430.082; 3275.325;  210.050;    0.000
430.133; 3262.325;  218.050;    0.000
430.184; 3217.325;  246.050;    0.000
430.235; 3290.325;  201.050;    0.000
430.286; 3221.325;  207.050;    0.000
430.337; 3249.325;  224.050;    0.000
430.388; 3118.325;  216.050;    0.000
430.439; 3182.325;  210.050;    0.000
430.490; 3140.325;  208.050;    0.000
430.542; 3288.325;  211.050;    0.000
430.593; 3236.325;  203.050;    0.000
430.644; 3178.325;  235.050;    0.000
430.695; 3194.325;  200.050;    0.000
430.746; 3133.325;  215.050;    0.000
430.797; 3203.325;  235.050;    0.000
430.848; 3215.325;  197.050;    0.000
430.898; 3250.325;  209.050;    0.000
430.949; 3240.325;  231.050;    0.000
431.000; 3166.325;  227.050;    0.000
431.051; 3273.325;  225.050;    0.000
431.102; 3131.325;  180.050;    0.000
431.153; 3228.325;  248.050;    0.000
431.204; 3201.325;  185.050;    0.000
431.255; 3134.325;  199.050;    0.000
431.306; 3180.325;  228.050;    0.000
431.357; 3203.325;  237.050;    0.000
431.408; 3289.325;  223.050;    0.000
431.458; 3174.325;  240.050;    0.000
431.509; 3186.325;  207.050;    0.000
431.560; 3217.325;  219.050;    0.000
431.611; 3251.325;  206.050;    0.000
431.662; 3260.325;  253.050;    0.000
431.713; 3028.325;  199.050;    0.000
431.763; 3316.325;  197.050;    0.000
431.814; 3152.325;  205.050;    0.000
431.865; 3207.325;  218.050;    0.000
431.916; 3251.325;  202.050;    0.000
431.966; 3131.325;  203.050;    0.000
432.017; 3245.325;  244.050;    0.000
432.068; 3189.325;  246.050;    0.000
432.118; 3195.325;  212.050;    0.000
432.169; 3241.325;  214.050;    0.000
432.220; 3209.325;  241.050;    0.000
432.271; 3172.325;  237.050;    0.000
432.321; 3094.325;  246.050;    0.000
432.372; 3255.325;  257.050;    0.000
432.423; 3246.325;  198.050;    0.000
432.473; 3144.325;  202.050;    0.000
432.524; 3117.325;  242.050;    0.000
432.574; 3232.325;  202.050;    0.000
432.625; 3191.325;  212.050;    0.000
432.676; 3070.325;  242.050;    0.000
432.726; 3087.325;  268.050;    0.000
432.777; 3136.325;  228.050;    0.000
432.827; 3063.325;  230.050;    0.000
432.878; 3109.325;  221.050;    0.000
432.928; 3082.325;  218.050;    0.000
432.979; 3229.325;  243.050;    0.000
433.029; 3097.325;  217.050;    0.000
433.080; 3149.325;  208.050;    0.000
433.130; 3192.325;  236.050;    0.000
433.181; 3124.325;  282.050;    0.000
433.231; 3114.325;  257.050;    0.000
433.282; 3110.325;  268.050;    0.000
433.332; 3110.325;  241.050;    0.000
433.383; 3165.325;  271.050;    0.000
433.433; 3169.325;  262.050;    0.000
433.484; 3112.325;  266.050;    0.000
433.534; 3152.325;  217.050;    0.000
433.585; 3132.325;  230.050;    0.000
433.635; 3108.325;  245.050;    0.000
433.685; 3076.325;  250.050;    0.000
433.736; 3165.325;  308.050;    0.000
433.786; 3173.325;  242.050;    0.000
433.836; 3177.325;  256.050;    0.000
433.887; 3173.325;  250.050;    0.000
433.937; 3163.325;  250.050;    0.000
433.987; 3212.325;  219.050;    0.000
434.038; 3128.325;  248.050;    0.000
434.088; 3200.325;  231.050;    0.000
434.138; 3162.325;  266.050;    0.000
434.189; 3081.325;  240.050;    0.000
434.239; 3167.325;  245.050;    0.000
434.289; 3095.325;  285.050;    0.000
434.339; 3193.325;  255.050;    0.000
434.389; 3156.325;  242.050;    0.000
434.440; 3272.325;  273.050;    0.000
434.490; 3197.325;  272.050;    0.000
434.540; 3237.325;  264.050;    0.000
434.590; 3212.325;  233.050;    0.000
434.640; 3171.325;  244.050;    0.000
434.691; 3187.325;  226.050;    0.000
434.741; 3090.325;  253.050;    0.000
434.791; 3262.325;  269.050;    0.000
434.841; 3183.325;  252.050;    0.000
434.891; 3235.325;  281.050;    0.000
434.941; 3159.325;  296.050;    0.000
434.991; 3278.325;  264.050;    0.000
435.042; 3248.325;  262.050;    0.000
435.092; 3275.325;  237.050;    0.000
435.142; 3215.325;  232.050;    0.000
435.192; 3185.325;  251.050;    0.000
435.242; 3184.325;  251.050;    0.000
435.292; 3099.325;  246.050;    0.000
435.342; 3053.325;  236.050;    0.000
435.392; 3139.325;  273.050;    0.000
435.442; 3018.325;  273.050;    0.000
435.492; 3113.325;  273.050;    0.000
435.542; 3133.325;  242.050;    0.000
435.592; 3142.325;  213.050;    0.000
435.642; 3103.325;  248.050;    0.000
435.692; 3106.325;  242.050;    0.000
435.742; 3068.325;  222.050;    0.000
435.792; 3000.325;  260.050;    0.000
435.842; 3056.325;  266.050;    0.000
435.891; 3119.325;  227.050;    0.000
435.941; 3142.325;  228.050;    0.000
435.991; 3015.325;  282.050;    0.000
436.041; 3015.325;  231.050;    0.000
436.091; 2999.325;  250.050;    0.000
436.141; 2901.325;  221.050;    0.000
436.191; 2982.325;  223.050;    0.000
436.241; 3011.325;  250.050;    0.000
436.290; 2999.325;  243.050;    0.000
436.340; 2989.325;  236.050;    0.000
436.390; 3006.325;  260.050;    0.000
436.440; 2974.325;  253.050;    0.000
436.490; 3025.325;  236.050;    0.000
436.539; 3031.325;  249.050;    0.000
436.589; 2982.325;  231.050;    0.000
436.639; 2920.325;  237.050;    0.000
436.689; 2986.325;  222.050;    0.000
436.738; 2948.325;  263.050;    0.000
436.788; 2961.325;  230.050;    0.000
436.838; 2952.325;  281.050;    0.000
436.887; 3005.325;  230.050;    0.000
436.937; 2988.325;  250.050;    0.000
436.987; 2977.325;  251.050;    0.000
437.036; 3000.325;  238.050;    0.000
437.086; 2973.325;  234.050;    0.000
437.136; 2990.325;  250.050;    0.000
437.185; 2979.325;  228.050;    0.000
437.235; 2900.325;  309.050;    0.000
437.285; 2959.325;  246.050;    0.000
437.334; 2882.325;  262.050;    0.000
437.384; 2904.325;  228.050;    0.000
437.433; 2937.325;  241.050;    0.000
437.483; 2891.325;  220.050;    0.000
437.532; 2907.325;  252.050;    0.000
437.582; 2906.325;  270.050;    0.000
437.631; 2903.325;  251.050;    0.000
437.681; 2914.325;  284.050;    0.000
437.730; 2987.325;  239.050;    0.000
437.780; 2871.325;  221.050;    0.000
437.829; 2940.325;  254.050;    0.000
437.879; 2791.325;  221.050;    0.000
437.928; 2808.325;  205.050;    0.000
437.978; 2839.325;  223.050;    0.000
438.027; 2855.325;  262.050;    0.000
438.077; 2855.325;  280.050;    0.000
438.126; 2911.325;  254.050;    0.000
438.176; 2875.325;  230.050;    0.000
438.225; 2857.325;  227.050;    0.000
438.274; 2825.325;  264.050;    0.000
438.324; 2895.325;  233.050;    0.000
438.373; 2823.325;  238.050;    0.000
438.422; 2811.325;  260.050;    0.000
438.472; 2842.325;  223.050;    0.000
438.521; 2780.325;  213.050;    0.000
438.570; 2891.325;  236.050;    0.000
438.620; 2841.325;  282.050;    0.000
438.669; 2761.325;  209.050;    0.000
438.718; 2774.325;  245.050;    0.000
438.768; 2871.325;  238.050;    0.000
438.817; 2783.325;  259.050;    0.000
438.866; 2790.325;  232.050;    0.000
438.915; 2836.325;  288.050;    0.000
438.965; 2874.325;  228.050;    0.000
439.014; 2773.325;  246.050;    0.000
439.063; 2737.325;  287.050;    0.000
439.112; 2794.325;  217.050;    0.000
439.162; 2833.325;  275.050;    0.000
439.211; 2858.325;  287.050;    0.000
439.260; 2846.325;  238.050;    0.000
439.309; 2796.325;  225.050;    0.000
439.358; 2896.325;  248.050;    0.000
439.407; 2838.325;  237.050;    0.000
439.456; 2776.325;  223.050;    0.000
439.506; 2840.325;  266.050;    0.000
439.555; 2823.325;  260.050;    0.000
439.604; 2853.325;  233.050;    0.000
439.653; 2930.325;  242.050;    0.000
439.702; 2853.325;  255.050;    0.000
439.751; 2755.325;  202.050;    0.000
439.800; 2855.325;  247.050;    0.000
439.849; 2852.325;  250.050;    0.000
439.898; 2892.325;  216.050;    0.000
439.947; 2878.325;  231.050;    0.000
439.996; 2853.325;  272.050;    0.000
440.045; 2831.325;  217.050;    0.000
440.094; 2785.325;  220.050;    0.000
440.143; 2831.325;  245.050;    0.000
440.192; 2898.325;  267.050;    0.000
440.241; 2890.325;  263.050;    0.000
440.290; 2817.325;  246.050;    0.000
440.339; 2830.325;  225.050;    0.000
440.388; 2863.325;  256.050;    0.000
440.437; 2764.325;  253.050;    0.000
440.486; 2902.325;  249.050;    0.000
440.535; 2890.325;  232.050;    0.000
440.583; 2818.325;  220.050;    0.000
440.632; 2791.325;  239.050;    0.000
440.681; 2863.325;  236.050;    0.000
440.730; 2908.325;  282.050;    0.000
440.779; 2884.325;  245.050;    0.000
440.828; 2920.325;  213.050;    0.000
440.876; 2887.325;  231.050;    0.000
440.925; 2851.325;  271.050;    0.000
440.974; 2905.325;  240.050;    0.000
441.023; 2807.325;  214.050;    0.000
441.072; 2847.325;  236.050;    0.000
441.120; 2881.325;  271.050;    0.000
441.169; 2953.325;  281.050;    0.000
441.218; 2772.325;  255.050;    0.000
441.267; 2959.325;  272.050;    0.000
441.315; 2969.325;  229.050;    0.000
441.364; 2908.325;  241.050;    0.000
441.413; 2938.325;  224.050;    0.000
441.461; 2899.325;  241.050;    0.000
441.510; 2971.325;  289.050;    0.000
441.559; 3014.325;  222.050;    0.000
441.607; 3019.325;  242.050;    0.000
441.656; 2928.325;  255.050;    0.000
441.705; 2911.325;  260.050;    0.000
441.753; 3083.325;  290.050;    0.000
441.802; 2956.325;  264.050;    0.000
441.850; 2865.325;  224.050;    0.000
441.899; 2961.325;  275.050;    0.000
441.948; 2929.325;  227.050;    0.000
441.996; 2909.325;  216.050;    0.000
442.045; 2931.325;  271.050;    0.000
442.093; 2946.325;  227.050;    0.000
442.142; 2886.325;  273.050;    0.000
442.190; 2914.325;  257.050;    0.000
442.239; 2948.325;  269.050;    0.000
442.287; 2929.325;  257.050;    0.000
442.336; 2920.325;  237.050;    0.000
442.384; 2850.325;  214.050;    0.000
442.433; 2954.325;  272.050;    0.000
442.481; 2943.325;  258.050;    0.000
442.529; 2904.325;  242.050;    0.000
442.578; 2925.325;  278.050;    0.000
442.626; 2942.325;  264.050;    0.000
442.675; 2890.325;  293.050;    0.000
442.723; 2885.325;  244.050;    0.000
442.771; 2987.325;  232.050;    0.000
442.820; 2958.325;  266.050;    0.000
442.868; 2890.325;  253.050;    0.000
442.917; 2948.325;  250.050;    0.000
442.965; 2924.325;  279.050;    0.000
443.013; 2919.325;  253.050;    0.000
443.062; 2950.325;  282.050;    0.000
443.110; 2876.325;  258.050;    0.000
443.158; 2929.325;  246.050;    0.000
443.206; 2881.325;  255.050;    0.000
443.255; 2987.325;  296.050;    0.000
443.303; 2980.325;  272.050;    0.000
443.351; 2897.325;  270.050;    0.000
443.399; 2968.325;  258.050;    0.000
443.448; 2956.325;  265.050;    0.000
443.496; 2909.325;  219.050;    0.000
443.544; 2893.325;  205.050;    0.000
443.592; 2944.325;  266.050;    0.000
443.640; 2977.325;  260.050;    0.000
443.689; 2923.325;  232.050;    0.000
443.737; 2992.325;  281.050;    0.000
443.785; 2954.325;  248.050;    0.000
443.833; 3043.325;  286.050;    0.000
443.881; 2970.325;  225.050;    0.000
443.929; 2977.325;  255.050;    0.000
443.977; 3045.325;  248.050;    0.000
444.025; 2876.325;  255.050;    0.000
444.074; 2975.325;  266.050;    0.000
444.122; 3028.325;  266.050;    0.000
444.170; 3050.325;  207.050;    0.000
444.218; 3028.325;  253.050;    0.000
444.266; 3069.325;  263.050;    0.000
444.314; 3121.325;  272.050;    0.000
444.362; 3075.325;  272.050;    0.000
444.410; 3162.325;  255.050;    0.000
444.458; 3181.325;  288.050;    0.000
444.506; 3038.325;  263.050;    0.000
444.554; 3062.325;  243.050;    0.000
444.602; 3099.325;  285.050;    0.000
444.650; 3118.325;  273.050;    0.000
444.698; 3158.325;  221.050;    0.000
444.746; 3132.325;  243.050;    0.000
444.793; 3010.325;  217.050;    0.000
444.841; 3197.325;  262.050;    0.000
444.889; 3138.325;  264.050;    0.000
444.937; 3144.325;  226.050;    0.000
444.985; 3133.325;  257.050;    0.000
445.033; 3136.325;  264.050;    0.000
445.081; 3084.325;  264.050;    0.000
445.129; 3100.325;  187.050;    0.000
445.176; 3019.325;  212.050;    0.000
445.224; 2996.325;  198.050;    0.000
445.272; 3061.325;  265.050;    0.000
445.320; 3119.325;  239.050;    0.000
445.368; 3029.325;  245.050;    0.000
445.415; 2997.325;  215.050;    0.000
445.463; 3053.325;  202.050;    0.000
445.511; 2982.325;  234.050;    0.000
445.559; 3095.325;  269.050;    0.000
445.606; 3054.325;  214.050;    0.000
445.654; 3032.325;  227.050;    0.000
445.702; 3006.325;  276.050;    0.000
445.749; 3018.325;  256.050;    0.000
445.797; 3085.325;  236.050;    0.000
445.845; 2974.325;  230.050;    0.000
445.892; 2989.325;  233.050;    0.000
445.940; 3048.325;  257.050;    0.000
445.988; 3072.325;  253.050;    0.000
446.035; 3086.325;  265.050;    0.000
446.083; 3072.325;  254.050;    0.000
446.130; 2986.325;  228.050;    0.000
446.178; 3067.325;  256.050;    0.000
446.226; 3065.325;  238.050;    0.000
446.273; 3026.325;  228.050;    0.000
446.321; 3015.325;  220.050;    0.000
446.368; 3034.325;  249.050;    0.000
446.416; 3051.325;  221.050;    0.000
446.463; 3142.325;  232.050;    0.000
446.511; 3080.325;  243.050;    0.000
446.558; 3105.325;  217.050;    0.000
446.606; 3104.325;  256.050;    0.000
446.653; 3089.325;  238.050;    0.000
446.701; 3080.325;  259.050;    0.000
446.748; 3107.325;  227.050;    0.000
446.796; 3178.325;  236.050;    0.000
446.843; 3099.325;  241.050;    0.000
446.891; 3234.325;  292.050;    0.000
446.938; 3209.325;  219.050;    0.000
446.985; 3075.325;  255.050;    0.000
447.033; 3116.325;  237.050;    0.000
447.080; 3221.325;  278.050;    0.000
447.128; 3222.325;  237.050;    0.000
447.175; 3156.325;  247.050;    0.000
447.222; 3159.325;  235.050;    0.000
447.270; 3319.325;  274.050;    0.000
447.317; 3222.325;  222.050;    0.000
447.364; 3242.325;  230.050;    0.000
447.411; 3237.325;  297.050;    0.000
447.459; 3315.325;  243.050;    0.000
447.506; 3363.325;  202.050;    0.000
447.553; 3372.325;  232.050;    0.000
447.601; 3408.325;  262.050;    0.000
447.648; 3376.325;  254.050;    0.000
447.695; 3391.325;  287.050;    0.000
447.742; 3491.325;  232.050;    0.000
447.789; 3409.325;  257.050;    0.000
447.837; 3513.325;  260.050;    0.000
447.884; 3529.325;  272.050;    0.000
447.931; 3567.325;  241.050;    0.000
447.978; 3649.325;  241.050;    0.000
448.025; 3654.325;  264.050;    0.000
448.072; 3640.325;  279.050;    0.000
448.120; 3494.325;  263.050;    0.000
448.167; 3579.325;  284.050;    0.000
448.214; 3562.325;  252.050;    0.000
448.261; 3520.325;  247.050;    0.000
448.308; 3471.325;  249.050;    0.000
448.355; 3492.325;  263.050;    0.000
448.402; 3379.325;  251.050;    0.000
448.449; 3456.325;  257.050;    0.000
448.496; 3467.325;  243.050;    0.000
448.543; 3291.325;  274.050;    0.000
448.590; 3239.325;  299.050;    0.000
448.637; 3233.325;  259.050;    0.000
448.684; 3189.325;  266.050;    0.000
448.731; 3133.325;  261.050;    0.000
448.778; 3161.325;  292.050;    0.000
448.825; 3135.325;  253.050;    0.000
448.872; 3156.325;  253.050;    0.000
448.919; 3192.325;  218.050;    0.000
448.966; 3140.325;  254.050;    0.000
449.013; 3086.325;  263.050;    0.000
449.060; 3129.325;  282.050;    0.000
449.107; 2953.325;  244.050;    0.000
449.154; 3033.325;  236.050;    0.000
449.200; 3059.325;  226.050;    0.000
449.247; 3012.325;  273.050;    0.000
449.294; 2936.325;  270.050;    0.000
449.341; 3010.325;  283.050;    0.000
449.388; 3020.325;  261.050;    0.000
449.435; 3017.325;  254.050;    0.000
449.481; 3009.325;  318.050;    0.000
449.528; 2969.325;  274.050;    0.000
449.575; 2938.325;  251.050;    0.000
449.622; 3009.325;  276.050;    0.000
449.668; 2936.325;  242.050;    0.000
449.715; 2940.325;  286.050;    0.000
449.762; 2868.325;  268.050;    0.000
449.809; 2898.325;  285.050;    0.000
449.855; 2928.325;  277.050;    0.000
449.902; 2867.325;  246.050;    0.000
449.949; 2931.325;  268.050;    0.000
449.995; 2853.325;  289.050;    0.000
450.042; 2860.325;  256.050;    0.000
450.089; 2927.325;  290.050;    0.000
450.135; 2919.325;  300.050;    0.000
450.182; 2893.325;  317.050;    0.000
450.229; 2844.325;  282.050;    0.000
450.275; 2911.325;  307.050;    0.000
450.322; 2803.325;  260.050;    0.000
450.368; 2831.325;  315.050;    0.000
450.415; 2818.325;  306.050;    0.000
450.462; 2783.325;  314.050;    0.000
450.508; 2825.325;  303.050;    0.000
450.555; 2799.325;  281.050;    0.000
450.601; 2905.325;  291.050;    0.000
450.648; 2870.325;  288.050;    0.000
450.694; 2811.325;  290.050;    0.000
450.741; 2860.325;  303.050;    0.000
450.787; 2911.325;  298.050;    0.000
450.834; 2848.325;  265.050;    0.000
450.880; 2802.325;  273.050;    0.000
450.927; 2857.325;  312.050;    0.000
450.973; 2783.325;  303.050;    0.000
451.019; 2723.325;  222.050;    0.000
451.066; 2741.325;  284.050;    0.000
451.112; 2750.325;  296.050;    0.000
451.159; 2740.325;  299.050;    0.000
451.205; 2771.325;  311.050;    0.000
451.251; 2881.325;  306.050;    0.000
451.298; 2770.325;  281.050;    0.000
451.344; 2752.325;  311.050;    0.000
451.390; 2777.325;  331.050;    0.000
451.437; 2827.325;  303.050;    0.000
451.483; 2846.325;  284.050;    0.000
451.529; 2840.325;  310.050;    0.000
451.576; 2747.325;  301.050;    0.000
451.622; 2808.325;  275.050;    0.000
451.668; 2857.325;  269.050;    0.000
451.714; 2750.325;  277.050;    0.000
451.761; 2835.325;  298.050;    0.000
451.807; 2743.325;  316.050;    0.000
451.853; 2705.325;  301.050;    0.000
451.899; 2732.325;  292.050;    0.000
451.945; 2820.325;  324.050;    0.000
451.992; 2737.325;  292.050;    0.000
452.038; 2659.325;  261.050;    0.000
452.084; 2778.325;  286.050;    0.000
452.130; 2739.325;  301.050;    0.000
452.176; 2765.325;  287.050;    0.000
452.222; 2696.325;  265.050;    0.000
452.268; 2709.325;  268.050;    0.000
452.315; 2700.325;  272.050;    0.000
452.361; 2669.325;  258.050;    0.000
452.407; 2698.325;  279.050;    0.000
452.453; 2739.325;  252.050;    0.000
452.499; 2716.325;  305.050;    0.000
452.545; 2687.325;  263.050;    0.000
452.591; 2818.325;  284.050;    0.000
452.637; 2728.325;  289.050;    0.000
452.683; 2655.325;  249.050;    0.000
452.729; 2727.325;  290.050;    0.000
452.775; 2645.325;  315.050;    0.000
452.821; 2680.325;  271.050;    0.000
452.867; 2669.325;  258.050;    0.000
452.913; 2713.325;  256.050;    0.000
452.959; 2633.325;  266.050;    0.000
453.005; 2642.325;  299.050;    0.000
453.051; 2729.325;  299.050;    0.000
453.097; 2736.325;  268.050;    0.000
453.142; 2612.325;  251.050;    0.000
453.188; 2700.325;  284.050;    0.000
453.234; 2668.325;  285.050;    0.000
453.280; 2660.325;  263.050;    0.000
453.326; 2711.325;  273.050;    0.000
453.372; 2635.325;  253.050;    0.000
453.418; 2697.325;  269.050;    0.000
453.463; 2613.325;  250.050;    0.000
453.509; 2651.325;  289.050;    0.000
453.555; 2583.325;  262.050;    0.000
453.601; 2611.325;  274.050;    0.000
453.647; 2686.325;  306.050;    0.000
453.692; 2630.325;  264.050;    0.000
453.738; 2587.325;  312.050;    0.000
453.784; 2539.325;  300.050;    0.000
453.829; 2645.325;  284.050;    0.000
453.875; 2612.325;  270.050;    0.000
453.921; 2678.325;  237.050;    0.000
453.967; 2547.325;  263.050;    0.000
454.012; 2733.325;  295.050;    0.000
454.058; 2650.325;  293.050;    0.000
454.104; 2643.325;  264.050;    0.000
454.149; 2764.325;  282.050;    0.000
454.195; 2631.325;  277.050;    0.000
454.240; 2606.325;  307.050;    0.000
454.286; 2654.325;  282.050;    0.000
454.332; 2581.325;  291.050;    0.000
454.377; 2749.325;  302.050;    0.000
454.423; 2583.325;  276.050;    0.000
454.468; 2596.325;  281.050;    0.000
454.514; 2550.325;  290.050;    0.000
454.559; 2664.325;  289.050;    0.000
454.605; 2628.325;  258.050;    0.000
454.650; 2675.325;  281.050;    0.000
454.696; 2579.325;  308.050;    0.000
454.741; 2678.325;  288.050;    0.000
454.787; 2655.325;  284.050;    0.000
454.832; 2657.325;  306.050;    0.000
454.878; 2645.325;  288.050;    0.000
454.923; 2631.325;  287.050;    0.000
454.969; 2560.325;  325.050;    0.000
455.014; 2651.325;  323.050;    0.000
455.060; 2674.325;  290.050;    0.000
455.105; 2638.325;  285.050;    0.000
455.150; 2699.325;  303.050;    0.000
455.196; 2627.325;  282.050;    0.000
455.241; 2671.325;  281.050;    0.000
455.286; 2652.325;  290.050;    0.000
455.332; 2624.325;  280.050;    0.000
455.377; 2557.325;  243.050;    0.000
455.422; 2615.325;  308.050;    0.000
455.468; 2563.325;  308.050;    0.000
455.513; 2605.325;  290.050;    0.000
455.558; 2641.325;  211.050;    0.000
455.604; 2590.325;  289.050;    0.000
455.649; 2659.325;  297.050;    0.000
455.694; 2653.325;  287.050;    0.000
455.739; 2636.325;  296.050;    0.000
455.785; 2678.325;  315.050;    0.000
455.830; 2624.325;  328.050;    0.000
455.875; 2625.325;  310.050;    0.000
455.920; 2562.325;  261.050;    0.000
455.965; 2675.325;  277.050;    0.000
456.010; 2600.325;  317.050;    0.000
456.056; 2675.325;  299.050;    0.000
456.101; 2552.325;  262.050;    0.000
456.146; 2710.325;  318.050;    0.000
456.191; 2667.325;  274.050;    0.000
456.236; 2531.325;  274.050;    0.000
456.281; 2601.325;  275.050;    0.000
456.326; 2525.325;  256.050;    0.000
456.371; 2640.325;  260.050;    0.000
456.416; 2673.325;  304.050;    0.000
456.461; 2597.325;  278.050;    0.000
456.507; 2598.325;  299.050;    0.000
456.552; 2628.325;  305.050;    0.000
456.597; 2623.325;  271.050;    0.000
456.642; 2588.325;  273.050;    0.000
456.687; 2626.325;  290.050;    0.000
456.732; 2696.325;  327.050;    0.000
456.776; 2619.325;  284.050;    0.000
456.821; 2667.325;  321.050;    0.000
456.866; 2599.325;  272.050;    0.000
456.911; 2570.325;  232.050;    0.000
456.956; 2589.325;  263.050;    0.000
457.001; 2627.325;  277.050;    0.000
457.046; 2663.325;  284.050;    0.000
457.091; 2593.325;  269.050;    0.000
457.136; 2644.325;  269.050;    0.000
457.181; 2662.325;  275.050;    0.000
457.225; 2645.325;  310.050;    0.000
457.270; 2605.325;  295.050;    0.000
457.315; 2620.325;  284.050;    0.000
457.360; 2773.325;  264.050;    0.000
457.405; 2642.325;  273.050;    0.000
457.450; 2658.325;  284.050;    0.000
457.494; 2632.325;  273.050;    0.000
457.539; 2671.325;  287.050;    0.000
457.584; 2572.325;  279.050;    0.000
457.629; 2608.325;  288.050;    0.000
457.673; 2664.325;  297.050;    0.000
457.718; 2713.325;  270.050;    0.000
457.763; 2737.325;  295.050;    0.000
457.807; 2659.325;  321.050;    0.000
457.852; 2657.325;  293.050;    0.000
457.897; 2695.325;  282.050;    0.000
457.941; 2652.325;  320.050;    0.000
457.986; 2666.325;  295.050;    0.000
458.031; 2671.325;  314.050;    0.000
458.075; 2670.325;  280.050;    0.000
458.120; 2745.325;  314.050;    0.000
458.165; 2675.325;  289.050;    0.000
458.209; 2802.325;  289.050;    0.000
458.254; 2655.325;  272.050;    0.000
458.298; 2732.325;  305.050;    0.000
458.343; 2602.325;  284.050;    0.000
458.387; 2781.325;  340.050;    0.000
458.432; 2720.325;  306.050;    0.000
458.476; 2691.325;  311.050;    0.000
458.521; 2735.325;  304.050;    0.000
458.565; 2804.325;  329.050;    0.000
458.610; 2766.325;  287.050;    0.000
458.654; 2729.325;  300.050;    0.000
458.699; 2799.325;  295.050;    0.000
458.743; 2791.325;  269.050;    0.000
458.788; 2865.325;  294.050;    0.000
458.832; 2894.325;  301.050;    0.000
458.877; 2776.325;  303.050;    0.000
458.921; 2805.325;  259.050;    0.000
458.965; 2861.325;  308.050;    0.000
459.010; 2802.325;  330.050;    0.000
459.054; 2940.325;  298.050;    0.000
459.099; 2853.325;  303.050;    0.000
459.143; 2842.325;  333.050;    0.000
459.187; 2818.325;  291.050;    0.000
459.231; 2980.325;  316.050;    0.000
459.276; 2937.325;  294.050;    0.000
459.320; 2958.325;  291.050;    0.000
459.364; 2952.325;  318.050;    0.000
459.409; 2866.325;  325.050;    0.000
459.453; 2815.325;  293.050;    0.000
459.497; 2884.325;  354.050;    0.000
459.541; 2838.325;  313.050;    0.000
459.586; 2879.325;  282.050;    0.000
459.630; 2912.325;  286.050;    0.000
459.674; 2861.325;  292.050;    0.000
459.718; 2891.325;  280.050;    0.000
459.762; 2938.325;  304.050;    0.000
459.807; 2979.325;  352.050;    0.000
459.851; 3017.325;  300.050;    0.000
459.895; 2918.325;  311.050;    0.000
459.939; 2865.325;  303.050;    0.000
459.983; 2840.325;  299.050;    0.000
460.027; 2971.325;  307.050;    0.000
460.071; 2890.325;  313.050;    0.000
460.115; 3026.325;  325.050;    0.000
460.159; 3004.325;  331.050;    0.000
460.204; 3067.325;  301.050;    0.000
460.248; 2949.325;  329.050;    0.000
460.292; 2994.325;  310.050;    0.000
460.336; 3046.325;  304.050;    0.000
460.380; 3001.325;  313.050;    0.000
460.424; 3031.325;  300.050;    0.000
460.468; 3014.325;  338.050;    0.000
460.512; 3054.325;  310.050;    0.000
460.556; 3006.325;  337.050;    0.000
460.599; 3038.325;  310.050;    0.000
460.643; 3021.325;  303.050;    0.000
460.687; 3062.325;  316.050;    0.000
460.731; 3028.325;  292.050;    0.000
460.775; 3060.325;  294.050;    0.000
460.819; 3044.325;  310.050;    0.000
460.863; 3110.325;  349.050;    0.000
460.907; 2940.325;  265.050;    0.000
460.951; 3047.325;  325.050;    0.000
460.995; 3019.325;  338.050;    0.000
461.038; 3025.325;  304.050;    0.000
461.082; 3040.325;  312.050;    0.000
461.126; 3073.325;  358.050;    0.000
461.170; 2999.325;  306.050;    0.000
461.214; 3025.325;  330.050;    0.000
461.257; 3064.325;  311.050;    0.000
461.301; 3119.325;  303.050;    0.000
461.345; 3078.325;  310.050;    0.000
461.389; 3099.325;  296.050;    0.000
461.432; 3014.325;  304.050;    0.000
461.476; 3081.325;  305.050;    0.000
461.520; 3059.325;  319.050;    0.000
461.563; 2990.325;  294.050;    0.000
461.607; 3105.325;  295.050;    0.000
461.651; 3026.325;  335.050;    0.000
461.694; 3040.325;  276.050;    0.000
461.738; 3079.325;  327.050;    0.000
461.782; 3000.325;  288.050;    0.000
461.825; 3140.325;  319.050;    0.000
461.869; 3074.325;  305.050;    0.000
461.913; 3097.325;  281.050;    0.000
461.956; 3063.325;  281.050;    0.000
462.000; 3139.325;  339.050;    0.000
462.043; 3133.325;  347.050;    0.000
462.087; 3084.325;  314.050;    0.000
462.130; 3124.325;  332.050;    0.000
462.174; 3211.325;  332.050;    0.000
462.217; 3175.325;  299.050;    0.000
462.261; 3190.325;  323.050;    0.000
462.304; 3137.325;  286.050;    0.000
462.348; 3133.325;  305.050;    0.000
462.391; 3207.325;  293.050;    0.000
462.435; 3193.325;  365.050;    0.000
462.478; 3150.325;  329.050;    0.000
462.522; 3226.325;  316.050;    0.000
462.565; 3294.325;  328.050;    0.000
462.608; 3307.325;  350.050;    0.000
462.652; 3316.325;  328.050;    0.000
462.695; 3312.325;  358.050;    0.000
462.739; 3312.325;  317.050;    0.000
462.782; 3318.325;  329.050;    0.000
462.825; 3347.325;  368.050;    0.000
462.869; 3367.325;  343.050;    0.000
462.912; 3389.325;  404.050;    0.000
462.955; 3399.325;  328.050;    0.000
462.998; 3346.325;  340.050;    0.000
463.042; 3413.325;  361.050;    0.000
463.085; 3369.325;  337.050;    0.000
463.128; 3368.325;  373.050;    0.000
463.172; 3369.325;  347.050;    0.000
463.215;  392.325;  305.050;    0.000
463.258;  328.325;  324.050;    0.000
463.301;  296.325;  296.050;    0.000
463.344;  327.325;  332.050;    0.000
463.388;  334.325;  309.050;    0.000
463.431;  277.325;  298.050;    0.000
463.474;  331.325;  351.050;    0.000
463.517;  313.325;  319.050;    0.000
463.560;  319.325;  325.050;    0.000
463.603;  328.325;  330.050;    0.000
463.646;  324.325;  332.050;    0.000
463.690;  301.325;  325.050;    0.000
463.733;  356.325;  323.050;    0.000
463.776;  313.325;  276.050;    0.000
463.819;  325.325;  320.050;    0.000
463.862;  325.325;  275.050;    0.000

