
Integration time [ms]:   0.300
Averaging Nr. [scans]: 1
Smoothing Nr. [pixels]: 0
Data measured with spectrometer [name]: UV1
Wave   ;Sample   ;Dark     ;Reference
[nm]   ;[counts] ;[counts] ;[counts] 

236.381;  155.775;  160.350;    0.000
236.451;  167.775;  198.350;    0.000
236.520;  160.775;  179.350;    0.000
236.590;  215.775;  205.350;    0.000
236.660;  203.775;  199.350;    0.000
236.730;  201.775;  178.350;    0.000
236.799;  199.775;  201.350;    0.000
236.869;  190.775;  197.350;    0.000
236.939;  193.775;  180.350;    0.000
237.009;  203.775;  165.350;    0.000
237.078;  178.775;  191.350;    0.000
237.148;  175.775;  146.350;    0.000
237.218;  213.775;  142.350;    0.000
237.287;  198.775;  190.350;    0.000
237.357;  205.775;  182.350;    0.000
237.427;  191.775;  139.350;    0.000
237.496; 1117.775;  221.350;    0.000
237.566; 1046.775;  183.350;    0.000
237.636; 1065.775;  157.350;    0.000
237.705; 1058.775;  189.350;    0.000
237.775; 1043.775;  169.350;    0.000
237.845; 1082.775;  156.350;    0.000
237.914; 1065.775;  185.350;    0.000
237.984; 1110.775;  194.350;    0.000
238.054; 1049.775;  138.350;    0.000
238.123; 1023.775;  166.350;    0.000
238.193; 1051.775;  174.350;    0.000
238.263; 1046.775;  158.350;    0.000
238.332; 1063.775;  167.350;    0.000
238.402; 1026.775;  173.350;    0.000
238.471;  995.775;  153.350;    0.000
238.541; 1043.775;  167.350;    0.000
238.611; 1087.775;  165.350;    0.000
238.680; 1049.775;  157.350;    0.000
238.750;  993.775;  152.350;    0.000
238.819; 1055.775;  190.350;    0.000
238.889; 1025.775;  151.350;    0.000
238.958; 1005.775;  166.350;    0.000
239.028; 1064.775;  180.350;    0.000
239.097; 1024.775;  170.350;    0.000
239.167; 1037.775;  177.350;    0.000
239.237; 1064.775;  195.350;    0.000
239.306; 1054.775;  145.350;    0.000
239.376; 1100.775;  158.350;    0.000
239.445; 1100.775;  187.350;    0.000
239.515; 1038.775;  160.350;    0.000
239.584; 1048.775;  173.350;    0.000
239.654;  997.775;  184.350;    0.000
239.723; 1090.775;  195.350;    0.000
239.793; 1044.775;  183.350;    0.000
239.862; 1067.775;  190.350;    0.000
239.932;  994.775;  168.350;    0.000
240.001; 1050.775;  164.350;    0.000
240.070; 1063.775;  183.350;    0.000
240.140; 1078.775;  175.350;    0.000
240.209; 1069.775;  135.350;    0.000
240.279; 1001.775;  176.350;    0.000
240.348;  999.775;  184.350;    0.000
240.418;  987.775;  157.350;    0.000
240.487; 1015.775;  189.350;    0.000
240.556; 1052.775;  157.350;    0.000
240.626; 1042.775;  174.350;    0.000
240.695; 1027.775;  180.350;    0.000
240.765;  995.775;  152.350;    0.000
240.834; 1017.775;  136.350;    0.000
240.903; 1070.775;  196.350;    0.000
240.973;  963.775;  183.350;    0.000
241.042;  995.775;  150.350;    0.000
241.112;  999.775;  168.350;    0.000
241.181; 1026.775;  152.350;    0.000
241.250; 1003.775;  132.350;    0.000
241.320; 1035.775;  209.350;    0.000
241.389; 1005.775;  169.350;    0.000
241.458;  999.775;  204.350;    0.000
241.528; 1033.775;  176.350;    0.000
241.597; 1043.775;  170.350;    0.000
241.666; 1015.775;  168.350;    0.000
241.736; 1032.775;  172.350;    0.000
241.805;  989.775;  160.350;    0.000
241.874; 1002.775;  176.350;    0.000
241.943;  981.775;  165.350;    0.000
242.013; 1033.775;  206.350;    0.000
242.082; 1060.775;  162.350;    0.000
242.151; 1046.775;  180.350;    0.000
242.221;  963.775;  154.350;    0.000
242.290;  988.775;  122.350;    0.000
242.359;  980.775;  121.350;    0.000
242.428;  998.775;  187.350;    0.000
242.498; 1031.775;  140.350;    0.000
242.567;  961.775;  173.350;    0.000
242.636;  986.775;  155.350;    0.000
242.705;  914.775;  108.350;    0.000
242.774;  999.775;  145.350;    0.000
242.844;  999.775;  162.350;    0.000
242.913; 1000.775;  178.350;    0.000
242.982;  963.775;  163.350;    0.000
243.051;  945.775;  138.350;    0.000
243.120;  965.775;  172.350;    0.000
243.190;  971.775;  155.350;    0.000
243.259;  978.775;  159.350;    0.000
243.328;  973.775;  173.350;    0.000
243.397;  938.775;  175.350;    0.000
243.466;  966.775;  170.350;    0.000
243.535;  979.775;  161.350;    0.000
243.605;  945.775;  149.350;    0.000
243.674; 1020.775;  162.350;    0.000
243.743; 1009.775;  175.350;    0.000
243.812; 1043.775;  159.350;    0.000
243.881;  937.775;  158.350;    0.000
243.950;  958.775;  154.350;    0.000
244.019;  972.775;  185.350;    0.000
244.088;  958.775;  175.350;    0.000
244.158; 1003.775;  167.350;    0.000
244.227;  942.775;  159.350;    0.000
244.296;  985.775;  143.350;    0.000
244.365;  986.775;  182.350;    0.000
244.434;  961.775;  117.350;    0.000
244.503;  943.775;  109.350;    0.000
244.572;  933.775;  147.350;    0.000
244.641;  930.775;  129.350;    0.000
244.710;  963.775;  159.350;    0.000
244.779;  988.775;  166.350;    0.000
244.848;  911.775;  122.350;    0.000
244.917;  914.775;  167.350;    0.000
244.986;  983.775;  158.350;    0.000
245.055;  933.775;  175.350;    0.000
245.124;  928.775;  153.350;    0.000
245.193;  909.775;  155.350;    0.000
245.262;  945.775;  137.350;    0.000
245.331;  945.775;  145.350;    0.000
245.400;  830.775;  107.350;    0.000
245.469;  888.775;  162.350;    0.000
245.538;  812.775;  165.350;    0.000
245.607;  924.775;  178.350;    0.000
245.676;  902.775;  166.350;    0.000
245.745;  881.775;  169.350;    0.000
245.814;  856.775;  155.350;    0.000
245.883;  846.775;  186.350;    0.000
245.952;  872.775;  165.350;    0.000
246.021;  893.775;  169.350;    0.000
246.090;  832.775;  170.350;    0.000
246.159;  848.775;  155.350;    0.000
246.227;  851.775;  161.350;    0.000
246.296;  838.775;  142.350;    0.000
246.365;  826.775;  160.350;    0.000
246.434;  926.775;  199.350;    0.000
246.503;  836.775;  155.350;    0.000
246.572;  881.775;  206.350;    0.000
246.641;  825.775;  177.350;    0.000
246.710;  877.775;  178.350;    0.000
246.779;  879.775;  193.350;    0.000
246.847;  834.775;  147.350;    0.000
246.916;  804.775;  131.350;    0.000
246.985;  794.775;  168.350;    0.000
247.054;  818.775;  143.350;    0.000
247.123;  817.775;  130.350;    0.000
247.192;  801.775;  175.350;    0.000
247.260;  826.775;  171.350;    0.000
247.329;  839.775;  162.350;    0.000
247.398;  807.775;  163.350;    0.000
247.467;  814.775;  155.350;    0.000
247.536;  822.775;  149.350;    0.000
247.604;  853.775;  191.350;    0.000
247.673;  827.775;  193.350;    0.000
247.742;  813.775;  159.350;    0.000
247.811;  853.775;  167.350;    0.000
247.879;  789.775;  176.350;    0.000
247.948;  874.775;  157.350;    0.000
248.017;  805.775;  150.350;    0.000
248.086;  820.775;  153.350;    0.000
248.154;  788.775;  157.350;    0.000
248.223;  814.775;  198.350;    0.000
248.292;  881.775;  188.350;    0.000
248.361;  860.775;  157.350;    0.000
248.429;  778.775;  138.350;    0.000
248.498;  846.775;  166.350;    0.000
248.567;  859.775;  179.350;    0.000
248.635;  838.775;  210.350;    0.000
248.704;  828.775;  168.350;    0.000
248.773;  779.775;  147.350;    0.000
248.841;  813.775;  155.350;    0.000
248.910;  801.775;  183.350;    0.000
248.979;  819.775;  171.350;    0.000
249.047;  790.775;  152.350;    0.000
249.116;  789.775;  155.350;    0.000
249.185;  814.775;  217.350;    0.000
249.253;  756.775;  149.350;    0.000
249.322;  795.775;  167.350;    0.000
249.390;  777.775;  182.350;    0.000
249.459;  820.775;  173.350;    0.000
249.528;  819.775;  162.350;    0.000
249.596;  790.775;  162.350;    0.000
249.665;  821.775;  163.350;    0.000
249.733;  768.775;  147.350;    0.000
249.802;  766.775;  170.350;    0.000
249.871;  775.775;  179.350;    0.000
249.939;  787.775;  179.350;    0.000
250.008;  832.775;  201.350;    0.000
250.076;  824.775;  189.350;    0.000
250.145;  755.775;  171.350;    0.000
250.213;  729.775;  161.350;    0.000
250.282;  763.775;  171.350;    0.000
250.350;  732.775;  138.350;    0.000
250.419;  790.775;  172.350;    0.000
250.487;  847.775;  207.350;    0.000
250.556;  776.775;  160.350;    0.000
250.624;  847.775;  187.350;    0.000
250.693;  742.775;  141.350;    0.000
250.761;  765.775;  182.350;    0.000
250.830;  789.775;  203.350;    0.000
250.898;  788.775;  160.350;    0.000
250.967;  747.775;  143.350;    0.000
251.035;  735.775;  142.350;    0.000
251.104;  788.775;  159.350;    0.000
251.172;  722.775;  189.350;    0.000
251.241;  772.775;  134.350;    0.000
251.309;  743.775;  179.350;    0.000
251.378;  757.775;  203.350;    0.000
251.446;  728.775;  151.350;    0.000
251.514;  765.775;  176.350;    0.000
251.583;  764.775;  173.350;    0.000
251.651;  747.775;  163.350;    0.000
251.720;  746.775;  151.350;    0.000
251.788;  756.775;  205.350;    0.000
251.856;  696.775;  126.350;    0.000
251.925;  684.775;  118.350;    0.000
251.993;  735.775;  139.350;    0.000
252.062;  787.775;  161.350;    0.000
252.130;  762.775;  180.350;    0.000
252.198;  750.775;  141.350;    0.000
252.267;  762.775;  145.350;    0.000
252.335;  777.775;  159.350;    0.000
252.403;  725.775;  158.350;    0.000
252.472;  749.775;  142.350;    0.000
252.540;  733.775;  162.350;    0.000
252.608;  703.775;  180.350;    0.000
252.677;  694.775;  137.350;    0.000
252.745;  716.775;  183.350;    0.000
252.813;  696.775;  151.350;    0.000
252.881;  644.775;  109.350;    0.000
252.950;  723.775;  174.350;    0.000
253.018;  685.775;  136.350;    0.000
253.086;  626.775;  149.350;    0.000
253.155;  660.775;  127.350;    0.000
253.223;  676.775;  156.350;    0.000
253.291;  663.775;  163.350;    0.000
253.359;  640.775;  174.350;    0.000
253.428;  681.775;  174.350;    0.000
253.496;  596.775;  161.350;    0.000
253.564;  532.775;  128.350;    0.000
253.632;  573.775;  153.350;    0.000
253.700;  622.775;  185.350;    0.000
253.769;  618.775;  163.350;    0.000
253.837;  644.775;  176.350;    0.000
253.905;  584.775;  164.350;    0.000
253.973;  584.775;  156.350;    0.000
254.041;  587.775;  154.350;    0.000
254.110;  585.775;  165.350;    0.000
254.178;  528.775;  148.350;    0.000
254.246;  558.775;  138.350;    0.000
254.314;  612.775;  164.350;    0.000
254.382;  601.775;  167.350;    0.000
254.450;  588.775;  134.350;    0.000
254.518;  598.775;  192.350;    0.000
254.587;  617.775;  139.350;    0.000
254.655;  620.775;  162.350;    0.000
254.723;  554.775;  131.350;    0.000
254.791;  574.775;  181.350;    0.000
254.859;  599.775;  146.350;    0.000
254.927;  638.775;  189.350;    0.000
254.995;  636.775;  141.350;    0.000
255.063;  639.775;  181.350;    0.000
255.131;  603.775;  156.350;    0.000
255.199;  617.775;  175.350;    0.000
255.267;  605.775;  120.350;    0.000
255.336;  606.775;  186.350;    0.000
255.404;  557.775;  134.350;    0.000
255.472;  601.775;  172.350;    0.000
255.540;  624.775;  157.350;    0.000
255.608;  602.775;  186.350;    0.000
255.676;  595.775;  155.350;    0.000
255.744;  598.775;  143.350;    0.000
255.812;  646.775;  134.350;    0.000
255.880;  658.775;  188.350;    0.000
255.948;  577.775;  163.350;    0.000
256.016;  585.775;  175.350;    0.000
256.084;  647.775;  191.350;    0.000
256.152;  587.775;  187.350;    0.000
256.220;  635.775;  152.350;    0.000
256.288;  656.775;  141.350;    0.000
256.356;  612.775;  139.350;    0.000
256.424;  651.775;  121.350;    0.000
256.491;  697.775;  139.350;    0.000
256.559;  675.775;  144.350;    0.000
256.627;  702.775;  158.350;    0.000
256.695;  662.775;  121.350;    0.000
256.763;  689.775;  150.350;    0.000
256.831;  710.775;  181.350;    0.000
256.899;  747.775;  146.350;    0.000
256.967;  715.775;   71.350;    0.000
257.035;  721.775;  164.350;    0.000
257.103;  740.775;  191.350;    0.000
257.171;  781.775;  140.350;    0.000
257.238;  689.775;  165.350;    0.000
257.306;  743.775;  127.350;    0.000
257.374;  786.775;  120.350;    0.000
257.442;  700.775;  139.350;    0.000
257.510;  788.775;  158.350;    0.000
257.578;  798.775;  164.350;    0.000
257.646;  733.775;  151.350;    0.000
257.713;  721.775;  136.350;    0.000
257.781;  780.775;  137.350;    0.000
257.849;  808.775;  151.350;    0.000
257.917;  819.775;  154.350;    0.000
257.985;  818.775;  113.350;    0.000
258.052;  832.775;  140.350;    0.000
258.120;  854.775;  176.350;    0.000
258.188;  888.775;  157.350;    0.000
258.256;  785.775;  153.350;    0.000
258.324;  883.775;  184.350;    0.000
258.391;  874.775;  144.350;    0.000
258.459;  929.775;  162.350;    0.000
258.527;  944.775;  154.350;    0.000
258.595;  876.775;  122.350;    0.000
258.662;  849.775;  164.350;    0.000
258.730;  919.775;  114.350;    0.000
258.798;  920.775;  131.350;    0.000
258.865; 1000.775;  171.350;    0.000
258.933;  974.775;  145.350;    0.000
259.001; 1048.775;  150.350;    0.000
259.069;  995.775;  123.350;    0.000
259.136;  934.775;  139.350;    0.000
259.204; 1038.775;  165.350;    0.000
259.272; 1081.775;  114.350;    0.000
259.339;  986.775;  179.350;    0.000
259.407; 1065.775;  153.350;    0.000
259.475; 1045.775;  143.350;    0.000
259.542; 1051.775;  136.350;    0.000
259.610; 1034.775;  133.350;    0.000
259.677; 1073.775;  159.350;    0.000
259.745; 1110.775;  130.350;    0.000
259.813; 1094.775;  175.350;    0.000
259.880; 1173.775;  158.350;    0.000
259.948; 1139.775;  124.350;    0.000
260.016; 1180.775;  105.350;    0.000
260.083; 1201.775;  169.350;    0.000
260.151; 1219.775;  133.350;    0.000
260.218; 1196.775;  143.350;    0.000
260.286; 1179.775;  134.350;    0.000
260.353; 1278.775;  160.350;    0.000
260.421; 1222.775;  128.350;    0.000
260.489; 1207.775;  150.350;    0.000
260.556; 1296.775;  179.350;    0.000
260.624; 1263.775;  113.350;    0.000
260.691; 1249.775;  128.350;    0.000
260.759; 1373.775;  146.350;    0.000
260.826; 1247.775;  111.350;    0.000
260.894; 1308.775;  115.350;    0.000
260.961; 1355.775;  138.350;    0.000
261.029; 1366.775;  152.350;    0.000
261.096; 1352.775;  175.350;    0.000
261.164; 1383.775;  131.350;    0.000
261.231; 1422.775;  141.350;    0.000
261.299; 1447.775;  125.350;    0.000
261.366; 1371.775;  142.350;    0.000
261.434; 1398.775;  133.350;    0.000
261.501; 1421.775;  137.350;    0.000
261.568; 1475.775;  184.350;    0.000
261.636; 1467.775;  138.350;    0.000
261.703; 1515.775;  161.350;    0.000
261.771; 1505.775;  160.350;    0.000
261.838; 1482.775;  178.350;    0.000
261.906; 1485.775;  128.350;    0.000
261.973; 1487.775;  139.350;    0.000
262.040; 1653.775;  148.350;    0.000
262.108; 1598.775;  130.350;    0.000
262.175; 1497.775;  117.350;    0.000
262.243; 1546.775;  174.350;    0.000
262.310; 1603.775;  145.350;    0.000
262.377; 1646.775;  108.350;    0.000
262.445; 1653.775;  147.350;    0.000
262.512; 1654.775;  124.350;    0.000
262.579; 1631.775;  127.350;    0.000
262.647; 1655.775;  166.350;    0.000
262.714; 1771.775;  150.350;    0.000
262.781; 1708.775;  121.350;    0.000
262.849; 1667.775;  126.350;    0.000
262.916; 1739.775;  119.350;    0.000
262.983; 1773.775;  155.350;    0.000
263.051; 1707.775;  137.350;    0.000
263.118; 1778.775;  160.350;    0.000
263.185; 1769.775;  151.350;    0.000
263.252; 1685.775;  167.350;    0.000
263.320; 1726.775;  123.350;    0.000
263.387; 1777.775;  134.350;    0.000
263.454; 1817.775;  144.350;    0.000
263.522; 1876.775;  153.350;    0.000
263.589; 1844.775;  161.350;    0.000
263.656; 1861.775;  117.350;    0.000
263.723; 1808.775;  101.350;    0.000
263.790; 1806.775;  128.350;    0.000
263.858; 1900.775;  142.350;    0.000
263.925; 1892.775;  182.350;    0.000
263.992; 1926.775;  146.350;    0.000
264.059; 1906.775;  132.350;    0.000
264.126; 1961.775;  154.350;    0.000
264.194; 1986.775;  153.350;    0.000
264.261; 1896.775;  157.350;    0.000
264.328; 2015.775;  171.350;    0.000
264.395; 1935.775;  166.350;    0.000
264.462; 2070.775;  165.350;    0.000
264.529; 1979.775;  124.350;    0.000
264.597; 1994.775;  120.350;    0.000
264.664; 2071.775;  159.350;    0.000
264.731; 2061.775;  145.350;    0.000
264.798; 2035.775;  100.350;    0.000
264.865; 2047.775;  166.350;    0.000
264.932; 2067.775;  132.350;    0.000
264.999; 1981.775;  137.350;    0.000
265.066; 2178.775;  124.350;    0.000
265.133; 2003.775;  162.350;    0.000
265.201; 2103.775;  163.350;    0.000
265.268; 2057.775;  174.350;    0.000
265.335; 2062.775;  132.350;    0.000
265.402; 2075.775;  116.350;    0.000
265.469; 2175.775;  121.350;    0.000
265.536; 2249.775;  157.350;    0.000
265.603; 2226.775;  151.350;    0.000
265.670; 2179.775;  164.350;    0.000
265.737; 2253.775;  142.350;    0.000
265.804; 2189.775;  146.350;    0.000
265.871; 2214.775;  168.350;    0.000
265.938; 2237.775;  131.350;    0.000
266.005; 2235.775;  208.350;    0.000
266.072; 2258.775;  125.350;    0.000
266.139; 2362.775;  161.350;    0.000
266.206; 2257.775;  134.350;    0.000
266.273; 2302.775;  155.350;    0.000
266.340; 2311.775;  122.350;    0.000
266.407; 2373.775;  134.350;    0.000
266.474; 2281.775;  126.350;    0.000
266.541; 2298.775;  153.350;    0.000
266.608; 2287.775;  129.350;    0.000
266.675; 2325.775;  185.350;    0.000
266.742; 2296.775;  153.350;    0.000
266.808; 2302.775;  169.350;    0.000
266.875; 2435.775;  156.350;    0.000
266.942; 2285.775;  172.350;    0.000
267.009; 2368.775;  150.350;    0.000
267.076; 2426.775;  184.350;    0.000
267.143; 2375.775;  170.350;    0.000
267.210; 2471.775;  132.350;    0.000
267.277; 2332.775;  146.350;    0.000
267.344; 2418.775;  159.350;    0.000
267.410; 2463.775;  174.350;    0.000
267.477; 2393.775;  169.350;    0.000
267.544; 2471.775;  130.350;    0.000
267.611; 2484.775;  169.350;    0.000
267.678; 2437.775;  197.350;    0.000
267.745; 2455.775;  185.350;    0.000
267.811; 2306.775;  160.350;    0.000
267.878; 2527.775;  143.350;    0.000
267.945; 2536.775;  126.350;    0.000
268.012; 2570.775;  172.350;    0.000
268.079; 2513.775;  156.350;    0.000
268.145; 2459.775;  128.350;    0.000
268.212; 2361.775;  107.350;    0.000
268.279; 2446.775;  135.350;    0.000
268.346; 2597.775;  166.350;    0.000
268.412; 2446.775;  150.350;    0.000
268.479; 2441.775;  176.350;    0.000
268.546; 2438.775;  119.350;    0.000
268.613; 2497.775;  201.350;    0.000
268.679; 2492.775;  141.350;    0.000
268.746; 2441.775;  177.350;    0.000
268.813; 2466.775;  134.350;    0.000
268.879; 2507.775;  141.350;    0.000
268.946; 2562.775;  172.350;    0.000
269.013; 2454.775;  150.350;    0.000
269.079; 2480.775;  124.350;    0.000
269.146; 2463.775;  135.350;    0.000
269.213; 2359.775;  200.350;    0.000
269.280; 2421.775;  142.350;    0.000
269.346; 2441.775;  153.350;    0.000
269.413; 2468.775;  140.350;    0.000
269.479; 2439.775;  171.350;    0.000
269.546; 2445.775;  156.350;    0.000
269.613; 2468.775;  145.350;    0.000
269.679; 2380.775;  168.350;    0.000
269.746; 2364.775;  136.350;    0.000
269.813; 2409.775;  153.350;    0.000
269.879; 2404.775;  162.350;    0.000
269.946; 2420.775;  156.350;    0.000
270.012; 2508.775;  178.350;    0.000
270.079; 2416.775;  132.350;    0.000
270.145; 2382.775;  146.350;    0.000
270.212; 2416.775;  145.350;    0.000
270.279; 2440.775;  184.350;    0.000
270.345; 2484.775;  143.350;    0.000
270.412; 2384.775;  158.350;    0.000
270.478; 2379.775;  143.350;    0.000
270.545; 2404.775;  150.350;    0.000
270.611; 2358.775;  156.350;    0.000
270.678; 2358.775;  121.350;    0.000
270.744; 2370.775;  161.350;    0.000
270.811; 2449.775;  173.350;    0.000
270.877; 2368.775;  115.350;    0.000
270.944; 2369.775;  114.350;    0.000
271.010; 2423.775;  122.350;    0.000
271.077; 2483.775;  142.350;    0.000
271.143; 2420.775;  152.350;    0.000
271.210; 2442.775;  135.350;    0.000
271.276; 2402.775;  107.350;    0.000
271.342; 2391.775;  173.350;    0.000
271.409; 2399.775;  171.350;    0.000
271.475; 2374.775;  136.350;    0.000
271.542; 2387.775;  121.350;    0.000
271.608; 2397.775;  133.350;    0.000
271.675; 2319.775;  136.350;    0.000
271.741; 2431.775;  151.350;    0.000
271.807; 2381.775;  130.350;    0.000
271.874; 2407.775;  168.350;    0.000
271.940; 2304.775;  156.350;    0.000
272.007; 2423.775;  122.350;    0.000
272.073; 2421.775;  121.350;    0.000
272.139; 2374.775;  137.350;    0.000
272.206; 2481.775;  152.350;    0.000
272.272; 2456.775;  162.350;    0.000
272.338; 2437.775;  197.350;    0.000
272.405; 2420.775;  144.350;    0.000
272.471; 2369.775;  160.350;    0.000
272.537; 2356.775;  142.350;    0.000
272.604; 2398.775;  141.350;    0.000
272.670; 2374.775;  182.350;    0.000
272.736; 2382.775;  126.350;    0.000
272.802; 2448.775;  146.350;    0.000
272.869; 2398.775;  163.350;    0.000
272.935; 2403.775;  132.350;    0.000
273.001; 2271.775;  119.350;    0.000
273.068; 2477.775;  137.350;    0.000
273.134; 2382.775;  155.350;    0.000
273.200; 2431.775;  165.350;    0.000
273.266; 2479.775;  156.350;    0.000
273.333; 2499.775;  143.350;    0.000
273.399; 2452.775;  128.350;    0.000
273.465; 2533.775;  167.350;    0.000
273.531; 2465.775;  122.350;    0.000
273.597; 2481.775;  182.350;    0.000
273.664; 2481.775;  177.350;    0.000
273.730; 2458.775;  124.350;    0.000
273.796; 2468.775;  143.350;    0.000
273.862; 2446.775;  155.350;    0.000
273.928; 2518.775;  137.350;    0.000
273.995; 2470.775;  188.350;    0.000
274.061; 2517.775;  154.350;    0.000
274.127; 2456.775;  161.350;    0.000
274.193; 2489.775;   95.350;    0.000
274.259; 2493.775;  128.350;    0.000
274.325; 2511.775;  146.350;    0.000
274.391; 2594.775;  113.350;    0.000
274.457; 2560.775;  150.350;    0.000
274.524; 2612.775;  165.350;    0.000
274.590; 2542.775;  140.350;    0.000
274.656; 2599.775;  165.350;    0.000
274.722; 2493.775;  118.350;    0.000
274.788; 2594.775;  143.350;    0.000
274.854; 2644.775;  150.350;    0.000
274.920; 2553.775;   88.350;    0.000
274.986; 2601.775;  178.350;    0.000
275.052; 2562.775;  145.350;    0.000
275.118; 2631.775;  105.350;    0.000
275.184; 2596.775;  129.350;    0.000
275.250; 2662.775;  138.350;    0.000
275.316; 2700.775;  173.350;    0.000
275.382; 2663.775;  106.350;    0.000
275.448; 2773.775;  160.350;    0.000
275.514; 2696.775;  162.350;    0.000
275.580; 2721.775;  135.350;    0.000
275.646; 2828.775;  120.350;    0.000
275.712; 2795.775;  157.350;    0.000
275.778; 2832.775;  128.350;    0.000
275.844; 2740.775;  117.350;    0.000
275.910; 2834.775;  121.350;    0.000
275.976; 2912.775;  172.350;    0.000
276.042; 2815.775;  114.350;    0.000
276.108; 2912.775;  200.350;    0.000
276.174; 3050.775;  132.350;    0.000
276.240; 2991.775;  128.350;    0.000
276.306; 3024.775;  124.350;    0.000
276.372; 3087.775;  133.350;    0.000
276.437; 3056.775;  146.350;    0.000
276.503; 3053.775;  136.350;    0.000
276.569; 3317.775;  162.350;    0.000
276.635; 3114.775;  128.350;    0.000
276.701; 3295.775;  148.350;    0.000
276.767; 3308.775;  155.350;    0.000
276.833; 3384.775;  128.350;    0.000
276.899; 3304.775;  145.350;    0.000
276.964; 3551.775;  124.350;    0.000
277.030; 3701.775;  130.350;    0.000
277.096; 3642.775;  139.350;    0.000
277.162; 3716.775;  164.350;    0.000
277.228; 3838.775;  108.350;    0.000
277.293; 3903.775;  138.350;    0.000
277.359; 4086.775;  123.350;    0.000
277.425; 4071.775;  183.350;    0.000
277.491; 4428.775;  144.350;    0.000
277.557; 5197.775;  130.350;    0.000
277.622; 6677.775;  151.350;    0.000
277.688; 6511.775;  169.350;    0.000
277.754; 6983.775;  199.350;    0.000
277.820; 7402.775;  170.350;    0.000
277.885; 8644.775;  173.350;    0.000
277.951;10618.775;  187.350;    0.000
278.017; 9157.775;  152.350;    0.000
278.083; 7997.775;  137.350;    0.000
278.148; 7829.775;  147.350;    0.000
278.214; 7894.775;  162.350;    0.000
278.280; 8237.775;  171.350;    0.000
278.345; 7480.775;  174.350;    0.000
278.411; 7056.775;  152.350;    0.000
278.477; 7206.775;  173.350;    0.000
278.542; 7673.775;  161.350;    0.000
278.608; 8232.775;  155.350;    0.000
278.674; 9124.775;  169.350;    0.000
278.739;10070.775;  142.350;    0.000
278.805;11173.775;  164.350;    0.000
278.871;13106.775;  160.350;    0.000
278.936;17052.775;  121.350;    0.000
279.002;24996.775;  166.350;    0.000
279.067;33105.773;  199.350;    0.000
279.133;32176.775;  150.350;    0.000
279.199;28801.775;  154.350;    0.000
279.264;30140.775;  154.350;    0.000
279.330;35700.773;  159.350;    0.000
279.395;46502.773;  143.350;    0.000
279.461;59256.773;  173.350;    0.000
279.527;65098.773;  163.350;    0.000
279.592;61512.773;  167.350;    0.000
279.658;52460.773;  189.350;    0.000
279.723;50795.773;  153.350;    0.000
279.789;52854.773;  174.350;    0.000
279.854;47233.773;  129.350;    0.000
279.920;38792.773;  165.350;    0.000
279.985;34602.773;  152.350;    0.000
280.051;35199.773;  164.350;    0.000
280.116;42373.773;  187.350;    0.000
280.182;55352.773;  160.350;    0.000
280.247;62246.773;  124.350;    0.000
280.313;52893.773;  154.350;    0.000
280.378;37513.773;  152.350;    0.000
280.444;27318.775;  165.350;    0.000
280.509;21376.775;  164.350;    0.000
280.574;17863.775;  160.350;    0.000
280.640;15262.775;  167.350;    0.000
280.705;13822.775;  190.350;    0.000
280.771;12371.775;  154.350;    0.000
280.836;11608.775;  158.350;    0.000
280.902;10507.775;  124.350;    0.000
280.967;10033.775;  179.350;    0.000
281.032; 9397.775;  187.350;    0.000
281.098; 8799.775;  155.350;    0.000
281.163; 8490.775;  133.350;    0.000
281.229; 8045.775;  170.350;    0.000
281.294; 7858.775;  175.350;    0.000
281.359; 7480.775;  163.350;    0.000
281.425; 7299.775;  161.350;    0.000
281.490; 6989.775;  162.350;    0.000
281.555; 6834.775;  137.350;    0.000
281.621; 6597.775;  163.350;    0.000
281.686; 6354.775;  155.350;    0.000
281.751; 6307.775;  158.350;    0.000
281.816; 6030.775;  139.350;    0.000
281.882; 5795.775;  150.350;    0.000
281.947; 5722.775;  165.350;    0.000
282.012; 5585.775;  171.350;    0.000
282.078; 5507.775;  177.350;    0.000
282.143; 5429.775;  149.350;    0.000
282.208; 5423.775;  181.350;    0.000
282.273; 5141.775;  166.350;    0.000
282.339; 5214.775;  165.350;    0.000
282.404; 5237.775;  166.350;    0.000
282.469; 5086.775;  150.350;    0.000
282.534; 5115.775;  176.350;    0.000
282.600; 4984.775;  117.350;    0.000
282.665; 4783.775;  134.350;    0.000
282.730; 4838.775;  155.350;    0.000
282.795; 4873.775;  193.350;    0.000
282.860; 4773.775;  160.350;    0.000
282.926; 4724.775;  174.350;    0.000
282.991; 4693.775;  161.350;    0.000
283.056; 4577.775;  157.350;    0.000
283.121; 4588.775;  178.350;    0.000
283.186; 4594.775;  152.350;    0.000
283.251; 4560.775;  167.350;    0.000
283.316; 4614.775;  186.350;    0.000
283.382; 4610.775;  148.350;    0.000
283.447; 4528.775;  191.350;    0.000
283.512; 4463.775;  132.350;    0.000
283.577; 4512.775;  179.350;    0.000
283.642; 4449.775;  185.350;    0.000
283.707; 4249.775;  136.350;    0.000
283.772; 4320.775;  119.350;    0.000
283.837; 4393.775;  136.350;    0.000
283.902; 4448.775;  135.350;    0.000
283.967; 4302.775;  146.350;    0.000
284.032; 4398.775;  140.350;    0.000
284.097; 4506.775;  199.350;    0.000
284.163; 4358.775;  144.350;    0.000
284.228; 4526.775;  183.350;    0.000
284.293; 4477.775;  141.350;    0.000
284.358; 4533.775;  146.350;    0.000
284.423; 4511.775;  127.350;    0.000
284.488; 4539.775;  186.350;    0.000
284.553; 4607.775;  155.350;    0.000
284.618; 4684.775;  118.350;    0.000
284.683; 4870.775;  145.350;    0.000
284.748; 5117.775;  139.350;    0.000
284.812; 5307.775;  147.350;    0.000
284.877; 5779.775;  123.350;    0.000
284.942; 6590.775;  153.350;    0.000
285.007; 7669.775;  168.350;    0.000
285.072;10410.775;  181.350;    0.000
285.137;15609.775;  147.350;    0.000
285.202;19559.775;  175.350;    0.000
285.267;17539.775;  182.350;    0.000
285.332;12234.775;  136.350;    0.000
285.397; 9169.775;  138.350;    0.000
285.462; 7568.775;  151.350;    0.000
285.527; 6641.775;  159.350;    0.000
285.591; 6043.775;  177.350;    0.000
285.656; 5591.775;  144.350;    0.000
285.721; 5252.775;  125.350;    0.000
285.786; 5244.775;  169.350;    0.000
285.851; 4846.775;  175.350;    0.000
285.916; 4869.775;  164.350;    0.000
285.981; 4589.775;  134.350;    0.000
286.045; 4624.775;  154.350;    0.000
286.110; 4518.775;  136.350;    0.000
286.175; 4481.775;  155.350;    0.000
286.240; 4520.775;  138.350;    0.000
286.305; 4398.775;  213.350;    0.000
286.369; 4344.775;  221.350;    0.000
286.434; 4273.775;  172.350;    0.000
286.499; 4262.775;  161.350;    0.000
286.564; 4268.775;  189.350;    0.000
286.628; 4221.775;  144.350;    0.000
286.693; 4194.775;  176.350;    0.000
286.758; 4132.775;  168.350;    0.000
286.823; 4209.775;  142.350;    0.000
286.887; 4092.775;  134.350;    0.000
286.952; 4128.775;  180.350;    0.000
287.017; 4073.775;  204.350;    0.000
287.082; 4024.775;  120.350;    0.000
287.146; 3994.775;  173.350;    0.000
287.211; 4052.775;  167.350;    0.000
287.276; 3986.775;  164.350;    0.000
287.340; 3966.775;  138.350;    0.000
287.405; 3958.775;  172.350;    0.000
287.470; 4001.775;  142.350;    0.000
287.534; 4092.775;  155.350;    0.000
287.599; 3939.775;  166.350;    0.000
287.663; 4011.775;  171.350;    0.000
287.728; 4131.775;  190.350;    0.000
287.793; 4158.775;  197.350;    0.000
287.857; 4002.775;  165.350;    0.000
287.922; 3943.775;  147.350;    0.000
287.987; 4019.775;  167.350;    0.000
288.051; 4031.775;  151.350;    0.000
288.116; 4215.775;  154.350;    0.000
288.180; 4087.775;  186.350;    0.000
288.245; 3983.775;  161.350;    0.000
288.309; 4133.775;  177.350;    0.000
288.374; 3911.775;  151.350;    0.000
288.439; 3947.775;  169.350;    0.000
288.503; 3879.775;  133.350;    0.000
288.568; 4025.775;  206.350;    0.000
288.632; 3822.775;  192.350;    0.000
288.697; 3985.775;  183.350;    0.000
288.761; 3859.775;  148.350;    0.000
288.826; 3905.775;  136.350;    0.000
288.890; 3940.775;  185.350;    0.000
288.955; 3857.775;  150.350;    0.000
289.019; 3802.775;  165.350;    0.000
289.084; 3949.775;  150.350;    0.000
289.148; 3852.775;  146.350;    0.000
289.212; 3858.775;  172.350;    0.000
289.277; 3890.775;  177.350;    0.000
289.341; 3995.775;  190.350;    0.000
289.406; 3770.775;  117.350;    0.000
289.470; 3790.775;  173.350;    0.000
289.535; 3791.775;  170.350;    0.000
289.599; 3899.775;  154.350;    0.000
289.663; 3803.775;  173.350;    0.000
289.728; 3817.775;  176.350;    0.000
289.792; 3903.775;  138.350;    0.000
289.857; 3831.775;  203.350;    0.000
289.921; 3909.775;  143.350;    0.000
289.985; 3921.775;  150.350;    0.000
290.050; 3870.775;  170.350;    0.000
290.114; 3789.775;  125.350;    0.000
290.178; 3829.775;  161.350;    0.000
290.243; 3972.775;  119.350;    0.000
290.307; 3758.775;  169.350;    0.000
290.371; 3953.775;  169.350;    0.000
290.436; 4028.775;  170.350;    0.000
290.500; 3914.775;  144.350;    0.000
290.564; 3870.775;  179.350;    0.000
290.629; 3871.775;  166.350;    0.000
290.693; 3868.775;  156.350;    0.000
290.757; 3940.775;  147.350;    0.000
290.821; 3891.775;  170.350;    0.000
290.886; 3815.775;  167.350;    0.000
290.950; 3875.775;  187.350;    0.000
291.014; 3942.775;  164.350;    0.000
291.078; 3938.775;  115.350;    0.000
291.143; 3957.775;  149.350;    0.000
291.207; 3827.775;  163.350;    0.000
291.271; 4087.775;  177.350;    0.000
291.335; 3983.775;  148.350;    0.000
291.399; 4061.775;  155.350;    0.000
291.464; 4154.775;  114.350;    0.000
291.528; 4395.775;  153.350;    0.000
291.592; 4267.775;  156.350;    0.000
291.656; 4205.775;  170.350;    0.000
291.720; 4092.775;  159.350;    0.000
291.784; 4047.775;  159.350;    0.000
291.849; 4127.775;  154.350;    0.000
291.913; 4071.775;  118.350;    0.000
291.977; 4140.775;  157.350;    0.000
292.041; 4172.775;  163.350;    0.000
292.105; 4045.775;  135.350;    0.000
292.169; 4081.775;  155.350;    0.000
292.233; 4195.775;  163.350;    0.000
292.297; 4144.775;  144.350;    0.000
292.361; 4264.775;  143.350;    0.000
292.425; 4194.775;  177.350;    0.000
292.490; 4370.775;  159.350;    0.000
292.554; 4517.775;  137.350;    0.000
292.618; 4694.775;  144.350;    0.000
292.682; 5010.775;  169.350;    0.000
292.746; 5505.775;  166.350;    0.000
292.810; 7037.775;  147.350;    0.000
292.874; 8442.775;  160.350;    0.000
292.938; 8499.775;  174.350;    0.000
293.002; 7701.775;  148.350;    0.000
293.066; 7016.775;  115.350;    0.000
293.130; 6556.775;  133.350;    0.000
293.194; 6319.775;  148.350;    0.000
293.258; 6161.775;  167.350;    0.000
293.322; 6204.775;  166.350;    0.000
293.386; 6148.775;  193.350;    0.000
293.450; 6496.775;  142.350;    0.000
293.514; 7213.775;  170.350;    0.000
293.577; 9054.775;  153.350;    0.000
293.641;11960.775;  171.350;    0.000
293.705;12862.775;  168.350;    0.000
293.769;11618.775;  155.350;    0.000
293.833; 9774.775;  161.350;    0.000
293.897; 8821.775;  124.350;    0.000
293.961; 8018.775;  165.350;    0.000
294.025; 7447.775;  118.350;    0.000
294.089; 6759.775;  125.350;    0.000
294.152; 6471.775;  160.350;    0.000
294.216; 6024.775;  160.350;    0.000
294.280; 5735.775;  158.350;    0.000
294.344; 5689.775;  119.350;    0.000
294.408; 5343.775;  168.350;    0.000
294.472; 5133.775;  156.350;    0.000
294.536; 5072.775;  192.350;    0.000
294.599; 4853.775;  171.350;    0.000
294.663; 4730.775;  139.350;    0.000
294.727; 4751.775;  136.350;    0.000
294.791; 4668.775;  118.350;    0.000
294.855; 4614.775;  118.350;    0.000
294.918; 4430.775;  127.350;    0.000
294.982; 4421.775;  167.350;    0.000
295.046; 4327.775;  178.350;    0.000
295.110; 4260.775;  157.350;    0.000
295.173; 4239.775;  101.350;    0.000
295.237; 4197.775;  145.350;    0.000
295.301; 4176.775;  135.350;    0.000
295.364; 4163.775;  185.350;    0.000
295.428; 4122.775;  112.350;    0.000
295.492; 4125.775;  142.350;    0.000
295.556; 4046.775;  170.350;    0.000
295.619; 4084.775;  193.350;    0.000
295.683; 3967.775;  144.350;    0.000
295.747; 3937.775;  152.350;    0.000
295.810; 4028.775;  139.350;    0.000
295.874; 3805.775;  157.350;    0.000
295.938; 3874.775;  128.350;    0.000
296.001; 4009.775;  164.350;    0.000
296.065; 3952.775;  184.350;    0.000
296.128; 3808.775;  127.350;    0.000
296.192; 3894.775;  166.350;    0.000
296.256; 3783.775;  154.350;    0.000
296.319; 3806.775;  128.350;    0.000
296.383; 3834.775;  146.350;    0.000
296.447; 3806.775;  155.350;    0.000
296.510; 3721.775;  177.350;    0.000
296.574; 3725.775;  169.350;    0.000
296.637; 3765.775;  140.350;    0.000
296.701; 3759.775;  181.350;    0.000
296.764; 3671.775;  131.350;    0.000
296.828; 3676.775;  194.350;    0.000
296.891; 3682.775;  146.350;    0.000
296.955; 3710.775;  160.350;    0.000
297.018; 3733.775;  174.350;    0.000
297.082; 3629.775;  153.350;    0.000
297.145; 3712.775;  133.350;    0.000
297.209; 3679.775;  149.350;    0.000
297.272; 3577.775;  150.350;    0.000
297.336; 3672.775;  119.350;    0.000
297.399; 3574.775;  160.350;    0.000
297.463; 3582.775;  158.350;    0.000
297.526; 3489.775;  160.350;    0.000
297.590; 3616.775;  173.350;    0.000
297.653; 3472.775;  121.350;    0.000
297.717; 3373.775;  168.350;    0.000
297.780; 3491.775;  131.350;    0.000
297.843; 3554.775;  154.350;    0.000
297.907; 3572.775;  126.350;    0.000
297.970; 3556.775;  180.350;    0.000
298.034; 3656.775;  140.350;    0.000
298.097; 3565.775;  207.350;    0.000
298.160; 3453.775;  177.350;    0.000
298.224; 3346.775;  165.350;    0.000
298.287; 3478.775;  160.350;    0.000
298.350; 3518.775;  176.350;    0.000
298.414; 3478.775;  155.350;    0.000
298.477; 3412.775;  132.350;    0.000
298.540; 3389.775;  162.350;    0.000
298.604; 3397.775;  180.350;    0.000
298.667; 3459.775;  208.350;    0.000
298.730; 3367.775;  177.350;    0.000
298.794; 3362.775;  126.350;    0.000
298.857; 3372.775;  171.350;    0.000
298.920; 3466.775;  124.350;    0.000
298.984; 3345.775;  146.350;    0.000
299.047; 3397.775;  140.350;    0.000
299.110; 3339.775;  159.350;    0.000
299.173; 3360.775;  177.350;    0.000
299.237; 3301.775;  196.350;    0.000
299.300; 3230.775;  121.350;    0.000
299.363; 3260.775;  172.350;    0.000
299.426; 3245.775;  117.350;    0.000
299.489; 3270.775;  138.350;    0.000
299.553; 3246.775;  198.350;    0.000
299.616; 3257.775;  158.350;    0.000
299.679; 3192.775;  148.350;    0.000
299.742; 3204.775;  138.350;    0.000
299.805; 3335.775;  157.350;    0.000
299.868; 3265.775;  183.350;    0.000
299.932; 3240.775;  137.350;    0.000
299.995; 3232.775;  152.350;    0.000
300.058; 3184.775;  171.350;    0.000
300.121; 3245.775;  172.350;    0.000
300.184; 3288.775;  161.350;    0.000
300.247; 3180.775;  156.350;    0.000
300.310; 3182.775;  154.350;    0.000
300.374; 3176.775;  147.350;    0.000
300.437; 3086.775;  144.350;    0.000
300.500; 3174.775;  152.350;    0.000
300.563; 3170.775;  160.350;    0.000
300.626; 3107.775;  167.350;    0.000
300.689; 3134.775;  193.350;    0.000
300.752; 3211.775;  134.350;    0.000
300.815; 3167.775;  194.350;    0.000
300.878; 3123.775;  156.350;    0.000
300.941; 3081.775;  177.350;    0.000
301.004; 3163.775;  160.350;    0.000
301.067; 3181.775;  153.350;    0.000
301.130; 3165.775;  167.350;    0.000
301.193; 3133.775;  156.350;    0.000
301.256; 3062.775;  176.350;    0.000
301.319; 3031.775;  172.350;    0.000
301.382; 3068.775;  150.350;    0.000
301.445; 3094.775;  183.350;    0.000
301.508; 3114.775;  118.350;    0.000
301.571; 2955.775;  142.350;    0.000
301.634; 3155.775;  164.350;    0.000
301.697; 3080.775;  169.350;    0.000
301.760; 3135.775;  197.350;    0.000
301.823; 3049.775;  155.350;    0.000
301.885; 3079.775;  165.350;    0.000
301.948; 3037.775;  168.350;    0.000
302.011; 2966.775;  172.350;    0.000
302.074; 3119.775;  182.350;    0.000
302.137; 3002.775;  161.350;    0.000
302.200; 3095.775;  174.350;    0.000
302.263; 3030.775;  158.350;    0.000
302.326; 3105.775;  168.350;    0.000
302.388; 2999.775;  165.350;    0.000
302.451; 3069.775;  158.350;    0.000
302.514; 3043.775;  181.350;    0.000
302.577; 3025.775;  147.350;    0.000
302.640; 3000.775;  178.350;    0.000
302.703; 2989.775;  164.350;    0.000
302.765; 2994.775;  149.350;    0.000
302.828; 3123.775;  192.350;    0.000
302.891; 2974.775;  201.350;    0.000
302.954; 2876.775;  135.350;    0.000
303.016; 3030.775;  180.350;    0.000
303.079; 3093.775;  192.350;    0.000
303.142; 3019.775;  176.350;    0.000
303.205; 2957.775;  176.350;    0.000
303.267; 2940.775;  163.350;    0.000
303.330; 2973.775;  162.350;    0.000
303.393; 2980.775;  164.350;    0.000
303.456; 2987.775;  180.350;    0.000
303.518; 3024.775;  162.350;    0.000
303.581; 2938.775;  137.350;    0.000
303.644; 2998.775;  135.350;    0.000
303.706; 3008.775;  170.350;    0.000
303.769; 3075.775;  216.350;    0.000
303.832; 3044.775;  143.350;    0.000
303.894; 3093.775;  162.350;    0.000
303.957; 2921.775;  149.350;    0.000
304.020; 3078.775;  111.350;    0.000
304.082; 3021.775;  158.350;    0.000
304.145; 2976.775;  149.350;    0.000
304.207; 3096.775;  169.350;    0.000
304.270; 2952.775;  170.350;    0.000
304.333; 2977.775;  185.350;    0.000
304.395; 2982.775;  179.350;    0.000
304.458; 2972.775;  174.350;    0.000
304.520; 2992.775;  160.350;    0.000
304.583; 2984.775;  175.350;    0.000
304.646; 3030.775;  160.350;    0.000
304.708; 3065.775;  173.350;    0.000
304.771; 2998.775;  115.350;    0.000
304.833; 3028.775;  172.350;    0.000
304.896; 3010.775;  187.350;    0.000
304.958; 2957.775;  142.350;    0.000
305.021; 3026.775;  164.350;    0.000
305.083; 2967.775;  139.350;    0.000
305.146; 2998.775;  162.350;    0.000
305.208; 3045.775;  135.350;    0.000
305.271; 3062.775;  159.350;    0.000
305.333; 3073.775;  210.350;    0.000
305.396; 2981.775;  151.350;    0.000
305.458; 3079.775;  195.350;    0.000
305.520; 2934.775;  179.350;    0.000
305.583; 3057.775;  157.350;    0.000
305.645; 3146.775;  187.350;    0.000
305.708; 3058.775;  159.350;    0.000
305.770; 3049.775;  189.350;    0.000
305.833; 2959.775;  147.350;    0.000
305.895; 2974.775;  154.350;    0.000
305.957; 3013.775;  143.350;    0.000
306.020; 2993.775;  133.350;    0.000
306.082; 2962.775;  146.350;    0.000
306.144; 3013.775;  171.350;    0.000
306.207; 3101.775;  151.350;    0.000
306.269; 3004.775;  169.350;    0.000
306.331; 3008.775;  162.350;    0.000
306.394; 3021.775;  171.350;    0.000
306.456; 3002.775;  155.350;    0.000
306.518; 2956.775;  183.350;    0.000
306.581; 3068.775;  180.350;    0.000
306.643; 3042.775;  199.350;    0.000
306.705; 3028.775;  163.350;    0.000
306.768; 3055.775;  183.350;    0.000
306.830; 3146.775;  183.350;    0.000
306.892; 3020.775;  190.350;    0.000
306.954; 3167.775;  161.350;    0.000
307.017; 3066.775;  151.350;    0.000
307.079; 3047.775;  147.350;    0.000
307.141; 3151.775;  179.350;    0.000
307.203; 3062.775;  143.350;    0.000
307.266; 3107.775;  142.350;    0.000
307.328; 3207.775;  161.350;    0.000
307.390; 3089.775;  189.350;    0.000
307.452; 3107.775;  155.350;    0.000
307.514; 3111.775;  211.350;    0.000
307.577; 3075.775;  201.350;    0.000
307.639; 3097.775;  192.350;    0.000
307.701; 3134.775;  162.350;    0.000
307.763; 3143.775;  155.350;    0.000
307.825; 3165.775;  193.350;    0.000
307.887; 3311.775;  214.350;    0.000
307.949; 3198.775;  208.350;    0.000
308.012; 3191.775;  175.350;    0.000
308.074; 3175.775;  155.350;    0.000
308.136; 3192.775;  172.350;    0.000
308.198; 3243.775;  171.350;    0.000
308.260; 3179.775;  182.350;    0.000
308.322; 3211.775;  177.350;    0.000
308.384; 3255.775;  207.350;    0.000
308.446; 3244.775;  170.350;    0.000
308.508; 3291.775;  177.350;    0.000
308.570; 3147.775;  195.350;    0.000
308.632; 3303.775;  190.350;    0.000
308.694; 3207.775;  161.350;    0.000
308.756; 3372.775;  173.350;    0.000
308.818; 3359.775;  190.350;    0.000
308.880; 3299.775;  197.350;    0.000
308.942; 3393.775;  223.350;    0.000
309.004; 3369.775;  176.350;    0.000
309.066; 3398.775;  182.350;    0.000
309.128; 3515.775;  185.350;    0.000
309.190; 3591.775;  166.350;    0.000
309.252; 3706.775;  191.350;    0.000
309.314; 3698.775;  208.350;    0.000
309.376; 3717.775;  205.350;    0.000
309.438; 3567.775;  166.350;    0.000
309.500; 3613.775;  195.350;    0.000
309.562; 3643.775;  163.350;    0.000
309.624; 3559.775;  162.350;    0.000
309.686; 3628.775;  194.350;    0.000
309.747; 3791.775;  179.350;    0.000
309.809; 3724.775;  211.350;    0.000
309.871; 3715.775;  191.350;    0.000
309.933; 3559.775;  151.350;    0.000
309.995; 3552.775;  179.350;    0.000
310.057; 3439.775;  175.350;    0.000
310.119; 3392.775;  161.350;    0.000
310.180; 3463.775;  167.350;    0.000
310.242; 3331.775;  171.350;    0.000
310.304; 3374.775;  209.350;    0.000
310.366; 3401.775;  229.350;    0.000
310.428; 3366.775;  132.350;    0.000
310.489; 3261.775;  165.350;    0.000
310.551; 3273.775;  193.350;    0.000
310.613; 3283.775;  182.350;    0.000
310.675; 3334.775;  186.350;    0.000
310.737; 3337.775;  192.350;    0.000
310.798; 3418.775;  194.350;    0.000
310.860; 3376.775;  220.350;    0.000
310.922; 3281.775;  161.350;    0.000
310.983; 3319.775;  203.350;    0.000
311.045; 3266.775;  198.350;    0.000
311.107; 3319.775;  179.350;    0.000
311.169; 3196.775;  154.350;    0.000
311.230; 3228.775;  134.350;    0.000
311.292; 3343.775;  215.350;    0.000
311.354; 3279.775;  171.350;    0.000
311.415; 3363.775;  195.350;    0.000
311.477; 3228.775;  185.350;    0.000
311.539; 3176.775;  183.350;    0.000
311.600; 3267.775;  183.350;    0.000
311.662; 3313.775;  207.350;    0.000
311.724; 3269.775;  193.350;    0.000
311.785; 3278.775;  180.350;    0.000
311.847; 3120.775;  155.350;    0.000
311.908; 3175.775;  179.350;    0.000
311.970; 3310.775;  193.350;    0.000
312.032; 3292.775;  188.350;    0.000
312.093; 3307.775;  166.350;    0.000
312.155; 3290.775;  147.350;    0.000
312.216; 3221.775;  177.350;    0.000
312.278; 3259.775;  162.350;    0.000
312.339; 3262.775;  158.350;    0.000
312.401; 3373.775;  181.350;    0.000
312.462; 3257.775;  153.350;    0.000
312.524; 3312.775;  186.350;    0.000
312.585; 3321.775;  191.350;    0.000
312.647; 3207.775;  131.350;    0.000
312.708; 3288.775;  170.350;    0.000
312.770; 3364.775;  194.350;    0.000
312.831; 3268.775;  161.350;    0.000
312.893; 3356.775;  179.350;    0.000
312.954; 3447.775;  183.350;    0.000
313.016; 3242.775;  189.350;    0.000
313.077; 3290.775;  169.350;    0.000
313.139; 3446.775;  148.350;    0.000
313.200; 3318.775;  155.350;    0.000
313.261; 3421.775;  213.350;    0.000
313.323; 3335.775;  162.350;    0.000
313.384; 3355.775;  160.350;    0.000
313.446; 3299.775;  202.350;    0.000
313.507; 3387.775;  149.350;    0.000
313.568; 3302.775;  194.350;    0.000
313.630; 3379.775;  163.350;    0.000
313.691; 3307.775;  158.350;    0.000
313.752; 3291.775;  179.350;    0.000
313.814; 3289.775;  180.350;    0.000
313.875; 3377.775;  191.350;    0.000
313.936; 3367.775;  169.350;    0.000
313.998; 3297.775;  165.350;    0.000
314.059; 3299.775;  211.350;    0.000
314.120; 3378.775;  190.350;    0.000
314.182; 3408.775;  185.350;    0.000
314.243; 3291.775;  186.350;    0.000
314.304; 3312.775;  178.350;    0.000
314.365; 3361.775;  187.350;    0.000
314.427; 3281.775;  145.350;    0.000
314.488; 3270.775;  184.350;    0.000
314.549; 3343.775;  181.350;    0.000
314.610; 3312.775;  151.350;    0.000
314.672; 3314.775;  153.350;    0.000
314.733; 3330.775;  148.350;    0.000
314.794; 3341.775;  156.350;    0.000
314.855; 3331.775;  196.350;    0.000
314.917; 3274.775;  157.350;    0.000
314.978; 3307.775;  174.350;    0.000
315.039; 3347.775;  168.350;    0.000
315.100; 3382.775;  154.350;    0.000
315.161; 3249.775;  176.350;    0.000
315.222; 3333.775;  198.350;    0.000
315.283; 3343.775;  169.350;    0.000
315.345; 3327.775;  162.350;    0.000
315.406; 3241.775;  199.350;    0.000
315.467; 3314.775;  180.350;    0.000
315.528; 3322.775;  179.350;    0.000
315.589; 3299.775;  166.350;    0.000
315.650; 3221.775;  179.350;    0.000
315.711; 3310.775;  177.350;    0.000
315.772; 3293.775;  180.350;    0.000
315.833; 3301.775;  157.350;    0.000
315.894; 3325.775;  133.350;    0.000
315.955; 3346.775;  205.350;    0.000
316.016; 3339.775;  190.350;    0.000
316.078; 3202.775;  174.350;    0.000
316.139; 3250.775;  208.350;    0.000
316.200; 3338.775;  166.350;    0.000
316.261; 3363.775;  186.350;    0.000
316.322; 3241.775;  185.350;    0.000
316.383; 3307.775;  179.350;    0.000
316.444; 3247.775;  172.350;    0.000
316.504; 3217.775;  181.350;    0.000
316.565; 3245.775;  197.350;    0.000
316.626; 3214.775;  196.350;    0.000
316.687; 3237.775;  173.350;    0.000
316.748; 3195.775;  178.350;    0.000
316.809; 3238.775;  178.350;    0.000
316.870; 3290.775;  134.350;    0.000
316.931; 3197.775;  166.350;    0.000
316.992; 3292.775;  200.350;    0.000
317.053; 3231.775;  169.350;    0.000
317.114; 3285.775;  185.350;    0.000
317.175; 3175.775;  213.350;    0.000
317.235; 3200.775;  199.350;    0.000
317.296; 3312.775;  190.350;    0.000
317.357; 3181.775;  152.350;    0.000
317.418; 3240.775;  192.350;    0.000
317.479; 3211.775;  170.350;    0.000
317.540; 3274.775;  179.350;    0.000
317.601; 3230.775;  155.350;    0.000
317.661; 3244.775;  154.350;    0.000
317.722; 3374.775;  190.350;    0.000
317.783; 3155.775;  149.350;    0.000
317.844; 3211.775;  207.350;    0.000
317.904; 3213.775;  153.350;    0.000
317.965; 3210.775;  179.350;    0.000
318.026; 3259.775;  235.350;    0.000
318.087; 3265.775;  184.350;    0.000
318.148; 3175.775;  201.350;    0.000
318.208; 3248.775;  220.350;    0.000
318.269; 3193.775;  175.350;    0.000
318.330; 3141.775;  185.350;    0.000
318.390; 3198.775;  180.350;    0.000
318.451; 3295.775;  164.350;    0.000
318.512; 3156.775;  150.350;    0.000
318.572; 3260.775;  205.350;    0.000
318.633; 3170.775;  224.350;    0.000
318.694; 3281.775;  202.350;    0.000
318.754; 3195.775;  196.350;    0.000
318.815; 3244.775;  187.350;    0.000
318.876; 3212.775;  200.350;    0.000
318.936; 3161.775;  232.350;    0.000
318.997; 3160.775;  211.350;    0.000
319.058; 3211.775;  194.350;    0.000
319.118; 3178.775;  197.350;    0.000
319.179; 3216.775;  162.350;    0.000
319.239; 3208.775;  188.350;    0.000
319.300; 3174.775;  205.350;    0.000
319.361; 3251.775;  179.350;    0.000
319.421; 3155.775;  182.350;    0.000
319.482; 3170.775;  189.350;    0.000
319.542; 3160.775;  180.350;    0.000
319.603; 3123.775;  204.350;    0.000
319.663; 3141.775;  195.350;    0.000
319.724; 3177.775;  135.350;    0.000
319.784; 3177.775;  184.350;    0.000
319.845; 3178.775;  160.350;    0.000
319.905; 3221.775;  206.350;    0.000
319.966; 3222.775;  203.350;    0.000
320.026; 3234.775;  203.350;    0.000
320.087; 3156.775;  206.350;    0.000
320.147; 3181.775;  180.350;    0.000
320.208; 3146.775;  189.350;    0.000
320.268; 3189.775;  179.350;    0.000
320.329; 3139.775;  215.350;    0.000
320.389; 3196.775;  193.350;    0.000
320.449; 3160.775;  210.350;    0.000
320.510; 3087.775;  206.350;    0.000
320.570; 3092.775;  221.350;    0.000
320.631; 3143.775;  203.350;    0.000
320.691; 3236.775;  190.350;    0.000
320.751; 3112.775;  205.350;    0.000
320.812; 3199.775;  191.350;    0.000
320.872; 3252.775;  216.350;    0.000
320.932; 3131.775;  209.350;    0.000
320.993; 3236.775;  189.350;    0.000
321.053; 3178.775;  228.350;    0.000
321.113; 3217.775;  163.350;    0.000
321.174; 3192.775;  204.350;    0.000
321.234; 3275.775;  214.350;    0.000
321.294; 3020.775;  184.350;    0.000
321.355; 3103.775;  216.350;    0.000
321.415; 3158.775;  187.350;    0.000
321.475; 3100.775;  216.350;    0.000
321.535; 3207.775;  189.350;    0.000
321.596; 3166.775;  186.350;    0.000
321.656; 3229.775;  204.350;    0.000
321.716; 3149.775;  183.350;    0.000
321.776; 3138.775;  194.350;    0.000
321.837; 3167.775;  190.350;    0.000
321.897; 3155.775;  219.350;    0.000
321.957; 3120.775;  222.350;    0.000
322.017; 3088.775;  183.350;    0.000
322.077; 3207.775;  239.350;    0.000
322.138; 3183.775;  219.350;    0.000
322.198; 3139.775;  185.350;    0.000
322.258; 3124.775;  231.350;    0.000
322.318; 3020.775;  197.350;    0.000
322.378; 3081.775;  179.350;    0.000
322.438; 3049.775;  217.350;    0.000
322.499; 3055.775;  238.350;    0.000
322.559; 3122.775;  197.350;    0.000
322.619; 3186.775;  204.350;    0.000
322.679; 3088.775;  199.350;    0.000
322.739; 3070.775;  194.350;    0.000
322.799; 3099.775;  203.350;    0.000
322.859; 3095.775;  234.350;    0.000
322.919; 3031.775;  194.350;    0.000
322.979; 3122.775;  219.350;    0.000
323.039; 3097.775;  193.350;    0.000
323.099; 3043.775;  207.350;    0.000
323.159; 3129.775;  213.350;    0.000
323.219; 3125.775;  171.350;    0.000
323.279; 3161.775;  215.350;    0.000
323.339; 3224.775;  170.350;    0.000
323.399; 3095.775;  195.350;    0.000
323.459; 3136.775;  234.350;    0.000
323.519; 3096.775;  201.350;    0.000
323.579; 3072.775;  167.350;    0.000
323.639; 3128.775;  209.350;    0.000
323.699; 3161.775;  217.350;    0.000
323.759; 3074.775;  213.350;    0.000
323.819; 3112.775;  216.350;    0.000
323.879; 3128.775;  193.350;    0.000
323.939; 3104.775;  182.350;    0.000
323.999; 3088.775;  206.350;    0.000
324.059; 3171.775;  196.350;    0.000
324.119; 3134.775;  240.350;    0.000
324.178; 3084.775;  186.350;    0.000
324.238; 2950.775;  179.350;    0.000
324.298; 3006.775;  195.350;    0.000
324.358; 3081.775;  208.350;    0.000
324.418; 3115.775;  190.350;    0.000
324.478; 3052.775;  197.350;    0.000
324.538; 3035.775;  157.350;    0.000
324.597; 3153.775;  219.350;    0.000
324.657; 3006.775;  176.350;    0.000
324.717; 3073.775;  179.350;    0.000
324.777; 3086.775;  190.350;    0.000
324.837; 2959.775;  172.350;    0.000
324.896; 2964.775;  199.350;    0.000
324.956; 3055.775;  216.350;    0.000
325.016; 3066.775;  191.350;    0.000
325.076; 3133.775;  185.350;    0.000
325.135; 3047.775;  174.350;    0.000
325.195; 3058.775;  175.350;    0.000
325.255; 2977.775;  144.350;    0.000
325.315; 2999.775;  201.350;    0.000
325.374; 3068.775;  198.350;    0.000
325.434; 3045.775;  181.350;    0.000
325.494; 3039.775;  183.350;    0.000
325.553; 3074.775;  172.350;    0.000
325.613; 3031.775;  200.350;    0.000
325.673; 2978.775;  177.350;    0.000
325.732; 3122.775;  174.350;    0.000
325.792; 3025.775;  181.350;    0.000
325.852; 3081.775;  214.350;    0.000
325.911; 3049.775;  230.350;    0.000
325.971; 3041.775;  198.350;    0.000
326.031; 3081.775;  201.350;    0.000
326.090; 3080.775;  214.350;    0.000
326.150; 3062.775;  163.350;    0.000
326.209; 2998.775;  207.350;    0.000
326.269; 2946.775;  201.350;    0.000
326.328; 2970.775;  208.350;    0.000
326.388; 3130.775;  169.350;    0.000
326.448; 3083.775;  229.350;    0.000
326.507; 2995.775;  243.350;    0.000
326.567; 3015.775;  162.350;    0.000
326.626; 3019.775;  200.350;    0.000
326.686; 3021.775;  166.350;    0.000
326.745; 3003.775;  178.350;    0.000
326.805; 2999.775;  185.350;    0.000
326.864; 2945.775;  209.350;    0.000
326.924; 3085.775;  234.350;    0.000
326.983; 2922.775;  197.350;    0.000
327.043; 3015.775;  217.350;    0.000
327.102; 2861.775;  174.350;    0.000
327.161; 2932.775;  172.350;    0.000
327.221; 2992.775;  183.350;    0.000
327.280; 2995.775;  200.350;    0.000
327.340; 2911.775;  200.350;    0.000
327.399; 3002.775;  219.350;    0.000
327.459; 3068.775;  246.350;    0.000
327.518; 2920.775;  217.350;    0.000
327.577; 2949.775;  212.350;    0.000
327.637; 2919.775;  188.350;    0.000
327.696; 2979.775;  201.350;    0.000
327.755; 2914.775;  199.350;    0.000
327.815; 2946.775;  224.350;    0.000
327.874; 3002.775;  236.350;    0.000
327.933; 2935.775;  182.350;    0.000
327.993; 2993.775;  206.350;    0.000
328.052; 2955.775;  191.350;    0.000
328.111; 2975.775;  222.350;    0.000
328.171; 2939.775;  200.350;    0.000
328.230; 3001.775;  203.350;    0.000
328.289; 3062.775;  219.350;    0.000
328.349; 2929.775;  231.350;    0.000
328.408; 3055.775;  223.350;    0.000
328.467; 2909.775;  226.350;    0.000
328.526; 3012.775;  197.350;    0.000
328.586; 3017.775;  221.350;    0.000
328.645; 2956.775;  199.350;    0.000
328.704; 2861.775;  227.350;    0.000
328.763; 2936.775;  201.350;    0.000
328.822; 2896.775;  230.350;    0.000
328.882; 3024.775;  244.350;    0.000
328.941; 2964.775;  221.350;    0.000
329.000; 2900.775;  207.350;    0.000
329.059; 2980.775;  208.350;    0.000
329.118; 2922.775;  203.350;    0.000
329.177; 2894.775;  198.350;    0.000
329.237; 2970.775;  218.350;    0.000
329.296; 3028.775;  213.350;    0.000
329.355; 2926.775;  208.350;    0.000
329.414; 2975.775;  231.350;    0.000
329.473; 2945.775;  221.350;    0.000
329.532; 3033.775;  243.350;    0.000
329.591; 3014.775;  210.350;    0.000
329.650; 3065.775;  232.350;    0.000
329.709; 3109.775;  211.350;    0.000
329.768; 3096.775;  194.350;    0.000
329.827; 3178.775;  237.350;    0.000
329.886; 3209.775;  213.350;    0.000
329.945; 3234.775;  190.350;    0.000
330.004; 3214.775;  233.350;    0.000
330.063; 3474.775;  191.350;    0.000
330.122; 3827.775;  234.350;    0.000
330.181; 4262.775;  220.350;    0.000
330.240; 4495.775;  191.350;    0.000
330.299; 3791.775;  210.350;    0.000
330.358; 3587.775;  191.350;    0.000
330.417; 3221.775;  225.350;    0.000
330.476; 3093.775;  226.350;    0.000
330.535; 2989.775;  217.350;    0.000
330.594; 3117.775;  205.350;    0.000
330.653; 2915.775;  193.350;    0.000
330.712; 2974.775;  206.350;    0.000
330.771; 2950.775;  175.350;    0.000
330.830; 2804.775;  204.350;    0.000
330.889; 2938.775;  198.350;    0.000
330.948; 2931.775;  198.350;    0.000
331.006; 2783.775;  207.350;    0.000
331.065; 2765.775;  203.350;    0.000
331.124; 2880.775;  210.350;    0.000
331.183; 2811.775;  165.350;    0.000
331.242; 2841.775;  195.350;    0.000
331.301; 2863.775;  191.350;    0.000
331.359; 2932.775;  205.350;    0.000
331.418; 2822.775;  183.350;    0.000
331.477; 2859.775;  198.350;    0.000
331.536; 2890.775;  211.350;    0.000
331.595; 2783.775;  191.350;    0.000
331.653; 2778.775;  232.350;    0.000
331.712; 2809.775;  225.350;    0.000
331.771; 2761.775;  199.350;    0.000
331.830; 2773.775;  189.350;    0.000
331.888; 2779.775;  219.350;    0.000
331.947; 2813.775;  188.350;    0.000
332.006; 2772.775;  180.350;    0.000
332.065; 2788.775;  177.350;    0.000
332.123; 2804.775;  214.350;    0.000
332.182; 2779.775;  223.350;    0.000
332.241; 2774.775;  202.350;    0.000
332.299; 2700.775;  180.350;    0.000
332.358; 2836.775;  206.350;    0.000
332.417; 2872.775;  195.350;    0.000
332.475; 2819.775;  221.350;    0.000
332.534; 2851.775;  207.350;    0.000
332.592; 2788.775;  190.350;    0.000
332.651; 2852.775;  203.350;    0.000
332.710; 2788.775;  219.350;    0.000
332.768; 2895.775;  210.350;    0.000
332.827; 2885.775;  173.350;    0.000
332.885; 2934.775;  239.350;    0.000
332.944; 2878.775;  145.350;    0.000
333.003; 2868.775;  197.350;    0.000
333.061; 3001.775;  179.350;    0.000
333.120; 2872.775;  198.350;    0.000
333.178; 2961.775;  185.350;    0.000
333.237; 3047.775;  204.350;    0.000
333.295; 3002.775;  266.350;    0.000
333.354; 2984.775;  181.350;    0.000
333.412; 2966.775;  189.350;    0.000
333.471; 2988.775;  216.350;    0.000
333.529; 3009.775;  220.350;    0.000
333.588; 3015.775;  193.350;    0.000
333.646; 3068.775;  186.350;    0.000
333.705; 3137.775;  210.350;    0.000
333.763; 3048.775;  222.350;    0.000
333.822; 3044.775;  222.350;    0.000
333.880; 2991.775;  202.350;    0.000
333.938; 2940.775;  205.350;    0.000
333.997; 2880.775;  199.350;    0.000
334.055; 3132.775;  199.350;    0.000
334.114; 2854.775;  237.350;    0.000
334.172; 2841.775;  155.350;    0.000
334.230; 3058.775;  208.350;    0.000
334.289; 2826.775;  191.350;    0.000
334.347; 2928.775;  211.350;    0.000
334.405; 2945.775;  212.350;    0.000
334.464; 2978.775;  179.350;    0.000
334.522; 2925.775;  160.350;    0.000
334.580; 2925.775;  195.350;    0.000
334.639; 2918.775;  191.350;    0.000
334.697; 2874.775;  194.350;    0.000
334.755; 2957.775;  185.350;    0.000
334.814; 2902.775;  214.350;    0.000
334.872; 2938.775;  179.350;    0.000
334.930; 2875.775;  169.350;    0.000
334.988; 2943.775;  201.350;    0.000
335.047; 2908.775;  188.350;    0.000
335.105; 2951.775;  175.350;    0.000
335.163; 2849.775;  191.350;    0.000
335.221; 2947.775;  196.350;    0.000
335.280; 2887.775;  182.350;    0.000
335.338; 2948.775;  202.350;    0.000
335.396; 2905.775;  219.350;    0.000
335.454; 2894.775;  187.350;    0.000
335.512; 2961.775;  236.350;    0.000
335.570; 2855.775;  209.350;    0.000
335.629; 2982.775;  247.350;    0.000
335.687; 2992.775;  219.350;    0.000
335.745; 2927.775;  203.350;    0.000
335.803; 2970.775;  220.350;    0.000
335.861; 2911.775;  208.350;    0.000
335.919; 2987.775;  223.350;    0.000
335.977; 2940.775;  201.350;    0.000
336.035; 2895.775;  193.350;    0.000
336.094; 2863.775;  178.350;    0.000
336.152; 2887.775;  182.350;    0.000
336.210; 2921.775;  199.350;    0.000
336.268; 2962.775;  216.350;    0.000
336.326; 2957.775;  216.350;    0.000
336.384; 2859.775;  201.350;    0.000
336.442; 2861.775;  197.350;    0.000
336.500; 2888.775;  203.350;    0.000
336.558; 2931.775;  198.350;    0.000
336.616; 2954.775;  210.350;    0.000
336.674; 2833.775;  192.350;    0.000
336.732; 2886.775;  182.350;    0.000
336.790; 2878.775;  189.350;    0.000
336.848; 2909.775;  233.350;    0.000
336.906; 2827.775;  235.350;    0.000
336.964; 2830.775;  208.350;    0.000
337.022; 2859.775;  249.350;    0.000
337.080; 2887.775;  204.350;    0.000
337.138; 2896.775;  176.350;    0.000
337.195; 2887.775;  207.350;    0.000
337.253; 2929.775;  214.350;    0.000
337.311; 2799.775;  210.350;    0.000
337.369; 2835.775;  222.350;    0.000
337.427; 2796.775;  236.350;    0.000
337.485; 2797.775;  241.350;    0.000
337.543; 2802.775;  217.350;    0.000
337.601; 2829.775;  221.350;    0.000
337.658; 2841.775;  205.350;    0.000
337.716; 2776.775;  210.350;    0.000
337.774; 2882.775;  196.350;    0.000
337.832; 2711.775;  200.350;    0.000
337.890; 2676.775;  192.350;    0.000
337.947; 2790.775;  192.350;    0.000
338.005; 2762.775;  211.350;    0.000
338.063; 2739.775;  176.350;    0.000
338.121; 2831.775;  222.350;    0.000
338.178; 2790.775;  198.350;    0.000
338.236; 2815.775;  210.350;    0.000
338.294; 2837.775;  211.350;    0.000
338.352; 2799.775;  212.350;    0.000
338.409; 2713.775;  199.350;    0.000
338.467; 2807.775;  205.350;    0.000
338.525; 2813.775;  217.350;    0.000
338.583; 2688.775;  197.350;    0.000
338.640; 2719.775;  226.350;    0.000
338.698; 2646.775;  201.350;    0.000
338.756; 2741.775;  192.350;    0.000
338.813; 2826.775;  220.350;    0.000
338.871; 2902.775;  258.350;    0.000
338.928; 2811.775;  223.350;    0.000
338.986; 2717.775;  200.350;    0.000
339.044; 2756.775;  206.350;    0.000
339.101; 2753.775;  250.350;    0.000
339.159; 2651.775;  245.350;    0.000
339.216; 2731.775;  227.350;    0.000
339.274; 2710.775;  260.350;    0.000
339.332; 2800.775;  223.350;    0.000
339.389; 2806.775;  233.350;    0.000
339.447; 2715.775;  206.350;    0.000
339.504; 2747.775;  229.350;    0.000
339.562; 2769.775;  194.350;    0.000
339.619; 2702.775;  245.350;    0.000
339.677; 2701.775;  238.350;    0.000
339.734; 2629.775;  197.350;    0.000
339.792; 2753.775;  210.350;    0.000
339.849; 2702.775;  201.350;    0.000
339.907; 2811.775;  252.350;    0.000
339.964; 2728.775;  191.350;    0.000
340.022; 2710.775;  246.350;    0.000
340.079; 2730.775;  213.350;    0.000
340.137; 2667.775;  240.350;    0.000
340.194; 2765.775;  208.350;    0.000
340.252; 2692.775;  215.350;    0.000
340.309; 2621.775;  203.350;    0.000
340.366; 2669.775;  194.350;    0.000
340.424; 2761.775;  226.350;    0.000
340.481; 2652.775;  234.350;    0.000
340.538; 2680.775;  205.350;    0.000
340.596; 2720.775;  197.350;    0.000
340.653; 2666.775;  233.350;    0.000
340.711; 2774.775;  273.350;    0.000
340.768; 2800.775;  237.350;    0.000
340.825; 2776.775;  224.350;    0.000
340.883; 2726.775;  240.350;    0.000
340.940; 2649.775;  216.350;    0.000
340.997; 2747.775;  228.350;    0.000
341.054; 2600.775;  200.350;    0.000
341.112; 2712.775;  220.350;    0.000
341.169; 2705.775;  226.350;    0.000
341.226; 2778.775;  206.350;    0.000
341.284; 2719.775;  204.350;    0.000
341.341; 2742.775;  214.350;    0.000
341.398; 2756.775;  160.350;    0.000
341.455; 2776.775;  209.350;    0.000
341.512; 2777.775;  233.350;    0.000
341.570; 2737.775;  240.350;    0.000
341.627; 2727.775;  209.350;    0.000
341.684; 2662.775;  178.350;    0.000
341.741; 2802.775;  254.350;    0.000
341.798; 2650.775;  232.350;    0.000
341.856; 2690.775;  196.350;    0.000
341.913; 2637.775;  244.350;    0.000
341.970; 2669.775;  203.350;    0.000
342.027; 2839.775;  235.350;    0.000
342.084; 2753.775;  214.350;    0.000
342.141; 2635.775;  194.350;    0.000
342.198; 2774.775;  194.350;    0.000
342.255; 2656.775;  219.350;    0.000
342.313; 2749.775;  195.350;    0.000
342.370; 2778.775;  207.350;    0.000
342.427; 2737.775;  217.350;    0.000
342.484; 2689.775;  213.350;    0.000
342.541; 2752.775;  215.350;    0.000
342.598; 2812.775;  247.350;    0.000
342.655; 2713.775;  205.350;    0.000
342.712; 2684.775;  226.350;    0.000
342.769; 2768.775;  212.350;    0.000
342.826; 2762.775;  203.350;    0.000
342.883; 2760.775;  207.350;    0.000
342.940; 2692.775;  204.350;    0.000
342.997; 2740.775;  237.350;    0.000
343.054; 2770.775;  210.350;    0.000
343.111; 2835.775;  209.350;    0.000
343.168; 2852.775;  201.350;    0.000
343.225; 2824.775;  208.350;    0.000
343.282; 2850.775;  216.350;    0.000
343.339; 2847.775;  237.350;    0.000
343.395; 2817.775;  218.350;    0.000
343.452; 2854.775;  234.350;    0.000
343.509; 2926.775;  214.350;    0.000
343.566; 2861.775;  222.350;    0.000
343.623; 2883.775;  226.350;    0.000
343.680; 2946.775;  245.350;    0.000
343.737; 2915.775;  209.350;    0.000
343.794; 2953.775;  227.350;    0.000
343.850; 3062.775;  197.350;    0.000
343.907; 2999.775;  211.350;    0.000
343.964; 2995.775;  190.350;    0.000
344.021; 3027.775;  252.350;    0.000
344.078; 3076.775;  261.350;    0.000
344.134; 3023.775;  206.350;    0.000
344.191; 2983.775;  231.350;    0.000
344.248; 3077.775;  225.350;    0.000
344.305; 3053.775;  210.350;    0.000
344.361; 2972.775;  194.350;    0.000
344.418; 3027.775;  219.350;    0.000
344.475; 2937.775;  245.350;    0.000
344.532; 2970.775;  238.350;    0.000
344.588; 2924.775;  235.350;    0.000
344.645; 2922.775;  229.350;    0.000
344.702; 2863.775;  145.350;    0.000
344.758; 3014.775;  240.350;    0.000
344.815; 2911.775;  215.350;    0.000
344.872; 2854.775;  203.350;    0.000
344.928; 2935.775;  208.350;    0.000
344.985; 2949.775;  216.350;    0.000
345.042; 2917.775;  234.350;    0.000
345.098; 2939.775;  183.350;    0.000
345.155; 2967.775;  241.350;    0.000
345.212; 2901.775;  222.350;    0.000
345.268; 2866.775;  234.350;    0.000
345.325; 2804.775;  181.350;    0.000
345.381; 2915.775;  251.350;    0.000
345.438; 2947.775;  256.350;    0.000
345.495; 2866.775;  247.350;    0.000
345.551; 2925.775;  231.350;    0.000
345.608; 2804.775;  206.350;    0.000
345.664; 2869.775;  201.350;    0.000
345.721; 2923.775;  216.350;    0.000
345.777; 2933.775;  195.350;    0.000
345.834; 2844.775;  195.350;    0.000
345.890; 2856.775;  227.350;    0.000
345.947; 2862.775;  240.350;    0.000
346.003; 2933.775;  248.350;    0.000
346.060; 2878.775;  213.350;    0.000
346.116; 2814.775;  225.350;    0.000
346.173; 2942.775;  199.350;    0.000
346.229; 2825.775;  264.350;    0.000
346.285; 2864.775;  246.350;    0.000
346.342; 2927.775;  240.350;    0.000
346.398; 2937.775;  222.350;    0.000
346.455; 3039.775;  231.350;    0.000
346.511; 2906.775;  214.350;    0.000
346.567; 2936.775;  231.350;    0.000
346.624; 2965.775;  222.350;    0.000
346.680; 3034.775;  197.350;    0.000
346.737; 2981.775;  225.350;    0.000
346.793; 3001.775;  255.350;    0.000
346.849; 2976.775;  245.350;    0.000
346.906; 2980.775;  221.350;    0.000
346.962; 3141.775;  260.350;    0.000
347.018; 3046.775;  238.350;    0.000
347.074; 2994.775;  257.350;    0.000
347.131; 2932.775;  200.350;    0.000
347.187; 2960.775;  232.350;    0.000
347.243; 2950.775;  240.350;    0.000
347.300; 3009.775;  249.350;    0.000
347.356; 3007.775;  250.350;    0.000
347.412; 2968.775;  252.350;    0.000
347.468; 2864.775;  254.350;    0.000
347.524; 2989.775;  280.350;    0.000
347.581; 2938.775;  228.350;    0.000
347.637; 3035.775;  261.350;    0.000
347.693; 3004.775;  238.350;    0.000
347.749; 2994.775;  261.350;    0.000
347.805; 2954.775;  238.350;    0.000
347.862; 3017.775;  246.350;    0.000
347.918; 2959.775;  256.350;    0.000
347.974; 3034.775;  277.350;    0.000
348.030; 2955.775;  242.350;    0.000
348.086; 2977.775;  223.350;    0.000
348.142; 3026.775;  215.350;    0.000
348.198; 3019.775;  272.350;    0.000
348.254; 3073.775;  292.350;    0.000
348.311; 2953.775;  235.350;    0.000
348.367; 3014.775;  263.350;    0.000
348.423; 3041.775;  193.350;    0.000
348.479; 2999.775;  266.350;    0.000
348.535; 2962.775;  238.350;    0.000
348.591; 2988.775;  237.350;    0.000
348.647; 3013.775;  239.350;    0.000
348.703; 3038.775;  240.350;    0.000
348.759; 2993.775;  253.350;    0.000
348.815; 3017.775;  255.350;    0.000
348.871; 2952.775;  256.350;    0.000
348.927; 3074.775;  261.350;    0.000
348.983; 3019.775;  258.350;    0.000
349.039; 3082.775;  204.350;    0.000
349.095; 3038.775;  215.350;    0.000
349.151; 2994.775;  230.350;    0.000
349.207; 2987.775;  216.350;    0.000
349.263; 2993.775;  235.350;    0.000
349.319; 3041.775;  244.350;    0.000
349.374; 3039.775;  213.350;    0.000
349.430; 3003.775;  241.350;    0.000
349.486; 3031.775;  248.350;    0.000
349.542; 3084.775;  259.350;    0.000
349.598; 2970.775;  208.350;    0.000
349.654; 3119.775;  242.350;    0.000
349.710; 2993.775;  246.350;    0.000
349.766; 3055.775;  226.350;    0.000
349.821; 3078.775;  227.350;    0.000
349.877; 3069.775;  226.350;    0.000
349.933; 3043.775;  249.350;    0.000
349.989; 3146.775;  263.350;    0.000
350.045; 2979.775;  267.350;    0.000
350.100; 3105.775;  219.350;    0.000
350.156; 3120.775;  207.350;    0.000
350.212; 3033.775;  230.350;    0.000
350.268; 3053.775;  223.350;    0.000
350.323; 3091.775;  217.350;    0.000
350.379; 3122.775;  227.350;    0.000
350.435; 3058.775;  219.350;    0.000
350.491; 3032.775;  195.350;    0.000
350.546; 3048.775;  229.350;    0.000
350.602; 3039.775;  222.350;    0.000
350.658; 3053.775;  225.350;    0.000
350.713; 3049.775;  231.350;    0.000
350.769; 3096.775;  193.350;    0.000
350.825; 3050.775;  182.350;    0.000
350.880; 3007.775;  193.350;    0.000
350.936; 3058.775;  222.350;    0.000
350.992; 2990.775;  217.350;    0.000
351.047; 2950.775;  226.350;    0.000
351.103; 3011.775;  187.350;    0.000
351.158; 3079.775;  212.350;    0.000
351.214; 3047.775;  207.350;    0.000
351.270; 3049.775;  194.350;    0.000
351.325; 2941.775;  213.350;    0.000
351.381; 3125.775;  223.350;    0.000
351.436; 3025.775;  222.350;    0.000
351.492; 3031.775;  219.350;    0.000
351.547; 3068.775;  205.350;    0.000
351.603; 3112.775;  218.350;    0.000
351.658; 3152.775;  199.350;    0.000
351.714; 3056.775;  201.350;    0.000
351.769; 3113.775;  209.350;    0.000
351.825; 3074.775;  226.350;    0.000
351.880; 3098.775;  189.350;    0.000
351.936; 3166.775;  201.350;    0.000
351.991; 3236.775;  220.350;    0.000
352.047; 3020.775;  232.350;    0.000
352.102; 3137.775;  185.350;    0.000
352.158; 3037.775;  228.350;    0.000
352.213; 3107.775;  204.350;    0.000
352.268; 3102.775;  220.350;    0.000
352.324; 3090.775;  206.350;    0.000
352.379; 3066.775;  182.350;    0.000
352.434; 3126.775;  214.350;    0.000
352.490; 3085.775;  250.350;    0.000
352.545; 3105.775;  290.350;    0.000
352.601; 3097.775;  247.350;    0.000
352.656; 3111.775;  203.350;    0.000
352.711; 3145.775;  197.350;    0.000
352.767; 3086.775;  169.350;    0.000
352.822; 3118.775;  191.350;    0.000
352.877; 3116.775;  235.350;    0.000
352.932; 3079.775;  231.350;    0.000
352.988; 3102.775;  224.350;    0.000
353.043; 3145.775;  226.350;    0.000
353.098; 3221.775;  227.350;    0.000
353.153; 3120.775;  239.350;    0.000
353.209; 3193.775;  217.350;    0.000
353.264; 3121.775;  198.350;    0.000
353.319; 3032.775;  247.350;    0.000
353.374; 3070.775;  199.350;    0.000
353.430; 3216.775;  247.350;    0.000
353.485; 3084.775;  242.350;    0.000
353.540; 3172.775;  237.350;    0.000
353.595; 3202.775;  233.350;    0.000
353.650; 3099.775;  221.350;    0.000
353.705; 3124.775;  259.350;    0.000
353.761; 3096.775;  223.350;    0.000
353.816; 3096.775;  234.350;    0.000
353.871; 3093.775;  226.350;    0.000
353.926; 3171.775;  232.350;    0.000
353.981; 3160.775;  245.350;    0.000
354.036; 3090.775;  247.350;    0.000
354.091; 3106.775;  233.350;    0.000
354.146; 3118.775;  253.350;    0.000
354.201; 3063.775;  236.350;    0.000
354.256; 3110.775;  210.350;    0.000
354.311; 3081.775;  279.350;    0.000
354.367; 3217.775;  208.350;    0.000
354.422; 3223.775;  228.350;    0.000
354.477; 3215.775;  202.350;    0.000
354.532; 3055.775;  215.350;    0.000
354.587; 3128.775;  249.350;    0.000
354.642; 3102.775;  206.350;    0.000
354.697; 3243.775;  226.350;    0.000
354.751; 3129.775;  241.350;    0.000
354.806; 3153.775;  249.350;    0.000
354.861; 3184.775;  216.350;    0.000
354.916; 3147.775;  249.350;    0.000
354.971; 3077.775;  217.350;    0.000
355.026; 3204.775;  236.350;    0.000
355.081; 3134.775;  242.350;    0.000
355.136; 3088.775;  216.350;    0.000
355.191; 3155.775;  216.350;    0.000
355.246; 3252.775;  258.350;    0.000
355.301; 3154.775;  250.350;    0.000
355.355; 3205.775;  251.350;    0.000
355.410; 3122.775;  216.350;    0.000
355.465; 3039.775;  224.350;    0.000
355.520; 3216.775;  221.350;    0.000
355.575; 3101.775;  255.350;    0.000
355.630; 3162.775;  225.350;    0.000
355.684; 3165.775;  210.350;    0.000
355.739; 3077.775;  232.350;    0.000
355.794; 3136.775;  202.350;    0.000
355.849; 3130.775;  211.350;    0.000
355.904; 3111.775;  226.350;    0.000
355.958; 3082.775;  191.350;    0.000
356.013; 3108.775;  208.350;    0.000
356.068; 3260.775;  229.350;    0.000
356.123; 3125.775;  243.350;    0.000
356.177; 3155.775;  227.350;    0.000
356.232; 3123.775;  243.350;    0.000
356.287; 3154.775;  216.350;    0.000
356.341; 3226.775;  242.350;    0.000
356.396; 3096.775;  175.350;    0.000
356.451; 3233.775;  271.350;    0.000
356.505; 3157.775;  225.350;    0.000
356.560; 3165.775;  260.350;    0.000
356.615; 3165.775;  213.350;    0.000
356.669; 3246.775;  213.350;    0.000
356.724; 3190.775;  221.350;    0.000
356.778; 3048.775;  232.350;    0.000
356.833; 3054.775;  178.350;    0.000
356.888; 3134.775;  236.350;    0.000
356.942; 3147.775;  224.350;    0.000
356.997; 3189.775;  228.350;    0.000
357.051; 3208.775;  226.350;    0.000
357.106; 3193.775;  185.350;    0.000
357.160; 3105.775;  202.350;    0.000
357.215; 3169.775;  232.350;    0.000
357.269; 3120.775;  224.350;    0.000
357.324; 3164.775;  219.350;    0.000
357.378; 3188.775;  196.350;    0.000
357.433; 3144.775;  241.350;    0.000
357.487; 3264.775;  244.350;    0.000
357.542; 3246.775;  210.350;    0.000
357.596; 3152.775;  231.350;    0.000
357.651; 3216.775;  248.350;    0.000
357.705; 3140.775;  232.350;    0.000
357.760; 3214.775;  224.350;    0.000
357.814; 3211.775;  221.350;    0.000
357.868; 3252.775;  207.350;    0.000
357.923; 3152.775;  234.350;    0.000
357.977; 3042.775;  218.350;    0.000
358.032; 3191.775;  244.350;    0.000
358.086; 3163.775;  246.350;    0.000
358.140; 3192.775;  235.350;    0.000
358.195; 3200.775;  237.350;    0.000
358.249; 3177.775;  233.350;    0.000
358.303; 3189.775;  254.350;    0.000
358.358; 3203.775;  217.350;    0.000
358.412; 3138.775;  245.350;    0.000
358.466; 3170.775;  230.350;    0.000
358.521; 3106.775;  214.350;    0.000
358.575; 3018.775;  243.350;    0.000
358.629; 3171.775;  230.350;    0.000
358.683; 3155.775;  232.350;    0.000
358.738; 3185.775;  249.350;    0.000
358.792; 3159.775;  249.350;    0.000
358.846; 3147.775;  271.350;    0.000
358.900; 3101.775;  265.350;    0.000
358.954; 3133.775;  236.350;    0.000
359.009; 3104.775;  254.350;    0.000
359.063; 3155.775;  216.350;    0.000
359.117; 3161.775;  245.350;    0.000
359.171; 3178.775;  252.350;    0.000
359.225; 3160.775;  240.350;    0.000
359.280; 3088.775;  239.350;    0.000
359.334; 3189.775;  234.350;    0.000
359.388; 3156.775;  258.350;    0.000
359.442; 3241.775;  220.350;    0.000
359.496; 3102.775;  206.350;    0.000
359.550; 3232.775;  279.350;    0.000
359.604; 3168.775;  263.350;    0.000
359.658; 3156.775;  251.350;    0.000
359.712; 3130.775;  244.350;    0.000
359.766; 3143.775;  217.350;    0.000
359.820; 3178.775;  235.350;    0.000
359.875; 3138.775;  249.350;    0.000
359.929; 3156.775;  269.350;    0.000
359.983; 3131.775;  240.350;    0.000
360.037; 3187.775;  252.350;    0.000
360.091; 3095.775;  271.350;    0.000
360.145; 3025.775;  222.350;    0.000
360.199; 3176.775;  302.350;    0.000
360.253; 3089.775;  234.350;    0.000
360.306; 3231.775;  258.350;    0.000
360.360; 3117.775;  249.350;    0.000
360.414; 3208.775;  231.350;    0.000
360.468; 3214.775;  261.350;    0.000
360.522; 3152.775;  277.350;    0.000
360.576; 3159.775;  273.350;    0.000
360.630; 3198.775;  264.350;    0.000
360.684; 3188.775;  223.350;    0.000
360.738; 3031.775;  266.350;    0.000
360.792; 3166.775;  252.350;    0.000
360.846; 3157.775;  234.350;    0.000
360.899; 3201.775;  296.350;    0.000
360.953; 3100.775;  273.350;    0.000
361.007; 3197.775;  251.350;    0.000
361.061; 3323.775;  250.350;    0.000
361.115; 3184.775;  267.350;    0.000
361.168; 3222.775;  308.350;    0.000
361.222; 3126.775;  246.350;    0.000
361.276; 3244.775;  261.350;    0.000
361.330; 3217.775;  233.350;    0.000
361.384; 3140.775;  269.350;    0.000
361.437; 3265.775;  270.350;    0.000
361.491; 3205.775;  263.350;    0.000
361.545; 3322.775;  288.350;    0.000
361.599; 3214.775;  270.350;    0.000
361.652; 3246.775;  256.350;    0.000
361.706; 3214.775;  263.350;    0.000
361.760; 3116.775;  237.350;    0.000
361.813; 3151.775;  278.350;    0.000
361.867; 3171.775;  317.350;    0.000
361.921; 3171.775;  260.350;    0.000
361.974; 3131.775;  239.350;    0.000
362.028; 3118.775;  266.350;    0.000
362.082; 3229.775;  269.350;    0.000
362.135; 3233.775;  262.350;    0.000
362.189; 3203.775;  258.350;    0.000
362.242; 3217.775;  273.350;    0.000
362.296; 3179.775;  261.350;    0.000
362.350; 3240.775;  272.350;    0.000
362.403; 3178.775;  291.350;    0.000
362.457; 3115.775;  253.350;    0.000
362.510; 3188.775;  266.350;    0.000
362.564; 2977.775;  260.350;    0.000
362.617; 3178.775;  280.350;    0.000
362.671; 3227.775;  281.350;    0.000
362.724; 3121.775;  234.350;    0.000
362.778; 3164.775;  311.350;    0.000
362.831; 3136.775;  276.350;    0.000
362.885; 3147.775;  288.350;    0.000
362.938; 3121.775;  284.350;    0.000
362.992;  322.775;  245.350;    0.000
363.045;  270.775;  277.350;    0.000
363.099;  280.775;  246.350;    0.000
363.152;  275.775;  290.350;    0.000
363.205;  298.775;  256.350;    0.000
363.259;  293.775;  238.350;    0.000
363.312;  333.775;  290.350;    0.000
363.366;  294.775;  287.350;    0.000
363.419;  295.775;  279.350;    0.000
363.472;  297.775;  304.350;    0.000
363.526;  276.775;  305.350;    0.000
363.579;  304.775;  281.350;    0.000
363.632;  279.775;  279.350;    0.000
363.686;  267.775;  277.350;    0.000
363.739;  248.775;  268.350;    0.000
363.792;  290.775;  274.350;    0.000

