
Integration time [ms]:   1.000
Averaging Nr. [scans]: 1
Smoothing Nr. [pixels]: 0
Data measured with spectrometer [name]: UV2
Wave   ;Sample   ;Dark     ;Reference
[nm]   ;[counts] ;[counts] ;[counts] 

353.533;  214.550;  216.475;    0.000
353.597;  236.550;  244.475;    0.000
353.660;  196.550;  181.475;    0.000
353.723;  190.550;  203.475;    0.000
353.786;  195.550;  180.475;    0.000
353.850;  222.550;  213.475;    0.000
353.913;  189.550;  191.475;    0.000
353.976;  209.550;  195.475;    0.000
354.039;  152.550;  158.475;    0.000
354.102;  215.550;  199.475;    0.000
354.166;  248.550;  185.475;    0.000
354.229;  208.550;  188.475;    0.000
354.292;  172.550;  188.475;    0.000
354.355;  181.550;  226.475;    0.000
354.418;  189.550;  158.475;    0.000
354.481;  215.550;  185.475;    0.000
354.545;  689.550;  191.475;    0.000
354.608;  689.550;  247.475;    0.000
354.671;  710.550;  176.475;    0.000
354.734;  702.550;  198.475;    0.000
354.797;  717.550;  195.475;    0.000
354.860;  668.550;  212.475;    0.000
354.923;  746.550;  184.475;    0.000
354.986;  696.550;  169.475;    0.000
355.050;  810.550;  206.475;    0.000
355.113;  778.550;  210.475;    0.000
355.176;  781.550;  217.475;    0.000
355.239;  740.550;  201.475;    0.000
355.302;  789.550;  193.475;    0.000
355.365;  804.550;  234.475;    0.000
355.428;  848.550;  182.475;    0.000
355.491;  848.550;  233.475;    0.000
355.554;  815.550;  167.475;    0.000
355.617;  894.550;  195.475;    0.000
355.680;  877.550;  198.475;    0.000
355.743;  867.550;  186.475;    0.000
355.806;  859.550;  171.475;    0.000
355.869;  897.550;  244.475;    0.000
355.932;  798.550;  164.475;    0.000
355.995;  894.550;  220.475;    0.000
356.058;  883.550;  172.475;    0.000
356.121;  921.550;  228.475;    0.000
356.184;  918.550;  225.475;    0.000
356.247;  912.550;  161.475;    0.000
356.310;  854.550;  195.475;    0.000
356.373;  923.550;  191.475;    0.000
356.436;  960.550;  147.475;    0.000
356.498;  990.550;  183.475;    0.000
356.561;  923.550;  137.475;    0.000
356.624;  972.550;  186.475;    0.000
356.687;  949.550;  158.475;    0.000
356.750;  943.550;  194.475;    0.000
356.813;  974.550;  186.475;    0.000
356.876;  935.550;  161.475;    0.000
356.939;  921.550;  188.475;    0.000
357.001; 1060.550;  200.475;    0.000
357.064; 1039.550;  182.475;    0.000
357.127;  946.550;  168.475;    0.000
357.190;  955.550;  157.475;    0.000
357.253; 1010.550;  199.475;    0.000
357.316;  983.550;  187.475;    0.000
357.378;  923.550;  174.475;    0.000
357.441;  960.550;  165.475;    0.000
357.504;  949.550;  189.475;    0.000
357.567;  922.550;  116.475;    0.000
357.629;  941.550;  176.475;    0.000
357.692; 1033.550;  134.475;    0.000
357.755;  963.550;  175.475;    0.000
357.818; 1006.550;  159.475;    0.000
357.880; 1098.550;  185.475;    0.000
357.943; 1038.550;  159.475;    0.000
358.006; 1010.550;  176.475;    0.000
358.069; 1093.550;  156.475;    0.000
358.131; 1158.550;  170.475;    0.000
358.194; 1016.550;  125.475;    0.000
358.257; 1020.550;  186.475;    0.000
358.319; 1084.550;  139.475;    0.000
358.382; 1008.550;  175.475;    0.000
358.445; 1054.550;  170.475;    0.000
358.507;  993.550;  129.475;    0.000
358.570; 1021.550;  168.475;    0.000
358.633; 1023.550;  152.475;    0.000
358.695; 1023.550;  194.475;    0.000
358.758; 1006.550;  154.475;    0.000
358.821; 1032.550;  147.475;    0.000
358.883; 1040.550;  163.475;    0.000
358.946; 1031.550;  155.475;    0.000
359.008; 1087.550;  208.475;    0.000
359.071; 1034.550;  182.475;    0.000
359.134;  979.550;  126.475;    0.000
359.196; 1069.550;  142.475;    0.000
359.259; 1041.550;  138.475;    0.000
359.321; 1075.550;  153.475;    0.000
359.384; 1142.550;  186.475;    0.000
359.446; 1089.550;  152.475;    0.000
359.509; 1022.550;  144.475;    0.000
359.571; 1040.550;  164.475;    0.000
359.634; 1011.550;  171.475;    0.000
359.696; 1032.550;  144.475;    0.000
359.759; 1142.550;  171.475;    0.000
359.821; 1072.550;  161.475;    0.000
359.884; 1071.550;  159.475;    0.000
359.946; 1159.550;  186.475;    0.000
360.009; 1043.550;  171.475;    0.000
360.071; 1076.550;  166.475;    0.000
360.134; 1097.550;  215.475;    0.000
360.196; 1093.550;  138.475;    0.000
360.259; 1069.550;  196.475;    0.000
360.321; 1087.550;  148.475;    0.000
360.384; 1113.550;  150.475;    0.000
360.446; 1132.550;  148.475;    0.000
360.508; 1142.550;  172.475;    0.000
360.571; 1132.550;  155.475;    0.000
360.633; 1077.550;  153.475;    0.000
360.696; 1030.550;  142.475;    0.000
360.758; 1117.550;  165.475;    0.000
360.820; 1142.550;  155.475;    0.000
360.883; 1103.550;  156.475;    0.000
360.945; 1160.550;  171.475;    0.000
361.007; 1124.550;  138.475;    0.000
361.070; 1104.550;  129.475;    0.000
361.132; 1160.550;  166.475;    0.000
361.194; 1141.550;  143.475;    0.000
361.257; 1113.550;  154.475;    0.000
361.319; 1159.550;  176.475;    0.000
361.381; 1097.550;  143.475;    0.000
361.443; 1085.550;  136.475;    0.000
361.506; 1180.550;  160.475;    0.000
361.568; 1112.550;  140.475;    0.000
361.630; 1095.550;  159.475;    0.000
361.693; 1108.550;  162.475;    0.000
361.755; 1158.550;  185.475;    0.000
361.817; 1183.550;  209.475;    0.000
361.879; 1243.550;  161.475;    0.000
361.941; 1175.550;  152.475;    0.000
362.004; 1119.550;  132.475;    0.000
362.066; 1146.550;  159.475;    0.000
362.128; 1155.550;  143.475;    0.000
362.190; 1149.550;  131.475;    0.000
362.252; 1163.550;  131.475;    0.000
362.315; 1171.550;  175.475;    0.000
362.377; 1144.550;  140.475;    0.000
362.439; 1153.550;  140.475;    0.000
362.501; 1170.550;  140.475;    0.000
362.563; 1183.550;  152.475;    0.000
362.625; 1151.550;  174.475;    0.000
362.688; 1173.550;  195.475;    0.000
362.750; 1218.550;  221.475;    0.000
362.812; 1194.550;  171.475;    0.000
362.874; 1173.550;  117.475;    0.000
362.936; 1191.550;  162.475;    0.000
362.998; 1120.550;  142.475;    0.000
363.060; 1234.550;  143.475;    0.000
363.122; 1252.550;  148.475;    0.000
363.184; 1242.550;  179.475;    0.000
363.246; 1181.550;  186.475;    0.000
363.308; 1159.550;  180.475;    0.000
363.370; 1198.550;  200.475;    0.000
363.432; 1195.550;  139.475;    0.000
363.494; 1194.550;  138.475;    0.000
363.556; 1224.550;  114.475;    0.000
363.618; 1207.550;  153.475;    0.000
363.680; 1226.550;  153.475;    0.000
363.742; 1223.550;  178.475;    0.000
363.804; 1216.550;  214.475;    0.000
363.866; 1163.550;  170.475;    0.000
363.928; 1173.550;  145.475;    0.000
363.990; 1200.550;  215.475;    0.000
364.052; 1217.550;  166.475;    0.000
364.114; 1211.550;  168.475;    0.000
364.176; 1255.550;  176.475;    0.000
364.238; 1254.550;  203.475;    0.000
364.300; 1255.550;  158.475;    0.000
364.362; 1228.550;  152.475;    0.000
364.424; 1149.550;  119.475;    0.000
364.486; 1229.550;  187.475;    0.000
364.548; 1216.550;  180.475;    0.000
364.609; 1301.550;  212.475;    0.000
364.671; 1273.550;  165.475;    0.000
364.733; 1222.550;  190.475;    0.000
364.795; 1260.550;  148.475;    0.000
364.857; 1247.550;  159.475;    0.000
364.919; 1212.550;  159.475;    0.000
364.981; 1242.550;  191.475;    0.000
365.042; 1286.550;  170.475;    0.000
365.104; 1241.550;  145.475;    0.000
365.166; 1205.550;  134.475;    0.000
365.228; 1179.550;  150.475;    0.000
365.290; 1192.550;  158.475;    0.000
365.351; 1190.550;  168.475;    0.000
365.413; 1232.550;  173.475;    0.000
365.475; 1216.550;  172.475;    0.000
365.537; 1245.550;  126.475;    0.000
365.598; 1193.550;  160.475;    0.000
365.660; 1226.550;  127.475;    0.000
365.722; 1193.550;  189.475;    0.000
365.784; 1261.550;  161.475;    0.000
365.845; 1152.550;  152.475;    0.000
365.907; 1214.550;  117.475;    0.000
365.969; 1230.550;  146.475;    0.000
366.030; 1230.550;  171.475;    0.000
366.092; 1236.550;  155.475;    0.000
366.154; 1167.550;  137.475;    0.000
366.215; 1256.550;  147.475;    0.000
366.277; 1228.550;  148.475;    0.000
366.339; 1280.550;  158.475;    0.000
366.400; 1271.550;  140.475;    0.000
366.462; 1239.550;  159.475;    0.000
366.524; 1245.550;  160.475;    0.000
366.585; 1207.550;  157.475;    0.000
366.647; 1251.550;  170.475;    0.000
366.708; 1245.550;  123.475;    0.000
366.770; 1317.550;  194.475;    0.000
366.832; 1298.550;  191.475;    0.000
366.893; 1293.550;  155.475;    0.000
366.955; 1251.550;  132.475;    0.000
367.016; 1188.550;  126.475;    0.000
367.078; 1286.550;  202.475;    0.000
367.139; 1266.550;  116.475;    0.000
367.201; 1252.550;  134.475;    0.000
367.262; 1217.550;  157.475;    0.000
367.324; 1241.550;  202.475;    0.000
367.385; 1220.550;  118.475;    0.000
367.447; 1268.550;  155.475;    0.000
367.508; 1223.550;  134.475;    0.000
367.570; 1228.550;  165.475;    0.000
367.631; 1310.550;  118.475;    0.000
367.693; 1277.550;  170.475;    0.000
367.754; 1305.550;  154.475;    0.000
367.816; 1325.550;  146.475;    0.000
367.877; 1255.550;  175.475;    0.000
367.939; 1330.550;  200.475;    0.000
368.000; 1238.550;  168.475;    0.000
368.062; 1230.550;  138.475;    0.000
368.123; 1296.550;  170.475;    0.000
368.184; 1295.550;  188.475;    0.000
368.246; 1246.550;  145.475;    0.000
368.307; 1232.550;  163.475;    0.000
368.369; 1244.550;  144.475;    0.000
368.430; 1277.550;  140.475;    0.000
368.491; 1279.550;  133.475;    0.000
368.553; 1282.550;  145.475;    0.000
368.614; 1293.550;  158.475;    0.000
368.675; 1237.550;  147.475;    0.000
368.737; 1322.550;  157.475;    0.000
368.798; 1279.550;  163.475;    0.000
368.859; 1384.550;  173.475;    0.000
368.921; 1258.550;  122.475;    0.000
368.982; 1304.550;  184.475;    0.000
369.043; 1340.550;  169.475;    0.000
369.104; 1311.550;  142.475;    0.000
369.166; 1337.550;  169.475;    0.000
369.227; 1336.550;  156.475;    0.000
369.288; 1341.550;  151.475;    0.000
369.349; 1329.550;  191.475;    0.000
369.411; 1335.550;  168.475;    0.000
369.472; 1380.550;  155.475;    0.000
369.533; 1335.550;  149.475;    0.000
369.594; 1266.550;  174.475;    0.000
369.656; 1330.550;  188.475;    0.000
369.717; 1313.550;  113.475;    0.000
369.778; 1293.550;  184.475;    0.000
369.839; 1277.550;  151.475;    0.000
369.900; 1372.550;  180.475;    0.000
369.961; 1358.550;  171.475;    0.000
370.023; 1328.550;  143.475;    0.000
370.084; 1270.550;  137.475;    0.000
370.145; 1336.550;  152.475;    0.000
370.206; 1343.550;  151.475;    0.000
370.267; 1282.550;  134.475;    0.000
370.328; 1301.550;  178.475;    0.000
370.389; 1262.550;  181.475;    0.000
370.451; 1315.550;  169.475;    0.000
370.512; 1335.550;  172.475;    0.000
370.573; 1366.550;  148.475;    0.000
370.634; 1404.550;  156.475;    0.000
370.695; 1362.550;  151.475;    0.000
370.756; 1365.550;  185.475;    0.000
370.817; 1399.550;  185.475;    0.000
370.878; 1500.550;  191.475;    0.000
370.939; 1303.550;  147.475;    0.000
371.000; 1368.550;  162.475;    0.000
371.061; 1376.550;  145.475;    0.000
371.122; 1333.550;  179.475;    0.000
371.183; 1253.550;  114.475;    0.000
371.244; 1331.550;  180.475;    0.000
371.305; 1345.550;  138.475;    0.000
371.366; 1355.550;  157.475;    0.000
371.427; 1368.550;  148.475;    0.000
371.488; 1432.550;  138.475;    0.000
371.549; 1333.550;  193.475;    0.000
371.610; 1402.550;  158.475;    0.000
371.671; 1283.550;  119.475;    0.000
371.732; 1363.550;  159.475;    0.000
371.793; 1307.550;  178.475;    0.000
371.853; 1352.550;  155.475;    0.000
371.914; 1378.550;  148.475;    0.000
371.975; 1437.550;  124.475;    0.000
372.036; 1515.550;  158.475;    0.000
372.097; 1397.550;  136.475;    0.000
372.158; 1417.550;  116.475;    0.000
372.219; 1396.550;  157.475;    0.000
372.280; 1416.550;  151.475;    0.000
372.340; 1389.550;  190.475;    0.000
372.401; 1378.550;  151.475;    0.000
372.462; 1344.550;  129.475;    0.000
372.523; 1399.550;  121.475;    0.000
372.584; 1437.550;  152.475;    0.000
372.645; 1358.550;  132.475;    0.000
372.705; 1412.550;  190.475;    0.000
372.766; 1405.550;  153.475;    0.000
372.827; 1419.550;  133.475;    0.000
372.888; 1380.550;  161.475;    0.000
372.948; 1424.550;  159.475;    0.000
373.009; 1341.550;  164.475;    0.000
373.070; 1408.550;  139.475;    0.000
373.131; 1359.550;  137.475;    0.000
373.191; 1449.550;  181.475;    0.000
373.252; 1383.550;  154.475;    0.000
373.313; 1424.550;  179.475;    0.000
373.373; 1513.550;  136.475;    0.000
373.434; 1485.550;  169.475;    0.000
373.495; 1622.550;   97.475;    0.000
373.555; 1537.550;  142.475;    0.000
373.616; 1439.550;  178.475;    0.000
373.677; 1466.550;  167.475;    0.000
373.737; 1580.550;  139.475;    0.000
373.798; 1474.550;  155.475;    0.000
373.859; 1496.550;  162.475;    0.000
373.919; 1421.550;  174.475;    0.000
373.980; 1384.550;  172.475;    0.000
374.041; 1433.550;  166.475;    0.000
374.101; 1534.550;  172.475;    0.000
374.162; 1507.550;  188.475;    0.000
374.222; 1382.550;  186.475;    0.000
374.283; 1415.550;  195.475;    0.000
374.343; 1428.550;  204.475;    0.000
374.404; 1450.550;  187.475;    0.000
374.465; 1477.550;  183.475;    0.000
374.525; 1550.550;  136.475;    0.000
374.586; 1533.550;  140.475;    0.000
374.646; 1537.550;  191.475;    0.000
374.707; 1442.550;  208.475;    0.000
374.767; 1504.550;  178.475;    0.000
374.828; 1532.550;  159.475;    0.000
374.888; 1630.550;  143.475;    0.000
374.949; 1632.550;  202.475;    0.000
375.009; 1582.550;  151.475;    0.000
375.070; 1535.550;  160.475;    0.000
375.130; 1511.550;  160.475;    0.000
375.190; 1440.550;  164.475;    0.000
375.251; 1495.550;  196.475;    0.000
375.311; 1460.550;  154.475;    0.000
375.372; 1447.550;  197.475;    0.000
375.432; 1533.550;  159.475;    0.000
375.493; 1517.550;  197.475;    0.000
375.553; 1473.550;  165.475;    0.000
375.613; 1435.550;  174.475;    0.000
375.674; 1481.550;  165.475;    0.000
375.734; 1542.550;  128.475;    0.000
375.794; 1524.550;  169.475;    0.000
375.855; 1524.550;  193.475;    0.000
375.915; 1557.550;  162.475;    0.000
375.975; 1490.550;  181.475;    0.000
376.036; 1442.550;  161.475;    0.000
376.096; 1463.550;  131.475;    0.000
376.156; 1515.550;  165.475;    0.000
376.217; 1534.550;  182.475;    0.000
376.277; 1446.550;  185.475;    0.000
376.337; 1512.550;  177.475;    0.000
376.398; 1611.550;  162.475;    0.000
376.458; 1497.550;  179.475;    0.000
376.518; 1488.550;  150.475;    0.000
376.578; 1482.550;  165.475;    0.000
376.639; 1493.550;  159.475;    0.000
376.699; 1525.550;  180.475;    0.000
376.759; 1528.550;  206.475;    0.000
376.819; 1487.550;  146.475;    0.000
376.880; 1488.550;  177.475;    0.000
376.940; 1488.550;  160.475;    0.000
377.000; 1390.550;  149.475;    0.000
377.060; 1481.550;  180.475;    0.000
377.120; 1489.550;  146.475;    0.000
377.180; 1487.550;  137.475;    0.000
377.241; 1497.550;  163.475;    0.000
377.301; 1536.550;  169.475;    0.000
377.361; 1532.550;  137.475;    0.000
377.421; 1556.550;  184.475;    0.000
377.481; 1499.550;  185.475;    0.000
377.541; 1506.550;  146.475;    0.000
377.601; 1531.550;  179.475;    0.000
377.661; 1573.550;  181.475;    0.000
377.722; 1535.550;  185.475;    0.000
377.782; 1509.550;  147.475;    0.000
377.842; 1530.550;  190.475;    0.000
377.902; 1559.550;  166.475;    0.000
377.962; 1482.550;  153.475;    0.000
378.022; 1539.550;  163.475;    0.000
378.082; 1568.550;  146.475;    0.000
378.142; 1604.550;  152.475;    0.000
378.202; 1519.550;  164.475;    0.000
378.262; 1534.550;  195.475;    0.000
378.322; 1591.550;  190.475;    0.000
378.382; 1515.550;  152.475;    0.000
378.442; 1627.550;  175.475;    0.000
378.502; 1619.550;  153.475;    0.000
378.562; 1530.550;  142.475;    0.000
378.622; 1555.550;  166.475;    0.000
378.682; 1569.550;  173.475;    0.000
378.742; 1563.550;  182.475;    0.000
378.802; 1617.550;  145.475;    0.000
378.862; 1692.550;  210.475;    0.000
378.921; 1645.550;  182.475;    0.000
378.981; 1656.550;  185.475;    0.000
379.041; 1659.550;  130.475;    0.000
379.101; 1632.550;  177.475;    0.000
379.161; 1641.550;  166.475;    0.000
379.221; 1630.550;  162.475;    0.000
379.281; 1685.550;  167.475;    0.000
379.341; 1643.550;  136.475;    0.000
379.401; 1645.550;  145.475;    0.000
379.460; 1740.550;  176.475;    0.000
379.520; 1694.550;  162.475;    0.000
379.580; 1680.550;  144.475;    0.000
379.640; 1741.550;  163.475;    0.000
379.700; 1666.550;  157.475;    0.000
379.759; 1707.550;  165.475;    0.000
379.819; 1642.550;  190.475;    0.000
379.879; 1771.550;  143.475;    0.000
379.939; 1766.550;  188.475;    0.000
379.999; 1656.550;  141.475;    0.000
380.058; 1711.550;  169.475;    0.000
380.118; 1680.550;  158.475;    0.000
380.178; 1655.550;  114.475;    0.000
380.237; 1704.550;  157.475;    0.000
380.297; 1751.550;  177.475;    0.000
380.357; 1713.550;  189.475;    0.000
380.417; 1763.550;  182.475;    0.000
380.476; 1735.550;  178.475;    0.000
380.536; 1747.550;  189.475;    0.000
380.596; 1755.550;  183.475;    0.000
380.655; 1736.550;  195.475;    0.000
380.715; 1729.550;  170.475;    0.000
380.775; 1751.550;  170.475;    0.000
380.834; 1803.550;  179.475;    0.000
380.894; 1819.550;  188.475;    0.000
380.954; 1735.550;  142.475;    0.000
381.013; 1894.550;  178.475;    0.000
381.073; 1725.550;  164.475;    0.000
381.132; 1849.550;  192.475;    0.000
381.192; 1791.550;  187.475;    0.000
381.252; 1799.550;  176.475;    0.000
381.311; 1904.550;  206.475;    0.000
381.371; 1818.550;  167.475;    0.000
381.430; 1836.550;  131.475;    0.000
381.490; 1805.550;  150.475;    0.000
381.549; 1869.550;  129.475;    0.000
381.609; 1965.550;  178.475;    0.000
381.668; 1864.550;  194.475;    0.000
381.728; 1889.550;  210.475;    0.000
381.787; 1938.550;  190.475;    0.000
381.847; 1904.550;  181.475;    0.000
381.906; 2010.550;  156.475;    0.000
381.966; 2005.550;  176.475;    0.000
382.025; 2072.550;  186.475;    0.000
382.085; 2042.550;  192.475;    0.000
382.144; 2053.550;  173.475;    0.000
382.204; 2000.550;  207.475;    0.000
382.263; 2050.550;  193.475;    0.000
382.323; 2019.550;  164.475;    0.000
382.382; 2092.550;  161.475;    0.000
382.441; 2140.550;  199.475;    0.000
382.501; 2283.550;  208.475;    0.000
382.560; 2352.550;  173.475;    0.000
382.619; 2379.550;  179.475;    0.000
382.679; 2487.550;  177.475;    0.000
382.738; 2593.550;  190.475;    0.000
382.798; 2731.550;  213.475;    0.000
382.857; 3053.550;  195.475;    0.000
382.916; 3475.550;  184.475;    0.000
382.976; 3531.550;  169.475;    0.000
383.035; 3302.550;  194.475;    0.000
383.094; 3365.550;  185.475;    0.000
383.154; 3778.550;  198.475;    0.000
383.213; 4657.550;  147.475;    0.000
383.272; 4473.550;  175.475;    0.000
383.331; 3398.550;  122.475;    0.000
383.391; 3098.550;  185.475;    0.000
383.450; 3074.550;  160.475;    0.000
383.509; 2978.550;  168.475;    0.000
383.568; 3130.550;  196.475;    0.000
383.628; 3260.550;  156.475;    0.000
383.687; 3662.550;  171.475;    0.000
383.746; 4252.550;  155.475;    0.000
383.805; 5342.550;  201.475;    0.000
383.864; 5294.550;  125.475;    0.000
383.924; 3861.550;  213.475;    0.000
383.983; 3006.550;  188.475;    0.000
384.042; 2879.550;  162.475;    0.000
384.101; 2646.550;  183.475;    0.000
384.160; 2512.550;  155.475;    0.000
384.219; 2344.550;  155.475;    0.000
384.279; 2382.550;  189.475;    0.000
384.338; 2197.550;  156.475;    0.000
384.397; 2140.550;  148.475;    0.000
384.456; 2151.550;  154.475;    0.000
384.515; 2169.550;  160.475;    0.000
384.574; 2014.550;  223.475;    0.000
384.633; 2122.550;  133.475;    0.000
384.692; 2053.550;  163.475;    0.000
384.751; 2065.550;  186.475;    0.000
384.810; 2006.550;  187.475;    0.000
384.869; 2030.550;  172.475;    0.000
384.929; 2100.550;  153.475;    0.000
384.988; 1994.550;  174.475;    0.000
385.047; 2028.550;  154.475;    0.000
385.106; 1960.550;  164.475;    0.000
385.165; 2002.550;  151.475;    0.000
385.224; 2011.550;  147.475;    0.000
385.283; 2006.550;  176.475;    0.000
385.342; 2111.550;  142.475;    0.000
385.401; 2005.550;  175.475;    0.000
385.459; 2020.550;  150.475;    0.000
385.518; 2081.550;  124.475;    0.000
385.577; 2054.550;  115.475;    0.000
385.636; 2203.550;  174.475;    0.000
385.695; 2158.550;  158.475;    0.000
385.754; 2039.550;  150.475;    0.000
385.813; 2090.550;  129.475;    0.000
385.872; 2044.550;  146.475;    0.000
385.931; 2079.550;  194.475;    0.000
385.990; 2142.550;  174.475;    0.000
386.049; 2121.550;  176.475;    0.000
386.107; 2026.550;  151.475;    0.000
386.166; 1985.550;  178.475;    0.000
386.225; 1975.550;  162.475;    0.000
386.284; 2006.550;  180.475;    0.000
386.343; 2068.550;  171.475;    0.000
386.402; 2042.550;  176.475;    0.000
386.460; 2046.550;  144.475;    0.000
386.519; 2041.550;  140.475;    0.000
386.578; 1972.550;  145.475;    0.000
386.637; 2023.550;  164.475;    0.000
386.696; 2036.550;  189.475;    0.000
386.754; 2044.550;  135.475;    0.000
386.813; 2056.550;  139.475;    0.000
386.872; 2001.550;  121.475;    0.000
386.931; 2017.550;  153.475;    0.000
386.989; 1993.550;  211.475;    0.000
387.048; 2055.550;  156.475;    0.000
387.107; 2063.550;  210.475;    0.000
387.165; 1940.550;  129.475;    0.000
387.224; 2014.550;  205.475;    0.000
387.283; 2046.550;  130.475;    0.000
387.342; 2015.550;  171.475;    0.000
387.400; 2039.550;  156.475;    0.000
387.459; 2009.550;  141.475;    0.000
387.517; 2052.550;  219.475;    0.000
387.576; 2058.550;  166.475;    0.000
387.635; 1979.550;  136.475;    0.000
387.693; 1935.550;  191.475;    0.000
387.752; 2018.550;  165.475;    0.000
387.811; 2115.550;  158.475;    0.000
387.869; 2040.550;  204.475;    0.000
387.928; 2075.550;  149.475;    0.000
387.986; 2031.550;  156.475;    0.000
388.045; 2022.550;  123.475;    0.000
388.103; 1945.550;  150.475;    0.000
388.162; 2023.550;  173.475;    0.000
388.221; 2019.550;  143.475;    0.000
388.279; 1923.550;  129.475;    0.000
388.338; 2104.550;  212.475;    0.000
388.396; 2092.550;  150.475;    0.000
388.455; 2063.550;  167.475;    0.000
388.513; 2083.550;  116.475;    0.000
388.572; 2071.550;  181.475;    0.000
388.630; 2117.550;  187.475;    0.000
388.689; 2099.550;  180.475;    0.000
388.747; 2005.550;  154.475;    0.000
388.806; 2077.550;  161.475;    0.000
388.864; 1979.550;  167.475;    0.000
388.922; 2096.550;  184.475;    0.000
388.981; 2005.550;  169.475;    0.000
389.039; 1978.550;  102.475;    0.000
389.098; 2086.550;  183.475;    0.000
389.156; 1961.550;  182.475;    0.000
389.214; 2067.550;  173.475;    0.000
389.273; 1990.550;  167.475;    0.000
389.331; 2072.550;  170.475;    0.000
389.390; 1960.550;  150.475;    0.000
389.448; 2054.550;  156.475;    0.000
389.506; 2079.550;  149.475;    0.000
389.565; 2004.550;  162.475;    0.000
389.623; 2021.550;  188.475;    0.000
389.681; 2073.550;  204.475;    0.000
389.740; 2106.550;  187.475;    0.000
389.798; 1997.550;  153.475;    0.000
389.856; 2065.550;  214.475;    0.000
389.914; 2080.550;  177.475;    0.000
389.973; 1994.550;  189.475;    0.000
390.031; 2008.550;  178.475;    0.000
390.089; 2066.550;  163.475;    0.000
390.147; 2014.550;  170.475;    0.000
390.206; 2035.550;  183.475;    0.000
390.264; 2034.550;  161.475;    0.000
390.322; 2087.550;  148.475;    0.000
390.380; 2000.550;  138.475;    0.000
390.439; 1950.550;  194.475;    0.000
390.497; 2043.550;  170.475;    0.000
390.555; 2030.550;  165.475;    0.000
390.613; 1979.550;  177.475;    0.000
390.671; 2001.550;  170.475;    0.000
390.729; 1938.550;  158.475;    0.000
390.788; 1993.550;  162.475;    0.000
390.846; 2026.550;  161.475;    0.000
390.904; 2049.550;  197.475;    0.000
390.962; 2100.550;  212.475;    0.000
391.020; 2108.550;  224.475;    0.000
391.078; 2146.550;  184.475;    0.000
391.136; 2054.550;  191.475;    0.000
391.194; 2144.550;  187.475;    0.000
391.253; 2157.550;  197.475;    0.000
391.311; 2103.550;  185.475;    0.000
391.369; 2088.550;  207.475;    0.000
391.427; 2010.550;  222.475;    0.000
391.485; 2073.550;  184.475;    0.000
391.543; 2190.550;  203.475;    0.000
391.601; 2155.550;  151.475;    0.000
391.659; 2137.550;  176.475;    0.000
391.717; 2126.550;  190.475;    0.000
391.775; 2098.550;  159.475;    0.000
391.833; 2140.550;  186.475;    0.000
391.891; 2171.550;  154.475;    0.000
391.949; 2100.550;  181.475;    0.000
392.007; 2210.550;  190.475;    0.000
392.065; 2148.550;  182.475;    0.000
392.123; 2165.550;  158.475;    0.000
392.180; 2297.550;  198.475;    0.000
392.238; 2139.550;  191.475;    0.000
392.296; 2220.550;  164.475;    0.000
392.354; 2149.550;  172.475;    0.000
392.412; 2128.550;  194.475;    0.000
392.470; 2170.550;  154.475;    0.000
392.528; 2221.550;  172.475;    0.000
392.586; 2195.550;  179.475;    0.000
392.644; 2166.550;  173.475;    0.000
392.701; 2185.550;  202.475;    0.000
392.759; 2208.550;  180.475;    0.000
392.817; 2280.550;  181.475;    0.000
392.875; 2239.550;  168.475;    0.000
392.933; 2322.550;  161.475;    0.000
392.991; 2342.550;  216.475;    0.000
393.048; 2327.550;  197.475;    0.000
393.106; 2367.550;  199.475;    0.000
393.164; 2551.550;  173.475;    0.000
393.222; 2796.550;  179.475;    0.000
393.279; 3664.550;  209.475;    0.000
393.337; 5033.550;  185.475;    0.000
393.395; 5623.550;  174.475;    0.000
393.453; 3837.550;  181.475;    0.000
393.510; 2673.550;  188.475;    0.000
393.568; 2399.550;  191.475;    0.000
393.626; 2310.550;  151.475;    0.000
393.684; 2365.550;  208.475;    0.000
393.741; 2272.550;  179.475;    0.000
393.799; 2266.550;  149.475;    0.000
393.857; 2217.550;  136.475;    0.000
393.914; 2186.550;  190.475;    0.000
393.972; 2202.550;  155.475;    0.000
394.030; 2221.550;  170.475;    0.000
394.087; 2236.550;  213.475;    0.000
394.145; 2292.550;  191.475;    0.000
394.202; 2268.550;  188.475;    0.000
394.260; 2232.550;  168.475;    0.000
394.318; 2274.550;  176.475;    0.000
394.375; 2479.550;  159.475;    0.000
394.433; 2591.550;  168.475;    0.000
394.490; 2345.550;  163.475;    0.000
394.548; 2337.550;  163.475;    0.000
394.605; 2324.550;  181.475;    0.000
394.663; 2321.550;  180.475;    0.000
394.720; 2267.550;  193.475;    0.000
394.778; 2238.550;  168.475;    0.000
394.836; 2242.550;  128.475;    0.000
394.893; 2261.550;  151.475;    0.000
394.951; 2258.550;  173.475;    0.000
395.008; 2341.550;  201.475;    0.000
395.065; 2242.550;  139.475;    0.000
395.123; 2226.550;  173.475;    0.000
395.180; 2280.550;  144.475;    0.000
395.238; 2234.550;  135.475;    0.000
395.295; 2198.550;  167.475;    0.000
395.353; 2372.550;  150.475;    0.000
395.410; 2304.550;  165.475;    0.000
395.468; 2343.550;  223.475;    0.000
395.525; 2334.550;  156.475;    0.000
395.582; 2372.550;  178.475;    0.000
395.640; 2321.550;  178.475;    0.000
395.697; 2417.550;  173.475;    0.000
395.754; 2345.550;  154.475;    0.000
395.812; 2292.550;  169.475;    0.000
395.869; 2409.550;  196.475;    0.000
395.927; 2398.550;  190.475;    0.000
395.984; 2452.550;  195.475;    0.000
396.041; 2356.550;  160.475;    0.000
396.098; 2569.550;  161.475;    0.000
396.156; 2888.550;  187.475;    0.000
396.213; 2846.550;  200.475;    0.000
396.270; 2509.550;  160.475;    0.000
396.328; 2453.550;  113.475;    0.000
396.385; 2442.550;  165.475;    0.000
396.442; 2423.550;  168.475;    0.000
396.499; 2362.550;  117.475;    0.000
396.557; 2450.550;  203.475;    0.000
396.614; 2550.550;  155.475;    0.000
396.671; 2572.550;  187.475;    0.000
396.728; 2995.550;  169.475;    0.000
396.785; 3540.550;  167.475;    0.000
396.843; 4534.550;  154.475;    0.000
396.900; 4136.550;  172.475;    0.000
396.957; 2997.550;  176.475;    0.000
397.014; 2651.550;  193.475;    0.000
397.071; 2507.550;  170.475;    0.000
397.128; 2546.550;  172.475;    0.000
397.186; 2477.550;  205.475;    0.000
397.243; 2482.550;  163.475;    0.000
397.300; 2415.550;  193.475;    0.000
397.357; 2553.550;  166.475;    0.000
397.414; 2518.550;  149.475;    0.000
397.471; 2464.550;  157.475;    0.000
397.528; 2506.550;  180.475;    0.000
397.585; 2475.550;  203.475;    0.000
397.642; 2554.550;  156.475;    0.000
397.699; 2472.550;  229.475;    0.000
397.756; 2553.550;  185.475;    0.000
397.814; 2494.550;  191.475;    0.000
397.871; 2507.550;  170.475;    0.000
397.928; 2508.550;  191.475;    0.000
397.985; 2555.550;  183.475;    0.000
398.042; 2472.550;  161.475;    0.000
398.099; 2564.550;  192.475;    0.000
398.156; 2513.550;  176.475;    0.000
398.212; 2639.550;  170.475;    0.000
398.269; 2503.550;  158.475;    0.000
398.326; 2589.550;  175.475;    0.000
398.383; 2549.550;  177.475;    0.000
398.440; 2580.550;  169.475;    0.000
398.497; 2583.550;  184.475;    0.000
398.554; 2591.550;  196.475;    0.000
398.611; 2622.550;  198.475;    0.000
398.668; 2458.550;  135.475;    0.000
398.725; 2589.550;  181.475;    0.000
398.782; 2625.550;  195.475;    0.000
398.839; 2679.550;  179.475;    0.000
398.895; 2700.550;  188.475;    0.000
398.952; 2712.550;  176.475;    0.000
399.009; 2640.550;  183.475;    0.000
399.066; 2770.550;  190.475;    0.000
399.123; 2869.550;  174.475;    0.000
399.180; 2835.550;  191.475;    0.000
399.236; 2903.550;  217.475;    0.000
399.293; 2901.550;  154.475;    0.000
399.350; 2926.550;  210.475;    0.000
399.407; 2936.550;  202.475;    0.000
399.463; 2921.550;  162.475;    0.000
399.520; 3025.550;  207.475;    0.000
399.577; 3078.550;  174.475;    0.000
399.634; 3192.550;  170.475;    0.000
399.690; 3085.550;  186.475;    0.000
399.747; 3164.550;  218.475;    0.000
399.804; 3068.550;  200.475;    0.000
399.861; 2932.550;  190.475;    0.000
399.917; 3007.550;  218.475;    0.000
399.974; 2988.550;  200.475;    0.000
400.031; 3029.550;  200.475;    0.000
400.087; 2975.550;  153.475;    0.000
400.144; 2823.550;  188.475;    0.000
400.201; 2911.550;  198.475;    0.000
400.257; 2889.550;  205.475;    0.000
400.314; 2960.550;  183.475;    0.000
400.370; 2863.550;  227.475;    0.000
400.427; 2933.550;  177.475;    0.000
400.484; 2763.550;  202.475;    0.000
400.540; 2802.550;  173.475;    0.000
400.597; 2783.550;  212.475;    0.000
400.653; 2781.550;  182.475;    0.000
400.710; 2814.550;  201.475;    0.000
400.766; 2785.550;  188.475;    0.000
400.823; 2812.550;  205.475;    0.000
400.879; 2743.550;  165.475;    0.000
400.936; 2698.550;  180.475;    0.000
400.993; 2784.550;  181.475;    0.000
401.049; 2746.550;  147.475;    0.000
401.105; 2783.550;  205.475;    0.000
401.162; 2813.550;  197.475;    0.000
401.218; 2802.550;  177.475;    0.000
401.275; 2723.550;  183.475;    0.000
401.331; 2670.550;  198.475;    0.000
401.388; 2665.550;  209.475;    0.000
401.444; 2760.550;  211.475;    0.000
401.501; 2784.550;  185.475;    0.000
401.557; 2709.550;  190.475;    0.000
401.614; 2754.550;  172.475;    0.000
401.670; 2750.550;  185.475;    0.000
401.726; 2665.550;  196.475;    0.000
401.783; 2719.550;  187.475;    0.000
401.839; 2808.550;  192.475;    0.000
401.895; 2884.550;  173.475;    0.000
401.952; 2854.550;  145.475;    0.000
402.008; 2724.550;  197.475;    0.000
402.064; 2667.550;  146.475;    0.000
402.121; 2847.550;  197.475;    0.000
402.177; 2713.550;  173.475;    0.000
402.233; 2806.550;  185.475;    0.000
402.290; 2791.550;  175.475;    0.000
402.346; 2831.550;  164.475;    0.000
402.402; 2811.550;  173.475;    0.000
402.458; 2846.550;  183.475;    0.000
402.515; 2862.550;  147.475;    0.000
402.571; 2893.550;  210.475;    0.000
402.627; 2741.550;  181.475;    0.000
402.683; 2813.550;  177.475;    0.000
402.740; 2676.550;  162.475;    0.000
402.796; 2786.550;  178.475;    0.000
402.852; 2860.550;  138.475;    0.000
402.908; 2824.550;  181.475;    0.000
402.964; 2858.550;  151.475;    0.000
403.021; 2719.550;  170.475;    0.000
403.077; 2852.550;  204.475;    0.000
403.133; 2867.550;  144.475;    0.000
403.189; 2923.550;  207.475;    0.000
403.245; 2906.550;  184.475;    0.000
403.301; 2909.550;  170.475;    0.000
403.357; 2903.550;  201.475;    0.000
403.414; 2867.550;  205.475;    0.000
403.470; 2895.550;  170.475;    0.000
403.526; 2830.550;  135.475;    0.000
403.582; 2852.550;  180.475;    0.000
403.638; 2979.550;  185.475;    0.000
403.694; 2983.550;  169.475;    0.000
403.750; 2835.550;  210.475;    0.000
403.806; 3016.550;  210.475;    0.000
403.862; 2961.550;  219.475;    0.000
403.918; 2973.550;  191.475;    0.000
403.974; 2887.550;  193.475;    0.000
404.030; 2849.550;  154.475;    0.000
404.086; 2939.550;  170.475;    0.000
404.142; 2914.550;  194.475;    0.000
404.198; 2950.550;  224.475;    0.000
404.254; 2921.550;  177.475;    0.000
404.310; 2974.550;  204.475;    0.000
404.366; 2839.550;  170.475;    0.000
404.422; 2966.550;  172.475;    0.000
404.478; 2956.550;  153.475;    0.000
404.534; 2864.550;  159.475;    0.000
404.590; 3170.550;  203.475;    0.000
404.646; 3223.550;  164.475;    0.000
404.701; 2960.550;  141.475;    0.000
404.757; 2967.550;  195.475;    0.000
404.813; 2965.550;  152.475;    0.000
404.869; 3026.550;  174.475;    0.000
404.925; 2955.550;  167.475;    0.000
404.981; 2893.550;  175.475;    0.000
405.037; 2897.550;  170.475;    0.000
405.092; 2980.550;  155.475;    0.000
405.148; 2868.550;  160.475;    0.000
405.204; 2929.550;  158.475;    0.000
405.260; 2942.550;  128.475;    0.000
405.316; 2932.550;  168.475;    0.000
405.371; 2943.550;  162.475;    0.000
405.427; 2997.550;  187.475;    0.000
405.483; 2956.550;  214.475;    0.000
405.539; 2958.550;  163.475;    0.000
405.594; 3043.550;  191.475;    0.000
405.650; 2913.550;  124.475;    0.000
405.706; 3056.550;  188.475;    0.000
405.761; 3073.550;  204.475;    0.000
405.817; 3038.550;  150.475;    0.000
405.873; 3001.550;  152.475;    0.000
405.928; 2974.550;  135.475;    0.000
405.984; 3011.550;  209.475;    0.000
406.040; 3032.550;  165.475;    0.000
406.095; 2908.550;  146.475;    0.000
406.151; 2946.550;  169.475;    0.000
406.207; 3042.550;  174.475;    0.000
406.262; 3061.550;  189.475;    0.000
406.318; 3041.550;  141.475;    0.000
406.374; 3163.550;  178.475;    0.000
406.429; 3138.550;  197.475;    0.000
406.485; 3180.550;  194.475;    0.000
406.540; 3030.550;  149.475;    0.000
406.596; 3104.550;  173.475;    0.000
406.651; 3161.550;  154.475;    0.000
406.707; 3022.550;  183.475;    0.000
406.763; 3167.550;  156.475;    0.000
406.818; 3180.550;  181.475;    0.000
406.874; 3075.550;  135.475;    0.000
406.929; 3304.550;  194.475;    0.000
406.985; 3244.550;  166.475;    0.000
407.040; 3197.550;  207.475;    0.000
407.095; 3331.550;  213.475;    0.000
407.151; 3333.550;  198.475;    0.000
407.206; 3427.550;  186.475;    0.000
407.262; 3291.550;  148.475;    0.000
407.317; 3428.550;  212.475;    0.000
407.373; 3435.550;  209.475;    0.000
407.428; 3388.550;  218.475;    0.000
407.484; 3307.550;  158.475;    0.000
407.539; 3377.550;  165.475;    0.000
407.594; 3359.550;  197.475;    0.000
407.650; 3369.550;  177.475;    0.000
407.705; 3327.550;  154.475;    0.000
407.760; 3339.550;  198.475;    0.000
407.816; 3240.550;  181.475;    0.000
407.871; 3455.550;  185.475;    0.000
407.926; 3466.550;  167.475;    0.000
407.982; 3333.550;  172.475;    0.000
408.037; 3267.550;  202.475;    0.000
408.092; 3219.550;  201.475;    0.000
408.148; 3313.550;  199.475;    0.000
408.203; 3282.550;  174.475;    0.000
408.258; 3200.550;  157.475;    0.000
408.314; 3361.550;  194.475;    0.000
408.369; 3151.550;  189.475;    0.000
408.424; 3224.550;  204.475;    0.000
408.479; 3262.550;  192.475;    0.000
408.534; 3339.550;  215.475;    0.000
408.590; 3258.550;  190.475;    0.000
408.645; 3261.550;  159.475;    0.000
408.700; 3193.550;  191.475;    0.000
408.755; 3244.550;  217.475;    0.000
408.810; 3149.550;  158.475;    0.000
408.866; 3192.550;  166.475;    0.000
408.921; 3312.550;  214.475;    0.000
408.976; 3202.550;  158.475;    0.000
409.031; 3227.550;  185.475;    0.000
409.086; 3154.550;  158.475;    0.000
409.141; 3119.550;  180.475;    0.000
409.196; 3151.550;  188.475;    0.000
409.252; 3106.550;  186.475;    0.000
409.307; 3267.550;  135.475;    0.000
409.362; 3094.550;  162.475;    0.000
409.417; 3203.550;  149.475;    0.000
409.472; 3157.550;  205.475;    0.000
409.527; 3218.550;  184.475;    0.000
409.582; 3163.550;  174.475;    0.000
409.637; 3154.550;  188.475;    0.000
409.692; 3205.550;  211.475;    0.000
409.747; 3142.550;  159.475;    0.000
409.802; 3200.550;  199.475;    0.000
409.857; 3265.550;  118.475;    0.000
409.912; 3184.550;  177.475;    0.000
409.967; 3156.550;  182.475;    0.000
410.022; 3262.550;  188.475;    0.000
410.077; 3191.550;  204.475;    0.000
410.132; 3170.550;  174.475;    0.000
410.187; 3069.550;  169.475;    0.000
410.242; 3189.550;  178.475;    0.000
410.297; 3160.550;  185.475;    0.000
410.351; 3123.550;  203.475;    0.000
410.406; 3230.550;  180.475;    0.000
410.461; 3262.550;  213.475;    0.000
410.516; 3046.550;  198.475;    0.000
410.571; 3255.550;  171.475;    0.000
410.626; 3279.550;  186.475;    0.000
410.681; 3140.550;  187.475;    0.000
410.736; 3190.550;  147.475;    0.000
410.790; 3062.550;  186.475;    0.000
410.845; 3229.550;  152.475;    0.000
410.900; 3309.550;  202.475;    0.000
410.955; 3215.550;  196.475;    0.000
411.010; 3164.550;  150.475;    0.000
411.064; 3138.550;  200.475;    0.000
411.119; 3084.550;  203.475;    0.000
411.174; 3170.550;  176.475;    0.000
411.229; 3197.550;  203.475;    0.000
411.283; 3129.550;  176.475;    0.000
411.338; 3168.550;  153.475;    0.000
411.393; 3181.550;  168.475;    0.000
411.447; 3352.550;  223.475;    0.000
411.502; 3260.550;  238.475;    0.000
411.557; 3140.550;  179.475;    0.000
411.612; 3129.550;  159.475;    0.000
411.666; 3144.550;  189.475;    0.000
411.721; 3191.550;  212.475;    0.000
411.776; 3303.550;  242.475;    0.000
411.830; 3139.550;  194.475;    0.000
411.885; 3232.550;  188.475;    0.000
411.939; 3227.550;  245.475;    0.000
411.994; 3223.550;  177.475;    0.000
412.049; 3271.550;  170.475;    0.000
412.103; 3289.550;  196.475;    0.000
412.158; 3227.550;  215.475;    0.000
412.212; 3235.550;  199.475;    0.000
412.267; 3257.550;  191.475;    0.000
412.322; 3317.550;  238.475;    0.000
412.376; 3184.550;  243.475;    0.000
412.431; 3197.550;  214.475;    0.000
412.485; 3243.550;  210.475;    0.000
412.540; 3192.550;  200.475;    0.000
412.594; 3290.550;  174.475;    0.000
412.649; 3127.550;  246.475;    0.000
412.703; 3262.550;  182.475;    0.000
412.758; 3075.550;  222.475;    0.000
412.812; 3051.550;  201.475;    0.000
412.866; 3022.550;  162.475;    0.000
412.921; 3105.550;  202.475;    0.000
412.975; 3208.550;  212.475;    0.000
413.030; 3249.550;  238.475;    0.000
413.084; 3105.550;  201.475;    0.000
413.139; 3206.550;  210.475;    0.000
413.193; 3250.550;  218.475;    0.000
413.247; 3293.550;  203.475;    0.000
413.302; 3100.550;  176.475;    0.000
413.356; 3174.550;  215.475;    0.000
413.410; 3178.550;  204.475;    0.000
413.465; 3198.550;  186.475;    0.000
413.519; 3124.550;  196.475;    0.000
413.573; 3145.550;  181.475;    0.000
413.628; 3186.550;  200.475;    0.000
413.682; 3208.550;  157.475;    0.000
413.736; 3186.550;  194.475;    0.000
413.791; 3153.550;  193.475;    0.000
413.845; 3158.550;  225.475;    0.000
413.899; 3080.550;  195.475;    0.000
413.953; 3031.550;  173.475;    0.000
414.008; 3122.550;  186.475;    0.000
414.062; 3170.550;  217.475;    0.000
414.116; 3132.550;  169.475;    0.000
414.170; 3193.550;  228.475;    0.000
414.225; 3093.550;  177.475;    0.000
414.279; 3246.550;  210.475;    0.000
414.333; 3296.550;  207.475;    0.000
414.387; 3285.550;  217.475;    0.000
414.441; 3142.550;  187.475;    0.000
414.496; 3204.550;  215.475;    0.000
414.550; 3162.550;  204.475;    0.000
414.604; 3237.550;  206.475;    0.000
414.658; 3052.550;  139.475;    0.000
414.712; 3108.550;  198.475;    0.000
414.766; 3205.550;  208.475;    0.000
414.820; 3234.550;  199.475;    0.000
414.874; 3234.550;  216.475;    0.000
414.928; 3081.550;  186.475;    0.000
414.982; 3053.550;  176.475;    0.000
415.037; 3120.550;  181.475;    0.000
415.091; 3172.550;  208.475;    0.000
415.145; 3144.550;  209.475;    0.000
415.199; 3158.550;  186.475;    0.000
415.253; 3152.550;  203.475;    0.000
415.307; 3085.550;  197.475;    0.000
415.361; 3109.550;  223.475;    0.000
415.415; 3045.550;  213.475;    0.000
415.469; 3192.550;  226.475;    0.000
415.523; 3147.550;  222.475;    0.000
415.577; 3074.550;  205.475;    0.000
415.631; 3146.550;  224.475;    0.000
415.684; 3174.550;  193.475;    0.000
415.738; 3181.550;  224.475;    0.000
415.792; 3117.550;  204.475;    0.000
415.846; 3138.550;  189.475;    0.000
415.900; 3100.550;  223.475;    0.000
415.954; 3078.550;  187.475;    0.000
416.008; 3108.550;  237.475;    0.000
416.062; 3168.550;  195.475;    0.000
416.116; 3038.550;  223.475;    0.000
416.169; 3081.550;  210.475;    0.000
416.223; 3120.550;  232.475;    0.000
416.277; 3087.550;  227.475;    0.000
416.331; 3095.550;  216.475;    0.000
416.385; 3084.550;  186.475;    0.000
416.439; 3082.550;  226.475;    0.000
416.492; 3131.550;  229.475;    0.000
416.546; 3113.550;  216.475;    0.000
416.600; 3075.550;  211.475;    0.000
416.654; 3095.550;  226.475;    0.000
416.707; 2928.550;  248.475;    0.000
416.761; 3033.550;  217.475;    0.000
416.815; 3124.550;  207.475;    0.000
416.869; 3167.550;  226.475;    0.000
416.922; 3113.550;  192.475;    0.000
416.976; 3137.550;  205.475;    0.000
417.030; 2938.550;  233.475;    0.000
417.083; 3035.550;  226.475;    0.000
417.137; 3181.550;  222.475;    0.000
417.191; 3104.550;  217.475;    0.000
417.244; 3150.550;  221.475;    0.000
417.298; 3026.550;  201.475;    0.000
417.352; 3067.550;  170.475;    0.000
417.405; 3162.550;  234.475;    0.000
417.459; 3123.550;  241.475;    0.000
417.512; 3152.550;  247.475;    0.000
417.566; 3050.550;  219.475;    0.000
417.620; 3203.550;  228.475;    0.000
417.673; 3046.550;  192.475;    0.000
417.727; 3047.550;  203.475;    0.000
417.780; 3091.550;  204.475;    0.000
417.834; 3018.550;  234.475;    0.000
417.887; 3047.550;  245.475;    0.000
417.941; 3208.550;  211.475;    0.000
417.994; 3045.550;  244.475;    0.000
418.048; 3129.550;  203.475;    0.000
418.101; 3110.550;  212.475;    0.000
418.155; 3135.550;  251.475;    0.000
418.208; 3163.550;  286.475;    0.000
418.262; 3192.550;  243.475;    0.000
418.315; 3118.550;  214.475;    0.000
418.369; 3016.550;  269.475;    0.000
418.422; 3087.550;  222.475;    0.000
418.476; 3141.550;  226.475;    0.000
418.529; 3021.550;  238.475;    0.000
418.582; 3070.550;  210.475;    0.000
418.636; 3183.550;  221.475;    0.000
418.689; 3093.550;  224.475;    0.000
418.743; 3190.550;  228.475;    0.000
418.796; 3142.550;  192.475;    0.000
418.849; 3040.550;  230.475;    0.000
418.903; 3183.550;  257.475;    0.000
418.956; 3314.550;  241.475;    0.000
419.009; 3166.550;  247.475;    0.000
419.063; 3174.550;  235.475;    0.000
419.116; 3165.550;  218.475;    0.000
419.169; 3233.550;  219.475;    0.000
419.222; 3140.550;  215.475;    0.000
419.276; 3140.550;  202.475;    0.000
419.329; 3172.550;  210.475;    0.000
419.382; 3040.550;  188.475;    0.000
419.435; 3128.550;  222.475;    0.000
419.489; 3059.550;  232.475;    0.000
419.542; 3193.550;  250.475;    0.000
419.595; 3201.550;  240.475;    0.000
419.648; 3085.550;  261.475;    0.000
419.701; 3059.550;  222.475;    0.000
419.755; 3139.550;  233.475;    0.000
419.808; 3128.550;  178.475;    0.000
419.861; 3038.550;  207.475;    0.000
419.914; 3182.550;  223.475;    0.000
419.967; 3127.550;  216.475;    0.000
420.020; 3035.550;  211.475;    0.000
420.073; 2935.550;  200.475;    0.000
420.127; 3038.550;  248.475;    0.000
420.180; 3024.550;  220.475;    0.000
420.233; 3007.550;  215.475;    0.000
420.286; 3061.550;  222.475;    0.000
420.339; 3025.550;  229.475;    0.000
420.392; 3000.550;  245.475;    0.000
420.445; 3027.550;  221.475;    0.000
420.498; 2979.550;  224.475;    0.000
420.551; 2974.550;  170.475;    0.000
420.604; 3086.550;  237.475;    0.000
420.657; 2989.550;  235.475;    0.000
420.710; 3035.550;  223.475;    0.000
420.763; 2991.550;  219.475;    0.000
420.816; 3024.550;  200.475;    0.000
420.869; 2960.550;  197.475;    0.000
420.922; 2932.550;  212.475;    0.000
420.975; 2995.550;  274.475;    0.000
421.028; 3023.550;  228.475;    0.000
421.081; 3011.550;  243.475;    0.000
421.134; 2893.550;  227.475;    0.000
421.187; 3051.550;  245.475;    0.000
421.239; 2967.550;  210.475;    0.000
421.292; 2851.550;  193.475;    0.000
421.345; 3025.550;  226.475;    0.000
421.398; 2910.550;  226.475;    0.000
421.451; 3121.550;  259.475;    0.000
421.504; 2927.550;  204.475;    0.000
421.557; 2913.550;  215.475;    0.000
421.609; 2924.550;  194.475;    0.000
421.662; 2972.550;  216.475;    0.000
421.715; 2984.550;  226.475;    0.000
421.768; 2999.550;  177.475;    0.000
421.821; 2924.550;  210.475;    0.000
421.873; 2835.550;  208.475;    0.000
421.926; 2883.550;  223.475;    0.000
421.979; 2907.550;  230.475;    0.000
422.032; 2921.550;  227.475;    0.000
422.084; 2981.550;  234.475;    0.000
422.137; 2821.550;  207.475;    0.000
422.190; 2889.550;  228.475;    0.000
422.243; 2953.550;  206.475;    0.000
422.295; 2940.550;  236.475;    0.000
422.348; 2998.550;  232.475;    0.000
422.401; 2962.550;  228.475;    0.000
422.453; 2980.550;  239.475;    0.000
422.506; 2856.550;  226.475;    0.000
422.559; 3055.550;  205.475;    0.000
422.611; 3160.550;  235.475;    0.000
422.664; 3640.550;  231.475;    0.000
422.716; 3781.550;  228.475;    0.000
422.769; 3235.550;  204.475;    0.000
422.822; 2929.550;  205.475;    0.000
422.874; 2919.550;  228.475;    0.000
422.927; 2937.550;  266.475;    0.000
422.979; 2914.550;  223.475;    0.000
423.032; 2957.550;  207.475;    0.000
423.084; 2886.550;  211.475;    0.000
423.137; 2989.550;  205.475;    0.000
423.189; 2916.550;  254.475;    0.000
423.242; 2796.550;  208.475;    0.000
423.294; 2892.550;  240.475;    0.000
423.347; 2894.550;  218.475;    0.000
423.399; 3034.550;  237.475;    0.000
423.452; 2867.550;  242.475;    0.000
423.504; 2913.550;  225.475;    0.000
423.557; 2913.550;  195.475;    0.000
423.609; 2986.550;  206.475;    0.000
423.662; 2872.550;  211.475;    0.000
423.714; 2935.550;  252.475;    0.000
423.766; 2846.550;  181.475;    0.000
423.819; 2890.550;  216.475;    0.000
423.871; 2892.550;  216.475;    0.000
423.923; 2953.550;  222.475;    0.000
423.976; 2923.550;  223.475;    0.000
424.028; 2856.550;  229.475;    0.000
424.081; 2776.550;  267.475;    0.000
424.133; 2757.550;  251.475;    0.000
424.185; 2760.550;  238.475;    0.000
424.238; 2861.550;  220.475;    0.000
424.290; 2889.550;  259.475;    0.000
424.342; 2799.550;  248.475;    0.000
424.394; 2752.550;  234.475;    0.000
424.447; 2955.550;  248.475;    0.000
424.499; 2848.550;  233.475;    0.000
424.551; 2880.550;  236.475;    0.000
424.603; 2945.550;  207.475;    0.000
424.656; 2861.550;  210.475;    0.000
424.708; 2821.550;  251.475;    0.000
424.760; 2867.550;  221.475;    0.000
424.812; 2959.550;  275.475;    0.000
424.864; 2844.550;  206.475;    0.000
424.917; 2766.550;  198.475;    0.000
424.969; 2760.550;  246.475;    0.000
425.021; 2817.550;  209.475;    0.000
425.073; 2849.550;  242.475;    0.000
425.125; 2815.550;  254.475;    0.000
425.177; 2790.550;  224.475;    0.000
425.229; 2795.550;  256.475;    0.000
425.282; 2836.550;  265.475;    0.000
425.334; 2774.550;  266.475;    0.000
425.386; 2975.550;  242.475;    0.000
425.438; 3006.550;  205.475;    0.000
425.490; 2973.550;  227.475;    0.000
425.542; 2795.550;  235.475;    0.000
425.594; 2756.550;  210.475;    0.000
425.646; 2729.550;  232.475;    0.000
425.698; 2646.550;  243.475;    0.000
425.750; 2816.550;  230.475;    0.000
425.802; 2803.550;  218.475;    0.000
425.854; 2735.550;  222.475;    0.000
425.906; 2768.550;  235.475;    0.000
425.958; 2756.550;  220.475;    0.000
426.010; 2707.550;  236.475;    0.000
426.062; 2743.550;  230.475;    0.000
426.114; 2769.550;  216.475;    0.000
426.166; 2711.550;  230.475;    0.000
426.218; 2709.550;  237.475;    0.000
426.270; 2813.550;  217.475;    0.000
426.321; 2681.550;  224.475;    0.000
426.373; 2632.550;  207.475;    0.000
426.425; 2805.550;  278.475;    0.000
426.477; 2782.550;  243.475;    0.000
426.529; 2714.550;  247.475;    0.000
426.581; 2740.550;  229.475;    0.000
426.633; 2773.550;  212.475;    0.000
426.684; 2730.550;  244.475;    0.000
426.736; 2636.550;  250.475;    0.000
426.788; 2606.550;  210.475;    0.000
426.840; 2595.550;  201.475;    0.000
426.892; 2710.550;  225.475;    0.000
426.943; 2676.550;  215.475;    0.000
426.995; 2575.550;  216.475;    0.000
427.047; 2582.550;  216.475;    0.000
427.099; 2689.550;  203.475;    0.000
427.150; 2802.550;  195.475;    0.000
427.202; 2689.550;  212.475;    0.000
427.254; 2743.550;  233.475;    0.000
427.306; 2642.550;  211.475;    0.000
427.357; 2656.550;  210.475;    0.000
427.409; 2598.550;  244.475;    0.000
427.461; 2812.550;  187.475;    0.000
427.512; 2731.550;  227.475;    0.000
427.564; 2754.550;  210.475;    0.000
427.616; 2629.550;  202.475;    0.000
427.667; 2640.550;  185.475;    0.000
427.719; 2663.550;  222.475;    0.000
427.770; 2565.550;  230.475;    0.000
427.822; 2610.550;  254.475;    0.000
427.874; 2526.550;  222.475;    0.000
427.925; 2613.550;  199.475;    0.000
427.977; 2515.550;  228.475;    0.000
428.028; 2620.550;  226.475;    0.000
428.080; 2584.550;  236.475;    0.000
428.131; 2562.550;  220.475;    0.000
428.183; 2586.550;  256.475;    0.000
428.234; 2535.550;  217.475;    0.000
428.286; 2603.550;  234.475;    0.000
428.337; 2589.550;  209.475;    0.000
428.389; 2480.550;  219.475;    0.000
428.440; 2550.550;  249.475;    0.000
428.492; 2599.550;  255.475;    0.000
428.543; 2535.550;  224.475;    0.000
428.595; 2640.550;  225.475;    0.000
428.646; 2601.550;  240.475;    0.000
428.697; 2610.550;  211.475;    0.000
428.749; 2647.550;  200.475;    0.000
428.800; 2637.550;  235.475;    0.000
428.852; 2511.550;  265.475;    0.000
428.903; 2510.550;  201.475;    0.000
428.954; 2632.550;  242.475;    0.000
429.006; 2603.550;  245.475;    0.000
429.057; 2554.550;  252.475;    0.000
429.108; 2495.550;  211.475;    0.000
429.160; 2548.550;  217.475;    0.000
429.211; 2587.550;  234.475;    0.000
429.262; 2475.550;  205.475;    0.000
429.314; 2616.550;  211.475;    0.000
429.365; 2561.550;  240.475;    0.000
429.416; 2579.550;  263.475;    0.000
429.467; 2521.550;  244.475;    0.000
429.519; 2569.550;  223.475;    0.000
429.570; 2547.550;  214.475;    0.000
429.621; 2528.550;  235.475;    0.000
429.672; 2481.550;  202.475;    0.000
429.724; 2560.550;  189.475;    0.000
429.775; 2452.550;  214.475;    0.000
429.826; 2535.550;  178.475;    0.000
429.877; 2369.550;  224.475;    0.000
429.928; 2590.550;  230.475;    0.000
429.980; 2487.550;  199.475;    0.000
430.031; 2475.550;  208.475;    0.000
430.082; 2459.550;  224.475;    0.000
430.133; 2546.550;  193.475;    0.000
430.184; 2518.550;  220.475;    0.000
430.235; 2501.550;  184.475;    0.000
430.286; 2565.550;  197.475;    0.000
430.337; 2447.550;  199.475;    0.000
430.388; 2458.550;  207.475;    0.000
430.439; 2438.550;  227.475;    0.000
430.490; 2484.550;  215.475;    0.000
430.542; 2410.550;  211.475;    0.000
430.593; 2411.550;  230.475;    0.000
430.644; 2478.550;  186.475;    0.000
430.695; 2458.550;  232.475;    0.000
430.746; 2535.550;  214.475;    0.000
430.797; 2558.550;  260.475;    0.000
430.848; 2533.550;  214.475;    0.000
430.898; 2542.550;  204.475;    0.000
430.949; 2484.550;  189.475;    0.000
431.000; 2427.550;  240.475;    0.000
431.051; 2452.550;  201.475;    0.000
431.102; 2438.550;  188.475;    0.000
431.153; 2404.550;  209.475;    0.000
431.204; 2403.550;  187.475;    0.000
431.255; 2499.550;  171.475;    0.000
431.306; 2467.550;  181.475;    0.000
431.357; 2492.550;  221.475;    0.000
431.408; 2505.550;  217.475;    0.000
431.458; 2499.550;  206.475;    0.000
431.509; 2429.550;  194.475;    0.000
431.560; 2489.550;  235.475;    0.000
431.611; 2465.550;  213.475;    0.000
431.662; 2558.550;  237.475;    0.000
431.713; 2379.550;  220.475;    0.000
431.763; 2572.550;  212.475;    0.000
431.814; 2578.550;  238.475;    0.000
431.865; 2402.550;  213.475;    0.000
431.916; 2510.550;  191.475;    0.000
431.966; 2553.550;  171.475;    0.000
432.017; 2423.550;  263.475;    0.000
432.068; 2504.550;  240.475;    0.000
432.118; 2484.550;  235.475;    0.000
432.169; 2492.550;  212.475;    0.000
432.220; 2508.550;  188.475;    0.000
432.271; 2457.550;  216.475;    0.000
432.321; 2493.550;  223.475;    0.000
432.372; 2391.550;  254.475;    0.000
432.423; 2413.550;  193.475;    0.000
432.473; 2525.550;  219.475;    0.000
432.524; 2516.550;  215.475;    0.000
432.574; 2594.550;  234.475;    0.000
432.625; 2551.550;  226.475;    0.000
432.676; 2474.550;  219.475;    0.000
432.726; 2536.550;  254.475;    0.000
432.777; 2377.550;  210.475;    0.000
432.827; 2476.550;  234.475;    0.000
432.878; 2431.550;  212.475;    0.000
432.928; 2390.550;  238.475;    0.000
432.979; 2399.550;  252.475;    0.000
433.029; 2400.550;  222.475;    0.000
433.080; 2437.550;  188.475;    0.000
433.130; 2379.550;  223.475;    0.000
433.181; 2452.550;  254.475;    0.000
433.231; 2391.550;  237.475;    0.000
433.282; 2325.550;  242.475;    0.000
433.332; 2470.550;  261.475;    0.000
433.383; 2451.550;  266.475;    0.000
433.433; 2487.550;  286.475;    0.000
433.484; 2417.550;  231.475;    0.000
433.534; 2358.550;  256.475;    0.000
433.585; 2470.550;  253.475;    0.000
433.635; 2409.550;  228.475;    0.000
433.685; 2409.550;  226.475;    0.000
433.736; 2500.550;  276.475;    0.000
433.786; 2452.550;  253.475;    0.000
433.836; 2508.550;  289.475;    0.000
433.887; 2420.550;  241.475;    0.000
433.937; 2352.550;  252.475;    0.000
433.987; 2385.550;  223.475;    0.000
434.038; 2381.550;  241.475;    0.000
434.088; 2433.550;  231.475;    0.000
434.138; 2565.550;  259.475;    0.000
434.189; 2457.550;  263.475;    0.000
434.239; 2466.550;  194.475;    0.000
434.289; 2458.550;  273.475;    0.000
434.339; 2492.550;  212.475;    0.000
434.389; 2508.550;  248.475;    0.000
434.440; 2500.550;  250.475;    0.000
434.490; 2582.550;  278.475;    0.000
434.540; 2600.550;  241.475;    0.000
434.590; 2521.550;  251.475;    0.000
434.640; 2531.550;  207.475;    0.000
434.691; 2523.550;  242.475;    0.000
434.741; 2610.550;  218.475;    0.000
434.791; 2561.550;  267.475;    0.000
434.841; 2516.550;  272.475;    0.000
434.891; 2647.550;  260.475;    0.000
434.941; 2487.550;  258.475;    0.000
434.991; 2550.550;  264.475;    0.000
435.042; 2594.550;  264.475;    0.000
435.092; 2587.550;  271.475;    0.000
435.142; 2495.550;  229.475;    0.000
435.192; 2455.550;  226.475;    0.000
435.242; 2462.550;  253.475;    0.000
435.292; 2506.550;  215.475;    0.000
435.342; 2393.550;  240.475;    0.000
435.392; 2517.550;  235.475;    0.000
435.442; 2343.550;  230.475;    0.000
435.492; 2532.550;  235.475;    0.000
435.542; 2340.550;  230.475;    0.000
435.592; 2404.550;  239.475;    0.000
435.642; 2422.550;  244.475;    0.000
435.692; 2443.550;  236.475;    0.000
435.742; 2371.550;  236.475;    0.000
435.792; 2353.550;  230.475;    0.000
435.842; 2381.550;  248.475;    0.000
435.891; 2324.550;  233.475;    0.000
435.941; 2261.550;  243.475;    0.000
435.991; 2395.550;  279.475;    0.000
436.041; 2424.550;  204.475;    0.000
436.091; 2468.550;  217.475;    0.000
436.141; 2363.550;  205.475;    0.000
436.191; 2302.550;  220.475;    0.000
436.241; 2287.550;  248.475;    0.000
436.290; 2379.550;  255.475;    0.000
436.340; 2331.550;  235.475;    0.000
436.390; 2363.550;  207.475;    0.000
436.440; 2264.550;  207.475;    0.000
436.490; 2361.550;  251.475;    0.000
436.539; 2279.550;  240.475;    0.000
436.589; 2367.550;  198.475;    0.000
436.639; 2239.550;  240.475;    0.000
436.689; 2221.550;  216.475;    0.000
436.738; 2428.550;  246.475;    0.000
436.788; 2253.550;  203.475;    0.000
436.838; 2261.550;  230.475;    0.000
436.887; 2301.550;  235.475;    0.000
436.937; 2412.550;  249.475;    0.000
436.987; 2353.550;  208.475;    0.000
437.036; 2242.550;  232.475;    0.000
437.086; 2344.550;  238.475;    0.000
437.136; 2330.550;  228.475;    0.000
437.185; 2295.550;  219.475;    0.000
437.235; 2242.550;  227.475;    0.000
437.285; 2184.550;  241.475;    0.000
437.334; 2237.550;  216.475;    0.000
437.384; 2250.550;  243.475;    0.000
437.433; 2271.550;  214.475;    0.000
437.483; 2330.550;  246.475;    0.000
437.532; 2329.550;  261.475;    0.000
437.582; 2332.550;  205.475;    0.000
437.631; 2270.550;  218.475;    0.000
437.681; 2313.550;  240.475;    0.000
437.730; 2252.550;  258.475;    0.000
437.780; 2164.550;  237.475;    0.000
437.829; 2245.550;  209.475;    0.000
437.879; 2268.550;  214.475;    0.000
437.928; 2186.550;  223.475;    0.000
437.978; 2283.550;  220.475;    0.000
438.027; 2231.550;  239.475;    0.000
438.077; 2098.550;  231.475;    0.000
438.126; 2293.550;  266.475;    0.000
438.176; 2178.550;  234.475;    0.000
438.225; 2177.550;  237.475;    0.000
438.274; 2183.550;  234.475;    0.000
438.324; 2388.550;  244.475;    0.000
438.373; 2432.550;  232.475;    0.000
438.422; 2424.550;  218.475;    0.000
438.472; 2322.550;  221.475;    0.000
438.521; 2245.550;  190.475;    0.000
438.570; 2253.550;  243.475;    0.000
438.620; 2341.550;  255.475;    0.000
438.669; 2333.550;  210.475;    0.000
438.718; 2182.550;  237.475;    0.000
438.768; 2194.550;  220.475;    0.000
438.817; 2178.550;  218.475;    0.000
438.866; 2180.550;  198.475;    0.000
438.915; 2162.550;  256.475;    0.000
438.965; 2290.550;  221.475;    0.000
439.014; 2220.550;  255.475;    0.000
439.063; 2284.550;  276.475;    0.000
439.112; 2117.550;  220.475;    0.000
439.162; 2226.550;  253.475;    0.000
439.211; 2216.550;  247.475;    0.000
439.260; 2203.550;  220.475;    0.000
439.309; 2305.550;  235.475;    0.000
439.358; 2336.550;  205.475;    0.000
439.407; 2200.550;  207.475;    0.000
439.456; 2099.550;  216.475;    0.000
439.506; 2121.550;  245.475;    0.000
439.555; 2256.550;  264.475;    0.000
439.604; 2167.550;  227.475;    0.000
439.653; 2287.550;  220.475;    0.000
439.702; 2273.550;  223.475;    0.000
439.751; 2202.550;  197.475;    0.000
439.800; 2233.550;  207.475;    0.000
439.849; 2205.550;  238.475;    0.000
439.898; 2233.550;  209.475;    0.000
439.947; 2132.550;  170.475;    0.000
439.996; 2162.550;  233.475;    0.000
440.045; 2114.550;  222.475;    0.000
440.094; 2142.550;  240.475;    0.000
440.143; 2288.550;  249.475;    0.000
440.192; 2193.550;  252.475;    0.000
440.241; 2288.550;  239.475;    0.000
440.290; 2246.550;  234.475;    0.000
440.339; 2180.550;  241.475;    0.000
440.388; 2205.550;  239.475;    0.000
440.437; 2302.550;  231.475;    0.000
440.486; 2285.550;  254.475;    0.000
440.535; 2336.550;  266.475;    0.000
440.583; 2171.550;  205.475;    0.000
440.632; 2266.550;  234.475;    0.000
440.681; 2190.550;  218.475;    0.000
440.730; 2300.550;  248.475;    0.000
440.779; 2195.550;  246.475;    0.000
440.828; 2271.550;  235.475;    0.000
440.876; 2156.550;  218.475;    0.000
440.925; 2270.550;  228.475;    0.000
440.974; 2249.550;  249.475;    0.000
441.023; 2263.550;  192.475;    0.000
441.072; 2313.550;  226.475;    0.000
441.120; 2345.550;  238.475;    0.000
441.169; 2416.550;  255.475;    0.000
441.218; 2320.550;  233.475;    0.000
441.267; 2321.550;  231.475;    0.000
441.315; 2368.550;  214.475;    0.000
441.364; 2288.550;  250.475;    0.000
441.413; 2307.550;  228.475;    0.000
441.461; 2387.550;  209.475;    0.000
441.510; 2318.550;  260.475;    0.000
441.559; 2403.550;  230.475;    0.000
441.607; 2403.550;  220.475;    0.000
441.656; 2319.550;  251.475;    0.000
441.705; 2461.550;  237.475;    0.000
441.753; 2388.550;  257.475;    0.000
441.802; 2481.550;  256.475;    0.000
441.850; 2439.550;  253.475;    0.000
441.899; 2359.550;  212.475;    0.000
441.948; 2418.550;  251.475;    0.000
441.996; 2395.550;  239.475;    0.000
442.045; 2440.550;  223.475;    0.000
442.093; 2289.550;  211.475;    0.000
442.142; 2369.550;  235.475;    0.000
442.190; 2366.550;  254.475;    0.000
442.239; 2365.550;  226.475;    0.000
442.287; 2391.550;  242.475;    0.000
442.336; 2410.550;  256.475;    0.000
442.384; 2322.550;  252.475;    0.000
442.433; 2398.550;  262.475;    0.000
442.481; 2276.550;  246.475;    0.000
442.529; 2353.550;  290.475;    0.000
442.578; 2304.550;  247.475;    0.000
442.626; 2438.550;  247.475;    0.000
442.675; 2350.550;  272.475;    0.000
442.723; 2299.550;  230.475;    0.000
442.771; 2328.550;  234.475;    0.000
442.820; 2337.550;  224.475;    0.000
442.868; 2252.550;  246.475;    0.000
442.917; 2316.550;  249.475;    0.000
442.965; 2301.550;  260.475;    0.000
443.013; 2385.550;  258.475;    0.000
443.062; 2366.550;  259.475;    0.000
443.110; 2317.550;  226.475;    0.000
443.158; 2397.550;  213.475;    0.000
443.206; 2416.550;  201.475;    0.000
443.255; 2420.550;  280.475;    0.000
443.303; 2378.550;  292.475;    0.000
443.351; 2364.550;  256.475;    0.000
443.399; 2382.550;  215.475;    0.000
443.448; 2305.550;  243.475;    0.000
443.496; 2383.550;  249.475;    0.000
443.544; 2344.550;  231.475;    0.000
443.592; 2433.550;  243.475;    0.000
443.640; 2412.550;  252.475;    0.000
443.689; 2408.550;  220.475;    0.000
443.737; 2441.550;  231.475;    0.000
443.785; 2393.550;  256.475;    0.000
443.833; 2528.550;  268.475;    0.000
443.881; 2405.550;  181.475;    0.000
443.929; 2353.550;  245.475;    0.000
443.977; 2398.550;  278.475;    0.000
444.025; 2454.550;  245.475;    0.000
444.074; 2359.550;  233.475;    0.000
444.122; 2496.550;  267.475;    0.000
444.170; 2458.550;  247.475;    0.000
444.218; 2558.550;  246.475;    0.000
444.266; 2476.550;  275.475;    0.000
444.314; 2415.550;  263.475;    0.000
444.362; 2513.550;  240.475;    0.000
444.410; 2546.550;  220.475;    0.000
444.458; 2468.550;  258.475;    0.000
444.506; 2525.550;  258.475;    0.000
444.554; 2597.550;  224.475;    0.000
444.602; 2524.550;  245.475;    0.000
444.650; 2694.550;  261.475;    0.000
444.698; 2577.550;  232.475;    0.000
444.746; 2546.550;  206.475;    0.000
444.793; 2570.550;  249.475;    0.000
444.841; 2555.550;  261.475;    0.000
444.889; 2562.550;  221.475;    0.000
444.937; 2538.550;  215.475;    0.000
444.985; 2606.550;  244.475;    0.000
445.033; 2476.550;  211.475;    0.000
445.081; 2593.550;  225.475;    0.000
445.129; 2468.550;  217.475;    0.000
445.176; 2520.550;  196.475;    0.000
445.224; 2498.550;  211.475;    0.000
445.272; 2451.550;  242.475;    0.000
445.320; 2450.550;  225.475;    0.000
445.368; 2563.550;  249.475;    0.000
445.415; 2465.550;  243.475;    0.000
445.463; 2596.550;  242.475;    0.000
445.511; 2461.550;  248.475;    0.000
445.559; 2522.550;  219.475;    0.000
445.606; 2489.550;  221.475;    0.000
445.654; 2490.550;  202.475;    0.000
445.702; 2493.550;  210.475;    0.000
445.749; 2398.550;  249.475;    0.000
445.797; 2480.550;  206.475;    0.000
445.845; 2418.550;  213.475;    0.000
445.892; 2564.550;  224.475;    0.000
445.940; 2454.550;  214.475;    0.000
445.988; 2474.550;  247.475;    0.000
446.035; 2435.550;  204.475;    0.000
446.083; 2472.550;  235.475;    0.000
446.130; 2369.550;  195.475;    0.000
446.178; 2588.550;  236.475;    0.000
446.226; 2482.550;  218.475;    0.000
446.273; 2557.550;  215.475;    0.000
446.321; 2573.550;  222.475;    0.000
446.368; 2500.550;  228.475;    0.000
446.416; 2519.550;  223.475;    0.000
446.463; 2552.550;  220.475;    0.000
446.511; 2540.550;  198.475;    0.000
446.558; 2452.550;  208.475;    0.000
446.606; 2633.550;  253.475;    0.000
446.653; 2575.550;  198.475;    0.000
446.701; 2529.550;  231.475;    0.000
446.748; 2613.550;  224.475;    0.000
446.796; 2509.550;  201.475;    0.000
446.843; 2664.550;  257.475;    0.000
446.891; 2577.550;  218.475;    0.000
446.938; 2708.550;  232.475;    0.000
446.985; 2696.550;  229.475;    0.000
447.033; 2646.550;  251.475;    0.000
447.080; 2645.550;  257.475;    0.000
447.128; 2692.550;  232.475;    0.000
447.175; 2717.550;  269.475;    0.000
447.222; 2681.550;  185.475;    0.000
447.270; 2812.550;  264.475;    0.000
447.317; 2830.550;  225.475;    0.000
447.364; 2799.550;  243.475;    0.000
447.411; 2828.550;  263.475;    0.000
447.459; 2844.550;  257.475;    0.000
447.506; 2911.550;  175.475;    0.000
447.553; 3086.550;  203.475;    0.000
447.601; 3005.550;  238.475;    0.000
447.648; 3011.550;  244.475;    0.000
447.695; 3045.550;  249.475;    0.000
447.742; 3079.550;  234.475;    0.000
447.789; 3194.550;  228.475;    0.000
447.837; 3260.550;  258.475;    0.000
447.884; 3283.550;  243.475;    0.000
447.931; 3466.550;  235.475;    0.000
447.978; 3399.550;  224.475;    0.000
448.025; 3562.550;  245.475;    0.000
448.072; 3489.550;  212.475;    0.000
448.120; 3595.550;  256.475;    0.000
448.167; 3666.550;  240.475;    0.000
448.214; 3485.550;  247.475;    0.000
448.261; 3410.550;  245.475;    0.000
448.308; 3506.550;  273.475;    0.000
448.355; 3273.550;  257.475;    0.000
448.402; 3172.550;  259.475;    0.000
448.449; 2966.550;  238.475;    0.000
448.496; 3128.550;  245.475;    0.000
448.543; 2898.550;  217.475;    0.000
448.590; 2996.550;  269.475;    0.000
448.637; 2847.550;  250.475;    0.000
448.684; 2802.550;  250.475;    0.000
448.731; 2737.550;  235.475;    0.000
448.778; 2780.550;  265.475;    0.000
448.825; 2695.550;  257.475;    0.000
448.872; 2535.550;  234.475;    0.000
448.919; 2634.550;  216.475;    0.000
448.966; 2614.550;  274.475;    0.000
449.013; 2693.550;  263.475;    0.000
449.060; 2735.550;  247.475;    0.000
449.107; 2561.550;  218.475;    0.000
449.154; 2570.550;  225.475;    0.000
449.200; 2478.550;  212.475;    0.000
449.247; 2482.550;  242.475;    0.000
449.294; 2475.550;  228.475;    0.000
449.341; 2490.550;  232.475;    0.000
449.388; 2450.550;  247.475;    0.000
449.435; 2448.550;  227.475;    0.000
449.481; 2374.550;  270.475;    0.000
449.528; 2339.550;  265.475;    0.000
449.575; 2368.550;  255.475;    0.000
449.622; 2408.550;  210.475;    0.000
449.668; 2417.550;  234.475;    0.000
449.715; 2358.550;  262.475;    0.000
449.762; 2371.550;  247.475;    0.000
449.809; 2361.550;  286.475;    0.000
449.855; 2339.550;  246.475;    0.000
449.902; 2396.550;  224.475;    0.000
449.949; 2396.550;  244.475;    0.000
449.995; 2399.550;  274.475;    0.000
450.042; 2236.550;  272.475;    0.000
450.089; 2351.550;  274.475;    0.000
450.135; 2421.550;  285.475;    0.000
450.182; 2193.550;  251.475;    0.000
450.229; 2211.550;  242.475;    0.000
450.275; 2325.550;  277.475;    0.000
450.322; 2287.550;  260.475;    0.000
450.368; 2306.550;  257.475;    0.000
450.415; 2302.550;  276.475;    0.000
450.462; 2261.550;  298.475;    0.000
450.508; 2330.550;  255.475;    0.000
450.555; 2235.550;  271.475;    0.000
450.601; 2258.550;  281.475;    0.000
450.648; 2272.550;  249.475;    0.000
450.694; 2268.550;  270.475;    0.000
450.741; 2232.550;  256.475;    0.000
450.787; 2261.550;  292.475;    0.000
450.834; 2198.550;  221.475;    0.000
450.880; 2211.550;  265.475;    0.000
450.927; 2249.550;  242.475;    0.000
450.973; 2275.550;  259.475;    0.000
451.019; 2178.550;  221.475;    0.000
451.066; 2206.550;  257.475;    0.000
451.112; 2161.550;  251.475;    0.000
451.159; 2148.550;  278.475;    0.000
451.205; 2203.550;  274.475;    0.000
451.251; 2274.550;  281.475;    0.000
451.298; 2270.550;  273.475;    0.000
451.344; 2292.550;  246.475;    0.000
451.390; 2131.550;  286.475;    0.000
451.437; 2241.550;  268.475;    0.000
451.483; 2148.550;  315.475;    0.000
451.529; 2102.550;  251.475;    0.000
451.576; 2191.550;  306.475;    0.000
451.622; 2201.550;  234.475;    0.000
451.668; 2140.550;  243.475;    0.000
451.714; 2145.550;  256.475;    0.000
451.761; 2160.550;  264.475;    0.000
451.807; 2131.550;  284.475;    0.000
451.853; 2156.550;  282.475;    0.000
451.899; 2089.550;  240.475;    0.000
451.945; 2082.550;  263.475;    0.000
451.992; 2191.550;  255.475;    0.000
452.038; 2067.550;  273.475;    0.000
452.084; 2029.550;  274.475;    0.000
452.130; 2172.550;  261.475;    0.000
452.176; 2136.550;  246.475;    0.000
452.222; 2023.550;  238.475;    0.000
452.268; 2101.550;  267.475;    0.000
452.315; 2072.550;  274.475;    0.000
452.361; 2029.550;  241.475;    0.000
452.407; 2107.550;  274.475;    0.000
452.453; 2125.550;  260.475;    0.000
452.499; 2150.550;  232.475;    0.000
452.545; 2123.550;  252.475;    0.000
452.591; 2104.550;  263.475;    0.000
452.637; 2091.550;  208.475;    0.000
452.683; 2028.550;  237.475;    0.000
452.729; 2204.550;  263.475;    0.000
452.775; 2167.550;  291.475;    0.000
452.821; 2081.550;  238.475;    0.000
452.867; 2079.550;  223.475;    0.000
452.913; 2123.550;  257.475;    0.000
452.959; 2127.550;  238.475;    0.000
453.005; 2069.550;  252.475;    0.000
453.051; 2176.550;  260.475;    0.000
453.097; 2153.550;  268.475;    0.000
453.142; 2025.550;  231.475;    0.000
453.188; 2001.550;  266.475;    0.000
453.234; 2096.550;  233.475;    0.000
453.280; 2019.550;  219.475;    0.000
453.326; 2022.550;  265.475;    0.000
453.372; 2016.550;  238.475;    0.000
453.418; 2060.550;  240.475;    0.000
453.463; 2007.550;  219.475;    0.000
453.509; 2093.550;  264.475;    0.000
453.555; 2082.550;  247.475;    0.000
453.601; 2075.550;  230.475;    0.000
453.647; 2055.550;  285.475;    0.000
453.692; 1961.550;  240.475;    0.000
453.738; 2002.550;  233.475;    0.000
453.784; 2042.550;  230.475;    0.000
453.829; 1979.550;  246.475;    0.000
453.875; 2049.550;  261.475;    0.000
453.921; 2026.550;  203.475;    0.000
453.967; 2048.550;  241.475;    0.000
454.012; 2096.550;  250.475;    0.000
454.058; 2097.550;  252.475;    0.000
454.104; 2084.550;  239.475;    0.000
454.149; 2030.550;  250.475;    0.000
454.195; 2047.550;  243.475;    0.000
454.240; 2103.550;  252.475;    0.000
454.286; 1980.550;  245.475;    0.000
454.332; 2085.550;  286.475;    0.000
454.377; 1994.550;  254.475;    0.000
454.423; 2001.550;  246.475;    0.000
454.468; 2019.550;  235.475;    0.000
454.514; 2091.550;  231.475;    0.000
454.559; 2016.550;  246.475;    0.000
454.605; 2010.550;  204.475;    0.000
454.650; 2104.550;  272.475;    0.000
454.696; 1985.550;  222.475;    0.000
454.741; 2051.550;  290.475;    0.000
454.787; 2071.550;  262.475;    0.000
454.832; 1952.550;  227.475;    0.000
454.878; 2017.550;  241.475;    0.000
454.923; 2018.550;  272.475;    0.000
454.969; 2065.550;  290.475;    0.000
455.014; 2039.550;  278.475;    0.000
455.060; 2081.550;  246.475;    0.000
455.105; 1974.550;  231.475;    0.000
455.150; 2000.550;  265.475;    0.000
455.196; 2064.550;  266.475;    0.000
455.241; 2057.550;  258.475;    0.000
455.286; 2024.550;  266.475;    0.000
455.332; 1984.550;  252.475;    0.000
455.377; 1971.550;  219.475;    0.000
455.422; 1987.550;  262.475;    0.000
455.468; 2000.550;  260.475;    0.000
455.513; 2031.550;  212.475;    0.000
455.558; 1963.550;  197.475;    0.000
455.604; 2027.550;  262.475;    0.000
455.649; 2037.550;  238.475;    0.000
455.694; 1923.550;  221.475;    0.000
455.739; 1943.550;  251.475;    0.000
455.785; 2009.550;  287.475;    0.000
455.830; 2031.550;  284.475;    0.000
455.875; 2024.550;  234.475;    0.000
455.920; 1903.550;  215.475;    0.000
455.965; 1991.550;  256.475;    0.000
456.010; 2112.550;  266.475;    0.000
456.056; 1989.550;  263.475;    0.000
456.101; 2037.550;  240.475;    0.000
456.146; 1969.550;  258.475;    0.000
456.191; 1967.550;  241.475;    0.000
456.236; 2001.550;  252.475;    0.000
456.281; 1958.550;  218.475;    0.000
456.326; 1962.550;  251.475;    0.000
456.371; 1936.550;  256.475;    0.000
456.416; 2005.550;  301.475;    0.000
456.461; 2002.550;  233.475;    0.000
456.507; 1954.550;  218.475;    0.000
456.552; 2030.550;  278.475;    0.000
456.597; 1985.550;  223.475;    0.000
456.642; 1952.550;  203.475;    0.000
456.687; 2066.550;  245.475;    0.000
456.732; 2002.550;  256.475;    0.000
456.776; 2082.550;  244.475;    0.000
456.821; 1970.550;  276.475;    0.000
456.866; 2009.550;  232.475;    0.000
456.911; 1992.550;  225.475;    0.000
456.956; 1990.550;  237.475;    0.000
457.001; 1974.550;  261.475;    0.000
457.046; 2020.550;  205.475;    0.000
457.091; 2040.550;  241.475;    0.000
457.136; 1947.550;  217.475;    0.000
457.181; 2028.550;  251.475;    0.000
457.225; 2018.550;  241.475;    0.000
457.270; 1989.550;  237.475;    0.000
457.315; 2031.550;  279.475;    0.000
457.360; 1939.550;  245.475;    0.000
457.405; 1961.550;  202.475;    0.000
457.450; 1982.550;  247.475;    0.000
457.494; 1944.550;  243.475;    0.000
457.539; 2001.550;  222.475;    0.000
457.584; 2161.550;  239.475;    0.000
457.629; 2028.550;  236.475;    0.000
457.673; 1946.550;  234.475;    0.000
457.718; 2073.550;  202.475;    0.000
457.763; 2068.550;  274.475;    0.000
457.807; 2038.550;  236.475;    0.000
457.852; 1977.550;  265.475;    0.000
457.897; 1992.550;  252.475;    0.000
457.941; 2006.550;  264.475;    0.000
457.986; 2049.550;  280.475;    0.000
458.031; 2094.550;  217.475;    0.000
458.075; 2076.550;  249.475;    0.000
458.120; 1943.550;  257.475;    0.000
458.165; 2070.550;  183.475;    0.000
458.209; 2024.550;  245.475;    0.000
458.254; 2000.550;  245.475;    0.000
458.298; 2029.550;  265.475;    0.000
458.343; 2063.550;  241.475;    0.000
458.387; 2050.550;  262.475;    0.000
458.432; 2043.550;  245.475;    0.000
458.476; 2085.550;  255.475;    0.000
458.521; 2126.550;  269.475;    0.000
458.565; 2093.550;  265.475;    0.000
458.610; 2138.550;  222.475;    0.000
458.654; 2085.550;  257.475;    0.000
458.699; 2110.550;  296.475;    0.000
458.743; 2102.550;  203.475;    0.000
458.788; 2234.550;  267.475;    0.000
458.832; 2098.550;  274.475;    0.000
458.877; 2150.550;  251.475;    0.000
458.921; 2102.550;  237.475;    0.000
458.965; 2162.550;  264.475;    0.000
459.010; 2152.550;  256.475;    0.000
459.054; 2140.550;  280.475;    0.000
459.099; 2200.550;  240.475;    0.000
459.143; 2174.550;  287.475;    0.000
459.187; 2146.550;  257.475;    0.000
459.231; 2185.550;  273.475;    0.000
459.276; 2269.550;  231.475;    0.000
459.320; 2257.550;  261.475;    0.000
459.364; 2180.550;  278.475;    0.000
459.409; 2304.550;  249.475;    0.000
459.453; 2184.550;  235.475;    0.000
459.497; 2218.550;  262.475;    0.000
459.541; 2252.550;  269.475;    0.000
459.586; 2177.550;  240.475;    0.000
459.630; 2237.550;  261.475;    0.000
459.674; 2277.550;  276.475;    0.000
459.718; 2182.550;  236.475;    0.000
459.762; 2217.550;  263.475;    0.000
459.807; 2246.550;  263.475;    0.000
459.851; 2282.550;  225.475;    0.000
459.895; 2266.550;  247.475;    0.000
459.939; 2342.550;  231.475;    0.000
459.983; 2268.550;  242.475;    0.000
460.027; 2300.550;  248.475;    0.000
460.071; 2300.550;  273.475;    0.000
460.115; 2300.550;  282.475;    0.000
460.159; 2252.550;  264.475;    0.000
460.204; 2259.550;  288.475;    0.000
460.248; 2249.550;  293.475;    0.000
460.292; 2401.550;  277.475;    0.000
460.336; 2291.550;  250.475;    0.000
460.380; 2303.550;  275.475;    0.000
460.424; 2367.550;  243.475;    0.000
460.468; 2272.550;  277.475;    0.000
460.512; 2390.550;  261.475;    0.000
460.556; 2423.550;  266.475;    0.000
460.599; 2281.550;  246.475;    0.000
460.643; 2343.550;  256.475;    0.000
460.687; 2397.550;  257.475;    0.000
460.731; 2326.550;  235.475;    0.000
460.775; 2353.550;  278.475;    0.000
460.819; 2310.550;  268.475;    0.000
460.863; 2301.550;  257.475;    0.000
460.907; 2318.550;  213.475;    0.000
460.951; 2388.550;  274.475;    0.000
460.995; 2420.550;  258.475;    0.000
461.038; 2368.550;  219.475;    0.000
461.082; 2318.550;  253.475;    0.000
461.126; 2330.550;  281.475;    0.000
461.170; 2277.550;  244.475;    0.000
461.214; 2431.550;  262.475;    0.000
461.257; 2379.550;  284.475;    0.000
461.301; 2342.550;  275.475;    0.000
461.345; 2360.550;  267.475;    0.000
461.389; 2408.550;  255.475;    0.000
461.432; 2297.550;  282.475;    0.000
461.476; 2267.550;  263.475;    0.000
461.520; 2410.550;  260.475;    0.000
461.563; 2355.550;  278.475;    0.000
461.607; 2311.550;  236.475;    0.000
461.651; 2352.550;  262.475;    0.000
461.694; 2345.550;  236.475;    0.000
461.738; 2224.550;  295.475;    0.000
461.782; 2297.550;  252.475;    0.000
461.825; 2345.550;  271.475;    0.000
461.869; 2397.550;  278.475;    0.000
461.913; 2332.550;  255.475;    0.000
461.956; 2363.550;  254.475;    0.000
462.000; 2400.550;  299.475;    0.000
462.043; 2408.550;  282.475;    0.000
462.087; 2388.550;  274.475;    0.000
462.130; 2451.550;  270.475;    0.000
462.174; 2459.550;  274.475;    0.000
462.217; 2427.550;  272.475;    0.000
462.261; 2473.550;  286.475;    0.000
462.304; 2365.550;  236.475;    0.000
462.348; 2417.550;  262.475;    0.000
462.391; 2521.550;  244.475;    0.000
462.435; 2477.550;  321.475;    0.000
462.478; 2452.550;  230.475;    0.000
462.522; 2552.550;  245.475;    0.000
462.565; 2438.550;  278.475;    0.000
462.608; 2588.550;  303.475;    0.000
462.652; 2568.550;  275.475;    0.000
462.695; 2545.550;  314.475;    0.000
462.739; 2599.550;  307.475;    0.000
462.782; 2546.550;  286.475;    0.000
462.825; 2563.550;  312.475;    0.000
462.869; 2583.550;  338.475;    0.000
462.912; 2708.550;  304.475;    0.000
462.955; 2827.550;  288.475;    0.000
462.998; 2722.550;  292.475;    0.000
463.042; 2733.550;  309.475;    0.000
463.085; 2697.550;  292.475;    0.000
463.128; 2805.550;  317.475;    0.000
463.172; 2589.550;  287.475;    0.000
463.215;  372.550;  313.475;    0.000
463.258;  320.550;  295.475;    0.000
463.301;  316.550;  275.475;    0.000
463.344;  298.550;  311.475;    0.000
463.388;  322.550;  296.475;    0.000
463.431;  315.550;  277.475;    0.000
463.474;  331.550;  364.475;    0.000
463.517;  309.550;  306.475;    0.000
463.560;  334.550;  308.475;    0.000
463.603;  302.550;  343.475;    0.000
463.646;  325.550;  309.475;    0.000
463.690;  305.550;  309.475;    0.000
463.733;  332.550;  320.475;    0.000
463.776;  336.550;  299.475;    0.000
463.819;  318.550;  320.475;    0.000
463.862;  288.550;  283.475;    0.000

