
Integration time [ms]:   1.000
Averaging Nr. [scans]: 1
Smoothing Nr. [pixels]: 0
Data measured with spectrometer [name]: UV1
Wave   ;Sample   ;Dark     ;Reference
[nm]   ;[counts] ;[counts] ;[counts] 

236.381;   98.825;  175.825;    0.000
236.451;  175.825;  220.825;    0.000
236.520;  188.825;  178.825;    0.000
236.590;  199.825;  182.825;    0.000
236.660;  180.825;  180.825;    0.000
236.730;  180.825;  201.825;    0.000
236.799;  185.825;  168.825;    0.000
236.869;  193.825;  205.825;    0.000
236.939;  201.825;  175.825;    0.000
237.009;  157.825;  186.825;    0.000
237.078;  165.825;  200.825;    0.000
237.148;  170.825;  156.825;    0.000
237.218;  184.825;  190.825;    0.000
237.287;  200.825;  167.825;    0.000
237.357;  196.825;  213.825;    0.000
237.427;  212.825;  164.825;    0.000
237.496; 1210.825;  210.825;    0.000
237.566; 1259.825;  193.825;    0.000
237.636; 1229.825;  179.825;    0.000
237.705; 1235.825;  218.825;    0.000
237.775; 1227.825;  160.825;    0.000
237.845; 1268.825;  207.825;    0.000
237.914; 1121.825;  180.825;    0.000
237.984; 1210.825;  207.825;    0.000
238.054; 1215.825;  149.825;    0.000
238.123; 1243.825;  190.825;    0.000
238.193; 1189.825;  167.825;    0.000
238.263; 1218.825;  172.825;    0.000
238.332; 1164.825;  173.825;    0.000
238.402; 1143.825;  214.825;    0.000
238.471; 1163.825;  181.825;    0.000
238.541; 1170.825;  177.825;    0.000
238.611; 1122.825;  138.825;    0.000
238.680; 1201.825;  168.825;    0.000
238.750; 1259.825;  171.825;    0.000
238.819; 1207.825;  156.825;    0.000
238.889; 1176.825;  194.825;    0.000
238.958; 1170.825;  185.825;    0.000
239.028; 1180.825;  170.825;    0.000
239.097; 1121.825;  159.825;    0.000
239.167; 1255.825;  208.825;    0.000
239.237; 1247.825;  167.825;    0.000
239.306; 1138.825;  154.825;    0.000
239.376; 1223.825;  183.825;    0.000
239.445; 1248.825;  221.825;    0.000
239.515; 1171.825;  208.825;    0.000
239.584; 1205.825;  177.825;    0.000
239.654; 1168.825;  133.825;    0.000
239.723; 1161.825;  167.825;    0.000
239.793; 1167.825;  190.825;    0.000
239.862; 1113.825;  192.825;    0.000
239.932; 1176.825;  174.825;    0.000
240.001; 1151.825;  166.825;    0.000
240.070; 1168.825;  179.825;    0.000
240.140; 1111.825;  191.825;    0.000
240.209; 1136.825;  134.825;    0.000
240.279; 1155.825;  185.825;    0.000
240.348; 1187.825;  193.825;    0.000
240.418; 1111.825;  149.825;    0.000
240.487; 1203.825;  197.825;    0.000
240.556; 1093.825;  193.825;    0.000
240.626; 1147.825;  178.825;    0.000
240.695; 1207.825;  194.825;    0.000
240.765; 1113.825;  178.825;    0.000
240.834; 1153.825;  190.825;    0.000
240.903; 1166.825;  212.825;    0.000
240.973; 1173.825;  153.825;    0.000
241.042; 1151.825;  177.825;    0.000
241.112; 1164.825;  193.825;    0.000
241.181; 1134.825;  171.825;    0.000
241.250; 1188.825;  152.825;    0.000
241.320; 1188.825;  176.825;    0.000
241.389; 1103.825;  186.825;    0.000
241.458; 1171.825;  182.825;    0.000
241.528; 1174.825;  175.825;    0.000
241.597; 1167.825;  180.825;    0.000
241.666; 1185.825;  162.825;    0.000
241.736; 1157.825;  187.825;    0.000
241.805; 1165.825;  173.825;    0.000
241.874; 1158.825;  177.825;    0.000
241.943; 1157.825;  208.825;    0.000
242.013; 1114.825;  183.825;    0.000
242.082; 1120.825;  171.825;    0.000
242.151; 1218.825;  208.825;    0.000
242.221; 1094.825;  160.825;    0.000
242.290; 1162.825;  200.825;    0.000
242.359; 1112.825;  167.825;    0.000
242.428; 1159.825;  213.825;    0.000
242.498; 1130.825;  156.825;    0.000
242.567; 1168.825;  200.825;    0.000
242.636; 1132.825;  178.825;    0.000
242.705; 1157.825;  185.825;    0.000
242.774; 1129.825;  190.825;    0.000
242.844; 1134.825;  194.825;    0.000
242.913; 1123.825;  162.825;    0.000
242.982; 1133.825;  189.825;    0.000
243.051; 1104.825;  176.825;    0.000
243.120; 1074.825;  213.825;    0.000
243.190; 1128.825;  155.825;    0.000
243.259; 1165.825;  183.825;    0.000
243.328; 1128.825;  170.825;    0.000
243.397; 1149.825;  224.825;    0.000
243.466; 1166.825;  172.825;    0.000
243.535; 1085.825;  145.825;    0.000
243.605; 1068.825;  157.825;    0.000
243.674; 1129.825;  199.825;    0.000
243.743; 1174.825;  196.825;    0.000
243.812; 1120.825;  152.825;    0.000
243.881; 1100.825;  188.825;    0.000
243.950; 1187.825;  154.825;    0.000
244.019; 1162.825;  195.825;    0.000
244.088; 1102.825;  164.825;    0.000
244.158; 1081.825;  220.825;    0.000
244.227; 1081.825;  150.825;    0.000
244.296; 1139.825;  153.825;    0.000
244.365; 1196.825;  195.825;    0.000
244.434; 1080.825;  136.825;    0.000
244.503; 1046.825;  172.825;    0.000
244.572; 1056.825;  129.825;    0.000
244.641; 1119.825;  132.825;    0.000
244.710; 1091.825;  185.825;    0.000
244.779; 1099.825;  164.825;    0.000
244.848; 1068.825;  132.825;    0.000
244.917; 1143.825;  196.825;    0.000
244.986; 1117.825;  148.825;    0.000
245.055; 1079.825;  192.825;    0.000
245.124; 1091.825;  170.825;    0.000
245.193; 1073.825;  172.825;    0.000
245.262; 1061.825;  146.825;    0.000
245.331; 1098.825;  178.825;    0.000
245.400; 1039.825;  108.825;    0.000
245.469;  979.825;  173.825;    0.000
245.538;  944.825;  180.825;    0.000
245.607; 1020.825;  171.825;    0.000
245.676; 1036.825;  149.825;    0.000
245.745;  965.825;  194.825;    0.000
245.814;  979.825;  186.825;    0.000
245.883; 1011.825;  192.825;    0.000
245.952;  963.825;  169.825;    0.000
246.021;  987.825;  190.825;    0.000
246.090;  982.825;  181.825;    0.000
246.159;  957.825;  179.825;    0.000
246.227;  979.825;  182.825;    0.000
246.296;  965.825;  182.825;    0.000
246.365;  913.825;  171.825;    0.000
246.434; 1030.825;  218.825;    0.000
246.503;  984.825;  147.825;    0.000
246.572; 1045.825;  227.825;    0.000
246.641;  970.825;  193.825;    0.000
246.710;  974.825;  207.825;    0.000
246.779;  944.825;  181.825;    0.000
246.847;  971.825;  179.825;    0.000
246.916;  940.825;  155.825;    0.000
246.985;  992.825;  168.825;    0.000
247.054;  960.825;  137.825;    0.000
247.123;  913.825;  128.825;    0.000
247.192;  921.825;  163.825;    0.000
247.260;  903.825;  173.825;    0.000
247.329;  933.825;  174.825;    0.000
247.398;  993.825;  238.825;    0.000
247.467;  980.825;  168.825;    0.000
247.536;  898.825;  203.825;    0.000
247.604;  939.825;  194.825;    0.000
247.673;  928.825;  145.825;    0.000
247.742;  894.825;  167.825;    0.000
247.811;  933.825;  180.825;    0.000
247.879;  898.825;  187.825;    0.000
247.948;  911.825;  187.825;    0.000
248.017;  995.825;  170.825;    0.000
248.086;  986.825;  223.825;    0.000
248.154;  894.825;  160.825;    0.000
248.223;  924.825;  163.825;    0.000
248.292;  919.825;  201.825;    0.000
248.361;  915.825;  205.825;    0.000
248.429;  888.825;  191.825;    0.000
248.498;  918.825;  194.825;    0.000
248.567;  925.825;  217.825;    0.000
248.635;  971.825;  224.825;    0.000
248.704;  939.825;  204.825;    0.000
248.773;  913.825;  175.825;    0.000
248.841;  958.825;  157.825;    0.000
248.910;  938.825;  206.825;    0.000
248.979;  873.825;  170.825;    0.000
249.047;  857.825;  178.825;    0.000
249.116;  916.825;  183.825;    0.000
249.185;  918.825;  202.825;    0.000
249.253;  926.825;  159.825;    0.000
249.322;  960.825;  177.825;    0.000
249.390;  884.825;  157.825;    0.000
249.459;  947.825;  211.825;    0.000
249.528;  960.825;  181.825;    0.000
249.596;  942.825;  179.825;    0.000
249.665;  891.825;  176.825;    0.000
249.733;  933.825;  186.825;    0.000
249.802;  891.825;  185.825;    0.000
249.871;  883.825;  166.825;    0.000
249.939;  910.825;  163.825;    0.000
250.008;  887.825;  212.825;    0.000
250.076;  944.825;  227.825;    0.000
250.145;  881.825;  172.825;    0.000
250.213;  847.825;  173.825;    0.000
250.282;  902.825;  189.825;    0.000
250.350;  787.825;  166.825;    0.000
250.419;  855.825;  161.825;    0.000
250.487;  930.825;  178.825;    0.000
250.556;  901.825;  208.825;    0.000
250.624;  876.825;  190.825;    0.000
250.693;  813.825;  163.825;    0.000
250.761;  837.825;  194.825;    0.000
250.830;  866.825;  225.825;    0.000
250.898;  864.825;  140.825;    0.000
250.967;  875.825;  167.825;    0.000
251.035;  814.825;  155.825;    0.000
251.104;  860.825;  189.825;    0.000
251.172;  926.825;  136.825;    0.000
251.241;  875.825;  148.825;    0.000
251.309;  919.825;  201.825;    0.000
251.378;  894.825;  169.825;    0.000
251.446;  845.825;  178.825;    0.000
251.514;  854.825;  206.825;    0.000
251.583;  849.825;  178.825;    0.000
251.651;  853.825;  168.825;    0.000
251.720;  870.825;  190.825;    0.000
251.788;  872.825;  209.825;    0.000
251.856;  804.825;  173.825;    0.000
251.925;  814.825;  171.825;    0.000
251.993;  854.825;  188.825;    0.000
252.062;  940.825;  169.825;    0.000
252.130;  893.825;  196.825;    0.000
252.198;  861.825;  210.825;    0.000
252.267;  798.825;  181.825;    0.000
252.335;  816.825;  164.825;    0.000
252.403;  815.825;  152.825;    0.000
252.472;  848.825;  166.825;    0.000
252.540;  826.825;  189.825;    0.000
252.608;  862.825;  198.825;    0.000
252.677;  791.825;  156.825;    0.000
252.745;  787.825;  184.825;    0.000
252.813;  773.825;  163.825;    0.000
252.881;  742.825;  130.825;    0.000
252.950;  784.825;  189.825;    0.000
253.018;  747.825;  164.825;    0.000
253.086;  685.825;  172.825;    0.000
253.155;  742.825;  205.825;    0.000
253.223;  694.825;  175.825;    0.000
253.291;  707.825;  176.825;    0.000
253.359;  655.825;  182.825;    0.000
253.428;  726.825;  222.825;    0.000
253.496;  668.825;  166.825;    0.000
253.564;  642.825;  135.825;    0.000
253.632;  597.825;  184.825;    0.000
253.700;  669.825;  173.825;    0.000
253.769;  604.825;  163.825;    0.000
253.837;  675.825;  179.825;    0.000
253.905;  640.825;  157.825;    0.000
253.973;  592.825;  164.825;    0.000
254.041;  664.825;  170.825;    0.000
254.110;  639.825;  169.825;    0.000
254.178;  617.825;  165.825;    0.000
254.246;  591.825;  126.825;    0.000
254.314;  629.825;  166.825;    0.000
254.382;  607.825;  169.825;    0.000
254.450;  613.825;  170.825;    0.000
254.518;  600.825;  196.825;    0.000
254.587;  589.825;  161.825;    0.000
254.655;  624.825;  187.825;    0.000
254.723;  627.825;  144.825;    0.000
254.791;  644.825;  175.825;    0.000
254.859;  695.825;  168.825;    0.000
254.927;  658.825;  198.825;    0.000
254.995;  617.825;  165.825;    0.000
255.063;  675.825;  150.825;    0.000
255.131;  657.825;  181.825;    0.000
255.199;  651.825;  160.825;    0.000
255.267;  640.825;  131.825;    0.000
255.336;  636.825;  188.825;    0.000
255.404;  639.825;  163.825;    0.000
255.472;  638.825;  192.825;    0.000
255.540;  609.825;  158.825;    0.000
255.608;  633.825;  147.825;    0.000
255.676;  663.825;  166.825;    0.000
255.744;  681.825;  159.825;    0.000
255.812;  568.825;  164.825;    0.000
255.880;  676.825;  195.825;    0.000
255.948;  648.825;  167.825;    0.000
256.016;  683.825;  185.825;    0.000
256.084;  676.825;  191.825;    0.000
256.152;  695.825;  214.825;    0.000
256.220;  665.825;  195.825;    0.000
256.288;  711.825;  185.825;    0.000
256.356;  657.825;  168.825;    0.000
256.424;  691.825;  161.825;    0.000
256.491;  675.825;  161.825;    0.000
256.559;  706.825;  157.825;    0.000
256.627;  725.825;  164.825;    0.000
256.695;  668.825;  146.825;    0.000
256.763;  721.825;  194.825;    0.000
256.831;  703.825;  182.825;    0.000
256.899;  718.825;  192.825;    0.000
256.967;  692.825;  172.825;    0.000
257.035;  731.825;  169.825;    0.000
257.103;  824.825;  223.825;    0.000
257.171;  739.825;  141.825;    0.000
257.238;  714.825;  146.825;    0.000
257.306;  739.825;  180.825;    0.000
257.374;  761.825;  138.825;    0.000
257.442;  783.825;  135.825;    0.000
257.510;  829.825;  130.825;    0.000
257.578;  762.825;  123.825;    0.000
257.646;  825.825;  162.825;    0.000
257.713;  752.825;  149.825;    0.000
257.781;  825.825;  125.825;    0.000
257.849;  844.825;  149.825;    0.000
257.917;  840.825;  177.825;    0.000
257.985;  818.825;  143.825;    0.000
258.052;  869.825;  154.825;    0.000
258.120;  828.825;  162.825;    0.000
258.188;  845.825;  172.825;    0.000
258.256;  873.825;  160.825;    0.000
258.324;  920.825;  209.825;    0.000
258.391;  840.825;  153.825;    0.000
258.459;  899.825;  133.825;    0.000
258.527; 1006.825;  160.825;    0.000
258.595;  952.825;  128.825;    0.000
258.662;  901.825;  114.825;    0.000
258.730;  959.825;  192.825;    0.000
258.798;  953.825;  144.825;    0.000
258.865; 1048.825;  140.825;    0.000
258.933;  983.825;  150.825;    0.000
259.001;  992.825;  149.825;    0.000
259.069; 1017.825;  110.825;    0.000
259.136; 1028.825;  150.825;    0.000
259.204; 1051.825;  156.825;    0.000
259.272; 1057.825;  185.825;    0.000
259.339; 1019.825;  148.825;    0.000
259.407; 1090.825;  163.825;    0.000
259.475; 1053.825;  129.825;    0.000
259.542; 1015.825;  144.825;    0.000
259.610; 1126.825;  164.825;    0.000
259.677; 1137.825;  188.825;    0.000
259.745; 1154.825;  113.825;    0.000
259.813; 1238.825;  188.825;    0.000
259.880; 1503.825;  174.825;    0.000
259.948; 1440.825;  166.825;    0.000
260.016; 1236.825;  150.825;    0.000
260.083; 1214.825;  178.825;    0.000
260.151; 1164.825;  120.825;    0.000
260.218; 1175.825;  175.825;    0.000
260.286; 1235.825;  155.825;    0.000
260.353; 1215.825;  165.825;    0.000
260.421; 1162.825;  169.825;    0.000
260.489; 1287.825;  194.825;    0.000
260.556; 1259.825;  161.825;    0.000
260.624; 1337.825;  179.825;    0.000
260.691; 1401.825;  174.825;    0.000
260.759; 1338.825;  164.825;    0.000
260.826; 1289.825;  125.825;    0.000
260.894; 1331.825;  164.825;    0.000
260.961; 1286.825;  147.825;    0.000
261.029; 1362.825;  167.825;    0.000
261.096; 1466.825;  136.825;    0.000
261.164; 1506.825;  146.825;    0.000
261.231; 1399.825;  190.825;    0.000
261.299; 1454.825;  171.825;    0.000
261.366; 1480.825;  165.825;    0.000
261.434; 1420.825;  160.825;    0.000
261.501; 1452.825;  149.825;    0.000
261.568; 1431.825;  155.825;    0.000
261.636; 1446.825;  137.825;    0.000
261.703; 1529.825;  186.825;    0.000
261.771; 1487.825;  162.825;    0.000
261.838; 1489.825;  190.825;    0.000
261.906; 1463.825;  133.825;    0.000
261.973; 1486.825;  202.825;    0.000
262.040; 1558.825;  179.825;    0.000
262.108; 1521.825;  161.825;    0.000
262.175; 1548.825;  155.825;    0.000
262.243; 1599.825;  158.825;    0.000
262.310; 1518.825;  129.825;    0.000
262.377; 1596.825;  157.825;    0.000
262.445; 1690.825;  132.825;    0.000
262.512; 1641.825;  161.825;    0.000
262.579; 1643.825;  151.825;    0.000
262.647; 1630.825;  174.825;    0.000
262.714; 1711.825;  174.825;    0.000
262.781; 1734.825;  164.825;    0.000
262.849; 1692.825;  168.825;    0.000
262.916; 1697.825;  153.825;    0.000
262.983; 1752.825;  201.825;    0.000
263.051; 1917.825;  117.825;    0.000
263.118; 2008.825;  150.825;    0.000
263.185; 1843.825;  172.825;    0.000
263.252; 1706.825;  154.825;    0.000
263.320; 1773.825;  152.825;    0.000
263.387; 1744.825;  136.825;    0.000
263.454; 1811.825;  167.825;    0.000
263.522; 1845.825;  122.825;    0.000
263.589; 1784.825;  147.825;    0.000
263.656; 1784.825;  130.825;    0.000
263.723; 1843.825;  182.825;    0.000
263.790; 1809.825;  163.825;    0.000
263.858; 1970.825;  161.825;    0.000
263.925; 1751.825;  153.825;    0.000
263.992; 1881.825;  139.825;    0.000
264.059; 1873.825;  141.825;    0.000
264.126; 1862.825;  153.825;    0.000
264.194; 1856.825;  144.825;    0.000
264.261; 1931.825;  188.825;    0.000
264.328; 1908.825;  161.825;    0.000
264.395; 1912.825;  184.825;    0.000
264.462; 1940.825;  162.825;    0.000
264.529; 1927.825;  178.825;    0.000
264.597; 1939.825;  160.825;    0.000
264.664; 1945.825;  158.825;    0.000
264.731; 2001.825;  176.825;    0.000
264.798; 2043.825;  137.825;    0.000
264.865; 1977.825;  175.825;    0.000
264.932; 1971.825;  162.825;    0.000
264.999; 2026.825;  153.825;    0.000
265.066; 2010.825;  168.825;    0.000
265.133; 2025.825;  142.825;    0.000
265.201; 1972.825;  163.825;    0.000
265.268; 2155.825;  143.825;    0.000
265.335; 2052.825;  156.825;    0.000
265.402; 2050.825;  136.825;    0.000
265.469; 2138.825;  127.825;    0.000
265.536; 2113.825;  159.825;    0.000
265.603; 2115.825;  191.825;    0.000
265.670; 2071.825;  136.825;    0.000
265.737; 2108.825;  186.825;    0.000
265.804; 2132.825;  147.825;    0.000
265.871; 2126.825;  147.825;    0.000
265.938; 2117.825;  153.825;    0.000
266.005; 2153.825;  172.825;    0.000
266.072; 2105.825;  151.825;    0.000
266.139; 2223.825;  175.825;    0.000
266.206; 2232.825;  165.825;    0.000
266.273; 2278.825;  162.825;    0.000
266.340; 2158.825;  150.825;    0.000
266.407; 2284.825;  169.825;    0.000
266.474; 2239.825;  151.825;    0.000
266.541; 2297.825;  164.825;    0.000
266.608; 2244.825;  111.825;    0.000
266.675; 2304.825;  173.825;    0.000
266.742; 2327.825;  148.825;    0.000
266.808; 2175.825;  185.825;    0.000
266.875; 2356.825;  188.825;    0.000
266.942; 2307.825;  131.825;    0.000
267.009; 2279.825;  184.825;    0.000
267.076; 2295.825;  200.825;    0.000
267.143; 2211.825;  216.825;    0.000
267.210; 2267.825;  138.825;    0.000
267.277; 2361.825;  143.825;    0.000
267.344; 2315.825;  172.825;    0.000
267.410; 2319.825;  172.825;    0.000
267.477; 2351.825;  160.825;    0.000
267.544; 2457.825;  175.825;    0.000
267.611; 2304.825;  189.825;    0.000
267.678; 2451.825;  162.825;    0.000
267.745; 2377.825;  206.825;    0.000
267.811; 2383.825;  146.825;    0.000
267.878; 2346.825;  147.825;    0.000
267.945; 2423.825;  170.825;    0.000
268.012; 2393.825;  153.825;    0.000
268.079; 2390.825;  185.825;    0.000
268.145; 2373.825;  197.825;    0.000
268.212; 2408.825;  167.825;    0.000
268.279; 2413.825;  145.825;    0.000
268.346; 2426.825;  182.825;    0.000
268.412; 2382.825;  144.825;    0.000
268.479; 2390.825;  186.825;    0.000
268.546; 2457.825;  147.825;    0.000
268.613; 2462.825;  188.825;    0.000
268.679; 2382.825;  173.825;    0.000
268.746; 2384.825;  204.825;    0.000
268.813; 2334.825;  199.825;    0.000
268.879; 2338.825;  157.825;    0.000
268.946; 2392.825;  192.825;    0.000
269.013; 2412.825;  136.825;    0.000
269.079; 2437.825;  166.825;    0.000
269.146; 2326.825;  129.825;    0.000
269.213; 2418.825;  178.825;    0.000
269.280; 2281.825;  148.825;    0.000
269.346; 2427.825;  194.825;    0.000
269.413; 2392.825;  135.825;    0.000
269.479; 2320.825;  180.825;    0.000
269.546; 2378.825;  169.825;    0.000
269.613; 2280.825;  160.825;    0.000
269.679; 2343.825;  161.825;    0.000
269.746; 2305.825;  143.825;    0.000
269.813; 2309.825;  172.825;    0.000
269.879; 2368.825;  152.825;    0.000
269.946; 2349.825;  156.825;    0.000
270.012; 2389.825;  190.825;    0.000
270.079; 2254.825;  143.825;    0.000
270.145; 2274.825;  148.825;    0.000
270.212; 2383.825;  176.825;    0.000
270.279; 2390.825;  168.825;    0.000
270.345; 2450.825;  143.825;    0.000
270.412; 2418.825;  155.825;    0.000
270.478; 2280.825;  176.825;    0.000
270.545; 2357.825;  112.825;    0.000
270.611; 2360.825;  186.825;    0.000
270.678; 2324.825;  141.825;    0.000
270.744; 2282.825;  145.825;    0.000
270.811; 2367.825;  120.825;    0.000
270.877; 2292.825;  118.825;    0.000
270.944; 2339.825;  135.825;    0.000
271.010; 2355.825;  128.825;    0.000
271.077; 2274.825;  176.825;    0.000
271.143; 2313.825;  162.825;    0.000
271.210; 2365.825;  133.825;    0.000
271.276; 2219.825;  107.825;    0.000
271.342; 2289.825;  202.825;    0.000
271.409; 2374.825;  160.825;    0.000
271.475; 2398.825;  165.825;    0.000
271.542; 2404.825;  152.825;    0.000
271.608; 2341.825;  163.825;    0.000
271.675; 2220.825;  149.825;    0.000
271.741; 2390.825;  164.825;    0.000
271.807; 2358.825;  128.825;    0.000
271.874; 2363.825;  148.825;    0.000
271.940; 2448.825;  179.825;    0.000
272.007; 2345.825;  148.825;    0.000
272.073; 2212.825;  146.825;    0.000
272.139; 2334.825;  166.825;    0.000
272.206; 2357.825;  198.825;    0.000
272.272; 2381.825;  201.825;    0.000
272.338; 2334.825;  208.825;    0.000
272.405; 2383.825;  181.825;    0.000
272.471; 2338.825;  167.825;    0.000
272.537; 2416.825;  189.825;    0.000
272.604; 2340.825;  162.825;    0.000
272.670; 2348.825;  194.825;    0.000
272.736; 2323.825;  176.825;    0.000
272.802; 2422.825;  163.825;    0.000
272.869; 2405.825;  170.825;    0.000
272.935; 2403.825;  145.825;    0.000
273.001; 2323.825;  149.825;    0.000
273.068; 2373.825;  172.825;    0.000
273.134; 2380.825;  155.825;    0.000
273.200; 2284.825;  183.825;    0.000
273.266; 2421.825;  160.825;    0.000
273.333; 2417.825;  190.825;    0.000
273.399; 2376.825;  132.825;    0.000
273.465; 2373.825;  179.825;    0.000
273.531; 2461.825;  161.825;    0.000
273.597; 2524.825;  194.825;    0.000
273.664; 2434.825;  193.825;    0.000
273.730; 2423.825;  180.825;    0.000
273.796; 2470.825;  145.825;    0.000
273.862; 2560.825;  176.825;    0.000
273.928; 2777.825;  169.825;    0.000
273.995; 2744.825;  202.825;    0.000
274.061; 2525.825;  176.825;    0.000
274.127; 2508.825;  178.825;    0.000
274.193; 2569.825;  106.825;    0.000
274.259; 2644.825;  186.825;    0.000
274.325; 2535.825;  163.825;    0.000
274.391; 2590.825;  162.825;    0.000
274.457; 2563.825;  145.825;    0.000
274.524; 2610.825;  189.825;    0.000
274.590; 2877.825;  161.825;    0.000
274.656; 2837.825;  157.825;    0.000
274.722; 2782.825;  143.825;    0.000
274.788; 2643.825;  166.825;    0.000
274.854; 2934.825;  200.825;    0.000
274.920; 2990.825;  132.825;    0.000
274.986; 2838.825;  184.825;    0.000
275.052; 2762.825;  169.825;    0.000
275.118; 2717.825;  153.825;    0.000
275.184; 2756.825;  182.825;    0.000
275.250; 2796.825;  124.825;    0.000
275.316; 2884.825;  154.825;    0.000
275.382; 2764.825;  150.825;    0.000
275.448; 2840.825;  180.825;    0.000
275.514; 3187.825;  143.825;    0.000
275.580; 3135.825;  120.825;    0.000
275.646; 2891.825;  127.825;    0.000
275.712; 2895.825;  109.825;    0.000
275.778; 2921.825;  126.825;    0.000
275.844; 2929.825;  155.825;    0.000
275.910; 3033.825;  164.825;    0.000
275.976; 2967.825;  161.825;    0.000
276.042; 3053.825;  152.825;    0.000
276.108; 3124.825;  159.825;    0.000
276.174; 3086.825;  149.825;    0.000
276.240; 3104.825;  112.825;    0.000
276.306; 3157.825;  142.825;    0.000
276.372; 3254.825;  136.825;    0.000
276.437; 3339.825;  141.825;    0.000
276.503; 3358.825;  150.825;    0.000
276.569; 3445.825;  178.825;    0.000
276.635; 3456.825;  117.825;    0.000
276.701; 3544.825;  174.825;    0.000
276.767; 3671.825;  136.825;    0.000
276.833; 3646.825;  119.825;    0.000
276.899; 3730.825;  171.825;    0.000
276.964; 3869.825;  146.825;    0.000
277.030; 3917.825;  157.825;    0.000
277.096; 3985.825;  124.825;    0.000
277.162; 4050.825;  185.825;    0.000
277.228; 4300.825;  125.825;    0.000
277.293; 4412.825;  159.825;    0.000
277.359; 4552.825;  186.825;    0.000
277.425; 4756.825;  176.825;    0.000
277.491; 4982.825;  140.825;    0.000
277.557; 5955.825;  172.825;    0.000
277.622; 7755.825;  187.825;    0.000
277.688; 7711.825;  203.825;    0.000
277.754; 7995.825;  170.825;    0.000
277.820; 8714.825;  142.825;    0.000
277.885;10653.825;  182.825;    0.000
277.951;13617.825;  171.825;    0.000
278.017;11421.825;  173.825;    0.000
278.083; 9609.825;  151.825;    0.000
278.148; 9396.825;  159.825;    0.000
278.214; 9604.825;  173.825;    0.000
278.280;10380.825;  137.825;    0.000
278.345; 9340.825;  190.825;    0.000
278.411; 8888.825;  149.825;    0.000
278.477; 9305.825;  157.825;    0.000
278.542; 9965.825;  136.825;    0.000
278.608;10989.825;  144.825;    0.000
278.674;12203.825;  215.825;    0.000
278.739;13527.825;  148.825;    0.000
278.805;15696.825;  152.825;    0.000
278.871;18950.824;  170.825;    0.000
278.936;25568.824;  180.825;    0.000
279.002;40661.824;  177.825;    0.000
279.067;53793.824;  172.825;    0.000
279.133;50139.824;  160.825;    0.000
279.199;43254.824;  165.825;    0.000
279.264;43539.824;  130.825;    0.000
279.330;51056.824;  154.825;    0.000
279.395;65306.824;  170.825;    0.000
279.461;65306.824;  136.825;    0.000
279.527;65306.824;  174.825;    0.000
279.592;65306.824;  179.825;    0.000
279.658;65306.824;  187.825;    0.000
279.723;65306.824;  201.825;    0.000
279.789;65306.824;  194.825;    0.000
279.854;65306.824;  171.825;    0.000
279.920;56267.824;  183.825;    0.000
279.985;50087.824;  173.825;    0.000
280.051;50775.824;  194.825;    0.000
280.116;61080.824;  197.825;    0.000
280.182;65306.824;  171.825;    0.000
280.247;65306.824;  131.825;    0.000
280.313;65306.824;  166.825;    0.000
280.378;54401.824;  159.825;    0.000
280.444;38599.824;  190.825;    0.000
280.509;30121.824;  189.825;    0.000
280.574;24577.824;  171.825;    0.000
280.640;20757.824;  167.825;    0.000
280.705;18420.824;  129.825;    0.000
280.771;16789.824;  193.825;    0.000
280.836;15176.825;  172.825;    0.000
280.902;14040.825;  189.825;    0.000
280.967;12888.825;  143.825;    0.000
281.032;12133.825;  182.825;    0.000
281.098;11280.825;  172.825;    0.000
281.163;10911.825;  184.825;    0.000
281.229;10279.825;  210.825;    0.000
281.294; 9787.825;  223.825;    0.000
281.359; 9234.825;  197.825;    0.000
281.425; 8947.825;  192.825;    0.000
281.490; 8551.825;  162.825;    0.000
281.555; 8081.825;  193.825;    0.000
281.621; 7917.825;  141.825;    0.000
281.686; 7566.825;  166.825;    0.000
281.751; 7477.825;  204.825;    0.000
281.816; 7019.825;  159.825;    0.000
281.882; 6898.825;  146.825;    0.000
281.947; 6596.825;  176.825;    0.000
282.012; 6518.825;  139.825;    0.000
282.078; 6272.825;  186.825;    0.000
282.143; 6187.825;  151.825;    0.000
282.208; 6218.825;  213.825;    0.000
282.273; 6007.825;  160.825;    0.000
282.339; 5818.825;  175.825;    0.000
282.404; 5659.825;  157.825;    0.000
282.469; 5535.825;  185.825;    0.000
282.534; 5446.825;  166.825;    0.000
282.600; 5237.825;  168.825;    0.000
282.665; 5252.825;  167.825;    0.000
282.730; 5281.825;  148.825;    0.000
282.795; 5027.825;  186.825;    0.000
282.860; 5062.825;  161.825;    0.000
282.926; 5070.825;  178.825;    0.000
282.991; 4997.825;  139.825;    0.000
283.056; 4856.825;  158.825;    0.000
283.121; 4919.825;  191.825;    0.000
283.186; 4822.825;  182.825;    0.000
283.251; 4764.825;  181.825;    0.000
283.316; 4758.825;  187.825;    0.000
283.382; 4579.825;  175.825;    0.000
283.447; 4719.825;  183.825;    0.000
283.512; 4640.825;  175.825;    0.000
283.577; 4613.825;  180.825;    0.000
283.642; 4534.825;  193.825;    0.000
283.707; 4537.825;  145.825;    0.000
283.772; 4475.825;  143.825;    0.000
283.837; 4431.825;  143.825;    0.000
283.902; 4374.825;  150.825;    0.000
283.967; 4394.825;  166.825;    0.000
284.032; 4484.825;  126.825;    0.000
284.097; 4377.825;  201.825;    0.000
284.163; 4393.825;  133.825;    0.000
284.228; 4400.825;  193.825;    0.000
284.293; 4332.825;  157.825;    0.000
284.358; 4325.825;  185.825;    0.000
284.423; 4468.825;  142.825;    0.000
284.488; 4472.825;  192.825;    0.000
284.553; 4611.825;  146.825;    0.000
284.618; 4585.825;  154.825;    0.000
284.683; 4690.825;  172.825;    0.000
284.748; 4919.825;  195.825;    0.000
284.812; 5011.825;  190.825;    0.000
284.877; 5585.825;  169.825;    0.000
284.942; 6380.825;  195.825;    0.000
285.007; 7648.825;  204.825;    0.000
285.072;11251.825;  189.825;    0.000
285.137;25291.824;  149.825;    0.000
285.202;33540.824;  164.825;    0.000
285.267;23911.824;  161.825;    0.000
285.332;12829.825;  140.825;    0.000
285.397; 9111.825;  142.825;    0.000
285.462; 7469.825;  146.825;    0.000
285.527; 6429.825;  132.825;    0.000
285.591; 5869.825;  160.825;    0.000
285.656; 5418.825;  136.825;    0.000
285.721; 5127.825;  135.825;    0.000
285.786; 4974.825;  171.825;    0.000
285.851; 4762.825;  168.825;    0.000
285.916; 4642.825;  178.825;    0.000
285.981; 4460.825;  152.825;    0.000
286.045; 4419.825;  167.825;    0.000
286.110; 4316.825;  187.825;    0.000
286.175; 4234.825;  162.825;    0.000
286.240; 4208.825;  163.825;    0.000
286.305; 4173.825;  190.825;    0.000
286.369; 4209.825;  143.825;    0.000
286.434; 4181.825;  185.825;    0.000
286.499; 4176.825;  195.825;    0.000
286.564; 4213.825;  173.825;    0.000
286.628; 4026.825;  159.825;    0.000
286.693; 4038.825;  175.825;    0.000
286.758; 3984.825;  170.825;    0.000
286.823; 3773.825;  129.825;    0.000
286.887; 3984.825;  172.825;    0.000
286.952; 3954.825;  163.825;    0.000
287.017; 3928.825;  217.825;    0.000
287.082; 3777.825;  165.825;    0.000
287.146; 3872.825;  176.825;    0.000
287.211; 3869.825;  192.825;    0.000
287.276; 3858.825;  147.825;    0.000
287.340; 3851.825;  162.825;    0.000
287.405; 3836.825;  196.825;    0.000
287.470; 3879.825;  148.825;    0.000
287.534; 3852.825;  166.825;    0.000
287.599; 3756.825;  193.825;    0.000
287.663; 3745.825;  191.825;    0.000
287.728; 3779.825;  146.825;    0.000
287.793; 3737.825;  234.825;    0.000
287.857; 3811.825;  177.825;    0.000
287.922; 3727.825;  166.825;    0.000
287.987; 3734.825;  169.825;    0.000
288.051; 3913.825;  169.825;    0.000
288.116; 4288.825;  187.825;    0.000
288.180; 4179.825;  200.825;    0.000
288.245; 3825.825;  201.825;    0.000
288.309; 3936.825;  176.825;    0.000
288.374; 3892.825;  162.825;    0.000
288.439; 3707.825;  195.825;    0.000
288.503; 3751.825;  162.825;    0.000
288.568; 3860.825;  228.825;    0.000
288.632; 3751.825;  194.825;    0.000
288.697; 3721.825;  173.825;    0.000
288.761; 3741.825;  153.825;    0.000
288.826; 3695.825;  151.825;    0.000
288.890; 3555.825;  208.825;    0.000
288.955; 3717.825;  159.825;    0.000
289.019; 3650.825;  198.825;    0.000
289.084; 3712.825;  152.825;    0.000
289.148; 3629.825;  171.825;    0.000
289.212; 3695.825;  184.825;    0.000
289.277; 3616.825;  165.825;    0.000
289.341; 3654.825;  207.825;    0.000
289.406; 3613.825;  156.825;    0.000
289.470; 3596.825;  191.825;    0.000
289.535; 3729.825;  222.825;    0.000
289.599; 3687.825;  214.825;    0.000
289.663; 3710.825;  183.825;    0.000
289.728; 3582.825;  192.825;    0.000
289.792; 3661.825;  197.825;    0.000
289.857; 3684.825;  221.825;    0.000
289.921; 3601.825;  177.825;    0.000
289.985; 3530.825;  177.825;    0.000
290.050; 3550.825;  178.825;    0.000
290.114; 3540.825;  112.825;    0.000
290.178; 3539.825;  170.825;    0.000
290.243; 3494.825;  162.825;    0.000
290.307; 3660.825;  178.825;    0.000
290.371; 3554.825;  141.825;    0.000
290.436; 3731.825;  178.825;    0.000
290.500; 3625.825;  135.825;    0.000
290.564; 3726.825;  199.825;    0.000
290.629; 3651.825;  165.825;    0.000
290.693; 3798.825;  154.825;    0.000
290.757; 3677.825;  159.825;    0.000
290.821; 3652.825;  179.825;    0.000
290.886; 3690.825;  141.825;    0.000
290.950; 3609.825;  166.825;    0.000
291.014; 3688.825;  169.825;    0.000
291.078; 3680.825;  191.825;    0.000
291.143; 3701.825;  169.825;    0.000
291.207; 3776.825;  164.825;    0.000
291.271; 3848.825;  193.825;    0.000
291.335; 3805.825;  150.825;    0.000
291.399; 3861.825;  175.825;    0.000
291.464; 4188.825;  128.825;    0.000
291.528; 4427.825;  162.825;    0.000
291.592; 4155.825;  152.825;    0.000
291.656; 4054.825;  175.825;    0.000
291.720; 4002.825;  173.825;    0.000
291.784; 3927.825;  192.825;    0.000
291.849; 3919.825;  159.825;    0.000
291.913; 3903.825;  174.825;    0.000
291.977; 4078.825;  177.825;    0.000
292.041; 4050.825;  188.825;    0.000
292.105; 4233.825;  174.825;    0.000
292.169; 4081.825;  143.825;    0.000
292.233; 4321.825;  149.825;    0.000
292.297; 4254.825;  176.825;    0.000
292.361; 4294.825;  178.825;    0.000
292.425; 4466.825;  153.825;    0.000
292.490; 4704.825;  185.825;    0.000
292.554; 5006.825;  144.825;    0.000
292.618; 5322.825;  166.825;    0.000
292.682; 5850.825;  181.825;    0.000
292.746; 7086.825;  152.825;    0.000
292.810;10583.825;  208.825;    0.000
292.874;13738.825;  142.825;    0.000
292.938;13260.825;  195.825;    0.000
293.002;11324.825;  156.825;    0.000
293.066; 9956.825;  108.825;    0.000
293.130; 8879.825;  136.825;    0.000
293.194; 8350.825;  135.825;    0.000
293.258; 7843.825;  187.825;    0.000
293.322; 7711.825;  148.825;    0.000
293.386; 7975.825;  186.825;    0.000
293.450; 8607.825;  196.825;    0.000
293.514;10120.825;  175.825;    0.000
293.577;14881.825;  137.825;    0.000
293.641;21221.824;  142.825;    0.000
293.705;22609.824;  201.825;    0.000
293.769;18601.824;  150.825;    0.000
293.833;15637.825;  147.825;    0.000
293.897;13052.825;  170.825;    0.000
293.961;11194.825;  121.825;    0.000
294.025; 9902.825;  172.825;    0.000
294.089; 8796.825;  167.825;    0.000
294.152; 7994.825;  167.825;    0.000
294.216; 7567.825;  165.825;    0.000
294.280; 6978.825;  168.825;    0.000
294.344; 6572.825;  160.825;    0.000
294.408; 6197.825;  187.825;    0.000
294.472; 5864.825;  141.825;    0.000
294.536; 5713.825;  184.825;    0.000
294.599; 5472.825;  176.825;    0.000
294.663; 5121.825;  120.825;    0.000
294.727; 5170.825;  159.825;    0.000
294.791; 5019.825;  190.825;    0.000
294.855; 4794.825;  148.825;    0.000
294.918; 4681.825;  160.825;    0.000
294.982; 4656.825;  156.825;    0.000
295.046; 4592.825;  177.825;    0.000
295.110; 4459.825;  149.825;    0.000
295.173; 4298.825;  156.825;    0.000
295.237; 4362.825;  174.825;    0.000
295.301; 4255.825;  152.825;    0.000
295.364; 4201.825;  204.825;    0.000
295.428; 4181.825;  196.825;    0.000
295.492; 4134.825;  178.825;    0.000
295.556; 4110.825;  161.825;    0.000
295.619; 3955.825;  178.825;    0.000
295.683; 4000.825;  152.825;    0.000
295.747; 4036.825;  148.825;    0.000
295.810; 3912.825;  177.825;    0.000
295.874; 3768.825;  146.825;    0.000
295.938; 3807.825;  115.825;    0.000
296.001; 3875.825;  172.825;    0.000
296.065; 3843.825;  146.825;    0.000
296.128; 3825.825;  164.825;    0.000
296.192; 3605.825;  137.825;    0.000
296.256; 3617.825;  143.825;    0.000
296.319; 3597.825;  156.825;    0.000
296.383; 3709.825;  165.825;    0.000
296.447; 3628.825;  170.825;    0.000
296.510; 3664.825;  174.825;    0.000
296.574; 3592.825;  127.825;    0.000
296.637; 3580.825;  132.825;    0.000
296.701; 3590.825;  206.825;    0.000
296.764; 3593.825;  179.825;    0.000
296.828; 3585.825;  213.825;    0.000
296.891; 3527.825;  149.825;    0.000
296.955; 3445.825;  170.825;    0.000
297.018; 3512.825;  185.825;    0.000
297.082; 3448.825;  205.825;    0.000
297.145; 3436.825;  154.825;    0.000
297.209; 3485.825;  200.825;    0.000
297.272; 3502.825;  157.825;    0.000
297.336; 3457.825;  164.825;    0.000
297.399; 3445.825;  166.825;    0.000
297.463; 3385.825;  195.825;    0.000
297.526; 3476.825;  176.825;    0.000
297.590; 3380.825;  198.825;    0.000
297.653; 3468.825;  146.825;    0.000
297.717; 3298.825;  175.825;    0.000
297.780; 3322.825;  139.825;    0.000
297.843; 3399.825;  174.825;    0.000
297.907; 3351.825;  149.825;    0.000
297.970; 3367.825;  161.825;    0.000
298.034; 3314.825;  185.825;    0.000
298.097; 3304.825;  167.825;    0.000
298.160; 3351.825;  195.825;    0.000
298.224; 3379.825;  178.825;    0.000
298.287; 3131.825;  164.825;    0.000
298.350; 3254.825;  194.825;    0.000
298.414; 3227.825;  191.825;    0.000
298.477; 3249.825;  155.825;    0.000
298.540; 3255.825;  139.825;    0.000
298.604; 3303.825;  198.825;    0.000
298.667; 3220.825;  183.825;    0.000
298.730; 3223.825;  185.825;    0.000
298.794; 3174.825;  153.825;    0.000
298.857; 3165.825;  169.825;    0.000
298.920; 3023.825;  159.825;    0.000
298.984; 3219.825;  179.825;    0.000
299.047; 3187.825;  174.825;    0.000
299.110; 3060.825;  144.825;    0.000
299.173; 3060.825;  190.825;    0.000
299.237; 3121.825;  163.825;    0.000
299.300; 3075.825;  153.825;    0.000
299.363; 3051.825;  145.825;    0.000
299.426; 2999.825;  160.825;    0.000
299.489; 2949.825;  173.825;    0.000
299.553; 3074.825;  209.825;    0.000
299.616; 3119.825;  172.825;    0.000
299.679; 2953.825;  204.825;    0.000
299.742; 3051.825;  162.825;    0.000
299.805; 3050.825;  198.825;    0.000
299.868; 2996.825;  176.825;    0.000
299.932; 3075.825;  166.825;    0.000
299.995; 3066.825;  162.825;    0.000
300.058; 2959.825;  175.825;    0.000
300.121; 3006.825;  197.825;    0.000
300.184; 2999.825;  188.825;    0.000
300.247; 2907.825;  181.825;    0.000
300.310; 3010.825;  161.825;    0.000
300.374; 2883.825;  201.825;    0.000
300.437; 3044.825;  156.825;    0.000
300.500; 2985.825;  180.825;    0.000
300.563; 3033.825;  174.825;    0.000
300.626; 2928.825;  206.825;    0.000
300.689; 2949.825;  218.825;    0.000
300.752; 3061.825;  192.825;    0.000
300.815; 2908.825;  172.825;    0.000
300.878; 3008.825;  207.825;    0.000
300.941; 2919.825;  163.825;    0.000
301.004; 2978.825;  171.825;    0.000
301.067; 2866.825;  198.825;    0.000
301.130; 2995.825;  156.825;    0.000
301.193; 2991.825;  173.825;    0.000
301.256; 2963.825;  167.825;    0.000
301.319; 2982.825;  211.825;    0.000
301.382; 3046.825;  167.825;    0.000
301.445; 3077.825;  224.825;    0.000
301.508; 2911.825;  168.825;    0.000
301.571; 2943.825;  161.825;    0.000
301.634; 2978.825;  177.825;    0.000
301.697; 2898.825;  203.825;    0.000
301.760; 3026.825;  190.825;    0.000
301.823; 2941.825;  182.825;    0.000
301.885; 2865.825;  202.825;    0.000
301.948; 3052.825;  200.825;    0.000
302.011; 2922.825;  157.825;    0.000
302.074; 2902.825;  205.825;    0.000
302.137; 2882.825;  149.825;    0.000
302.200; 2922.825;  201.825;    0.000
302.263; 2855.825;  178.825;    0.000
302.326; 2860.825;  184.825;    0.000
302.388; 2924.825;  176.825;    0.000
302.451; 2920.825;  146.825;    0.000
302.514; 2906.825;  192.825;    0.000
302.577; 2883.825;  181.825;    0.000
302.640; 2891.825;  186.825;    0.000
302.703; 2831.825;  164.825;    0.000
302.765; 2863.825;  197.825;    0.000
302.828; 2940.825;  208.825;    0.000
302.891; 3007.825;  168.825;    0.000
302.954; 2867.825;  177.825;    0.000
303.016; 2921.825;  190.825;    0.000
303.079; 2831.825;  216.825;    0.000
303.142; 2839.825;  228.825;    0.000
303.205; 2873.825;  192.825;    0.000
303.267; 2877.825;  182.825;    0.000
303.330; 2828.825;  201.825;    0.000
303.393; 2881.825;  196.825;    0.000
303.456; 2949.825;  184.825;    0.000
303.518; 2832.825;  194.825;    0.000
303.581; 2814.825;  195.825;    0.000
303.644; 2887.825;  184.825;    0.000
303.706; 2812.825;  150.825;    0.000
303.769; 2876.825;  182.825;    0.000
303.832; 2765.825;  143.825;    0.000
303.894; 2888.825;  207.825;    0.000
303.957; 2921.825;  178.825;    0.000
304.020; 2861.825;  203.825;    0.000
304.082; 2847.825;  175.825;    0.000
304.145; 2794.825;  171.825;    0.000
304.207; 2897.825;  157.825;    0.000
304.270; 2754.825;  195.825;    0.000
304.333; 2798.825;  195.825;    0.000
304.395; 2855.825;  197.825;    0.000
304.458; 2914.825;  231.825;    0.000
304.520; 2886.825;  218.825;    0.000
304.583; 2902.825;  177.825;    0.000
304.646; 2880.825;  177.825;    0.000
304.708; 2905.825;  178.825;    0.000
304.771; 2850.825;  143.825;    0.000
304.833; 2806.825;  241.825;    0.000
304.896; 2866.825;  200.825;    0.000
304.958; 2769.825;  176.825;    0.000
305.021; 2760.825;  159.825;    0.000
305.083; 2858.825;  159.825;    0.000
305.146; 2888.825;  190.825;    0.000
305.208; 2804.825;  152.825;    0.000
305.271; 2818.825;  162.825;    0.000
305.333; 2879.825;  219.825;    0.000
305.396; 2858.825;  163.825;    0.000
305.458; 2841.825;  215.825;    0.000
305.520; 2789.825;  174.825;    0.000
305.583; 2818.825;  161.825;    0.000
305.645; 2787.825;  203.825;    0.000
305.708; 2746.825;  163.825;    0.000
305.770; 2784.825;  215.825;    0.000
305.833; 2854.825;  207.825;    0.000
305.895; 2822.825;  166.825;    0.000
305.957; 2835.825;  175.825;    0.000
306.020; 2896.825;  169.825;    0.000
306.082; 2769.825;  203.825;    0.000
306.144; 2902.825;  181.825;    0.000
306.207; 2848.825;  199.825;    0.000
306.269; 2857.825;  177.825;    0.000
306.331; 2837.825;  160.825;    0.000
306.394; 2824.825;  193.825;    0.000
306.456; 2782.825;  136.825;    0.000
306.518; 2787.825;  189.825;    0.000
306.581; 2822.825;  156.825;    0.000
306.643; 2854.825;  190.825;    0.000
306.705; 2961.825;  190.825;    0.000
306.768; 2780.825;  172.825;    0.000
306.830; 2893.825;  214.825;    0.000
306.892; 2872.825;  198.825;    0.000
306.954; 2874.825;  177.825;    0.000
307.017; 2848.825;  183.825;    0.000
307.079; 2885.825;  170.825;    0.000
307.141; 2948.825;  173.825;    0.000
307.203; 2991.825;  171.825;    0.000
307.266; 2942.825;  166.825;    0.000
307.328; 2949.825;  207.825;    0.000
307.390; 2968.825;  201.825;    0.000
307.452; 2957.825;  182.825;    0.000
307.514; 2943.825;  213.825;    0.000
307.577; 2898.825;  213.825;    0.000
307.639; 2986.825;  197.825;    0.000
307.701; 2865.825;  174.825;    0.000
307.763; 3010.825;  181.825;    0.000
307.825; 2993.825;  186.825;    0.000
307.887; 3044.825;  198.825;    0.000
307.949; 3028.825;  158.825;    0.000
308.012; 3006.825;  209.825;    0.000
308.074; 3004.825;  176.825;    0.000
308.136; 3052.825;  227.825;    0.000
308.198; 3065.825;  187.825;    0.000
308.260; 3023.825;  211.825;    0.000
308.322; 3168.825;  206.825;    0.000
308.384; 3147.825;  186.825;    0.000
308.446; 3079.825;  175.825;    0.000
308.508; 3116.825;  211.825;    0.000
308.570; 3033.825;  191.825;    0.000
308.632; 2993.825;  195.825;    0.000
308.694; 3091.825;  173.825;    0.000
308.756; 3201.825;  185.825;    0.000
308.818; 3185.825;  195.825;    0.000
308.880; 3136.825;  189.825;    0.000
308.942; 3128.825;  231.825;    0.000
309.004; 3225.825;  188.825;    0.000
309.066; 3256.825;  196.825;    0.000
309.128; 3306.825;  155.825;    0.000
309.190; 3493.825;  176.825;    0.000
309.252; 3699.825;  191.825;    0.000
309.314; 3660.825;  236.825;    0.000
309.376; 3537.825;  212.825;    0.000
309.438; 3318.825;  201.825;    0.000
309.500; 3402.825;  206.825;    0.000
309.562; 3421.825;  213.825;    0.000
309.624; 3657.825;  196.825;    0.000
309.686; 3706.825;  198.825;    0.000
309.747; 3672.825;  186.825;    0.000
309.809; 3638.825;  215.825;    0.000
309.871; 3398.825;  242.825;    0.000
309.933; 3456.825;  162.825;    0.000
309.995; 3368.825;  163.825;    0.000
310.057; 3269.825;  145.825;    0.000
310.119; 3378.825;  205.825;    0.000
310.180; 3286.825;  195.825;    0.000
310.242; 3321.825;  167.825;    0.000
310.304; 3227.825;  213.825;    0.000
310.366; 3362.825;  224.825;    0.000
310.428; 3166.825;  170.825;    0.000
310.489; 3216.825;  195.825;    0.000
310.551; 3194.825;  207.825;    0.000
310.613; 3153.825;  168.825;    0.000
310.675; 3232.825;  188.825;    0.000
310.737; 3254.825;  211.825;    0.000
310.798; 3259.825;  221.825;    0.000
310.860; 3220.825;  201.825;    0.000
310.922; 3086.825;  206.825;    0.000
310.983; 3269.825;  222.825;    0.000
311.045; 3206.825;  235.825;    0.000
311.107; 3295.825;  184.825;    0.000
311.169; 3149.825;  148.825;    0.000
311.230; 3286.825;  211.825;    0.000
311.292; 3182.825;  235.825;    0.000
311.354; 3152.825;  183.825;    0.000
311.415; 3101.825;  196.825;    0.000
311.477; 3116.825;  200.825;    0.000
311.539; 3164.825;  171.825;    0.000
311.600; 3238.825;  169.825;    0.000
311.662; 3175.825;  231.825;    0.000
311.724; 3170.825;  204.825;    0.000
311.785; 3201.825;  214.825;    0.000
311.847; 3173.825;  193.825;    0.000
311.908; 3218.825;  180.825;    0.000
311.970; 3177.825;  233.825;    0.000
312.032; 3206.825;  192.825;    0.000
312.093; 3238.825;  195.825;    0.000
312.155; 3184.825;  194.825;    0.000
312.216; 3170.825;  238.825;    0.000
312.278; 3086.825;  146.825;    0.000
312.339; 3216.825;  184.825;    0.000
312.401; 3300.825;  201.825;    0.000
312.462; 3195.825;  173.825;    0.000
312.524; 3198.825;  205.825;    0.000
312.585; 3158.825;  199.825;    0.000
312.647; 3155.825;  168.825;    0.000
312.708; 3187.825;  180.825;    0.000
312.770; 3117.825;  180.825;    0.000
312.831; 3220.825;  176.825;    0.000
312.893; 3178.825;  211.825;    0.000
312.954; 3137.825;  178.825;    0.000
313.016; 3117.825;  204.825;    0.000
313.077; 3156.825;  216.825;    0.000
313.139; 3225.825;  172.825;    0.000
313.200; 3156.825;  197.825;    0.000
313.261; 3130.825;  227.825;    0.000
313.323; 3166.825;  204.825;    0.000
313.384; 3173.825;  182.825;    0.000
313.446; 3246.825;  204.825;    0.000
313.507; 3087.825;  164.825;    0.000
313.568; 3162.825;  197.825;    0.000
313.630; 3210.825;  190.825;    0.000
313.691; 3154.825;  185.825;    0.000
313.752; 3144.825;  192.825;    0.000
313.814; 3183.825;  176.825;    0.000
313.875; 3248.825;  210.825;    0.000
313.936; 3236.825;  165.825;    0.000
313.998; 3086.825;  162.825;    0.000
314.059; 3159.825;  178.825;    0.000
314.120; 3081.825;  176.825;    0.000
314.182; 3189.825;  167.825;    0.000
314.243; 3195.825;  204.825;    0.000
314.304; 3234.825;  197.825;    0.000
314.365; 3323.825;  183.825;    0.000
314.427; 3200.825;  176.825;    0.000
314.488; 3170.825;  149.825;    0.000
314.549; 3127.825;  218.825;    0.000
314.610; 3260.825;  160.825;    0.000
314.672; 3241.825;  187.825;    0.000
314.733; 3239.825;  184.825;    0.000
314.794; 3162.825;  164.825;    0.000
314.855; 3147.825;  191.825;    0.000
314.917; 3121.825;  172.825;    0.000
314.978; 3178.825;  185.825;    0.000
315.039; 3103.825;  194.825;    0.000
315.100; 3300.825;  190.825;    0.000
315.161; 3191.825;  185.825;    0.000
315.222; 3116.825;  204.825;    0.000
315.283; 3218.825;  166.825;    0.000
315.345; 3275.825;  133.825;    0.000
315.406; 3181.825;  191.825;    0.000
315.467; 3103.825;  166.825;    0.000
315.528; 3273.825;  194.825;    0.000
315.589; 3154.825;  193.825;    0.000
315.650; 3241.825;  190.825;    0.000
315.711; 3152.825;  219.825;    0.000
315.772; 3137.825;  159.825;    0.000
315.833; 3246.825;  191.825;    0.000
315.894; 3306.825;  202.825;    0.000
315.955; 3350.825;  167.825;    0.000
316.016; 3185.825;  177.825;    0.000
316.078; 3174.825;  185.825;    0.000
316.139; 3196.825;  219.825;    0.000
316.200; 3128.825;  163.825;    0.000
316.261; 3272.825;  183.825;    0.000
316.322; 3138.825;  230.825;    0.000
316.383; 3202.825;  198.825;    0.000
316.444; 3055.825;  209.825;    0.000
316.504; 3183.825;  179.825;    0.000
316.565; 3137.825;  185.825;    0.000
316.626; 3224.825;  155.825;    0.000
316.687; 3078.825;  211.825;    0.000
316.748; 3107.825;  192.825;    0.000
316.809; 3143.825;  183.825;    0.000
316.870; 3156.825;  196.825;    0.000
316.931; 3205.825;  173.825;    0.000
316.992; 3228.825;  179.825;    0.000
317.053; 3139.825;  186.825;    0.000
317.114; 3149.825;  189.825;    0.000
317.175; 3105.825;  226.825;    0.000
317.235; 3092.825;  206.825;    0.000
317.296; 3081.825;  191.825;    0.000
317.357; 3161.825;  173.825;    0.000
317.418; 3194.825;  212.825;    0.000
317.479; 3116.825;  247.825;    0.000
317.540; 3215.825;  205.825;    0.000
317.601; 3068.825;  205.825;    0.000
317.661; 3128.825;  150.825;    0.000
317.722; 3116.825;  198.825;    0.000
317.783; 3101.825;  153.825;    0.000
317.844; 3339.825;  202.825;    0.000
317.904; 3417.825;  180.825;    0.000
317.965; 3261.825;  205.825;    0.000
318.026; 3359.825;  223.825;    0.000
318.087; 3324.825;  218.825;    0.000
318.148; 3281.825;  207.825;    0.000
318.208; 3272.825;  212.825;    0.000
318.269; 3260.825;  174.825;    0.000
318.330; 3229.825;  191.825;    0.000
318.390; 3137.825;  197.825;    0.000
318.451; 3118.825;  167.825;    0.000
318.512; 3171.825;  174.825;    0.000
318.572; 3105.825;  199.825;    0.000
318.633; 3114.825;  233.825;    0.000
318.694; 3154.825;  232.825;    0.000
318.754; 3092.825;  181.825;    0.000
318.815; 3151.825;  199.825;    0.000
318.876; 3136.825;  207.825;    0.000
318.936; 3096.825;  202.825;    0.000
318.997; 3058.825;  182.825;    0.000
319.058; 3097.825;  180.825;    0.000
319.118; 3067.825;  199.825;    0.000
319.179; 3089.825;  199.825;    0.000
319.239; 3003.825;  229.825;    0.000
319.300; 3126.825;  223.825;    0.000
319.361; 3022.825;  210.825;    0.000
319.421; 3035.825;  205.825;    0.000
319.482; 3054.825;  205.825;    0.000
319.542; 3005.825;  176.825;    0.000
319.603; 3142.825;  191.825;    0.000
319.663; 3082.825;  183.825;    0.000
319.724; 3051.825;  174.825;    0.000
319.784; 3028.825;  198.825;    0.000
319.845; 3088.825;  218.825;    0.000
319.905; 3126.825;  217.825;    0.000
319.966; 2994.825;  197.825;    0.000
320.026; 3003.825;  209.825;    0.000
320.087; 2975.825;  225.825;    0.000
320.147; 3047.825;  201.825;    0.000
320.208; 3000.825;  176.825;    0.000
320.268; 3062.825;  168.825;    0.000
320.329; 2983.825;  238.825;    0.000
320.389; 3047.825;  220.825;    0.000
320.449; 3109.825;  230.825;    0.000
320.510; 2973.825;  234.825;    0.000
320.570; 3020.825;  210.825;    0.000
320.631; 3051.825;  207.825;    0.000
320.691; 3053.825;  222.825;    0.000
320.751; 3034.825;  195.825;    0.000
320.812; 3118.825;  193.825;    0.000
320.872; 3049.825;  237.825;    0.000
320.932; 3087.825;  213.825;    0.000
320.993; 3002.825;  185.825;    0.000
321.053; 3052.825;  245.825;    0.000
321.113; 3056.825;  206.825;    0.000
321.174; 3016.825;  202.825;    0.000
321.234; 3031.825;  244.825;    0.000
321.294; 3016.825;  228.825;    0.000
321.355; 3017.825;  208.825;    0.000
321.415; 2979.825;  223.825;    0.000
321.475; 3071.825;  203.825;    0.000
321.535; 3041.825;  230.825;    0.000
321.596; 2987.825;  186.825;    0.000
321.656; 3002.825;  216.825;    0.000
321.716; 3005.825;  207.825;    0.000
321.776; 3025.825;  181.825;    0.000
321.837; 3004.825;  207.825;    0.000
321.897; 3053.825;  225.825;    0.000
321.957; 2952.825;  222.825;    0.000
322.017; 2974.825;  215.825;    0.000
322.077; 3072.825;  250.825;    0.000
322.138; 3039.825;  189.825;    0.000
322.198; 3074.825;  200.825;    0.000
322.258; 2991.825;  217.825;    0.000
322.318; 2978.825;  183.825;    0.000
322.378; 3191.825;  231.825;    0.000
322.438; 2917.825;  228.825;    0.000
322.499; 2948.825;  248.825;    0.000
322.559; 2969.825;  198.825;    0.000
322.619; 2962.825;  221.825;    0.000
322.679; 2987.825;  217.825;    0.000
322.739; 2930.825;  204.825;    0.000
322.799; 3093.825;  236.825;    0.000
322.859; 3022.825;  213.825;    0.000
322.919; 3142.825;  210.825;    0.000
322.979; 2955.825;  244.825;    0.000
323.039; 2982.825;  218.825;    0.000
323.099; 2964.825;  232.825;    0.000
323.159; 3040.825;  216.825;    0.000
323.219; 2950.825;  169.825;    0.000
323.279; 2983.825;  236.825;    0.000
323.339; 2980.825;  243.825;    0.000
323.399; 3095.825;  208.825;    0.000
323.459; 3061.825;  220.825;    0.000
323.519; 3074.825;  228.825;    0.000
323.579; 3017.825;  164.825;    0.000
323.639; 3007.825;  209.825;    0.000
323.699; 3063.825;  188.825;    0.000
323.759; 2992.825;  206.825;    0.000
323.819; 3060.825;  204.825;    0.000
323.879; 2972.825;  222.825;    0.000
323.939; 2957.825;  206.825;    0.000
323.999; 2997.825;  202.825;    0.000
324.059; 2957.825;  245.825;    0.000
324.119; 3077.825;  214.825;    0.000
324.178; 2943.825;  183.825;    0.000
324.238; 2894.825;  193.825;    0.000
324.298; 2944.825;  207.825;    0.000
324.358; 3006.825;  196.825;    0.000
324.418; 2996.825;  193.825;    0.000
324.478; 3021.825;  191.825;    0.000
324.538; 2986.825;  224.825;    0.000
324.597; 2945.825;  187.825;    0.000
324.657; 2934.825;  208.825;    0.000
324.717; 3007.825;  198.825;    0.000
324.777; 2984.825;  159.825;    0.000
324.837; 2976.825;  180.825;    0.000
324.896; 2904.825;  215.825;    0.000
324.956; 3028.825;  210.825;    0.000
325.016; 3023.825;  187.825;    0.000
325.076; 3003.825;  197.825;    0.000
325.135; 2865.825;  226.825;    0.000
325.195; 2965.825;  201.825;    0.000
325.255; 2939.825;  167.825;    0.000
325.315; 3063.825;  217.825;    0.000
325.374; 2951.825;  196.825;    0.000
325.434; 2970.825;  167.825;    0.000
325.494; 3008.825;  214.825;    0.000
325.553; 2957.825;  203.825;    0.000
325.613; 3095.825;  206.825;    0.000
325.673; 2999.825;  148.825;    0.000
325.732; 2944.825;  207.825;    0.000
325.792; 2931.825;  151.825;    0.000
325.852; 2942.825;  195.825;    0.000
325.911; 2955.825;  201.825;    0.000
325.971; 3025.825;  224.825;    0.000
326.031; 2911.825;  201.825;    0.000
326.090; 3015.825;  203.825;    0.000
326.150; 2976.825;  183.825;    0.000
326.209; 2989.825;  226.825;    0.000
326.269; 2986.825;  194.825;    0.000
326.328; 3025.825;  200.825;    0.000
326.388; 2973.825;  177.825;    0.000
326.448; 3091.825;  239.825;    0.000
326.507; 2984.825;  197.825;    0.000
326.567; 2870.825;  161.825;    0.000
326.626; 2956.825;  220.825;    0.000
326.686; 2800.825;  178.825;    0.000
326.745; 2859.825;  167.825;    0.000
326.805; 2817.825;  176.825;    0.000
326.864; 2924.825;  204.825;    0.000
326.924; 2907.825;  218.825;    0.000
326.983; 2937.825;  201.825;    0.000
327.043; 2955.825;  219.825;    0.000
327.102; 2914.825;  202.825;    0.000
327.161; 2875.825;  228.825;    0.000
327.221; 2865.825;  217.825;    0.000
327.280; 2864.825;  188.825;    0.000
327.340; 2895.825;  209.825;    0.000
327.399; 2894.825;  189.825;    0.000
327.459; 2819.825;  216.825;    0.000
327.518; 2908.825;  200.825;    0.000
327.577; 2891.825;  194.825;    0.000
327.637; 2823.825;  180.825;    0.000
327.696; 2882.825;  208.825;    0.000
327.755; 2839.825;  218.825;    0.000
327.815; 2899.825;  234.825;    0.000
327.874; 2881.825;  259.825;    0.000
327.933; 2833.825;  192.825;    0.000
327.993; 2782.825;  208.825;    0.000
328.052; 2879.825;  221.825;    0.000
328.111; 2839.825;  203.825;    0.000
328.171; 2846.825;  221.825;    0.000
328.230; 2806.825;  222.825;    0.000
328.289; 2918.825;  254.825;    0.000
328.349; 2825.825;  232.825;    0.000
328.408; 2807.825;  223.825;    0.000
328.467; 2824.825;  198.825;    0.000
328.526; 2808.825;  217.825;    0.000
328.586; 2780.825;  185.825;    0.000
328.645; 2802.825;  210.825;    0.000
328.704; 2785.825;  211.825;    0.000
328.763; 2781.825;  231.825;    0.000
328.822; 2769.825;  254.825;    0.000
328.882; 2787.825;  216.825;    0.000
328.941; 2758.825;  239.825;    0.000
329.000; 2816.825;  251.825;    0.000
329.059; 2762.825;  227.825;    0.000
329.118; 2710.825;  233.825;    0.000
329.177; 2753.825;  188.825;    0.000
329.237; 2796.825;  257.825;    0.000
329.296; 2903.825;  265.825;    0.000
329.355; 2820.825;  245.825;    0.000
329.414; 2728.825;  236.825;    0.000
329.473; 2830.825;  242.825;    0.000
329.532; 2819.825;  228.825;    0.000
329.591; 2683.825;  206.825;    0.000
329.650; 2785.825;  250.825;    0.000
329.709; 2887.825;  278.825;    0.000
329.768; 2756.825;  219.825;    0.000
329.827; 2759.825;  254.825;    0.000
329.886; 2789.825;  221.825;    0.000
329.945; 2800.825;  239.825;    0.000
330.004; 2895.825;  245.825;    0.000
330.063; 2787.825;  201.825;    0.000
330.122; 2881.825;  227.825;    0.000
330.181; 2960.825;  196.825;    0.000
330.240; 2881.825;  203.825;    0.000
330.299; 2827.825;  214.825;    0.000
330.358; 2715.825;  196.825;    0.000
330.417; 2794.825;  201.825;    0.000
330.476; 2747.825;  248.825;    0.000
330.535; 2716.825;  253.825;    0.000
330.594; 2755.825;  231.825;    0.000
330.653; 2631.825;  210.825;    0.000
330.712; 2806.825;  242.825;    0.000
330.771; 2795.825;  240.825;    0.000
330.830; 2737.825;  230.825;    0.000
330.889; 2809.825;  217.825;    0.000
330.948; 2777.825;  211.825;    0.000
331.006; 2778.825;  217.825;    0.000
331.065; 2765.825;  170.825;    0.000
331.124; 2884.825;  211.825;    0.000
331.183; 2676.825;  192.825;    0.000
331.242; 2734.825;  227.825;    0.000
331.301; 2638.825;  240.825;    0.000
331.359; 2712.825;  223.825;    0.000
331.418; 2699.825;  215.825;    0.000
331.477; 2713.825;  230.825;    0.000
331.536; 2800.825;  221.825;    0.000
331.595; 2732.825;  198.825;    0.000
331.653; 2733.825;  207.825;    0.000
331.712; 2673.825;  217.825;    0.000
331.771; 2670.825;  221.825;    0.000
331.830; 2685.825;  222.825;    0.000
331.888; 2763.825;  213.825;    0.000
331.947; 2734.825;  233.825;    0.000
332.006; 2748.825;  212.825;    0.000
332.065; 2714.825;  200.825;    0.000
332.123; 2768.825;  223.825;    0.000
332.182; 2741.825;  180.825;    0.000
332.241; 2768.825;  192.825;    0.000
332.299; 2765.825;  172.825;    0.000
332.358; 2842.825;  216.825;    0.000
332.417; 2743.825;  211.825;    0.000
332.475; 2684.825;  222.825;    0.000
332.534; 2741.825;  238.825;    0.000
332.592; 2780.825;  216.825;    0.000
332.651; 2754.825;  196.825;    0.000
332.710; 2803.825;  215.825;    0.000
332.768; 2845.825;  193.825;    0.000
332.827; 2846.825;  201.825;    0.000
332.885; 2901.825;  226.825;    0.000
332.944; 2894.825;  174.825;    0.000
333.003; 2843.825;  187.825;    0.000
333.061; 2848.825;  208.825;    0.000
333.120; 2934.825;  202.825;    0.000
333.178; 3036.825;  227.825;    0.000
333.237; 2998.825;  215.825;    0.000
333.295; 2987.825;  245.825;    0.000
333.354; 2911.825;  194.825;    0.000
333.412; 2932.825;  165.825;    0.000
333.471; 2975.825;  219.825;    0.000
333.529; 3032.825;  255.825;    0.000
333.588; 3063.825;  264.825;    0.000
333.646; 3257.825;  231.825;    0.000
333.705; 3193.825;  232.825;    0.000
333.763; 2995.825;  233.825;    0.000
333.822; 3081.825;  221.825;    0.000
333.880; 3009.825;  180.825;    0.000
333.938; 2968.825;  229.825;    0.000
333.997; 2984.825;  194.825;    0.000
334.055; 2975.825;  230.825;    0.000
334.114; 3094.825;  230.825;    0.000
334.172; 2980.825;  170.825;    0.000
334.230; 3053.825;  192.825;    0.000
334.289; 3059.825;  225.825;    0.000
334.347; 2907.825;  233.825;    0.000
334.405; 2970.825;  207.825;    0.000
334.464; 2997.825;  175.825;    0.000
334.522; 2976.825;  180.825;    0.000
334.580; 2943.825;  172.825;    0.000
334.639; 2849.825;  230.825;    0.000
334.697; 2904.825;  217.825;    0.000
334.755; 2918.825;  217.825;    0.000
334.814; 2873.825;  210.825;    0.000
334.872; 2981.825;  170.825;    0.000
334.930; 2880.825;  167.825;    0.000
334.988; 2895.825;  244.825;    0.000
335.047; 2938.825;  202.825;    0.000
335.105; 2910.825;  181.825;    0.000
335.163; 2974.825;  195.825;    0.000
335.221; 2845.825;  203.825;    0.000
335.280; 2947.825;  216.825;    0.000
335.338; 2928.825;  197.825;    0.000
335.396; 2868.825;  232.825;    0.000
335.454; 2918.825;  211.825;    0.000
335.512; 2872.825;  221.825;    0.000
335.570; 2919.825;  216.825;    0.000
335.629; 2993.825;  244.825;    0.000
335.687; 2933.825;  244.825;    0.000
335.745; 2928.825;  189.825;    0.000
335.803; 2953.825;  198.825;    0.000
335.861; 2891.825;  236.825;    0.000
335.919; 2934.825;  234.825;    0.000
335.977; 2930.825;  214.825;    0.000
336.035; 2923.825;  242.825;    0.000
336.094; 2950.825;  219.825;    0.000
336.152; 2867.825;  196.825;    0.000
336.210; 2848.825;  221.825;    0.000
336.268; 2908.825;  257.825;    0.000
336.326; 2877.825;  211.825;    0.000
336.384; 2880.825;  217.825;    0.000
336.442; 2899.825;  176.825;    0.000
336.500; 2881.825;  242.825;    0.000
336.558; 2935.825;  238.825;    0.000
336.616; 2872.825;  261.825;    0.000
336.674; 2839.825;  200.825;    0.000
336.732; 2867.825;  208.825;    0.000
336.790; 2822.825;  183.825;    0.000
336.848; 2905.825;  199.825;    0.000
336.906; 2865.825;  240.825;    0.000
336.964; 2947.825;  234.825;    0.000
337.022; 2909.825;  282.825;    0.000
337.080; 2934.825;  265.825;    0.000
337.138; 2828.825;  255.825;    0.000
337.195; 2844.825;  200.825;    0.000
337.253; 2845.825;  199.825;    0.000
337.311; 2850.825;  233.825;    0.000
337.369; 2770.825;  250.825;    0.000
337.427; 2803.825;  201.825;    0.000
337.485; 2885.825;  228.825;    0.000
337.543; 2764.825;  221.825;    0.000
337.601; 2832.825;  232.825;    0.000
337.658; 2850.825;  215.825;    0.000
337.716; 2681.825;  198.825;    0.000
337.774; 2770.825;  262.825;    0.000
337.832; 2753.825;  220.825;    0.000
337.890; 2765.825;  194.825;    0.000
337.947; 2740.825;  205.825;    0.000
338.005; 2758.825;  229.825;    0.000
338.063; 2752.825;  237.825;    0.000
338.121; 2704.825;  220.825;    0.000
338.178; 2704.825;  227.825;    0.000
338.236; 2679.825;  238.825;    0.000
338.294; 2738.825;  242.825;    0.000
338.352; 2717.825;  230.825;    0.000
338.409; 2693.825;  222.825;    0.000
338.467; 2679.825;  233.825;    0.000
338.525; 2717.825;  253.825;    0.000
338.583; 2760.825;  221.825;    0.000
338.640; 2752.825;  225.825;    0.000
338.698; 2812.825;  229.825;    0.000
338.756; 2761.825;  238.825;    0.000
338.813; 2776.825;  260.825;    0.000
338.871; 2765.825;  246.825;    0.000
338.928; 2817.825;  240.825;    0.000
338.986; 2747.825;  228.825;    0.000
339.044; 2728.825;  265.825;    0.000
339.101; 2765.825;  224.825;    0.000
339.159; 2674.825;  235.825;    0.000
339.216; 2724.825;  244.825;    0.000
339.274; 2761.825;  266.825;    0.000
339.332; 2743.825;  248.825;    0.000
339.389; 2738.825;  246.825;    0.000
339.447; 2752.825;  237.825;    0.000
339.504; 2757.825;  244.825;    0.000
339.562; 2696.825;  249.825;    0.000
339.619; 2723.825;  266.825;    0.000
339.677; 2780.825;  263.825;    0.000
339.734; 2727.825;  216.825;    0.000
339.792; 2790.825;  276.825;    0.000
339.849; 2679.825;  240.825;    0.000
339.907; 2705.825;  275.825;    0.000
339.964; 2679.825;  243.825;    0.000
340.022; 2639.825;  224.825;    0.000
340.079; 2678.825;  230.825;    0.000
340.137; 2627.825;  232.825;    0.000
340.194; 2702.825;  261.825;    0.000
340.252; 2621.825;  219.825;    0.000
340.309; 2663.825;  212.825;    0.000
340.366; 2690.825;  231.825;    0.000
340.424; 2687.825;  244.825;    0.000
340.481; 2610.825;  238.825;    0.000
340.538; 2642.825;  217.825;    0.000
340.596; 2675.825;  224.825;    0.000
340.653; 2736.825;  225.825;    0.000
340.711; 2699.825;  276.825;    0.000
340.768; 2716.825;  239.825;    0.000
340.825; 2664.825;  216.825;    0.000
340.883; 2645.825;  264.825;    0.000
340.940; 2687.825;  256.825;    0.000
340.997; 2725.825;  230.825;    0.000
341.054; 2691.825;  229.825;    0.000
341.112; 2649.825;  220.825;    0.000
341.169; 2736.825;  276.825;    0.000
341.226; 2663.825;  224.825;    0.000
341.284; 2758.825;  235.825;    0.000
341.341; 2713.825;  226.825;    0.000
341.398; 2670.825;  200.825;    0.000
341.455; 2699.825;  242.825;    0.000
341.512; 2749.825;  226.825;    0.000
341.570; 2730.825;  299.825;    0.000
341.627; 2690.825;  221.825;    0.000
341.684; 2652.825;  204.825;    0.000
341.741; 2775.825;  285.825;    0.000
341.798; 2726.825;  237.825;    0.000
341.856; 2730.825;  223.825;    0.000
341.913; 2736.825;  232.825;    0.000
341.970; 2707.825;  250.825;    0.000
342.027; 2677.825;  272.825;    0.000
342.084; 2762.825;  242.825;    0.000
342.141; 2716.825;  207.825;    0.000
342.198; 2661.825;  252.825;    0.000
342.255; 2727.825;  189.825;    0.000
342.313; 2728.825;  222.825;    0.000
342.370; 2796.825;  203.825;    0.000
342.427; 2671.825;  261.825;    0.000
342.484; 2650.825;  230.825;    0.000
342.541; 2729.825;  224.825;    0.000
342.598; 2763.825;  245.825;    0.000
342.655; 2683.825;  235.825;    0.000
342.712; 2691.825;  238.825;    0.000
342.769; 2738.825;  235.825;    0.000
342.826; 2730.825;  232.825;    0.000
342.883; 2831.825;  212.825;    0.000
342.940; 2755.825;  189.825;    0.000
342.997; 2739.825;  241.825;    0.000
343.054; 2750.825;  235.825;    0.000
343.111; 2644.825;  216.825;    0.000
343.168; 2801.825;  202.825;    0.000
343.225; 2807.825;  228.825;    0.000
343.282; 2813.825;  208.825;    0.000
343.339; 2844.825;  241.825;    0.000
343.395; 2853.825;  206.825;    0.000
343.452; 2786.825;  227.825;    0.000
343.509; 2863.825;  212.825;    0.000
343.566; 2962.825;  266.825;    0.000
343.623; 2867.825;  240.825;    0.000
343.680; 2870.825;  215.825;    0.000
343.737; 2988.825;  231.825;    0.000
343.794; 2987.825;  256.825;    0.000
343.850; 2998.825;  235.825;    0.000
343.907; 3067.825;  246.825;    0.000
343.964; 3040.825;  241.825;    0.000
344.021; 3019.825;  237.825;    0.000
344.078; 3143.825;  248.825;    0.000
344.134; 3094.825;  225.825;    0.000
344.191; 3071.825;  209.825;    0.000
344.248; 3031.825;  234.825;    0.000
344.305; 3003.825;  224.825;    0.000
344.361; 2953.825;  194.825;    0.000
344.418; 2908.825;  240.825;    0.000
344.475; 2939.825;  252.825;    0.000
344.532; 2951.825;  251.825;    0.000
344.588; 2899.825;  240.825;    0.000
344.645; 2892.825;  253.825;    0.000
344.702; 2937.825;  216.825;    0.000
344.758; 2933.825;  258.825;    0.000
344.815; 3001.825;  239.825;    0.000
344.872; 2859.825;  216.825;    0.000
344.928; 2915.825;  236.825;    0.000
344.985; 2948.825;  238.825;    0.000
345.042; 2938.825;  211.825;    0.000
345.098; 2822.825;  223.825;    0.000
345.155; 2917.825;  266.825;    0.000
345.212; 2893.825;  266.825;    0.000
345.268; 2835.825;  245.825;    0.000
345.325; 2838.825;  225.825;    0.000
345.381; 2956.825;  223.825;    0.000
345.438; 2946.825;  259.825;    0.000
345.495; 2870.825;  233.825;    0.000
345.551; 2943.825;  254.825;    0.000
345.608; 2932.825;  212.825;    0.000
345.664; 2877.825;  225.825;    0.000
345.721; 2950.825;  223.825;    0.000
345.777; 2852.825;  226.825;    0.000
345.834; 2861.825;  215.825;    0.000
345.890; 2773.825;  230.825;    0.000
345.947; 2888.825;  232.825;    0.000
346.003; 2956.825;  241.825;    0.000
346.060; 2843.825;  241.825;    0.000
346.116; 2840.825;  231.825;    0.000
346.173; 2856.825;  229.825;    0.000
346.229; 2815.825;  262.825;    0.000
346.285; 2831.825;  232.825;    0.000
346.342; 2823.825;  228.825;    0.000
346.398; 2939.825;  203.825;    0.000
346.455; 2965.825;  214.825;    0.000
346.511; 2935.825;  245.825;    0.000
346.567; 2961.825;  192.825;    0.000
346.624; 2831.825;  206.825;    0.000
346.680; 2935.825;  209.825;    0.000
346.737; 2902.825;  239.825;    0.000
346.793; 2937.825;  234.825;    0.000
346.849; 2916.825;  252.825;    0.000
346.906; 3009.825;  247.825;    0.000
346.962; 2951.825;  274.825;    0.000
347.018; 2922.825;  225.825;    0.000
347.074; 2938.825;  261.825;    0.000
347.131; 2821.825;  230.825;    0.000
347.187; 2974.825;  269.825;    0.000
347.243; 2971.825;  261.825;    0.000
347.300; 3004.825;  236.825;    0.000
347.356; 2918.825;  284.825;    0.000
347.412; 2942.825;  243.825;    0.000
347.468; 2906.825;  276.825;    0.000
347.524; 2901.825;  232.825;    0.000
347.581; 2997.825;  242.825;    0.000
347.637; 2910.825;  270.825;    0.000
347.693; 2932.825;  269.825;    0.000
347.749; 2954.825;  278.825;    0.000
347.805; 2872.825;  224.825;    0.000
347.862; 2820.825;  207.825;    0.000
347.918; 2986.825;  259.825;    0.000
347.974; 2953.825;  244.825;    0.000
348.030; 2928.825;  219.825;    0.000
348.086; 2841.825;  250.825;    0.000
348.142; 2873.825;  251.825;    0.000
348.198; 2972.825;  267.825;    0.000
348.254; 2992.825;  230.825;    0.000
348.311; 2901.825;  261.825;    0.000
348.367; 2964.825;  259.825;    0.000
348.423; 2958.825;  251.825;    0.000
348.479; 2983.825;  251.825;    0.000
348.535; 2935.825;  269.825;    0.000
348.591; 2990.825;  238.825;    0.000
348.647; 2987.825;  273.825;    0.000
348.703; 2956.825;  291.825;    0.000
348.759; 2933.825;  231.825;    0.000
348.815; 3037.825;  286.825;    0.000
348.871; 2998.825;  265.825;    0.000
348.927; 2951.825;  234.825;    0.000
348.983; 3117.825;  267.825;    0.000
349.039; 3004.825;  233.825;    0.000
349.095; 2982.825;  225.825;    0.000
349.151; 2934.825;  242.825;    0.000
349.207; 3003.825;  223.825;    0.000
349.263; 3006.825;  219.825;    0.000
349.319; 2969.825;  226.825;    0.000
349.374; 2934.825;  232.825;    0.000
349.430; 3014.825;  235.825;    0.000
349.486; 2959.825;  227.825;    0.000
349.542; 2938.825;  253.825;    0.000
349.598; 3102.825;  227.825;    0.000
349.654; 3052.825;  270.825;    0.000
349.710; 3028.825;  233.825;    0.000
349.766; 2989.825;  245.825;    0.000
349.821; 3030.825;  242.825;    0.000
349.877; 2986.825;  229.825;    0.000
349.933; 3029.825;  229.825;    0.000
349.989; 3073.825;  230.825;    0.000
350.045; 2992.825;  236.825;    0.000
350.100; 3032.825;  237.825;    0.000
350.156; 2968.825;  230.825;    0.000
350.212; 3022.825;  254.825;    0.000
350.268; 2972.825;  239.825;    0.000
350.323; 3007.825;  204.825;    0.000
350.379; 2929.825;  246.825;    0.000
350.435; 3021.825;  249.825;    0.000
350.491; 2922.825;  217.825;    0.000
350.546; 2989.825;  231.825;    0.000
350.602; 2955.825;  240.825;    0.000
350.658; 3034.825;  235.825;    0.000
350.713; 2956.825;  234.825;    0.000
350.769; 2962.825;  218.825;    0.000
350.825; 3002.825;  227.825;    0.000
350.880; 2957.825;  226.825;    0.000
350.936; 3048.825;  247.825;    0.000
350.992; 2965.825;  213.825;    0.000
351.047; 3028.825;  207.825;    0.000
351.103; 3004.825;  271.825;    0.000
351.158; 3010.825;  251.825;    0.000
351.214; 2989.825;  199.825;    0.000
351.270; 2960.825;  214.825;    0.000
351.325; 2927.825;  235.825;    0.000
351.381; 2971.825;  223.825;    0.000
351.436; 3156.825;  237.825;    0.000
351.492; 3022.825;  221.825;    0.000
351.547; 3085.825;  237.825;    0.000
351.603; 3033.825;  239.825;    0.000
351.658; 2987.825;  209.825;    0.000
351.714; 2983.825;  226.825;    0.000
351.769; 3018.825;  238.825;    0.000
351.825; 3048.825;  226.825;    0.000
351.880; 3066.825;  217.825;    0.000
351.936; 3055.825;  246.825;    0.000
351.991; 2943.825;  233.825;    0.000
352.047; 2994.825;  215.825;    0.000
352.102; 3019.825;  243.825;    0.000
352.158; 2940.825;  234.825;    0.000
352.213; 2937.825;  201.825;    0.000
352.268; 2951.825;  234.825;    0.000
352.324; 2922.825;  211.825;    0.000
352.379; 3041.825;  221.825;    0.000
352.434; 2903.825;  259.825;    0.000
352.490; 2958.825;  250.825;    0.000
352.545; 3079.825;  251.825;    0.000
352.601; 3044.825;  283.825;    0.000
352.656; 3054.825;  236.825;    0.000
352.711; 2959.825;  237.825;    0.000
352.767; 3060.825;  201.825;    0.000
352.822; 3063.825;  209.825;    0.000
352.877; 2955.825;  239.825;    0.000
352.932; 3040.825;  228.825;    0.000
352.988; 3041.825;  202.825;    0.000
353.043; 3137.825;  268.825;    0.000
353.098; 3035.825;  208.825;    0.000
353.153; 3059.825;  219.825;    0.000
353.209; 3053.825;  252.825;    0.000
353.264; 3046.825;  225.825;    0.000
353.319; 2994.825;  234.825;    0.000
353.374; 3041.825;  236.825;    0.000
353.430; 3057.825;  245.825;    0.000
353.485; 3062.825;  238.825;    0.000
353.540; 3064.825;  238.825;    0.000
353.595; 2970.825;  215.825;    0.000
353.650; 2998.825;  238.825;    0.000
353.705; 3086.825;  274.825;    0.000
353.761; 3028.825;  229.825;    0.000
353.816; 3049.825;  275.825;    0.000
353.871; 2974.825;  245.825;    0.000
353.926; 3038.825;  253.825;    0.000
353.981; 2942.825;  269.825;    0.000
354.036; 3011.825;  246.825;    0.000
354.091; 2954.825;  257.825;    0.000
354.146; 3070.825;  278.825;    0.000
354.201; 3128.825;  276.825;    0.000
354.256; 2968.825;  224.825;    0.000
354.311; 3105.825;  287.825;    0.000
354.367; 2960.825;  210.825;    0.000
354.422; 3050.825;  231.825;    0.000
354.477; 2999.825;  226.825;    0.000
354.532; 3111.825;  262.825;    0.000
354.587; 3106.825;  275.825;    0.000
354.642; 3009.825;  247.825;    0.000
354.697; 3114.825;  251.825;    0.000
354.751; 3139.825;  249.825;    0.000
354.806; 3129.825;  217.825;    0.000
354.861; 3138.825;  247.825;    0.000
354.916; 3020.825;  259.825;    0.000
354.971; 3036.825;  241.825;    0.000
355.026; 3005.825;  250.825;    0.000
355.081; 3086.825;  244.825;    0.000
355.136; 2984.825;  203.825;    0.000
355.191; 3045.825;  241.825;    0.000
355.246; 3139.825;  248.825;    0.000
355.301; 3146.825;  259.825;    0.000
355.355; 3106.825;  236.825;    0.000
355.410; 3061.825;  221.825;    0.000
355.465; 3104.825;  206.825;    0.000
355.520; 3061.825;  258.825;    0.000
355.575; 3138.825;  273.825;    0.000
355.630; 3092.825;  252.825;    0.000
355.684; 3088.825;  246.825;    0.000
355.739; 2973.825;  251.825;    0.000
355.794; 3066.825;  247.825;    0.000
355.849; 3000.825;  246.825;    0.000
355.904; 3103.825;  262.825;    0.000
355.958; 3055.825;  249.825;    0.000
356.013; 3074.825;  213.825;    0.000
356.068; 3070.825;  255.825;    0.000
356.123; 3061.825;  205.825;    0.000
356.177; 3147.825;  239.825;    0.000
356.232; 3105.825;  258.825;    0.000
356.287; 3112.825;  248.825;    0.000
356.341; 3070.825;  221.825;    0.000
356.396; 3130.825;  220.825;    0.000
356.451; 3151.825;  231.825;    0.000
356.505; 3176.825;  231.825;    0.000
356.560; 3213.825;  254.825;    0.000
356.615; 3200.825;  234.825;    0.000
356.669; 3132.825;  250.825;    0.000
356.724; 3037.825;  261.825;    0.000
356.778; 3053.825;  207.825;    0.000
356.833; 3170.825;  205.825;    0.000
356.888; 3103.825;  235.825;    0.000
356.942; 3149.825;  205.825;    0.000
356.997; 3264.825;  276.825;    0.000
357.051; 3162.825;  243.825;    0.000
357.106; 3016.825;  242.825;    0.000
357.160; 3071.825;  241.825;    0.000
357.215; 3028.825;  212.825;    0.000
357.269; 3087.825;  238.825;    0.000
357.324; 3084.825;  223.825;    0.000
357.378; 3067.825;  221.825;    0.000
357.433; 3157.825;  262.825;    0.000
357.487; 3143.825;  246.825;    0.000
357.542; 3043.825;  221.825;    0.000
357.596; 3097.825;  225.825;    0.000
357.651; 3041.825;  244.825;    0.000
357.705; 3076.825;  269.825;    0.000
357.760; 3097.825;  209.825;    0.000
357.814; 3177.825;  250.825;    0.000
357.868; 3178.825;  266.825;    0.000
357.923; 3074.825;  248.825;    0.000
357.977; 2979.825;  262.825;    0.000
358.032; 3116.825;  228.825;    0.000
358.086; 3296.825;  257.825;    0.000
358.140; 3146.825;  217.825;    0.000
358.195; 3072.825;  246.825;    0.000
358.249; 3043.825;  255.825;    0.000
358.303; 3059.825;  252.825;    0.000
358.358; 3081.825;  278.825;    0.000
358.412; 3108.825;  276.825;    0.000
358.466; 3065.825;  275.825;    0.000
358.521; 3005.825;  229.825;    0.000
358.575; 3005.825;  270.825;    0.000
358.629; 3068.825;  239.825;    0.000
358.683; 3053.825;  254.825;    0.000
358.738; 3050.825;  239.825;    0.000
358.792; 3082.825;  272.825;    0.000
358.846; 3048.825;  289.825;    0.000
358.900; 3057.825;  299.825;    0.000
358.954; 3030.825;  247.825;    0.000
359.009; 3118.825;  245.825;    0.000
359.063; 3012.825;  272.825;    0.000
359.117; 3133.825;  242.825;    0.000
359.171; 3060.825;  279.825;    0.000
359.225; 3024.825;  221.825;    0.000
359.280; 3012.825;  238.825;    0.000
359.334; 3067.825;  264.825;    0.000
359.388; 3166.825;  273.825;    0.000
359.442; 3093.825;  233.825;    0.000
359.496; 2899.825;  226.825;    0.000
359.550; 3079.825;  271.825;    0.000
359.604; 3085.825;  296.825;    0.000
359.658; 3024.825;  252.825;    0.000
359.712; 3090.825;  256.825;    0.000
359.766; 3123.825;  257.825;    0.000
359.820; 3087.825;  239.825;    0.000
359.875; 3006.825;  252.825;    0.000
359.929; 3109.825;  258.825;    0.000
359.983; 3068.825;  232.825;    0.000
360.037; 3067.825;  268.825;    0.000
360.091; 3029.825;  303.825;    0.000
360.145; 3062.825;  232.825;    0.000
360.199; 3088.825;  255.825;    0.000
360.253; 3099.825;  252.825;    0.000
360.306; 3041.825;  278.825;    0.000
360.360; 3032.825;  249.825;    0.000
360.414; 3030.825;  274.825;    0.000
360.468; 3123.825;  247.825;    0.000
360.522; 3033.825;  268.825;    0.000
360.576; 3000.825;  263.825;    0.000
360.630; 3183.825;  296.825;    0.000
360.684; 2994.825;  253.825;    0.000
360.738; 3023.825;  301.825;    0.000
360.792; 3038.825;  282.825;    0.000
360.846; 3089.825;  277.825;    0.000
360.899; 3123.825;  292.825;    0.000
360.953; 3012.825;  266.825;    0.000
361.007; 2997.825;  240.825;    0.000
361.061; 3094.825;  247.825;    0.000
361.115; 3100.825;  276.825;    0.000
361.168; 3061.825;  288.825;    0.000
361.222; 3067.825;  271.825;    0.000
361.276; 3002.825;  270.825;    0.000
361.330; 3048.825;  295.825;    0.000
361.384; 3029.825;  276.825;    0.000
361.437; 3144.825;  280.825;    0.000
361.491; 3045.825;  261.825;    0.000
361.545; 3046.825;  273.825;    0.000
361.599; 2987.825;  269.825;    0.000
361.652; 3024.825;  258.825;    0.000
361.706; 3063.825;  270.825;    0.000
361.760; 3016.825;  294.825;    0.000
361.813; 3046.825;  244.825;    0.000
361.867; 3021.825;  294.825;    0.000
361.921; 3041.825;  285.825;    0.000
361.974; 3043.825;  269.825;    0.000
362.028; 2985.825;  275.825;    0.000
362.082; 2970.825;  270.825;    0.000
362.135; 2988.825;  259.825;    0.000
362.189; 2974.825;  302.825;    0.000
362.242; 2987.825;  296.825;    0.000
362.296; 3010.825;  285.825;    0.000
362.350; 3046.825;  303.825;    0.000
362.403; 3011.825;  271.825;    0.000
362.457; 3024.825;  285.825;    0.000
362.510; 2987.825;  288.825;    0.000
362.564; 2960.825;  268.825;    0.000
362.617; 3108.825;  285.825;    0.000
362.671; 3035.825;  277.825;    0.000
362.724; 3061.825;  242.825;    0.000
362.778; 3049.825;  274.825;    0.000
362.831; 3051.825;  280.825;    0.000
362.885; 2975.825;  284.825;    0.000
362.938; 2885.825;  276.825;    0.000
362.992;  332.825;  289.825;    0.000
363.045;  292.825;  247.825;    0.000
363.099;  259.825;  260.825;    0.000
363.152;  295.825;  258.825;    0.000
363.205;  270.825;  286.825;    0.000
363.259;  293.825;  236.825;    0.000
363.312;  301.825;  297.825;    0.000
363.366;  301.825;  266.825;    0.000
363.419;  271.825;  309.825;    0.000
363.472;  284.825;  293.825;    0.000
363.526;  262.825;  270.825;    0.000
363.579;  270.825;  276.825;    0.000
363.632;  292.825;  279.825;    0.000
363.686;  247.825;  292.825;    0.000
363.739;  277.825;  248.825;    0.000
363.792;  286.825;  287.825;    0.000

