
Integration time [ms]:   1.000
Averaging Nr. [scans]: 1
Smoothing Nr. [pixels]: 0
Data measured with spectrometer [name]: NIR
Wave   ;Sample   ;Dark     ;Reference
[nm]   ;[counts] ;[counts] ;[counts] 

691.496; -121.150;  163.125;    0.000
691.696; -100.150;  208.125;    0.000
691.896; -111.150;  111.125;    0.000
692.096;  -74.150;  178.125;    0.000
692.296;  -95.150;   93.125;    0.000
692.496;  -26.150;  161.125;    0.000
692.695; -141.150;  135.125;    0.000
692.895;  -75.150;  179.125;    0.000
693.095; -120.150;  158.125;    0.000
693.295;  -69.150;  168.125;    0.000
693.495;  -80.150;  170.125;    0.000
693.695;  -80.150;  155.125;    0.000
693.894; -127.150;  151.125;    0.000
694.094;  -97.150;  164.125;    0.000
694.294; -126.150;  129.125;    0.000
694.494;   74.850;  170.125;    0.000
694.693; 1612.850;  137.125;    0.000
694.893; 1764.850;  163.125;    0.000
695.093; 1739.850;  121.125;    0.000
695.293; 1793.850;  144.125;    0.000
695.492; 1869.850;   88.125;    0.000
695.692; 1858.850;  148.125;    0.000
695.891; 1754.850;  125.125;    0.000
696.091; 1818.850;  184.125;    0.000
696.291; 1899.850;  153.125;    0.000
696.490; 1871.850;  131.125;    0.000
696.690; 1871.850;  123.125;    0.000
696.889; 1933.850;  180.125;    0.000
697.089; 1847.850;  147.125;    0.000
697.288; 1864.850;  164.125;    0.000
697.488; 1918.850;  133.125;    0.000
697.687; 1896.850;  153.125;    0.000
697.887; 1871.850;  119.125;    0.000
698.086; 1848.850;  143.125;    0.000
698.286; 1846.850;  125.125;    0.000
698.485; 1885.850;  120.125;    0.000
698.684; 1926.850;  116.125;    0.000
698.884; 1838.850;  131.125;    0.000
699.083; 1798.850;  115.125;    0.000
699.282; 1957.850;  144.125;    0.000
699.482; 1885.850;  109.125;    0.000
699.681; 1925.850;  115.125;    0.000
699.880; 1917.850;  125.125;    0.000
700.080; 1929.850;  139.125;    0.000
700.279; 1847.850;  111.125;    0.000
700.478; 1939.850;  146.125;    0.000
700.677; 1953.850;  131.125;    0.000
700.877; 1941.850;  156.125;    0.000
701.076; 1901.850;  153.125;    0.000
701.275; 1894.850;  123.125;    0.000
701.474; 1876.850;  150.125;    0.000
701.673; 1871.850;   97.125;    0.000
701.872; 1983.850;  139.125;    0.000
702.071; 2031.850;  108.125;    0.000
702.271; 1963.850;  125.125;    0.000
702.470; 1978.850;  108.125;    0.000
702.669; 1970.850;  102.125;    0.000
702.868; 1942.850;  153.125;    0.000
703.067; 1962.850;  145.125;    0.000
703.266; 1984.850;   96.125;    0.000
703.465; 1983.850;  165.125;    0.000
703.664; 1915.850;  106.125;    0.000
703.863; 1955.850;  144.125;    0.000
704.062; 1983.850;   86.125;    0.000
704.260; 1940.850;   99.125;    0.000
704.459; 1996.850;  112.125;    0.000
704.658; 1962.850;  106.125;    0.000
704.857; 2026.850;  129.125;    0.000
705.056; 1972.850;   98.125;    0.000
705.255; 1902.850;   97.125;    0.000
705.454; 1930.850;  101.125;    0.000
705.652; 1955.850;  142.125;    0.000
705.851; 2021.850;  100.125;    0.000
706.050; 1926.850;  162.125;    0.000
706.249; 2013.850;  146.125;    0.000
706.447; 2075.850;  120.125;    0.000
706.646; 2012.850;  114.125;    0.000
706.845; 2049.850;  117.125;    0.000
707.043; 2065.850;  136.125;    0.000
707.242; 2009.850;   90.125;    0.000
707.441; 1980.850;  131.125;    0.000
707.639; 2110.850;  120.125;    0.000
707.838; 2061.850;  122.125;    0.000
708.037; 1957.850;  109.125;    0.000
708.235; 2023.850;  122.125;    0.000
708.434; 2028.850;  109.125;    0.000
708.632; 2015.850;   47.125;    0.000
708.831; 2079.850;  122.125;    0.000
709.029; 1997.850;  130.125;    0.000
709.228; 2054.850;  112.125;    0.000
709.426; 2020.850;  128.125;    0.000
709.625; 2064.850;  129.125;    0.000
709.823; 2144.850;  130.125;    0.000
710.022; 2087.850;   90.125;    0.000
710.220; 2123.850;  131.125;    0.000
710.418; 2088.850;  133.125;    0.000
710.617; 2118.850;   82.125;    0.000
710.815; 2078.850;   90.125;    0.000
711.013; 2122.850;   86.125;    0.000
711.212; 2128.850;  117.125;    0.000
711.410; 2102.850;  106.125;    0.000
711.608; 2093.850;  138.125;    0.000
711.807; 2149.850;  116.125;    0.000
712.005; 2043.850;   82.125;    0.000
712.203; 2096.850;   90.125;    0.000
712.401; 2165.850;  124.125;    0.000
712.599; 2129.850;   64.125;    0.000
712.798; 2065.850;  113.125;    0.000
712.996; 2118.850;  100.125;    0.000
713.194; 2096.850;  130.125;    0.000
713.392; 2185.850;   89.125;    0.000
713.590; 2177.850;  105.125;    0.000
713.788; 2183.850;  100.125;    0.000
713.986; 2241.850;  117.125;    0.000
714.184; 2190.850;   72.125;    0.000
714.382; 2223.850;   88.125;    0.000
714.580; 2171.850;   88.125;    0.000
714.778; 2256.850;  129.125;    0.000
714.976; 2241.850;   90.125;    0.000
715.174; 2237.850;  119.125;    0.000
715.372; 2394.850;  117.125;    0.000
715.570; 2374.850;  101.125;    0.000
715.768; 2536.850;  122.125;    0.000
715.966; 2527.850;  114.125;    0.000
716.164; 2449.850;  135.125;    0.000
716.362; 2525.850;  126.125;    0.000
716.560; 2473.850;  126.125;    0.000
716.758; 2484.850;   98.125;    0.000
716.955; 2458.850;   76.125;    0.000
717.153; 2409.850;   45.125;    0.000
717.351; 2411.850;  106.125;    0.000
717.549; 2325.850;  108.125;    0.000
717.746; 2368.850;   66.125;    0.000
717.944; 2471.850;  127.125;    0.000
718.142; 2387.850;  148.125;    0.000
718.340; 2272.850;   94.125;    0.000
718.537; 2291.850;  107.125;    0.000
718.735; 2340.850;  130.125;    0.000
718.933; 2382.850;  111.125;    0.000
719.130; 2446.850;  107.125;    0.000
719.328; 2370.850;  128.125;    0.000
719.525; 2354.850;  141.125;    0.000
719.723; 2314.850;  122.125;    0.000
719.920; 2335.850;   85.125;    0.000
720.118; 2301.850;  115.125;    0.000
720.316; 2337.850;  153.125;    0.000
720.513; 2375.850;  120.125;    0.000
720.711; 2409.850;  134.125;    0.000
720.908; 2326.850;  126.125;    0.000
721.105; 2377.850;  119.125;    0.000
721.303; 2387.850;  112.125;    0.000
721.500; 2384.850;  125.125;    0.000
721.698; 2355.850;   94.125;    0.000
721.895; 2327.850;  118.125;    0.000
722.092; 2277.850;   77.125;    0.000
722.290; 2400.850;  135.125;    0.000
722.487; 2290.850;  154.125;    0.000
722.684; 2324.850;  122.125;    0.000
722.882; 2412.850;   90.125;    0.000
723.079; 2367.850;  132.125;    0.000
723.276; 2326.850;   95.125;    0.000
723.473; 2345.850;  106.125;    0.000
723.671; 2430.850;   80.125;    0.000
723.868; 2344.850;  112.125;    0.000
724.065; 2352.850;  107.125;    0.000
724.262; 2365.850;  119.125;    0.000
724.459; 2387.850;   80.125;    0.000
724.656; 2407.850;  109.125;    0.000
724.854; 2388.850;  107.125;    0.000
725.051; 2388.850;  103.125;    0.000
725.248; 2403.850;  101.125;    0.000
725.445; 2446.850;   93.125;    0.000
725.642; 2462.850;   92.125;    0.000
725.839; 2546.850;  157.125;    0.000
726.036; 2374.850;   71.125;    0.000
726.233; 2356.850;   80.125;    0.000
726.430; 2477.850;  146.125;    0.000
726.627; 2403.850;  103.125;    0.000
726.824; 2397.850;   46.125;    0.000
727.021; 2437.850;  149.125;    0.000
727.218; 2364.850;   87.125;    0.000
727.414; 2305.850;  112.125;    0.000
727.611; 2334.850;  111.125;    0.000
727.808; 2465.850;  122.125;    0.000
728.005; 2445.850;   58.125;    0.000
728.202; 2502.850;  129.125;    0.000
728.399; 2525.850;  111.125;    0.000
728.595; 2375.850;   93.125;    0.000
728.792; 2331.850;   78.125;    0.000
728.989; 2351.850;  104.125;    0.000
729.186; 2421.850;  110.125;    0.000
729.382; 2471.850;   93.125;    0.000
729.579; 2428.850;  102.125;    0.000
729.776; 2382.850;  112.125;    0.000
729.972; 2394.850;  101.125;    0.000
730.169; 2461.850;  150.125;    0.000
730.366; 2452.850;   92.125;    0.000
730.562; 2450.850;   74.125;    0.000
730.759; 2519.850;   97.125;    0.000
730.955; 2493.850;   86.125;    0.000
731.152; 2457.850;   88.125;    0.000
731.348; 2460.850;  117.125;    0.000
731.545; 2463.850;   62.125;    0.000
731.741; 2508.850;   84.125;    0.000
731.938; 2455.850;  108.125;    0.000
732.134; 2501.850;  115.125;    0.000
732.331; 2488.850;   88.125;    0.000
732.527; 2512.850;   96.125;    0.000
732.724; 2544.850;  103.125;    0.000
732.920; 2466.850;   93.125;    0.000
733.116; 2501.850;  109.125;    0.000
733.313; 2506.850;   77.125;    0.000
733.509; 2558.850;   81.125;    0.000
733.705; 2448.850;  141.125;    0.000
733.902; 2483.850;   88.125;    0.000
734.098; 2527.850;   56.125;    0.000
734.294; 2557.850;  122.125;    0.000
734.490; 2569.850;  102.125;    0.000
734.687; 2550.850;   70.125;    0.000
734.883; 2508.850;   73.125;    0.000
735.079; 2506.850;   65.125;    0.000
735.275; 2501.850;  112.125;    0.000
735.471; 2495.850;  124.125;    0.000
735.667; 2535.850;   94.125;    0.000
735.863; 2594.850;  106.125;    0.000
736.060; 2577.850;  106.125;    0.000
736.256; 2595.850;   95.125;    0.000
736.452; 2622.850;  103.125;    0.000
736.648; 2480.850;  106.125;    0.000
736.844; 2535.850;   98.125;    0.000
737.040; 2697.850;  118.125;    0.000
737.236; 2610.850;   95.125;    0.000
737.432; 2669.850;   59.125;    0.000
737.628; 2606.850;  120.125;    0.000
737.824; 2652.850;   78.125;    0.000
738.019; 2589.850;   98.125;    0.000
738.215; 2641.850;  127.125;    0.000
738.411; 2569.850;  111.125;    0.000
738.607; 2577.850;   69.125;    0.000
738.803; 2566.850;   40.125;    0.000
738.999; 2733.850;  128.125;    0.000
739.195; 2673.850;   81.125;    0.000
739.390; 2703.850;   97.125;    0.000
739.586; 2707.850;  100.125;    0.000
739.782; 2791.850;  135.125;    0.000
739.978; 2773.850;  121.125;    0.000
740.173; 2815.850;   92.125;    0.000
740.369; 2666.850;   92.125;    0.000
740.565; 2736.850;  119.125;    0.000
740.760; 2716.850;  139.125;    0.000
740.956; 2729.850;  134.125;    0.000
741.152; 2820.850;  107.125;    0.000
741.347; 2799.850;   63.125;    0.000
741.543; 2822.850;   99.125;    0.000
741.738; 2854.850;  119.125;    0.000
741.934; 2979.850;  156.125;    0.000
742.129; 3102.850;   87.125;    0.000
742.325; 3452.850;  143.125;    0.000
742.520; 3703.850;  109.125;    0.000
742.716; 3517.850;  135.125;    0.000
742.911; 3392.850;   77.125;    0.000
743.107; 3395.850;  117.125;    0.000
743.302; 3344.850;   93.125;    0.000
743.498; 3336.850;  118.125;    0.000
743.693; 3289.850;   95.125;    0.000
743.888; 3494.850;  122.125;    0.000
744.084; 3910.850;  104.125;    0.000
744.279; 4590.850;   94.125;    0.000
744.474; 4668.850;  138.125;    0.000
744.670; 4333.850;  113.125;    0.000
744.865; 3961.850;  116.125;    0.000
745.060; 3723.850;   89.125;    0.000
745.255; 3667.850;  144.125;    0.000
745.451; 3544.850;   98.125;    0.000
745.646; 3651.850;  110.125;    0.000
745.841; 3519.850;   87.125;    0.000
746.036; 3566.850;   98.125;    0.000
746.231; 3676.850;  153.125;    0.000
746.426; 3844.850;   90.125;    0.000
746.622; 4374.850;  154.125;    0.000
746.817; 5292.850;  111.125;    0.000
747.012; 5967.850;  110.125;    0.000
747.207; 5464.850;   76.125;    0.000
747.402; 4988.850;   94.125;    0.000
747.597; 4645.850;   68.125;    0.000
747.792; 4388.850;  125.125;    0.000
747.987; 4226.850;   92.125;    0.000
748.182; 4222.850;  113.125;    0.000
748.377; 3922.850;   72.125;    0.000
748.572; 3859.850;  135.125;    0.000
748.767; 3734.850;   98.125;    0.000
748.961; 3547.850;  123.125;    0.000
749.156; 3495.850;   96.125;    0.000
749.351; 3367.850;  121.125;    0.000
749.546; 3442.850;   95.125;    0.000
749.741; 3341.850;  144.125;    0.000
749.936; 3320.850;  105.125;    0.000
750.130; 3296.850;  101.125;    0.000
750.325; 3202.850;  126.125;    0.000
750.520; 3179.850;  113.125;    0.000
750.715; 3219.850;  135.125;    0.000
750.909; 3144.850;  138.125;    0.000
751.104; 3140.850;   96.125;    0.000
751.299; 3159.850;  118.125;    0.000
751.493; 3138.850;  124.125;    0.000
751.688; 3084.850;  131.125;    0.000
751.882; 3018.850;   96.125;    0.000
752.077; 3064.850;  123.125;    0.000
752.272; 3106.850;  112.125;    0.000
752.466; 3027.850;  143.125;    0.000
752.661; 3026.850;  107.125;    0.000
752.855; 2949.850;   97.125;    0.000
753.050; 2972.850;  125.125;    0.000
753.244; 2993.850;  161.125;    0.000
753.439; 2940.850;  101.125;    0.000
753.633; 2953.850;  129.125;    0.000
753.828; 2837.850;  114.125;    0.000
754.022; 2922.850;  118.125;    0.000
754.216; 2951.850;  126.125;    0.000
754.411; 2934.850;  148.125;    0.000
754.605; 2879.850;  100.125;    0.000
754.799; 2903.850;  146.125;    0.000
754.994; 2903.850;  116.125;    0.000
755.188; 2926.850;  146.125;    0.000
755.382; 2887.850;  103.125;    0.000
755.576; 2764.850;  119.125;    0.000
755.771; 2842.850;  100.125;    0.000
755.965; 2920.850;  129.125;    0.000
756.159; 2897.850;  100.125;    0.000
756.353; 2930.850;  153.125;    0.000
756.547; 2878.850;  113.125;    0.000
756.742; 2829.850;  129.125;    0.000
756.936; 2882.850;   70.125;    0.000
757.130; 2839.850;   91.125;    0.000
757.324; 2835.850;   92.125;    0.000
757.518; 2831.850;  128.125;    0.000
757.712; 2921.850;  146.125;    0.000
757.906; 2761.850;  114.125;    0.000
758.100; 2852.850;  153.125;    0.000
758.294; 2806.850;  133.125;    0.000
758.488; 2910.850;  149.125;    0.000
758.682; 2835.850;  132.125;    0.000
758.876; 2805.850;  128.125;    0.000
759.070; 2824.850;  178.125;    0.000
759.264; 2789.850;   98.125;    0.000
759.458; 2897.850;  168.125;    0.000
759.651; 2884.850;  131.125;    0.000
759.845; 2815.850;  133.125;    0.000
760.039; 2808.850;  120.125;    0.000
760.233; 2863.850;  116.125;    0.000
760.427; 2833.850;  121.125;    0.000
760.620; 2904.850;  163.125;    0.000
760.814; 2834.850;  106.125;    0.000
761.008; 2876.850;  119.125;    0.000
761.202; 2856.850;  121.125;    0.000
761.395; 2777.850;  136.125;    0.000
761.589; 2870.850;  111.125;    0.000
761.783; 2921.850;  116.125;    0.000
761.976; 2886.850;  139.125;    0.000
762.170; 2994.850;  140.125;    0.000
762.363; 2867.850;  115.125;    0.000
762.557; 2903.850;  129.125;    0.000
762.750; 2831.850;   85.125;    0.000
762.944; 2923.850;  107.125;    0.000
763.138; 2875.850;   99.125;    0.000
763.331; 2882.850;   97.125;    0.000
763.524; 2882.850;  100.125;    0.000
763.718; 2908.850;  130.125;    0.000
763.911; 2944.850;  127.125;    0.000
764.105; 2862.850;   69.125;    0.000
764.298; 2901.850;   94.125;    0.000
764.492; 2891.850;  129.125;    0.000
764.685; 2838.850;  114.125;    0.000
764.878; 2856.850;  145.125;    0.000
765.072; 2877.850;  124.125;    0.000
765.265; 2849.850;  124.125;    0.000
765.458; 2820.850;  108.125;    0.000
765.651; 2923.850;  132.125;    0.000
765.845; 2870.850;  106.125;    0.000
766.038; 2889.850;  155.125;    0.000
766.231; 3347.850;  153.125;    0.000
766.424; 4640.850;  165.125;    0.000
766.617; 4722.850;   85.125;    0.000
766.811; 3217.850;  140.125;    0.000
767.004; 2873.850;  151.125;    0.000
767.197; 2960.850;  178.125;    0.000
767.390; 2892.850;  112.125;    0.000
767.583; 2933.850;  134.125;    0.000
767.776; 2985.850;  101.125;    0.000
767.969; 2887.850;   99.125;    0.000
768.162; 3094.850;  152.125;    0.000
768.355; 3032.850;  115.125;    0.000
768.548; 2997.850;  154.125;    0.000
768.741; 3027.850;  124.125;    0.000
768.934; 3108.850;  129.125;    0.000
769.127; 3109.850;  137.125;    0.000
769.320; 3034.850;  115.125;    0.000
769.513; 3155.850;  144.125;    0.000
769.706; 3420.850;  107.125;    0.000
769.898; 4610.850;  134.125;    0.000
770.091; 3723.850;  128.125;    0.000
770.284; 3097.850;   97.125;    0.000
770.477; 3128.850;  135.125;    0.000
770.670; 3158.850;  137.125;    0.000
770.862; 3127.850;  112.125;    0.000
771.055; 3226.850;  127.125;    0.000
771.248; 3245.850;  116.125;    0.000
771.441; 3218.850;  101.125;    0.000
771.633; 3281.850;  130.125;    0.000
771.826; 3256.850;  147.125;    0.000
772.018; 3241.850;  117.125;    0.000
772.211; 3279.850;  141.125;    0.000
772.404; 3383.850;  104.125;    0.000
772.596; 3409.850;  128.125;    0.000
772.789; 3302.850;  131.125;    0.000
772.981; 3405.850;  134.125;    0.000
773.174; 3484.850;  108.125;    0.000
773.366; 3588.850;  153.125;    0.000
773.559; 3493.850;  137.125;    0.000
773.751; 3603.850;  119.125;    0.000
773.944; 3721.850;  148.125;    0.000
774.136; 3692.850;  155.125;    0.000
774.329; 3688.850;  126.125;    0.000
774.521; 3897.850;  116.125;    0.000
774.713; 3930.850;  119.125;    0.000
774.906; 4117.850;  179.125;    0.000
775.098; 4230.850;  127.125;    0.000
775.290; 4370.850;  146.125;    0.000
775.483; 4539.850;  123.125;    0.000
775.675; 4849.850;  119.125;    0.000
775.867; 5139.850;  119.125;    0.000
776.059; 5493.850;  137.125;    0.000
776.251; 6043.850;  154.125;    0.000
776.444; 6654.850;  101.125;    0.000
776.636; 7571.850;  153.125;    0.000
776.828; 9460.850;  127.125;    0.000
777.020;13081.850;  140.125;    0.000
777.212;19566.850;  160.125;    0.000
777.404;21829.850;  170.125;    0.000
777.596;20278.850;  136.125;    0.000
777.788;15020.850;  137.125;    0.000
777.980;11655.850;  129.125;    0.000
778.172; 9629.850;  139.125;    0.000
778.364; 8293.850;  124.125;    0.000
778.556; 7347.850;  163.125;    0.000
778.748; 6604.850;  142.125;    0.000
778.940; 6022.850;  178.125;    0.000
779.132; 5621.850;  159.125;    0.000
779.324; 5231.850;  109.125;    0.000
779.516; 5012.850;  143.125;    0.000
779.708; 4870.850;  158.125;    0.000
779.900; 4627.850;  142.125;    0.000
780.091; 4325.850;  131.125;    0.000
780.283; 4218.850;  176.125;    0.000
780.475; 4010.850;  151.125;    0.000
780.667; 4029.850;  120.125;    0.000
780.859; 3946.850;  134.125;    0.000
781.050; 3819.850;  183.125;    0.000
781.242; 3643.850;   95.125;    0.000
781.434; 3657.850;  127.125;    0.000
781.625; 3593.850;  163.125;    0.000
781.817; 3523.850;  170.125;    0.000
782.008; 3338.850;  123.125;    0.000
782.200; 3506.850;  141.125;    0.000
782.392; 3459.850;  149.125;    0.000
782.583; 3321.850;  155.125;    0.000
782.775; 3312.850;  140.125;    0.000
782.966; 3265.850;  167.125;    0.000
783.158; 3287.850;  164.125;    0.000
783.349; 3258.850;  174.125;    0.000
783.541; 3235.850;  141.125;    0.000
783.732; 3126.850;  115.125;    0.000
783.924; 3139.850;  135.125;    0.000
784.115; 3080.850;  157.125;    0.000
784.306; 3061.850;  102.125;    0.000
784.498; 3096.850;  124.125;    0.000
784.689; 3053.850;  171.125;    0.000
784.880; 3028.850;  165.125;    0.000
785.072; 2944.850;  152.125;    0.000
785.263; 2881.850;  146.125;    0.000
785.454; 3022.850;  145.125;    0.000
785.645; 2907.850;  127.125;    0.000
785.837; 3042.850;  138.125;    0.000
786.028; 2976.850;  151.125;    0.000
786.219; 2955.850;  142.125;    0.000
786.410; 2947.850;  140.125;    0.000
786.601; 2956.850;  137.125;    0.000
786.792; 2935.850;  158.125;    0.000
786.984; 2946.850;  139.125;    0.000
787.175; 2918.850;  140.125;    0.000
787.366; 3010.850;  145.125;    0.000
787.557; 2914.850;  156.125;    0.000
787.748; 2870.850;  148.125;    0.000
787.939; 2941.850;  157.125;    0.000
788.130; 2981.850;  179.125;    0.000
788.321; 3003.850;  142.125;    0.000
788.512; 2967.850;  167.125;    0.000
788.703; 2999.850;  145.125;    0.000
788.894; 2969.850;  132.125;    0.000
789.084; 2989.850;  113.125;    0.000
789.275; 2964.850;  134.125;    0.000
789.466; 2996.850;  151.125;    0.000
789.657; 3002.850;  138.125;    0.000
789.848; 3083.850;  145.125;    0.000
790.039; 3039.850;  130.125;    0.000
790.229; 2978.850;  140.125;    0.000
790.420; 3020.850;  135.125;    0.000
790.611; 3089.850;  156.125;    0.000
790.801; 2988.850;   64.125;    0.000
790.992; 3004.850;  150.125;    0.000
791.183; 3025.850;  177.125;    0.000
791.373; 2902.850;   91.125;    0.000
791.564; 2961.850;   85.125;    0.000
791.755; 3044.850;  125.125;    0.000
791.945; 2908.850;   94.125;    0.000
792.136; 2963.850;   98.125;    0.000
792.326; 2983.850;  105.125;    0.000
792.517; 2993.850;  136.125;    0.000
792.707; 3078.850;  140.125;    0.000
792.898; 3086.850;  164.125;    0.000
793.088; 3002.850;  116.125;    0.000
793.279; 3058.850;  112.125;    0.000
793.469; 3091.850;  105.125;    0.000
793.660; 3097.850;  161.125;    0.000
793.850; 3219.850;  133.125;    0.000
794.040; 3299.850;  121.125;    0.000
794.231; 3367.850;  115.125;    0.000
794.421; 3560.850;  152.125;    0.000
794.611; 3919.850;  132.125;    0.000
794.802; 4390.850;  144.125;    0.000
794.992; 4574.850;  142.125;    0.000
795.182; 4712.850;  179.125;    0.000
795.372; 4328.850;  167.125;    0.000
795.563; 4218.850;  149.125;    0.000
795.753; 3853.850;  117.125;    0.000
795.943; 3509.850;  146.125;    0.000
796.133; 3494.850;  119.125;    0.000
796.323; 3362.850;  141.125;    0.000
796.513; 3195.850;  134.125;    0.000
796.703; 3217.850;  116.125;    0.000
796.893; 3117.850;  120.125;    0.000
797.083; 3193.850;  131.125;    0.000
797.273; 3055.850;  118.125;    0.000
797.463; 3084.850;  130.125;    0.000
797.653; 2981.850;   87.125;    0.000
797.843; 2923.850;  123.125;    0.000
798.033; 2841.850;  115.125;    0.000
798.223; 2848.850;  142.125;    0.000
798.413; 2838.850;  148.125;    0.000
798.603; 2775.850;  147.125;    0.000
798.793; 2780.850;  107.125;    0.000
798.983; 2661.850;  121.125;    0.000
799.172; 2710.850;  120.125;    0.000
799.362; 2715.850;  145.125;    0.000
799.552; 2730.850;  101.125;    0.000
799.742; 2636.850;  149.125;    0.000
799.932; 2633.850;  104.125;    0.000
800.121; 2709.850;  175.125;    0.000
800.311; 2544.850;  132.125;    0.000
800.501; 2555.850;  118.125;    0.000
800.690; 2550.850;  162.125;    0.000
800.880; 2527.850;  141.125;    0.000
801.070; 2547.850;  151.125;    0.000
801.259; 2630.850;  167.125;    0.000
801.449; 2582.850;  108.125;    0.000
801.638; 2625.850;  176.125;    0.000
801.828; 2548.850;  118.125;    0.000
802.017; 2564.850;  179.125;    0.000
802.207; 2481.850;  127.125;    0.000
802.396; 2561.850;  167.125;    0.000
802.586; 2489.850;  129.125;    0.000
802.775; 2570.850;  142.125;    0.000
802.965; 2500.850;  147.125;    0.000
803.154; 2515.850;  179.125;    0.000
803.343; 2445.850;  117.125;    0.000
803.533; 2471.850;  120.125;    0.000
803.722; 2459.850;  122.125;    0.000
803.911; 2442.850;  155.125;    0.000
804.101; 2394.850;  147.125;    0.000
804.290; 2379.850;  160.125;    0.000
804.479; 2452.850;  139.125;    0.000
804.668; 2442.850;  180.125;    0.000
804.857; 2487.850;  131.125;    0.000
805.047; 2451.850;  119.125;    0.000
805.236; 2412.850;  139.125;    0.000
805.425; 2388.850;  163.125;    0.000
805.614; 2325.850;  103.125;    0.000
805.803; 2446.850;  133.125;    0.000
805.992; 2378.850;  147.125;    0.000
806.181; 2426.850;  109.125;    0.000
806.370; 2432.850;  133.125;    0.000
806.559; 2309.850;  119.125;    0.000
806.748; 2417.850;  144.125;    0.000
806.937; 2331.850;  147.125;    0.000
807.126; 2341.850;  134.125;    0.000
807.315; 2434.850;  132.125;    0.000
807.504; 2331.850;  141.125;    0.000
807.693; 2267.850;  145.125;    0.000
807.882; 2312.850;   91.125;    0.000
808.071; 2399.850;  116.125;    0.000
808.260; 2297.850;  105.125;    0.000
808.448; 2364.850;  184.125;    0.000
808.637; 2394.850;  146.125;    0.000
808.826; 2376.850;  153.125;    0.000
809.015; 2280.850;  113.125;    0.000
809.203; 2375.850;  166.125;    0.000
809.392; 2334.850;  117.125;    0.000
809.581; 2319.850;  186.125;    0.000
809.770; 2350.850;  122.125;    0.000
809.958; 2298.850;  140.125;    0.000
810.147; 2350.850;  130.125;    0.000
810.335; 2387.850;  112.125;    0.000
810.524; 2386.850;  106.125;    0.000
810.713; 2419.850;  154.125;    0.000
810.901; 2407.850;  131.125;    0.000
811.090; 2451.850;  164.125;    0.000
811.278; 2444.850;  159.125;    0.000
811.467; 2547.850;  194.125;    0.000
811.655; 2580.850;  164.125;    0.000
811.844; 2426.850;  149.125;    0.000
812.032; 2502.850;  169.125;    0.000
812.220; 2460.850;  163.125;    0.000
812.409; 2370.850;  134.125;    0.000
812.597; 2436.850;  165.125;    0.000
812.785; 2417.850;  180.125;    0.000
812.974; 2417.850;  166.125;    0.000
813.162; 2424.850;  171.125;    0.000
813.350; 2425.850;  142.125;    0.000
813.539; 2374.850;  126.125;    0.000
813.727; 2363.850;  153.125;    0.000
813.915; 2385.850;  138.125;    0.000
814.103; 2436.850;  191.125;    0.000
814.291; 2345.850;  142.125;    0.000
814.479; 2425.850;  156.125;    0.000
814.668; 2408.850;  152.125;    0.000
814.856; 2445.850;  150.125;    0.000
815.044; 2416.850;  165.125;    0.000
815.232; 2421.850;  172.125;    0.000
815.420; 2563.850;  147.125;    0.000
815.608; 2500.850;  143.125;    0.000
815.796; 2439.850;  126.125;    0.000
815.984; 2418.850;  152.125;    0.000
816.172; 2465.850;  129.125;    0.000
816.360; 2572.850;  177.125;    0.000
816.548; 2560.850;  141.125;    0.000
816.736; 2650.850;  142.125;    0.000
816.924; 2717.850;  161.125;    0.000
817.111; 2639.850;  138.125;    0.000
817.299; 2696.850;  112.125;    0.000
817.487; 2776.850;  180.125;    0.000
817.675; 2851.850;  138.125;    0.000
817.863; 3007.850;  172.125;    0.000
818.050; 3188.850;  142.125;    0.000
818.238; 3882.850;  151.125;    0.000
818.426; 4962.850;  129.125;    0.000
818.613; 5236.850;  124.125;    0.000
818.801; 5368.850;  209.125;    0.000
818.989; 5212.850;  178.125;    0.000
819.176; 4701.850;  155.125;    0.000
819.364; 4865.850;  174.125;    0.000
819.552; 5330.850;  131.125;    0.000
819.739; 4412.850;  184.125;    0.000
819.927; 3974.850;  132.125;    0.000
820.114; 3977.850;  173.125;    0.000
820.302; 3913.850;  140.125;    0.000
820.489; 3767.850;  133.125;    0.000
820.677; 3778.850;  167.125;    0.000
820.864; 3899.850;  161.125;    0.000
821.052; 4433.850;  134.125;    0.000
821.239; 4783.850;  149.125;    0.000
821.426; 5362.850;  160.125;    0.000
821.614; 6829.850;  143.125;    0.000
821.801; 7576.850;  118.125;    0.000
821.988; 6667.850;  154.125;    0.000
822.176; 6384.850;  112.125;    0.000
822.363; 6589.850;  131.125;    0.000
822.550; 6089.850;  131.125;    0.000
822.737; 5504.850;  104.125;    0.000
822.924; 5122.850;  160.125;    0.000
823.112; 4794.850;  161.125;    0.000
823.299; 4529.850;  169.125;    0.000
823.486; 4289.850;  129.125;    0.000
823.673; 4146.850;  135.125;    0.000
823.860; 4097.850;  169.125;    0.000
824.047; 4099.850;  124.125;    0.000
824.234; 4479.850;  160.125;    0.000
824.421; 4621.850;  114.125;    0.000
824.608; 4161.850;  191.125;    0.000
824.795; 3779.850;  160.125;    0.000
824.982; 3610.850;  139.125;    0.000
825.169; 3402.850;  121.125;    0.000
825.356; 3305.850;  148.125;    0.000
825.543; 3081.850;  167.125;    0.000
825.730; 2980.850;  103.125;    0.000
825.917; 2903.850;  113.125;    0.000
826.104; 2953.850;  188.125;    0.000
826.290; 2785.850;  193.125;    0.000
826.477; 2733.850;  175.125;    0.000
826.664; 2638.850;  151.125;    0.000
826.851; 2580.850;  122.125;    0.000
827.038; 2559.850;  121.125;    0.000
827.224; 2487.850;  124.125;    0.000
827.411; 2433.850;  155.125;    0.000
827.598; 2451.850;  127.125;    0.000
827.784; 2464.850;  140.125;    0.000
827.971; 2400.850;  114.125;    0.000
828.157; 2314.850;  135.125;    0.000
828.344; 2277.850;  173.125;    0.000
828.531; 2300.850;  113.125;    0.000
828.717; 2314.850;  137.125;    0.000
828.904; 2312.850;  158.125;    0.000
829.090; 2311.850;  199.125;    0.000
829.277; 2231.850;  156.125;    0.000
829.463; 2362.850;  154.125;    0.000
829.650; 2231.850;  174.125;    0.000
829.836; 2222.850;  136.125;    0.000
830.022; 2182.850;  143.125;    0.000
830.209; 2204.850;  157.125;    0.000
830.395; 2133.850;  156.125;    0.000
830.581; 2122.850;  148.125;    0.000
830.768; 2139.850;  169.125;    0.000
830.954; 2193.850;  169.125;    0.000
831.140; 2118.850;  124.125;    0.000
831.327; 2113.850;  157.125;    0.000
831.513; 2121.850;  163.125;    0.000
831.699; 2052.850;  176.125;    0.000
831.885; 2131.850;  154.125;    0.000
832.071; 2005.850;  159.125;    0.000
832.257; 2057.850;  142.125;    0.000
832.444; 2045.850;  159.125;    0.000
832.630; 2048.850;  129.125;    0.000
832.816; 2048.850;  132.125;    0.000
833.002; 1993.850;  125.125;    0.000
833.188; 2035.850;  144.125;    0.000
833.374; 2037.850;  131.125;    0.000
833.560; 1966.850;  154.125;    0.000
833.746; 2020.850;  171.125;    0.000
833.932; 1953.850;  162.125;    0.000
834.118; 2024.850;  131.125;    0.000
834.303; 1983.850;  113.125;    0.000
834.489; 2063.850;  170.125;    0.000
834.675; 1992.850;  177.125;    0.000
834.861; 1923.850;  154.125;    0.000
835.047; 2048.850;  171.125;    0.000
835.233; 1972.850;   98.125;    0.000
835.418; 2022.850;  138.125;    0.000
835.604; 1964.850;  140.125;    0.000
835.790; 1882.850;  130.125;    0.000
835.976; 1910.850;  129.125;    0.000
836.161; 2024.850;  142.125;    0.000
836.347; 1845.850;  128.125;    0.000
836.533; 1958.850;  143.125;    0.000
836.718; 1897.850;  164.125;    0.000
836.904; 1933.850;  172.125;    0.000
837.089; 1944.850;  152.125;    0.000
837.275; 1939.850;  143.125;    0.000
837.460; 1853.850;  125.125;    0.000
837.646; 1935.850;  137.125;    0.000
837.831; 1923.850;  153.125;    0.000
838.017; 1988.850;  171.125;    0.000
838.202; 1894.850;  111.125;    0.000
838.388; 1983.850;  140.125;    0.000
838.573; 1874.850;  158.125;    0.000
838.759; 1980.850;  188.125;    0.000
838.944; 1892.850;  125.125;    0.000
839.129; 1979.850;  123.125;    0.000
839.315; 2016.850;  181.125;    0.000
839.500; 1949.850;  150.125;    0.000
839.685; 1940.850;  109.125;    0.000
839.870; 1910.850;  202.125;    0.000
840.056; 1984.850;  101.125;    0.000
840.241; 1992.850;  184.125;    0.000
840.426; 2075.850;  192.125;    0.000
840.611; 1960.850;  180.125;    0.000
840.796; 2017.850;  156.125;    0.000
840.981; 2008.850;  142.125;    0.000
841.166; 2030.850;  161.125;    0.000
841.352; 2082.850;  185.125;    0.000
841.537; 2024.850;  139.125;    0.000
841.722; 2043.850;  143.125;    0.000
841.907; 2104.850;  140.125;    0.000
842.092; 2137.850;  176.125;    0.000
842.277; 2149.850;  136.125;    0.000
842.461; 2220.850;  155.125;    0.000
842.646; 2206.850;  163.125;    0.000
842.831; 2266.850;  153.125;    0.000
843.016; 2239.850;  187.125;    0.000
843.201; 2373.850;  179.125;    0.000
843.386; 2440.850;  167.125;    0.000
843.571; 2537.850;  129.125;    0.000
843.755; 2683.850;  136.125;    0.000
843.940; 2830.850;  121.125;    0.000
844.125; 3149.850;  157.125;    0.000
844.310; 3616.850;  175.125;    0.000
844.494; 4581.850;  164.125;    0.000
844.679; 6212.850;  167.125;    0.000
844.864; 5809.850;  166.125;    0.000
845.048; 5007.850;  132.125;    0.000
845.233; 4170.850;  175.125;    0.000
845.418; 3655.850;  159.125;    0.000
845.602; 3384.850;  147.125;    0.000
845.787; 3077.850;  132.125;    0.000
845.971; 2974.850;  187.125;    0.000
846.156; 2713.850;  141.125;    0.000
846.340; 2638.850;  153.125;    0.000
846.525; 2572.850;  157.125;    0.000
846.709; 2483.850;  117.125;    0.000
846.893; 2395.850;  147.125;    0.000
847.078; 2307.850;  170.125;    0.000
847.262; 2267.850;  150.125;    0.000
847.447; 2242.850;  132.125;    0.000
847.631; 2186.850;  144.125;    0.000
847.815; 2090.850;  157.125;    0.000
848.000; 2090.850;  164.125;    0.000
848.184; 2032.850;  174.125;    0.000
848.368; 2043.850;  149.125;    0.000
848.552; 2075.850;  143.125;    0.000
848.736; 1977.850;  132.125;    0.000
848.921; 2041.850;  147.125;    0.000
849.105; 1982.850;  150.125;    0.000
849.289; 1982.850;  146.125;    0.000
849.473; 1898.850;  167.125;    0.000
849.657; 1879.850;  149.125;    0.000
849.841; 1903.850;  181.125;    0.000
850.025; 1933.850;  154.125;    0.000
850.209; 1857.850;  152.125;    0.000
850.393; 1827.850;  139.125;    0.000
850.577; 1902.850;  128.125;    0.000
850.761; 1902.850;  194.125;    0.000
850.945; 1801.850;  152.125;    0.000
851.129; 1839.850;  157.125;    0.000
851.313; 1824.850;  181.125;    0.000
851.497; 1905.850;  145.125;    0.000
851.680; 1793.850;  168.125;    0.000
851.864; 1837.850;  185.125;    0.000
852.048; 1888.850;  170.125;    0.000
852.232; 1826.850;  192.125;    0.000
852.416; 1853.850;  182.125;    0.000
852.599; 1809.850;  169.125;    0.000
852.783; 1773.850;  168.125;    0.000
852.967; 1798.850;  184.125;    0.000
853.150; 1861.850;  163.125;    0.000
853.334; 1819.850;  164.125;    0.000
853.518; 1923.850;  190.125;    0.000
853.701; 1681.850;  137.125;    0.000
853.885; 1833.850;  177.125;    0.000
854.068; 1787.850;  163.125;    0.000
854.252; 1814.850;  139.125;    0.000
854.435; 1816.850;  152.125;    0.000
854.619; 1735.850;  148.125;    0.000
854.802; 1819.850;  168.125;    0.000
854.986; 1758.850;  157.125;    0.000
855.169; 1757.850;  147.125;    0.000
855.353; 1826.850;  173.125;    0.000
855.536; 1804.850;  127.125;    0.000
855.719; 1830.850;  191.125;    0.000
855.903; 1829.850;  186.125;    0.000
856.086; 1849.850;  145.125;    0.000
856.269; 1799.850;  130.125;    0.000
856.452; 1852.850;  153.125;    0.000
856.636; 1817.850;  129.125;    0.000
856.819; 2007.850;  134.125;    0.000
857.002; 2071.850;  152.125;    0.000
857.185; 2020.850;  140.125;    0.000
857.368; 1966.850;  170.125;    0.000
857.552; 1873.850;  132.125;    0.000
857.735; 1916.850;  160.125;    0.000
857.918; 1878.850;  139.125;    0.000
858.101; 1928.850;  159.125;    0.000
858.284; 1879.850;  136.125;    0.000
858.467; 1937.850;  147.125;    0.000
858.650; 1964.850;  153.125;    0.000
858.833; 2021.850;  113.125;    0.000
859.016; 2042.850;  167.125;    0.000
859.199; 2142.850;  141.125;    0.000
859.382; 2253.850;  155.125;    0.000
859.564; 2430.850;  136.125;    0.000
859.747; 2427.850;  142.125;    0.000
859.930; 2259.850;  141.125;    0.000
860.113; 2173.850;  156.125;    0.000
860.296; 2209.850;  167.125;    0.000
860.478; 2077.850;  121.125;    0.000
860.661; 2100.850;  230.125;    0.000
860.844; 2048.850;  186.125;    0.000
861.027; 2003.850;  155.125;    0.000
861.209; 2073.850;  151.125;    0.000
861.392; 2013.850;  162.125;    0.000
861.575; 2070.850;  150.125;    0.000
861.757; 2096.850;  162.125;    0.000
861.940; 2144.850;  207.125;    0.000
862.122; 2185.850;  113.125;    0.000
862.305; 2199.850;  114.125;    0.000
862.487; 2287.850;  162.125;    0.000
862.670; 2352.850;  148.125;    0.000
862.852; 2718.850;  131.125;    0.000
863.035; 3175.850;  174.125;    0.000
863.217; 2966.850;  170.125;    0.000
863.400; 2872.850;  148.125;    0.000
863.582; 2788.850;  129.125;    0.000
863.764; 2545.850;  181.125;    0.000
863.947; 2482.850;  152.125;    0.000
864.129; 2451.850;  178.125;    0.000
864.311; 2502.850;  139.125;    0.000
864.493; 2366.850;  166.125;    0.000
864.676; 2369.850;  148.125;    0.000
864.858; 2449.850;  123.125;    0.000
865.040; 2406.850;  180.125;    0.000
865.222; 2317.850;  131.125;    0.000
865.404; 2473.850;  146.125;    0.000
865.587; 2497.850;  175.125;    0.000
865.769; 2581.850;  183.125;    0.000
865.951; 2541.850;  171.125;    0.000
866.133; 2591.850;  165.125;    0.000
866.315; 2567.850;  138.125;    0.000
866.497; 2635.850;  139.125;    0.000
866.679; 2661.850;  167.125;    0.000
866.861; 2701.850;  151.125;    0.000
867.043; 2908.850;  190.125;    0.000
867.225; 2978.850;  140.125;    0.000
867.407; 3158.850;  125.125;    0.000
867.589; 3615.850;  141.125;    0.000
867.770; 4271.850;  149.125;    0.000
867.952; 5710.850;  138.125;    0.000
868.134; 7179.850;  153.125;    0.000
868.316; 7127.850;  148.125;    0.000
868.498; 6972.850;  180.125;    0.000
868.679; 6178.850;  152.125;    0.000
868.861; 5207.850;  174.125;    0.000
869.043; 4548.850;  152.125;    0.000
869.224; 4096.850;  177.125;    0.000
869.406; 3720.850;  171.125;    0.000
869.588; 3495.850;  177.125;    0.000
869.769; 3404.850;  174.125;    0.000
869.951; 3344.850;  167.125;    0.000
870.132; 3290.850;  144.125;    0.000
870.314; 3510.850;  143.125;    0.000
870.495; 3774.850;  162.125;    0.000
870.677; 3458.850;  136.125;    0.000
870.858; 3294.850;  155.125;    0.000
871.040; 3463.850;  179.125;    0.000
871.221; 3783.850;  177.125;    0.000
871.403; 3675.850;  180.125;    0.000
871.584; 3435.850;  157.125;    0.000
871.765; 3633.850;  183.125;    0.000
871.947; 3732.850;  169.125;    0.000
872.128; 3252.850;  162.125;    0.000
872.309; 2884.850;  159.125;    0.000
872.491; 2822.850;  148.125;    0.000
872.672; 2617.850;  163.125;    0.000
872.853; 2528.850;  152.125;    0.000
873.034; 2516.850;  166.125;    0.000
873.215; 2450.850;  155.125;    0.000
873.396; 2351.850;  147.125;    0.000
873.578; 2295.850;  147.125;    0.000
873.759; 2268.850;  153.125;    0.000
873.940; 2104.850;  194.125;    0.000
874.121; 2053.850;  179.125;    0.000
874.302; 2070.850;  155.125;    0.000
874.483; 2054.850;  131.125;    0.000
874.664; 2068.850;  106.125;    0.000
874.845; 1980.850;  122.125;    0.000
875.026; 1897.850;  127.125;    0.000
875.207; 1953.850;  151.125;    0.000
875.388; 1941.850;  149.125;    0.000
875.568; 1908.850;  164.125;    0.000
875.749; 1854.850;  176.125;    0.000
875.930; 1831.850;  207.125;    0.000
876.111; 1863.850;  177.125;    0.000
876.292; 1809.850;  178.125;    0.000
876.472; 1902.850;  163.125;    0.000
876.653; 1861.850;  159.125;    0.000
876.834; 1752.850;  177.125;    0.000
877.015; 1834.850;  212.125;    0.000
877.195; 1783.850;  166.125;    0.000
877.376; 1743.850;  157.125;    0.000
877.556; 1771.850;  175.125;    0.000
877.737; 1838.850;  220.125;    0.000
877.918; 1743.850;  163.125;    0.000
878.098; 1686.850;  166.125;    0.000
878.279; 1690.850;  136.125;    0.000
878.459; 1702.850;  167.125;    0.000
878.640; 1753.850;  167.125;    0.000
878.820; 1698.850;  155.125;    0.000
879.000; 1675.850;  158.125;    0.000
879.181; 1745.850;  155.125;    0.000
879.361; 1701.850;  181.125;    0.000
879.542; 1665.850;  181.125;    0.000
879.722; 1683.850;  117.125;    0.000
879.902; 1778.850;  180.125;    0.000
880.083; 1771.850;  139.125;    0.000
880.263; 1783.850;  168.125;    0.000
880.443; 1809.850;  206.125;    0.000
880.623; 2018.850;  132.125;    0.000
880.803; 2233.850;  149.125;    0.000
880.984; 2052.850;  189.125;    0.000
881.164; 1866.850;  171.125;    0.000
881.344; 1835.850;  150.125;    0.000
881.524; 1789.850;  185.125;    0.000
881.704; 1809.850;  152.125;    0.000
881.884; 1876.850;  188.125;    0.000
882.064; 1925.850;  155.125;    0.000
882.244; 1980.850;  182.125;    0.000
882.424; 1973.850;  154.125;    0.000
882.604; 1899.850;  175.125;    0.000
882.784; 1864.850;  137.125;    0.000
882.964; 1777.850;  135.125;    0.000
883.144; 1764.850;  142.125;    0.000
883.324; 1779.850;  192.125;    0.000
883.504; 1710.850;  193.125;    0.000
883.683; 1734.850;  208.125;    0.000
883.863; 1619.850;  127.125;    0.000
884.043; 1718.850;  140.125;    0.000
884.223; 1640.850;  167.125;    0.000
884.402; 1695.850;  156.125;    0.000
884.582; 1653.850;  185.125;    0.000
884.762; 1738.850;  187.125;    0.000
884.941; 1633.850;  201.125;    0.000
885.121; 1648.850;  157.125;    0.000
885.301; 1694.850;  173.125;    0.000
885.480; 1645.850;  158.125;    0.000
885.660; 1631.850;  153.125;    0.000
885.839; 1711.850;  144.125;    0.000
886.019; 1668.850;  184.125;    0.000
886.198; 1553.850;  132.125;    0.000
886.378; 1557.850;  124.125;    0.000
886.557; 1614.850;  146.125;    0.000
886.737; 1572.850;  157.125;    0.000
886.916; 1668.850;  203.125;    0.000
887.095; 1663.850;  151.125;    0.000
887.275; 1655.850;  143.125;    0.000
887.454; 1631.850;  140.125;    0.000
887.633; 1646.850;  196.125;    0.000
887.813; 1640.850;  161.125;    0.000
887.992; 1648.850;  183.125;    0.000
888.171; 1562.850;  153.125;    0.000
888.350; 1596.850;  185.125;    0.000
888.530; 1615.850;  163.125;    0.000
888.709; 1562.850;  174.125;    0.000
888.888; 1650.850;  179.125;    0.000
889.067; 1609.850;  178.125;    0.000
889.246; 1600.850;  184.125;    0.000
889.425; 1620.850;  169.125;    0.000
889.604; 1635.850;  210.125;    0.000
889.783; 1617.850;  183.125;    0.000
889.962; 1633.850;  116.125;    0.000
890.141; 1630.850;  179.125;    0.000
890.320; 1598.850;  182.125;    0.000
890.499; 1582.850;  188.125;    0.000
890.678; 1629.850;  167.125;    0.000
890.857; 1613.850;  141.125;    0.000
891.036; 1629.850;  179.125;    0.000
891.214; 1543.850;  156.125;    0.000
891.393; 1635.850;  209.125;    0.000
891.572; 1585.850;  181.125;    0.000
891.751; 1647.850;  172.125;    0.000
891.930; 1647.850;  169.125;    0.000
892.108; 1544.850;  131.125;    0.000
892.287; 1664.850;  162.125;    0.000
892.466; 1599.850;  178.125;    0.000
892.644; 1640.850;  161.125;    0.000
892.823; 1610.850;  180.125;    0.000
893.001; 1550.850;  179.125;    0.000
893.180; 1526.850;  152.125;    0.000
893.359; 1610.850;  184.125;    0.000
893.537; 1654.850;  178.125;    0.000
893.716; 1569.850;  169.125;    0.000
893.894; 1597.850;  159.125;    0.000
894.073; 1581.850;  179.125;    0.000
894.251; 1611.850;  167.125;    0.000
894.429; 1587.850;  142.125;    0.000
894.608; 1723.850;  166.125;    0.000
894.786; 1607.850;  153.125;    0.000
894.964; 1635.850;  181.125;    0.000
895.143; 1526.850;  161.125;    0.000
895.321; 1598.850;  198.125;    0.000
895.499; 1592.850;  184.125;    0.000
895.677; 1620.850;  178.125;    0.000
895.856; 1748.850;  226.125;    0.000
896.034; 1605.850;  180.125;    0.000
896.212; 1655.850;  200.125;    0.000
896.390; 1648.850;  161.125;    0.000
896.568; 1696.850;  204.125;    0.000
896.746; 1654.850;  136.125;    0.000
896.924; 1597.850;  171.125;    0.000
897.102; 1622.850;  203.125;    0.000
897.280; 1608.850;  142.125;    0.000
897.458; 1624.850;  159.125;    0.000
897.636; 1591.850;  163.125;    0.000
897.814; 1627.850;  137.125;    0.000
897.992; 1659.850;  199.125;    0.000
898.170; 1642.850;  176.125;    0.000
898.348; 1578.850;  195.125;    0.000
898.526; 1702.850;  199.125;    0.000
898.704; 1696.850;  260.125;    0.000
898.882; 1632.850;  185.125;    0.000
899.059; 1653.850;  169.125;    0.000
899.237; 1685.850;  197.125;    0.000
899.415; 1711.850;  207.125;    0.000
899.593; 1626.850;  169.125;    0.000
899.770; 1666.850;  182.125;    0.000
899.948; 1729.850;  198.125;    0.000
900.125; 1703.850;  200.125;    0.000
900.303; 1720.850;  165.125;    0.000
900.481; 1609.850;  182.125;    0.000
900.658; 1709.850;  206.125;    0.000
900.836; 1713.850;  188.125;    0.000
901.013; 1730.850;  169.125;    0.000
901.191; 1694.850;  172.125;    0.000
901.368; 1657.850;  170.125;    0.000
901.546; 1733.850;  234.125;    0.000
901.723; 1807.850;  173.125;    0.000
901.901; 1811.850;  190.125;    0.000
902.078; 1893.850;  145.125;    0.000
902.255; 1869.850;  204.125;    0.000
902.433; 1849.850;  198.125;    0.000
902.610; 1898.850;  190.125;    0.000
902.787; 1794.850;  204.125;    0.000
902.964; 1951.850;  208.125;    0.000
903.142; 1985.850;  187.125;    0.000
903.319; 1907.850;  216.125;    0.000
903.496; 1971.850;  186.125;    0.000
903.673; 2011.850;  201.125;    0.000
903.850; 1950.850;  195.125;    0.000
904.027; 2053.850;  211.125;    0.000
904.204; 2142.850;  197.125;    0.000
904.381; 2248.850;  198.125;    0.000
904.558; 2430.850;  188.125;    0.000
904.735; 2645.850;  207.125;    0.000
904.912; 2663.850;  217.125;    0.000
905.089; 2683.850;  188.125;    0.000
905.266; 2536.850;  160.125;    0.000
905.443; 2487.850;  221.125;    0.000
905.620; 2273.850;  163.125;    0.000
905.797; 2226.850;  186.125;    0.000
905.974; 2228.850;  205.125;    0.000
906.151; 2234.850;  159.125;    0.000
906.327; 2178.850;  206.125;    0.000
906.504; 2115.850;  201.125;    0.000
906.681; 2107.850;  202.125;    0.000
906.858; 2038.850;  188.125;    0.000
907.034; 2031.850;  207.125;    0.000
907.211; 1945.850;  182.125;    0.000
907.388; 1972.850;  184.125;    0.000
907.564; 1906.850;  148.125;    0.000
907.741; 1933.850;  181.125;    0.000
907.917; 1874.850;  191.125;    0.000
908.094; 1885.850;  210.125;    0.000
908.271; 1934.850;  171.125;    0.000
908.447; 1887.850;  241.125;    0.000
908.623; 1863.850;  188.125;    0.000
908.800; 1915.850;  205.125;    0.000
908.976; 1893.850;  210.125;    0.000
909.153; 1821.850;  193.125;    0.000
909.329; 1848.850;  206.125;    0.000
909.505; 1754.850;  181.125;    0.000
909.682; 1742.850;  192.125;    0.000
909.858; 1739.850;  134.125;    0.000
910.034; 1719.850;  214.125;    0.000
910.211; 1704.850;  182.125;    0.000
910.387; 1759.850;  194.125;    0.000
910.563; 1797.850;  199.125;    0.000
910.739; 1740.850;  188.125;    0.000
910.915; 1716.850;  192.125;    0.000
911.091; 1738.850;  198.125;    0.000
911.268; 1726.850;  178.125;    0.000
911.444; 1837.850;  201.125;    0.000
911.620; 1688.850;  181.125;    0.000
911.796; 1698.850;  185.125;    0.000
911.972; 1795.850;  176.125;    0.000
912.148; 1815.850;  196.125;    0.000
912.324; 1801.850;  192.125;    0.000
912.500; 1790.850;  204.125;    0.000
912.676; 1697.850;  164.125;    0.000
912.851; 1714.850;  193.125;    0.000
913.027; 1782.850;  175.125;    0.000
913.203; 1779.850;  193.125;    0.000
913.379; 1723.850;  213.125;    0.000
913.555; 1771.850;  211.125;    0.000
913.730; 1711.850;  194.125;    0.000
913.906; 1789.850;  153.125;    0.000
914.082; 1770.850;  212.125;    0.000
914.258; 1680.850;  194.125;    0.000
914.433; 1754.850;  191.125;    0.000
914.609; 1720.850;  208.125;    0.000
914.784; 1719.850;  176.125;    0.000
914.960; 1715.850;  227.125;    0.000
915.136; 1766.850;  152.125;    0.000
915.311; 1789.850;  171.125;    0.000
915.487; 1706.850;  173.125;    0.000
915.662; 1816.850;  189.125;    0.000
915.838; 1730.850;  179.125;    0.000
916.013; 1743.850;  191.125;    0.000
916.189; 1819.850;  207.125;    0.000
916.364; 1785.850;  194.125;    0.000
916.539; 1742.850;  174.125;    0.000
916.715; 1699.850;  207.125;    0.000
916.890; 1744.850;  193.125;    0.000
917.065; 1738.850;  199.125;    0.000
917.240; 1737.850;  214.125;    0.000
917.416; 1709.850;  194.125;    0.000
917.591; 1768.850;  213.125;    0.000
917.766; 1734.850;  194.125;    0.000
917.941; 1693.850;  201.125;    0.000
918.116; 1811.850;  198.125;    0.000
918.292; 1759.850;  176.125;    0.000
918.467; 1722.850;  190.125;    0.000
918.642; 1775.850;  200.125;    0.000
918.817; 1757.850;  186.125;    0.000
918.992; 1690.850;  174.125;    0.000
919.167; 1770.850;  197.125;    0.000
919.342; 1825.850;  188.125;    0.000
919.517; 1786.850;  179.125;    0.000
919.692; 1763.850;  182.125;    0.000
919.867; 1861.850;  216.125;    0.000
920.041; 1803.850;  208.125;    0.000
920.216; 1887.850;  223.125;    0.000
920.391; 1873.850;  203.125;    0.000
920.566; 1804.850;  202.125;    0.000
920.741; 1929.850;  197.125;    0.000
920.915; 1924.850;  223.125;    0.000
921.090; 1866.850;  183.125;    0.000
921.265; 2085.850;  169.125;    0.000
921.439; 2198.850;  212.125;    0.000
921.614; 2059.850;  190.125;    0.000
921.789; 2032.850;  177.125;    0.000
921.963; 2047.850;  233.125;    0.000
922.138; 1985.850;  156.125;    0.000
922.312; 1927.850;  193.125;    0.000
922.487; 2008.850;  208.125;    0.000
922.661; 1958.850;  212.125;    0.000
922.836; 2060.850;  210.125;    0.000
923.010; 1997.850;  183.125;    0.000
923.185; 2012.850;  228.125;    0.000
923.359; 1992.850;  227.125;    0.000
923.534; 2013.850;  189.125;    0.000
923.708; 2044.850;  210.125;    0.000
923.882; 2013.850;  217.125;    0.000
924.057; 2020.850;  195.125;    0.000
924.231; 2032.850;  201.125;    0.000
924.405; 1931.850;  188.125;    0.000
924.579; 1994.850;  188.125;    0.000
924.753; 1893.850;  174.125;    0.000
924.928; 1974.850;  179.125;    0.000
925.102; 1940.850;  186.125;    0.000
925.276; 1958.850;  201.125;    0.000
925.450; 1933.850;  211.125;    0.000
925.624; 2001.850;  238.125;    0.000
925.798; 2029.850;  191.125;    0.000
925.972; 2066.850;  192.125;    0.000
926.146; 2127.850;  198.125;    0.000
926.320; 2271.850;  151.125;    0.000
926.494; 2427.850;  202.125;    0.000
926.668; 2467.850;  197.125;    0.000
926.842; 2617.850;  177.125;    0.000
927.016; 2538.850;  202.125;    0.000
927.190; 2432.850;  207.125;    0.000
927.363; 2300.850;  180.125;    0.000
927.537; 2424.850;  212.125;    0.000
927.711; 2309.850;  148.125;    0.000
927.885; 2285.850;  196.125;    0.000
928.058; 2192.850;  173.125;    0.000
928.232; 2258.850;  219.125;    0.000
928.406; 2162.850;  141.125;    0.000
928.579; 2225.850;  157.125;    0.000
928.753; 2209.850;  205.125;    0.000
928.927; 2198.850;  196.125;    0.000
929.100; 2147.850;  237.125;    0.000
929.274; 2079.850;  166.125;    0.000
929.447; 2077.850;  150.125;    0.000
929.621; 2035.850;  188.125;    0.000
929.794; 2083.850;  169.125;    0.000
929.968; 2022.850;  194.125;    0.000
930.141; 2046.850;  226.125;    0.000
930.315; 1977.850;  196.125;    0.000
930.488; 2012.850;  233.125;    0.000
930.661; 1974.850;  188.125;    0.000
930.835; 1965.850;  170.125;    0.000
931.008; 1887.850;  176.125;    0.000
931.181; 1897.850;  175.125;    0.000
931.354; 2010.850;  212.125;    0.000
931.528; 1925.850;  177.125;    0.000
931.701; 1913.850;  218.125;    0.000
931.874; 1940.850;  175.125;    0.000
932.047; 1867.850;  157.125;    0.000
932.220; 1851.850;  187.125;    0.000
932.393; 1897.850;  166.125;    0.000
932.566; 1799.850;  168.125;    0.000
932.739; 1904.850;  203.125;    0.000
932.912; 1854.850;  202.125;    0.000
933.085; 1818.850;  209.125;    0.000
933.258; 1783.850;  196.125;    0.000
933.431; 1824.850;  207.125;    0.000
933.604; 1800.850;  201.125;    0.000
933.777; 1879.850;  202.125;    0.000
933.950; 1853.850;  184.125;    0.000
934.123; 1782.850;  167.125;    0.000
934.296; 1850.850;  209.125;    0.000
934.468; 1900.850;  216.125;    0.000
934.641; 1808.850;  156.125;    0.000
934.814; 1875.850;  215.125;    0.000
934.987; 1783.850;  201.125;    0.000
935.159; 1915.850;  176.125;    0.000
935.332; 1854.850;  203.125;    0.000
935.505; 1844.850;  163.125;    0.000
935.677; 1842.850;  169.125;    0.000
935.850; 1754.850;  178.125;    0.000
936.022; 1822.850;  187.125;    0.000
936.195; 1853.850;  207.125;    0.000
936.367; 1872.850;  191.125;    0.000
936.540; 1863.850;  214.125;    0.000
936.712; 1823.850;  202.125;    0.000
936.885; 1857.850;  195.125;    0.000
937.057; 1871.850;  173.125;    0.000
937.229; 1854.850;  179.125;    0.000
937.402; 1830.850;  174.125;    0.000
937.574; 1888.850;  140.125;    0.000
937.746; 1897.850;  153.125;    0.000
937.919; 1914.850;  196.125;    0.000
938.091; 1965.850;  173.125;    0.000
938.263; 2069.850;  206.125;    0.000
938.435; 2202.850;  213.125;    0.000
938.608; 2417.850;  204.125;    0.000
938.780; 2627.850;  199.125;    0.000
938.952; 2767.850;  190.125;    0.000
939.124; 2705.850;  182.125;    0.000
939.296; 3043.850;  188.125;    0.000
939.468; 3101.850;  119.125;    0.000
939.640; 2892.850;  171.125;    0.000
939.812; 2694.850;  222.125;    0.000
939.984; 2459.850;  172.125;    0.000
940.156; 2286.850;  171.125;    0.000
940.328; 2237.850;  215.125;    0.000
940.500; 2218.850;  179.125;    0.000
940.672; 2185.850;  178.125;    0.000
940.843; 2096.850;  193.125;    0.000
941.015; 2005.850;  207.125;    0.000
941.187; 1959.850;  179.125;    0.000
941.359; 2035.850;  191.125;    0.000
941.531; 1971.850;  160.125;    0.000
941.702; 2000.850;  208.125;    0.000
941.874; 1945.850;  143.125;    0.000
942.046; 1904.850;  189.125;    0.000
942.217; 1868.850;  167.125;    0.000
942.389; 1872.850;  199.125;    0.000
942.560; 1878.850;  179.125;    0.000
942.732; 1777.850;  209.125;    0.000
942.904; 1864.850;  180.125;    0.000
943.075; 1788.850;  197.125;    0.000
943.247; 1866.850;  207.125;    0.000
943.418; 1769.850;  183.125;    0.000
943.589; 1769.850;  176.125;    0.000
943.761; 1786.850;  165.125;    0.000
943.932; 1806.850;  170.125;    0.000
944.104; 1827.850;  147.125;    0.000
944.275; 1793.850;  149.125;    0.000
944.446; 1771.850;  191.125;    0.000
944.617; 1737.850;  128.125;    0.000
944.789; 1871.850;  166.125;    0.000
944.960; 1770.850;  195.125;    0.000
945.131; 1683.850;  164.125;    0.000
945.302; 1854.850;  229.125;    0.000
945.473; 1723.850;  153.125;    0.000
945.645; 1778.850;  166.125;    0.000
945.816; 1819.850;  187.125;    0.000
945.987; 1836.850;  193.125;    0.000
946.158; 1777.850;  166.125;    0.000
946.329; 1766.850;  196.125;    0.000
946.500; 1805.850;  152.125;    0.000
946.671; 1824.850;  161.125;    0.000
946.842; 1738.850;  176.125;    0.000
947.013; 1779.850;  188.125;    0.000
947.183; 1757.850;  213.125;    0.000
947.354; 1773.850;  163.125;    0.000
947.525; 1744.850;  204.125;    0.000
947.696; 1723.850;  159.125;    0.000
947.867; 1806.850;  197.125;    0.000
948.037; 1711.850;  174.125;    0.000
948.208; 1765.850;  163.125;    0.000
948.379; 1742.850;  189.125;    0.000
948.550; 1730.850;  173.125;    0.000
948.720; 1665.850;  186.125;    0.000
948.891; 1762.850;  166.125;    0.000
949.061; 1681.850;  197.125;    0.000
949.232; 1669.850;  168.125;    0.000
949.403; 1685.850;  188.125;    0.000
949.573; 1745.850;  164.125;    0.000
949.744; 1735.850;  194.125;    0.000
949.914; 1763.850;  154.125;    0.000
950.085; 1661.850;  197.125;    0.000
950.255; 1685.850;  187.125;    0.000
950.425; 1833.850;  193.125;    0.000
950.596; 1728.850;  182.125;    0.000
950.766; 1682.850;  202.125;    0.000
950.936; 1725.850;  230.125;    0.000
951.107; 1803.850;  133.125;    0.000
951.277; 1743.850;  234.125;    0.000
951.447; 1714.850;  200.125;    0.000
951.617; 1783.850;  212.125;    0.000
951.788; 1631.850;  176.125;    0.000
951.958; 1698.850;  218.125;    0.000
952.128; 1736.850;  198.125;    0.000
952.298; 1717.850;  185.125;    0.000
952.468; 1748.850;  231.125;    0.000
952.638; 1704.850;  213.125;    0.000
952.808; 1663.850;  218.125;    0.000
952.978; 1708.850;  252.125;    0.000
953.148; 1699.850;  200.125;    0.000
953.318; 1704.850;  243.125;    0.000
953.488; 1642.850;  140.125;    0.000
953.658; 1778.850;  208.125;    0.000
953.828; 1680.850;  179.125;    0.000
953.998; 1666.850;  211.125;    0.000
954.167; 1678.850;  197.125;    0.000
954.337; 1737.850;  217.125;    0.000
954.507; 1727.850;  219.125;    0.000
954.677; 1748.850;  201.125;    0.000
954.846; 1683.850;  241.125;    0.000
955.016; 1689.850;  222.125;    0.000
955.186; 1739.850;  200.125;    0.000
955.355; 1700.850;  247.125;    0.000
955.525; 1736.850;  212.125;    0.000
955.695; 1700.850;  200.125;    0.000
955.864; 1739.850;  196.125;    0.000
956.034; 1706.850;  195.125;    0.000
956.203; 1686.850;  243.125;    0.000
956.373; 1576.850;  197.125;    0.000
956.542; 1662.850;  237.125;    0.000
956.711; 1636.850;  249.125;    0.000
956.881; 1667.850;  235.125;    0.000
957.050; 1699.850;  259.125;    0.000
957.220; 1682.850;  234.125;    0.000
957.389; 1645.850;  250.125;    0.000
957.558; 1708.850;  214.125;    0.000
957.727; 1708.850;  225.125;    0.000
957.897; 1664.850;  211.125;    0.000
958.066; 1689.850;  200.125;    0.000
958.235; 1621.850;  202.125;    0.000
958.404; 1690.850;  242.125;    0.000
958.573; 1654.850;  222.125;    0.000
958.743; 1586.850;  191.125;    0.000
958.912; 1663.850;  183.125;    0.000
959.081; 1679.850;  212.125;    0.000
959.250; 1649.850;  192.125;    0.000
959.419; 1627.850;  238.125;    0.000
959.588; 1659.850;  205.125;    0.000
959.757; 1662.850;  213.125;    0.000
959.926; 1638.850;  217.125;    0.000
960.094; 1643.850;  215.125;    0.000
960.263; 1648.850;  220.125;    0.000
960.432; 1606.850;  164.125;    0.000
960.601; 1667.850;  228.125;    0.000
960.770; 1573.850;  176.125;    0.000
960.939; 1626.850;  201.125;    0.000
961.107; 1554.850;  183.125;    0.000
961.276; 1623.850;  199.125;    0.000
961.445; 1634.850;  205.125;    0.000
961.613; 1581.850;  183.125;    0.000
961.782; 1613.850;  216.125;    0.000
961.951; 1577.850;  169.125;    0.000
962.119; 1654.850;  211.125;    0.000
962.288; 1639.850;  204.125;    0.000
962.456; 1587.850;  187.125;    0.000
962.625; 1673.850;  223.125;    0.000
962.793; 1669.850;  200.125;    0.000
962.962; 1667.850;  185.125;    0.000
963.130; 1628.850;  195.125;    0.000
963.298; 1612.850;  187.125;    0.000
963.467; 1627.850;  247.125;    0.000
963.635; 1649.850;  165.125;    0.000
963.803; 1652.850;  192.125;    0.000
963.972; 1638.850;  191.125;    0.000
964.140; 1652.850;  163.125;    0.000
964.308; 1620.850;  161.125;    0.000
964.477; 1637.850;  182.125;    0.000
964.645; 1700.850;  195.125;    0.000
964.813; 1649.850;  165.125;    0.000
964.981; 1542.850;  193.125;    0.000
965.149; 1700.850;  174.125;    0.000
965.317; 1599.850;  194.125;    0.000
965.485; 1670.850;  209.125;    0.000
965.653; 1679.850;  210.125;    0.000
965.821; 1615.850;  194.125;    0.000
965.989; 1618.850;  182.125;    0.000
966.157; 1602.850;  180.125;    0.000
966.325; 1587.850;  198.125;    0.000
966.493; 1566.850;  182.125;    0.000
966.661; 1672.850;  200.125;    0.000
966.829; 1569.850;  190.125;    0.000
966.996; 1645.850;  221.125;    0.000
967.164; 1604.850;  176.125;    0.000
967.332; 1689.850;  228.125;    0.000
967.500; 1604.850;  177.125;    0.000
967.667; 1681.850;  202.125;    0.000
967.835; 1605.850;  220.125;    0.000
968.003; 1576.850;  183.125;    0.000
968.170; 1591.850;  163.125;    0.000
968.338; 1628.850;  162.125;    0.000
968.505; 1617.850;  198.125;    0.000
968.673; 1667.850;  213.125;    0.000
968.841; 1628.850;  131.125;    0.000
969.008; 1550.850;  225.125;    0.000
969.175; 1660.850;  202.125;    0.000
969.343; 1595.850;  222.125;    0.000
969.510; 1664.850;  230.125;    0.000
969.678; 1684.850;  161.125;    0.000
969.845; 1701.850;  208.125;    0.000
970.012; 1636.850;  186.125;    0.000
970.180; 1708.850;  226.125;    0.000
970.347; 1686.850;  222.125;    0.000
970.514; 1670.850;  206.125;    0.000
970.681; 1699.850;  173.125;    0.000
970.849; 1668.850;  190.125;    0.000
971.016; 1692.850;  220.125;    0.000
971.183; 1693.850;  202.125;    0.000
971.350; 1745.850;  196.125;    0.000
971.517; 1684.850;  218.125;    0.000
971.684; 1688.850;  228.125;    0.000
971.851; 1758.850;  235.125;    0.000
972.018; 1741.850;  200.125;    0.000
972.185; 1705.850;  183.125;    0.000
972.352; 1708.850;  216.125;    0.000
972.519; 1752.850;  227.125;    0.000
972.686; 1639.850;  209.125;    0.000
972.853; 1667.850;  157.125;    0.000
973.020; 1619.850;  179.125;    0.000
973.186; 1690.850;  173.125;    0.000
973.353; 1600.850;  189.125;    0.000
973.520; 1650.850;  228.125;    0.000
973.687; 1660.850;  190.125;    0.000
973.853; 1676.850;  197.125;    0.000
974.020; 1699.850;  208.125;    0.000
974.187; 1798.850;  158.125;    0.000
974.353; 1695.850;  201.125;    0.000
974.520; 1666.850;  158.125;    0.000
974.687; 1754.850;  192.125;    0.000
974.853; 1714.850;  177.125;    0.000
975.020; 1737.850;  212.125;    0.000
975.186; 1612.850;  200.125;    0.000
975.353; 1669.850;  208.125;    0.000
975.519; 1675.850;  169.125;    0.000
975.685; 1681.850;  176.125;    0.000
975.852; 1625.850;  201.125;    0.000
976.018; 1654.850;  209.125;    0.000
976.184; 1685.850;  197.125;    0.000
976.351; 1658.850;  196.125;    0.000
976.517; 1647.850;  243.125;    0.000
976.683; 1595.850;  210.125;    0.000
976.849; 1673.850;  226.125;    0.000
977.016; 1639.850;  218.125;    0.000
977.182; 1713.850;  213.125;    0.000
977.348; 1638.850;  205.125;    0.000
977.514; 1632.850;  210.125;    0.000
977.680; 1613.850;  226.125;    0.000
977.846; 1582.850;  206.125;    0.000
978.012; 1571.850;  222.125;    0.000
978.178; 1569.850;  216.125;    0.000
978.344; 1628.850;  172.125;    0.000
978.510; 1549.850;  210.125;    0.000
978.676; 1555.850;  184.125;    0.000
978.842; 1586.850;  190.125;    0.000
979.008; 1587.850;  203.125;    0.000
979.174; 1578.850;  211.125;    0.000
979.340; 1589.850;  190.125;    0.000
979.505; 1608.850;  235.125;    0.000
979.671; 1569.850;  182.125;    0.000
979.837; 1680.850;  235.125;    0.000
980.003; 1635.850;  183.125;    0.000
980.168; 1625.850;  220.125;    0.000
980.334; 1674.850;  161.125;    0.000
980.499; 1651.850;  212.125;    0.000
980.665; 1748.850;  219.125;    0.000
980.831; 1666.850;  201.125;    0.000
980.996; 1731.850;  189.125;    0.000
981.162; 1751.850;  222.125;    0.000
981.327; 1696.850;  173.125;    0.000
981.493; 1716.850;  197.125;    0.000
981.658; 1635.850;  178.125;    0.000
981.823; 1656.850;  196.125;    0.000
981.989; 1650.850;  248.125;    0.000
982.154; 1654.850;  222.125;    0.000
982.319; 1702.850;  226.125;    0.000
982.485; 1694.850;  188.125;    0.000
982.650; 1758.850;  203.125;    0.000
982.815; 1713.850;  237.125;    0.000
982.980; 1739.850;  210.125;    0.000
983.146; 1739.850;  202.125;    0.000
983.311; 1667.850;  195.125;    0.000
983.476; 1689.850;  207.125;    0.000
983.641; 1615.850;  198.125;    0.000
983.806; 1700.850;  136.125;    0.000
983.971; 1730.850;  248.125;    0.000
984.136; 1604.850;  213.125;    0.000
984.301; 1717.850;  181.125;    0.000
984.466; 1648.850;  210.125;    0.000
984.631; 1652.850;  219.125;    0.000
984.796; 1659.850;  207.125;    0.000
984.961; 1706.850;  214.125;    0.000
985.126; 1671.850;  218.125;    0.000
985.291; 1696.850;  214.125;    0.000
985.455; 1656.850;  187.125;    0.000
985.620; 1606.850;  191.125;    0.000
985.785; 1645.850;  190.125;    0.000
985.950; 1674.850;  184.125;    0.000
986.114; 1732.850;  242.125;    0.000
986.279; 1692.850;  251.125;    0.000
986.444; 1707.850;  177.125;    0.000
986.608; 1769.850;  216.125;    0.000
986.773; 1737.850;  211.125;    0.000
986.937; 1750.850;  244.125;    0.000
987.102; 1726.850;  187.125;    0.000
987.266; 1748.850;  178.125;    0.000
987.431; 1827.850;  205.125;    0.000
987.595; 1735.850;  221.125;    0.000
987.760; 1755.850;  205.125;    0.000
987.924; 1729.850;  195.125;    0.000
988.088; 1718.850;  184.125;    0.000
988.253; 1696.850;  188.125;    0.000
988.417; 1734.850;  196.125;    0.000
988.581; 1686.850;  218.125;    0.000
988.746; 1715.850;  203.125;    0.000
988.910; 1699.850;  195.125;    0.000
989.074; 1670.850;  187.125;    0.000
989.238; 1673.850;  243.125;    0.000
989.402; 1705.850;  242.125;    0.000
989.566; 1758.850;  205.125;    0.000
989.731; 1710.850;  195.125;    0.000
989.895; 1665.850;  211.125;    0.000
990.059; 1673.850;  175.125;    0.000
990.223; 1709.850;  176.125;    0.000
990.387; 1733.850;  234.125;    0.000
990.551; 1705.850;  231.125;    0.000
990.714; 1743.850;  209.125;    0.000
990.878; 1757.850;  187.125;    0.000
991.042; 1745.850;  183.125;    0.000
991.206; 1793.850;  216.125;    0.000
991.370; 1819.850;  257.125;    0.000
991.534; 1722.850;  188.125;    0.000
991.697; 1729.850;  203.125;    0.000
991.861; 1763.850;  219.125;    0.000
992.025; 1727.850;  221.125;    0.000
992.188; 1772.850;  188.125;    0.000
992.352; 1723.850;  205.125;    0.000
992.516; 1781.850;  189.125;    0.000
992.679; 1692.850;  207.125;    0.000
992.843; 1714.850;  210.125;    0.000
993.006; 1666.850;  191.125;    0.000
993.170; 1700.850;  228.125;    0.000
993.333; 1683.850;  142.125;    0.000
993.497; 1688.850;  175.125;    0.000
993.660; 1799.850;  220.125;    0.000
993.824; 1751.850;  193.125;    0.000
993.987; 1840.850;  219.125;    0.000
994.150; 1776.850;  166.125;    0.000
994.314; 1754.850;  207.125;    0.000
994.477; 1692.850;  227.125;    0.000
994.640; 1772.850;  210.125;    0.000
994.803; 1702.850;  219.125;    0.000
994.967; 1714.850;  192.125;    0.000
995.130; 1715.850;  197.125;    0.000
995.293; 1680.850;  189.125;    0.000
995.456; 1796.850;  180.125;    0.000
995.619; 1721.850;  239.125;    0.000
995.782; 1737.850;  209.125;    0.000
995.945; 1716.850;  216.125;    0.000
996.108; 1774.850;  198.125;    0.000
996.271; 1668.850;  205.125;    0.000
996.434; 1753.850;  205.125;    0.000
996.597; 1707.850;  208.125;    0.000
996.760; 1688.850;  205.125;    0.000
996.923; 1625.850;  174.125;    0.000
997.086; 1642.850;  198.125;    0.000
997.248; 1687.850;  214.125;    0.000
997.411; 1720.850;  237.125;    0.000
997.574; 1728.850;  182.125;    0.000
997.737; 1683.850;  188.125;    0.000
997.899; 1693.850;  216.125;    0.000
998.062; 1672.850;  210.125;    0.000
998.225; 1692.850;  202.125;    0.000
998.387; 1672.850;  202.125;    0.000
998.550; 1638.850;  193.125;    0.000
998.712; 1683.850;  225.125;    0.000
998.875; 1826.850;  228.125;    0.000
999.037; 1746.850;  186.125;    0.000
999.200; 1698.850;  212.125;    0.000
999.362; 1753.850;  234.125;    0.000
999.525; 1740.850;  170.125;    0.000
999.687; 1639.850;  191.125;    0.000
999.849; 1765.850;  218.125;    0.000
1000.012; 1793.850;  187.125;    0.000
1000.174; 1765.850;  216.125;    0.000
1000.336; 1676.850;  194.125;    0.000
1000.499; 1796.850;  209.125;    0.000
1000.661; 1761.850;  208.125;    0.000
1000.823; 1707.850;  197.125;    0.000
1000.985; 1801.850;  201.125;    0.000
1001.147; 1854.850;  234.125;    0.000
1001.309; 1784.850;  180.125;    0.000
1001.471; 1893.850;  223.125;    0.000
1001.633; 1920.850;  198.125;    0.000
1001.796; 1787.850;  200.125;    0.000
1001.958; 1865.850;  204.125;    0.000
1002.119; 1910.850;  193.125;    0.000
1002.281; 1935.850;  205.125;    0.000
1002.443; 2030.850;  236.125;    0.000
1002.605; 2096.850;  197.125;    0.000
1002.767; 2253.850;  223.125;    0.000
1002.929; 2291.850;  220.125;    0.000
1003.091; 2474.850;  214.125;    0.000
1003.252; 2625.850;  233.125;    0.000
1003.414; 2780.850;  230.125;    0.000
1003.576; 2917.850;  203.125;    0.000
1003.738; 3062.850;  201.125;    0.000
1003.899; 3201.850;  222.125;    0.000
1004.061; 3421.850;  208.125;    0.000
1004.222; 3612.850;  194.125;    0.000
1004.384; 3771.850;  205.125;    0.000
1004.546; 3905.850;  162.125;    0.000
1004.707; 3911.850;  232.125;    0.000
1004.869; 4055.850;  223.125;    0.000
1005.030; 4044.850;  204.125;    0.000
1005.191; 3882.850;  214.125;    0.000
1005.353; 3699.850;  226.125;    0.000
1005.514; 3516.850;  201.125;    0.000
1005.675; 3278.850;  205.125;    0.000
1005.837; 3096.850;  235.125;    0.000
1005.998; 2987.850;  210.125;    0.000
1006.159; 2990.850;  214.125;    0.000
1006.321; 2986.850;  236.125;    0.000
1006.482; 3245.850;  214.125;    0.000
1006.643; 3298.850;  213.125;    0.000
1006.804; 3420.850;  204.125;    0.000
1006.965; 3679.850;  212.125;    0.000
1007.126; 3787.850;  251.125;    0.000
1007.287; 3799.850;  238.125;    0.000
1007.448; 3733.850;  198.125;    0.000
1007.609; 3552.850;  241.125;    0.000
1007.770; 3326.850;  213.125;    0.000
1007.931; 3226.850;  225.125;    0.000
1008.092; 3456.850;  204.125;    0.000
1008.253; 3527.850;  220.125;    0.000
1008.414; 3684.850;  180.125;    0.000
1008.575; 3765.850;  224.125;    0.000
1008.736; 3685.850;  164.125;    0.000
1008.896; 3568.850;  247.125;    0.000
1009.057; 3496.850;  263.125;    0.000
1009.218; 3420.850;  233.125;    0.000
1009.379; 3595.850;  207.125;    0.000
1009.539; 3715.850;  221.125;    0.000
1009.700; 3904.850;  209.125;    0.000
1009.860; 3742.850;  217.125;    0.000
1010.021; 3806.850;  182.125;    0.000
1010.182; 3660.850;  233.125;    0.000
1010.342; 3598.850;  210.125;    0.000
1010.503; 3714.850;  232.125;    0.000
1010.663; 3909.850;  228.125;    0.000
1010.823; 3895.850;  212.125;    0.000
1010.984; 3866.850;  244.125;    0.000
1011.144; 3907.850;  200.125;    0.000
1011.305; 3865.850;  237.125;    0.000
1011.465; 4015.850;  225.125;    0.000
1011.625; 4032.850;  215.125;    0.000
1011.785; 4193.850;  235.125;    0.000
1011.946; 4158.850;  231.125;    0.000
1012.106; 4065.850;  206.125;    0.000
1012.266; 4074.850;  218.125;    0.000
1012.426; 4100.850;  249.125;    0.000
1012.586; 4209.850;  217.125;    0.000
1012.746; 4065.850;  231.125;    0.000
1012.906; 4047.850;  230.125;    0.000
1013.066; 4071.850;  260.125;    0.000
1013.226; 4108.850;  206.125;    0.000
1013.386; 4161.850;  220.125;    0.000
1013.546; 4153.850;  233.125;    0.000
1013.706; 4036.850;  194.125;    0.000
1013.866; 4040.850;  209.125;    0.000
1014.026; 4040.850;  204.125;    0.000
1014.186; 3893.850;  203.125;    0.000
1014.346; 4013.850;  244.125;    0.000
1014.505; 4232.850;  206.125;    0.000
1014.665; 4106.850;  210.125;    0.000
1014.825; 4310.850;  235.125;    0.000
1014.985; 4153.850;  227.125;    0.000
1015.144; 4431.850;  237.125;    0.000
1015.304; 4688.850;  196.125;    0.000
1015.464; 4485.850;  228.125;    0.000
1015.623; 4581.850;  235.125;    0.000
1015.783; 4999.850;  187.125;    0.000
1015.942; 5394.850;  184.125;    0.000
1016.102; 5388.850;  245.125;    0.000
1016.261; 5239.850;  203.125;    0.000
1016.420; 5703.850;  209.125;    0.000
1016.580; 6410.850;  235.125;    0.000
1016.739; 6317.850;  175.125;    0.000
1016.899; 5970.850;  220.125;    0.000
1017.058; 6210.850;  219.125;    0.000
1017.217; 6904.850;  238.125;    0.000
1017.376; 6329.850;  235.125;    0.000
1017.536; 5693.850;  195.125;    0.000
1017.695; 5869.850;  215.125;    0.000
1017.854; 5953.850;  231.125;    0.000
1018.013; 5864.850;  184.125;    0.000
1018.172; 5467.850;  179.125;    0.000
1018.331; 5371.850;  205.125;    0.000
1018.490; 5841.850;  203.125;    0.000
1018.649; 6253.850;  261.125;    0.000
1018.808; 6602.850;  253.125;    0.000
1018.967; 6504.850;  201.125;    0.000
1019.126; 6254.850;  216.125;    0.000
1019.285; 6371.850;  169.125;    0.000
1019.444; 6615.850;  226.125;    0.000
1019.603; 6165.850;  252.125;    0.000
1019.762; 5776.850;  206.125;    0.000
1019.921; 6077.850;  235.125;    0.000
1020.079; 6422.850;  192.125;    0.000
1020.238; 7158.850;  226.125;    0.000
1020.397; 6701.850;  231.125;    0.000
1020.555; 6132.850;  218.125;    0.000
1020.714; 6229.850;  235.125;    0.000
1020.873; 6735.850;  229.125;    0.000
1021.031; 7015.850;  234.125;    0.000
1021.190; 6513.850;  223.125;    0.000
1021.348; 6120.850;  186.125;    0.000
1021.507; 6825.850;  201.125;    0.000
1021.665; 7490.850;  222.125;    0.000
1021.824; 7102.850;  208.125;    0.000
1021.982; 6457.850;  209.125;    0.000
1022.141; 6330.850;  224.125;    0.000
1022.299; 7185.850;  214.125;    0.000
1022.457; 7929.850;  176.125;    0.000
1022.616; 7339.850;  211.125;    0.000
1022.774; 6429.850;  218.125;    0.000
1022.932; 6543.850;  205.125;    0.000
1023.090; 7551.850;  246.125;    0.000
1023.249; 7955.850;  249.125;    0.000
1023.407; 7210.850;  235.125;    0.000
1023.565; 6555.850;  202.125;    0.000
1023.723; 6890.850;  210.125;    0.000
1023.881; 7892.850;  206.125;    0.000
1024.039; 8074.850;  240.125;    0.000
1024.197; 7295.850;  275.125;    0.000
1024.355; 6686.850;  228.125;    0.000
1024.513; 6831.850;  234.125;    0.000
1024.671; 7932.850;  222.125;    0.000
1024.829; 8231.850;  241.125;    0.000
1024.987; 7570.850;  209.125;    0.000
1025.145; 6803.850;  227.125;    0.000
1025.302; 6974.850;  208.125;    0.000
1025.460; 7816.850;  210.125;    0.000
1025.618; 8412.850;  192.125;    0.000
1025.776; 8011.850;  220.125;    0.000
1025.933; 6972.850;  223.125;    0.000
1026.091; 7141.850;  189.125;    0.000
1026.249; 7668.850;  210.125;    0.000
1026.406; 8650.850;  231.125;    0.000
1026.564; 8272.850;  247.125;    0.000
1026.721; 7702.850;  213.125;    0.000
1026.879; 7121.850;  208.125;    0.000
1027.036; 7816.850;  222.125;    0.000
1027.194; 8529.850;  253.125;    0.000
1027.351; 8754.850;  239.125;    0.000
1027.509; 8205.850;  232.125;    0.000
1027.666; 7349.850;  251.125;    0.000
1027.823; 7670.850;  212.125;    0.000
1027.981; 8313.850;  260.125;    0.000
1028.138; 8779.850;  263.125;    0.000
1028.295; 8429.850;  251.125;    0.000
1028.452; 7865.850;  249.125;    0.000
1028.609; 7747.850;  259.125;    0.000
1028.767; 8073.850;  255.125;    0.000
1028.924; 8658.850;  201.125;    0.000
1029.081; 8703.850;  217.125;    0.000
1029.238; 8749.850;  230.125;    0.000
1029.395; 8100.850;  263.125;    0.000
1029.552; 8045.850;  207.125;    0.000
1029.709; 8535.850;  220.125;    0.000
1029.866; 8862.850;  214.125;    0.000
1030.023; 8717.850;  224.125;    0.000
1030.180; 8174.850;  209.125;    0.000
1030.337; 8175.850;  269.125;    0.000
1030.494; 8424.850;  207.125;    0.000
1030.650; 8535.850;  230.125;    0.000
1030.807; 9139.850;  217.125;    0.000
1030.964; 8517.850;  212.125;    0.000
1031.121; 8652.850;  220.125;    0.000
1031.277; 8384.850;  233.125;    0.000
1031.434; 8788.850;  266.125;    0.000
1031.591; 9314.850;  270.125;    0.000
1031.747; 9295.850;  229.125;    0.000
1031.904; 9084.850;  227.125;    0.000
1032.060; 8808.850;  210.125;    0.000
1032.217; 8556.850;  218.125;    0.000
1032.373; 9883.850;  190.125;    0.000
1032.530; 9624.850;  236.125;    0.000
1032.686;10368.850;  199.125;    0.000
1032.843;10358.850;  216.125;    0.000
1032.999; 9474.850;  204.125;    0.000
1033.155;10170.850;  208.125;    0.000
1033.312;10282.850;  231.125;    0.000
1033.468;12128.850;  213.125;    0.000
1033.624;12825.850;  235.125;    0.000
1033.780;12953.850;  233.125;    0.000
1033.937;13293.850;  201.125;    0.000
1034.093;11953.850;  233.125;    0.000
1034.249;12632.850;  214.125;    0.000
1034.405;12697.850;  245.125;    0.000
1034.561;13631.850;  228.125;    0.000
1034.717;14327.850;  234.125;    0.000
1034.873;13849.850;  248.125;    0.000
1035.029;13946.850;  220.125;    0.000
1035.185;13031.850;  294.125;    0.000
1035.341;12396.850;  231.125;    0.000
1035.497;14198.850;  254.125;    0.000
1035.653;14367.850;  225.125;    0.000
1035.809;15611.850;  243.125;    0.000
1035.964;17744.850;  216.125;    0.000
1036.120;15864.850;  199.125;    0.000
1036.276;15833.850;  220.125;    0.000
1036.432;15730.850;  210.125;    0.000
1036.587;14294.850;  225.125;    0.000
1036.743;15876.850;  245.125;    0.000
1036.899;17014.850;  219.125;    0.000
1037.054;17627.850;  157.125;    0.000
1037.210;18887.850;  208.125;    0.000
1037.365;19525.850;  230.125;    0.000
1037.521;17052.850;  236.125;    0.000
1037.676;17221.850;  193.125;    0.000
1037.832;15752.850;  246.125;    0.000
1037.987;16634.850;  231.125;    0.000
1038.143;16859.850;  234.125;    0.000
1038.298;19956.850;  219.125;    0.000
1038.453;19345.850;  230.125;    0.000
1038.609;21004.850;  254.125;    0.000
1038.764;21293.850;  249.125;    0.000
1038.919;19008.850;  224.125;    0.000
1039.074;19448.850;  209.125;    0.000
1039.229;17883.850;  214.125;    0.000
1039.385;18014.850;  268.125;    0.000
1039.540;19127.850;  268.125;    0.000
1039.695;20606.850;  229.125;    0.000
1039.850;22574.850;  252.125;    0.000
1040.005;23322.850;  248.125;    0.000
1040.160;25605.850;  215.125;    0.000
1040.315;23708.850;  239.125;    0.000
1040.470;22309.850;  210.125;    0.000
1040.625;21099.850;  239.125;    0.000
1040.780;20927.850;  251.125;    0.000
1040.935;20763.850;  247.125;    0.000
1041.089;21826.850;  215.125;    0.000
1041.244;25173.850;  210.125;    0.000
1041.399;25734.850;  237.125;    0.000
1041.554;26618.850;  253.125;    0.000
1041.708;30504.850;  227.125;    0.000
1041.863;30419.850;  219.125;    0.000
1042.018;28103.850;  246.125;    0.000
1042.172;27557.850;  236.125;    0.000
1042.327;25573.850;  272.125;    0.000
1042.481;25448.850;  197.125;    0.000
1042.636;26810.850;  213.125;    0.000
1042.791;26694.850;  250.125;    0.000
1042.945;31151.850;  267.125;    0.000
1043.099;35085.852;  257.125;    0.000
1043.254;34308.852;  206.125;    0.000
1043.408;35813.852;  266.125;    0.000
1043.563;38923.852;  232.125;    0.000
1043.717;36430.852;  241.125;    0.000
1043.871;33799.852;  248.125;    0.000
1044.025;32566.850;  234.125;    0.000
1044.180;32611.850;  222.125;    0.000
1044.334;32634.850;  235.125;    0.000
1044.488;33437.852;  270.125;    0.000
1044.642;35454.852;  215.125;    0.000
1044.796;39341.852;  212.125;    0.000
1044.950;42796.852;  228.125;    0.000
1045.104;46453.852;  223.125;    0.000
1045.258;48385.852;  236.125;    0.000
1045.412;45301.852;  225.125;    0.000
1045.566;45597.852;  245.125;    0.000
1045.720;43986.852;  201.125;    0.000
1045.874;42099.852;  229.125;    0.000
1046.028;37463.852;  243.125;    0.000
1046.182;36243.852;  212.125;    0.000
1046.336;38615.852;  256.125;    0.000
1046.489;39887.852;  234.125;    0.000
1046.643;41254.852;  246.125;    0.000
1046.797;46342.852;  219.125;    0.000
1046.951;47906.852;  231.125;    0.000
1047.104;48010.852;  285.125;    0.000
1047.258;51882.852;  256.125;    0.000
1047.411;53997.852;  232.125;    0.000
1047.565;52381.852;  269.125;    0.000
1047.719;49857.852;  213.125;    0.000
1047.872;47975.852;  210.125;    0.000
1048.026;46701.852;  251.125;    0.000
1048.179;46287.852;  213.125;    0.000
1048.332;45141.852;  212.125;    0.000
1048.486;45139.852;  218.125;    0.000
1048.639;46368.852;  218.125;    0.000
1048.792;44773.852;  247.125;    0.000
1048.946;48568.852;  208.125;    0.000
1049.099;54387.852;  247.125;    0.000
1049.252;55690.852;  274.125;    0.000
1049.406;52422.852;  232.125;    0.000
1049.559;52769.852;  251.125;    0.000
1049.712;60796.852;  243.125;    0.000
1049.865;65048.852;  219.125;    0.000
1050.018;63601.852;  216.125;    0.000
1050.171;56689.852;  237.125;    0.000
1050.324;54941.852;  291.125;    0.000
1050.477;58376.852;  241.125;    0.000
1050.630;63292.852;  245.125;    0.000
1050.783;63923.852;  213.125;    0.000
1050.936;58139.852;  246.125;    0.000
1051.089;54271.852;  255.125;    0.000
1051.242;59338.852;  228.125;    0.000
1051.394;63220.852;  276.125;    0.000
1051.547;64030.852;  246.125;    0.000
1051.700;61174.852;  252.125;    0.000
1051.853;59610.852;  267.125;    0.000
1052.005;62551.852;  261.125;    0.000
1052.158;65048.852;  313.125;    0.000
1052.311;65048.852;  264.125;    0.000
1052.463;65048.852;  271.125;    0.000
1052.616;65048.852;  291.125;    0.000
1052.768;59938.852;  298.125;    0.000
1052.921;57338.852;  262.125;    0.000
1053.073;62626.852;  307.125;    0.000
1053.226;65048.852;  301.125;    0.000
1053.378;65048.852;  309.125;    0.000
1053.531;65048.852;  280.125;    0.000
1053.683;65048.852;  258.125;    0.000
1053.835;65048.852;  267.125;    0.000
1053.988;55277.852;  294.125;    0.000
1054.140; 9918.850;  292.125;    0.000
1054.292; 2275.850;  249.125;    0.000
1054.444; 1835.850;  288.125;    0.000
1054.596; 1661.850;  275.125;    0.000
1054.749; 1491.850;  284.125;    0.000
1054.901; 1365.850;  291.125;    0.000
1055.053; 1300.850;  274.125;    0.000
1055.205; 1258.850;  313.125;    0.000
1055.357; 1129.850;  309.125;    0.000
1055.509; 1062.850;  283.125;    0.000
1055.661; 1017.850;  341.125;    0.000
1055.813;  988.850;  288.125;    0.000
1055.965; 1027.850;  300.125;    0.000
1056.116;  933.850;  296.125;    0.000
1056.268;  949.850;  319.125;    0.000
1056.420;  985.850;  298.125;    0.000

