
Integration time [ms]:   1.000
Averaging Nr. [scans]: 1
Smoothing Nr. [pixels]: 0
Data measured with spectrometer [name]: NIR
Wave   ;Sample   ;Dark     ;Reference
[nm]   ;[counts] ;[counts] ;[counts] 

691.496;  -26.700;  163.125;    0.000
691.696;  -15.700;  208.125;    0.000
691.896;  -64.700;  111.125;    0.000
692.096;  -20.700;  178.125;    0.000
692.296;  -94.700;   93.125;    0.000
692.496;    4.300;  161.125;    0.000
692.695;  -72.700;  135.125;    0.000
692.895;  -22.700;  179.125;    0.000
693.095;  -50.700;  158.125;    0.000
693.295;  -21.700;  168.125;    0.000
693.495;  -42.700;  170.125;    0.000
693.695;  -26.700;  155.125;    0.000
693.894;  -39.700;  151.125;    0.000
694.094;  -27.700;  164.125;    0.000
694.294;  -69.700;  129.125;    0.000
694.494;  240.300;  170.125;    0.000
694.693; 2478.300;  137.125;    0.000
694.893; 2723.300;  163.125;    0.000
695.093; 2757.300;  121.125;    0.000
695.293; 2706.300;  144.125;    0.000
695.492; 2785.300;   88.125;    0.000
695.692; 2900.300;  148.125;    0.000
695.891; 2755.300;  125.125;    0.000
696.091; 2802.300;  184.125;    0.000
696.291; 2830.300;  153.125;    0.000
696.490; 2824.300;  131.125;    0.000
696.690; 2959.300;  123.125;    0.000
696.889; 2909.300;  180.125;    0.000
697.089; 2794.300;  147.125;    0.000
697.288; 2902.300;  164.125;    0.000
697.488; 2851.300;  133.125;    0.000
697.687; 2863.300;  153.125;    0.000
697.887; 2874.300;  119.125;    0.000
698.086; 2914.300;  143.125;    0.000
698.286; 2912.300;  125.125;    0.000
698.485; 2799.300;  120.125;    0.000
698.684; 3021.300;  116.125;    0.000
698.884; 2898.300;  131.125;    0.000
699.083; 2832.300;  115.125;    0.000
699.282; 2963.300;  144.125;    0.000
699.482; 2823.300;  109.125;    0.000
699.681; 2942.300;  115.125;    0.000
699.880; 2972.300;  125.125;    0.000
700.080; 3015.300;  139.125;    0.000
700.279; 2875.300;  111.125;    0.000
700.478; 2929.300;  146.125;    0.000
700.677; 3008.300;  131.125;    0.000
700.877; 2885.300;  156.125;    0.000
701.076; 3027.300;  153.125;    0.000
701.275; 2877.300;  123.125;    0.000
701.474; 2920.300;  150.125;    0.000
701.673; 2891.300;   97.125;    0.000
701.872; 3028.300;  139.125;    0.000
702.071; 2983.300;  108.125;    0.000
702.271; 2890.300;  125.125;    0.000
702.470; 2963.300;  108.125;    0.000
702.669; 2909.300;  102.125;    0.000
702.868; 3007.300;  153.125;    0.000
703.067; 3021.300;  145.125;    0.000
703.266; 2972.300;   96.125;    0.000
703.465; 3033.300;  165.125;    0.000
703.664; 2972.300;  106.125;    0.000
703.863; 3027.300;  144.125;    0.000
704.062; 2992.300;   86.125;    0.000
704.260; 2957.300;   99.125;    0.000
704.459; 3034.300;  112.125;    0.000
704.658; 3043.300;  106.125;    0.000
704.857; 3075.300;  129.125;    0.000
705.056; 3001.300;   98.125;    0.000
705.255; 3120.300;   97.125;    0.000
705.454; 3072.300;  101.125;    0.000
705.652; 3039.300;  142.125;    0.000
705.851; 2975.300;  100.125;    0.000
706.050; 2978.300;  162.125;    0.000
706.249; 3023.300;  146.125;    0.000
706.447; 3197.300;  120.125;    0.000
706.646; 3031.300;  114.125;    0.000
706.845; 3101.300;  117.125;    0.000
707.043; 3124.300;  136.125;    0.000
707.242; 2983.300;   90.125;    0.000
707.441; 3100.300;  131.125;    0.000
707.639; 3095.300;  120.125;    0.000
707.838; 3140.300;  122.125;    0.000
708.037; 3111.300;  109.125;    0.000
708.235; 3073.300;  122.125;    0.000
708.434; 3079.300;  109.125;    0.000
708.632; 3043.300;   47.125;    0.000
708.831; 3191.300;  122.125;    0.000
709.029; 3049.300;  130.125;    0.000
709.228; 3060.300;  112.125;    0.000
709.426; 3169.300;  128.125;    0.000
709.625; 3133.300;  129.125;    0.000
709.823; 3169.300;  130.125;    0.000
710.022; 3188.300;   90.125;    0.000
710.220; 3161.300;  131.125;    0.000
710.418; 3196.300;  133.125;    0.000
710.617; 3150.300;   82.125;    0.000
710.815; 3228.300;   90.125;    0.000
711.013; 3259.300;   86.125;    0.000
711.212; 3192.300;  117.125;    0.000
711.410; 3219.300;  106.125;    0.000
711.608; 3250.300;  138.125;    0.000
711.807; 3195.300;  116.125;    0.000
712.005; 3281.300;   82.125;    0.000
712.203; 3201.300;   90.125;    0.000
712.401; 3293.300;  124.125;    0.000
712.599; 3248.300;   64.125;    0.000
712.798; 3225.300;  113.125;    0.000
712.996; 3206.300;  100.125;    0.000
713.194; 3292.300;  130.125;    0.000
713.392; 3244.300;   89.125;    0.000
713.590; 3213.300;  105.125;    0.000
713.788; 3280.300;  100.125;    0.000
713.986; 3374.300;  117.125;    0.000
714.184; 3323.300;   72.125;    0.000
714.382; 3419.300;   88.125;    0.000
714.580; 3346.300;   88.125;    0.000
714.778; 3551.300;  129.125;    0.000
714.976; 3452.300;   90.125;    0.000
715.174; 3423.300;  119.125;    0.000
715.372; 3609.300;  117.125;    0.000
715.570; 3676.300;  101.125;    0.000
715.768; 3973.300;  122.125;    0.000
715.966; 3971.300;  114.125;    0.000
716.164; 3889.300;  135.125;    0.000
716.362; 4004.300;  126.125;    0.000
716.560; 3877.300;  126.125;    0.000
716.758; 3760.300;   98.125;    0.000
716.955; 3731.300;   76.125;    0.000
717.153; 3618.300;   45.125;    0.000
717.351; 3685.300;  106.125;    0.000
717.549; 3598.300;  108.125;    0.000
717.746; 3667.300;   66.125;    0.000
717.944; 3689.300;  127.125;    0.000
718.142; 3618.300;  148.125;    0.000
718.340; 3604.300;   94.125;    0.000
718.537; 3544.300;  107.125;    0.000
718.735; 3537.300;  130.125;    0.000
718.933; 3634.300;  111.125;    0.000
719.130; 3662.300;  107.125;    0.000
719.328; 3653.300;  128.125;    0.000
719.525; 3687.300;  141.125;    0.000
719.723; 3584.300;  122.125;    0.000
719.920; 3542.300;   85.125;    0.000
720.118; 3692.300;  115.125;    0.000
720.316; 3556.300;  153.125;    0.000
720.513; 3587.300;  120.125;    0.000
720.711; 3579.300;  134.125;    0.000
720.908; 3600.300;  126.125;    0.000
721.105; 3567.300;  119.125;    0.000
721.303; 3505.300;  112.125;    0.000
721.500; 3621.300;  125.125;    0.000
721.698; 3663.300;   94.125;    0.000
721.895; 3647.300;  118.125;    0.000
722.092; 3539.300;   77.125;    0.000
722.290; 3666.300;  135.125;    0.000
722.487; 3578.300;  154.125;    0.000
722.684; 3649.300;  122.125;    0.000
722.882; 3507.300;   90.125;    0.000
723.079; 3649.300;  132.125;    0.000
723.276; 3596.300;   95.125;    0.000
723.473; 3656.300;  106.125;    0.000
723.671; 3678.300;   80.125;    0.000
723.868; 3619.300;  112.125;    0.000
724.065; 3636.300;  107.125;    0.000
724.262; 3593.300;  119.125;    0.000
724.459; 3665.300;   80.125;    0.000
724.656; 3714.300;  109.125;    0.000
724.854; 3639.300;  107.125;    0.000
725.051; 3649.300;  103.125;    0.000
725.248; 3726.300;  101.125;    0.000
725.445; 3650.300;   93.125;    0.000
725.642; 3624.300;   92.125;    0.000
725.839; 3683.300;  157.125;    0.000
726.036; 3614.300;   71.125;    0.000
726.233; 3632.300;   80.125;    0.000
726.430; 3680.300;  146.125;    0.000
726.627; 3731.300;  103.125;    0.000
726.824; 3751.300;   46.125;    0.000
727.021; 3760.300;  149.125;    0.000
727.218; 3695.300;   87.125;    0.000
727.414; 3697.300;  112.125;    0.000
727.611; 3735.300;  111.125;    0.000
727.808; 3681.300;  122.125;    0.000
728.005; 3637.300;   58.125;    0.000
728.202; 3733.300;  129.125;    0.000
728.399; 3702.300;  111.125;    0.000
728.595; 3757.300;   93.125;    0.000
728.792; 3624.300;   78.125;    0.000
728.989; 3828.300;  104.125;    0.000
729.186; 3724.300;  110.125;    0.000
729.382; 3718.300;   93.125;    0.000
729.579; 3734.300;  102.125;    0.000
729.776; 3851.300;  112.125;    0.000
729.972; 3791.300;  101.125;    0.000
730.169; 3863.300;  150.125;    0.000
730.366; 3694.300;   92.125;    0.000
730.562; 3734.300;   74.125;    0.000
730.759; 3669.300;   97.125;    0.000
730.955; 3719.300;   86.125;    0.000
731.152; 3729.300;   88.125;    0.000
731.348; 3778.300;  117.125;    0.000
731.545; 3686.300;   62.125;    0.000
731.741; 3860.300;   84.125;    0.000
731.938; 3829.300;  108.125;    0.000
732.134; 3824.300;  115.125;    0.000
732.331; 3770.300;   88.125;    0.000
732.527; 3852.300;   96.125;    0.000
732.724; 3753.300;  103.125;    0.000
732.920; 3738.300;   93.125;    0.000
733.116; 3719.300;  109.125;    0.000
733.313; 3704.300;   77.125;    0.000
733.509; 3895.300;   81.125;    0.000
733.705; 3824.300;  141.125;    0.000
733.902; 3772.300;   88.125;    0.000
734.098; 3869.300;   56.125;    0.000
734.294; 3855.300;  122.125;    0.000
734.490; 3935.300;  102.125;    0.000
734.687; 3959.300;   70.125;    0.000
734.883; 3871.300;   73.125;    0.000
735.079; 3776.300;   65.125;    0.000
735.275; 3891.300;  112.125;    0.000
735.471; 3909.300;  124.125;    0.000
735.667; 3833.300;   94.125;    0.000
735.863; 3879.300;  106.125;    0.000
736.060; 3895.300;  106.125;    0.000
736.256; 3945.300;   95.125;    0.000
736.452; 3904.300;  103.125;    0.000
736.648; 3964.300;  106.125;    0.000
736.844; 3879.300;   98.125;    0.000
737.040; 3951.300;  118.125;    0.000
737.236; 3918.300;   95.125;    0.000
737.432; 3977.300;   59.125;    0.000
737.628; 3911.300;  120.125;    0.000
737.824; 3991.300;   78.125;    0.000
738.019; 3977.300;   98.125;    0.000
738.215; 3994.300;  127.125;    0.000
738.411; 4124.300;  111.125;    0.000
738.607; 3949.300;   69.125;    0.000
738.803; 3885.300;   40.125;    0.000
738.999; 4108.300;  128.125;    0.000
739.195; 4150.300;   81.125;    0.000
739.390; 4133.300;   97.125;    0.000
739.586; 4018.300;  100.125;    0.000
739.782; 4164.300;  135.125;    0.000
739.978; 4079.300;  121.125;    0.000
740.173; 4074.300;   92.125;    0.000
740.369; 4084.300;   92.125;    0.000
740.565; 4226.300;  119.125;    0.000
740.760; 4221.300;  139.125;    0.000
740.956; 4189.300;  134.125;    0.000
741.152; 4224.300;  107.125;    0.000
741.347; 4209.300;   63.125;    0.000
741.543; 4168.300;   99.125;    0.000
741.738; 4456.300;  119.125;    0.000
741.934; 4510.300;  156.125;    0.000
742.129; 4735.300;   87.125;    0.000
742.325; 5342.300;  143.125;    0.000
742.520; 5711.300;  109.125;    0.000
742.716; 5385.300;  135.125;    0.000
742.911; 5150.300;   77.125;    0.000
743.107; 5165.300;  117.125;    0.000
743.302; 5026.300;   93.125;    0.000
743.498; 5021.300;  118.125;    0.000
743.693; 5098.300;   95.125;    0.000
743.888; 5348.300;  122.125;    0.000
744.084; 5992.300;  104.125;    0.000
744.279; 7288.300;   94.125;    0.000
744.474; 7326.300;  138.125;    0.000
744.670; 6618.300;  113.125;    0.000
744.865; 6131.300;  116.125;    0.000
745.060; 5781.300;   89.125;    0.000
745.255; 5715.300;  144.125;    0.000
745.451; 5468.300;   98.125;    0.000
745.646; 5394.300;  110.125;    0.000
745.841; 5467.300;   87.125;    0.000
746.036; 5394.300;   98.125;    0.000
746.231; 5597.300;  153.125;    0.000
746.426; 5857.300;   90.125;    0.000
746.622; 6636.300;  154.125;    0.000
746.817; 8511.300;  111.125;    0.000
747.012; 9428.300;  110.125;    0.000
747.207; 8390.300;   76.125;    0.000
747.402; 7656.300;   94.125;    0.000
747.597; 6941.300;   68.125;    0.000
747.792; 6777.300;  125.125;    0.000
747.987; 6389.300;   92.125;    0.000
748.182; 6392.300;  113.125;    0.000
748.377; 5971.300;   72.125;    0.000
748.572; 5828.300;  135.125;    0.000
748.767; 5600.300;   98.125;    0.000
748.961; 5464.300;  123.125;    0.000
749.156; 5273.300;   96.125;    0.000
749.351; 5325.300;  121.125;    0.000
749.546; 5151.300;   95.125;    0.000
749.741; 5185.300;  144.125;    0.000
749.936; 5033.300;  105.125;    0.000
750.130; 4842.300;  101.125;    0.000
750.325; 4820.300;  126.125;    0.000
750.520; 4777.300;  113.125;    0.000
750.715; 4748.300;  135.125;    0.000
750.909; 4736.300;  138.125;    0.000
751.104; 4752.300;   96.125;    0.000
751.299; 4627.300;  118.125;    0.000
751.493; 4644.300;  124.125;    0.000
751.688; 4625.300;  131.125;    0.000
751.882; 4547.300;   96.125;    0.000
752.077; 4545.300;  123.125;    0.000
752.272; 4591.300;  112.125;    0.000
752.466; 4523.300;  143.125;    0.000
752.661; 4464.300;  107.125;    0.000
752.855; 4499.300;   97.125;    0.000
753.050; 4414.300;  125.125;    0.000
753.244; 4437.300;  161.125;    0.000
753.439; 4447.300;  101.125;    0.000
753.633; 4583.300;  129.125;    0.000
753.828; 4361.300;  114.125;    0.000
754.022; 4394.300;  118.125;    0.000
754.216; 4318.300;  126.125;    0.000
754.411; 4375.300;  148.125;    0.000
754.605; 4407.300;  100.125;    0.000
754.799; 4350.300;  146.125;    0.000
754.994; 4284.300;  116.125;    0.000
755.188; 4322.300;  146.125;    0.000
755.382; 4335.300;  103.125;    0.000
755.576; 4429.300;  119.125;    0.000
755.771; 4314.300;  100.125;    0.000
755.965; 4279.300;  129.125;    0.000
756.159; 4318.300;  100.125;    0.000
756.353; 4355.300;  153.125;    0.000
756.547; 4192.300;  113.125;    0.000
756.742; 4274.300;  129.125;    0.000
756.936; 4135.300;   70.125;    0.000
757.130; 4294.300;   91.125;    0.000
757.324; 4387.300;   92.125;    0.000
757.518; 4255.300;  128.125;    0.000
757.712; 4334.300;  146.125;    0.000
757.906; 4359.300;  114.125;    0.000
758.100; 4378.300;  153.125;    0.000
758.294; 4287.300;  133.125;    0.000
758.488; 4183.300;  149.125;    0.000
758.682; 4264.300;  132.125;    0.000
758.876; 4275.300;  128.125;    0.000
759.070; 4230.300;  178.125;    0.000
759.264; 4229.300;   98.125;    0.000
759.458; 4183.300;  168.125;    0.000
759.651; 4223.300;  131.125;    0.000
759.845; 4171.300;  133.125;    0.000
760.039; 4282.300;  120.125;    0.000
760.233; 4170.300;  116.125;    0.000
760.427; 4289.300;  121.125;    0.000
760.620; 4379.300;  163.125;    0.000
760.814; 4213.300;  106.125;    0.000
761.008; 4210.300;  119.125;    0.000
761.202; 4270.300;  121.125;    0.000
761.395; 4308.300;  136.125;    0.000
761.589; 4335.300;  111.125;    0.000
761.783; 4278.300;  116.125;    0.000
761.976; 4262.300;  139.125;    0.000
762.170; 4390.300;  140.125;    0.000
762.363; 4219.300;  115.125;    0.000
762.557; 4387.300;  129.125;    0.000
762.750; 4282.300;   85.125;    0.000
762.944; 4384.300;  107.125;    0.000
763.138; 4254.300;   99.125;    0.000
763.331; 4231.300;   97.125;    0.000
763.524; 4351.300;  100.125;    0.000
763.718; 4354.300;  130.125;    0.000
763.911; 4343.300;  127.125;    0.000
764.105; 4340.300;   69.125;    0.000
764.298; 4375.300;   94.125;    0.000
764.492; 4335.300;  129.125;    0.000
764.685; 4380.300;  114.125;    0.000
764.878; 4303.300;  145.125;    0.000
765.072; 4385.300;  124.125;    0.000
765.265; 4401.300;  124.125;    0.000
765.458; 4303.300;  108.125;    0.000
765.651; 4395.300;  132.125;    0.000
765.845; 4495.300;  106.125;    0.000
766.038; 4518.300;  155.125;    0.000
766.231; 5048.300;  153.125;    0.000
766.424; 7435.300;  165.125;    0.000
766.617; 7619.300;   85.125;    0.000
766.811; 4835.300;  140.125;    0.000
767.004; 4654.300;  151.125;    0.000
767.197; 4533.300;  178.125;    0.000
767.390; 4343.300;  112.125;    0.000
767.583; 4307.300;  134.125;    0.000
767.776; 4449.300;  101.125;    0.000
767.969; 4470.300;   99.125;    0.000
768.162; 4534.300;  152.125;    0.000
768.355; 4557.300;  115.125;    0.000
768.548; 4543.300;  154.125;    0.000
768.741; 4490.300;  124.125;    0.000
768.934; 4582.300;  129.125;    0.000
769.127; 4574.300;  137.125;    0.000
769.320; 4596.300;  115.125;    0.000
769.513; 4751.300;  144.125;    0.000
769.706; 5362.300;  107.125;    0.000
769.898; 7448.300;  134.125;    0.000
770.091; 5908.300;  128.125;    0.000
770.284; 4815.300;   97.125;    0.000
770.477; 4749.300;  135.125;    0.000
770.670; 4654.300;  137.125;    0.000
770.862; 4851.300;  112.125;    0.000
771.055; 4701.300;  127.125;    0.000
771.248; 4783.300;  116.125;    0.000
771.441; 4856.300;  101.125;    0.000
771.633; 4866.300;  130.125;    0.000
771.826; 4891.300;  147.125;    0.000
772.018; 4922.300;  117.125;    0.000
772.211; 4991.300;  141.125;    0.000
772.404; 5003.300;  104.125;    0.000
772.596; 5042.300;  128.125;    0.000
772.789; 4947.300;  131.125;    0.000
772.981; 5238.300;  134.125;    0.000
773.174; 5157.300;  108.125;    0.000
773.366; 5311.300;  153.125;    0.000
773.559; 5240.300;  137.125;    0.000
773.751; 5271.300;  119.125;    0.000
773.944; 5494.300;  148.125;    0.000
774.136; 5550.300;  155.125;    0.000
774.329; 5873.300;  126.125;    0.000
774.521; 5771.300;  116.125;    0.000
774.713; 5939.300;  119.125;    0.000
774.906; 6164.300;  179.125;    0.000
775.098; 6386.300;  127.125;    0.000
775.290; 6570.300;  146.125;    0.000
775.483; 6935.300;  123.125;    0.000
775.675; 7333.300;  119.125;    0.000
775.867; 7825.300;  119.125;    0.000
776.059; 8446.300;  137.125;    0.000
776.251; 9248.300;  154.125;    0.000
776.444;10415.300;  101.125;    0.000
776.636;11978.300;  153.125;    0.000
776.828;14874.300;  127.125;    0.000
777.020;20622.301;  140.125;    0.000
777.212;31059.301;  160.125;    0.000
777.404;35029.301;  170.125;    0.000
777.596;32074.301;  136.125;    0.000
777.788;23764.301;  137.125;    0.000
777.980;18380.301;  129.125;    0.000
778.172;14951.300;  139.125;    0.000
778.364;12896.300;  124.125;    0.000
778.556;11460.300;  163.125;    0.000
778.748;10407.300;  142.125;    0.000
778.940; 9459.300;  178.125;    0.000
779.132; 8831.300;  159.125;    0.000
779.324; 8195.300;  109.125;    0.000
779.516; 7619.300;  143.125;    0.000
779.708; 7353.300;  158.125;    0.000
779.900; 6909.300;  142.125;    0.000
780.091; 6681.300;  131.125;    0.000
780.283; 6403.300;  176.125;    0.000
780.475; 6259.300;  151.125;    0.000
780.667; 6104.300;  120.125;    0.000
780.859; 5866.300;  134.125;    0.000
781.050; 5696.300;  183.125;    0.000
781.242; 5519.300;   95.125;    0.000
781.434; 5503.300;  127.125;    0.000
781.625; 5433.300;  163.125;    0.000
781.817; 5406.300;  170.125;    0.000
782.008; 5213.300;  123.125;    0.000
782.200; 5099.300;  141.125;    0.000
782.392; 5131.300;  149.125;    0.000
782.583; 5126.300;  155.125;    0.000
782.775; 5086.300;  140.125;    0.000
782.966; 4874.300;  167.125;    0.000
783.158; 4845.300;  164.125;    0.000
783.349; 4829.300;  174.125;    0.000
783.541; 4770.300;  141.125;    0.000
783.732; 4654.300;  115.125;    0.000
783.924; 4744.300;  135.125;    0.000
784.115; 4672.300;  157.125;    0.000
784.306; 4668.300;  102.125;    0.000
784.498; 4568.300;  124.125;    0.000
784.689; 4688.300;  171.125;    0.000
784.880; 4571.300;  165.125;    0.000
785.072; 4495.300;  152.125;    0.000
785.263; 4533.300;  146.125;    0.000
785.454; 4621.300;  145.125;    0.000
785.645; 4307.300;  127.125;    0.000
785.837; 4483.300;  138.125;    0.000
786.028; 4603.300;  151.125;    0.000
786.219; 4444.300;  142.125;    0.000
786.410; 4408.300;  140.125;    0.000
786.601; 4367.300;  137.125;    0.000
786.792; 4333.300;  158.125;    0.000
786.984; 4403.300;  139.125;    0.000
787.175; 4371.300;  140.125;    0.000
787.366; 4521.300;  145.125;    0.000
787.557; 4445.300;  156.125;    0.000
787.748; 4398.300;  148.125;    0.000
787.939; 4405.300;  157.125;    0.000
788.130; 4431.300;  179.125;    0.000
788.321; 4360.300;  142.125;    0.000
788.512; 4432.300;  167.125;    0.000
788.703; 4502.300;  145.125;    0.000
788.894; 4474.300;  132.125;    0.000
789.084; 4481.300;  113.125;    0.000
789.275; 4545.300;  134.125;    0.000
789.466; 4535.300;  151.125;    0.000
789.657; 4484.300;  138.125;    0.000
789.848; 4594.300;  145.125;    0.000
790.039; 4580.300;  130.125;    0.000
790.229; 4556.300;  140.125;    0.000
790.420; 4481.300;  135.125;    0.000
790.611; 4489.300;  156.125;    0.000
790.801; 4686.300;   64.125;    0.000
790.992; 4599.300;  150.125;    0.000
791.183; 4473.300;  177.125;    0.000
791.373; 4562.300;   91.125;    0.000
791.564; 4542.300;   85.125;    0.000
791.755; 4504.300;  125.125;    0.000
791.945; 4539.300;   94.125;    0.000
792.136; 4446.300;   98.125;    0.000
792.326; 4552.300;  105.125;    0.000
792.517; 4496.300;  136.125;    0.000
792.707; 4551.300;  140.125;    0.000
792.898; 4635.300;  164.125;    0.000
793.088; 4712.300;  116.125;    0.000
793.279; 4635.300;  112.125;    0.000
793.469; 4625.300;  105.125;    0.000
793.660; 4743.300;  161.125;    0.000
793.850; 4815.300;  133.125;    0.000
794.040; 4949.300;  121.125;    0.000
794.231; 5113.300;  115.125;    0.000
794.421; 5454.300;  152.125;    0.000
794.611; 6149.300;  132.125;    0.000
794.802; 6935.300;  144.125;    0.000
794.992; 7220.300;  142.125;    0.000
795.182; 7376.300;  179.125;    0.000
795.372; 6914.300;  167.125;    0.000
795.563; 6494.300;  149.125;    0.000
795.753; 5799.300;  117.125;    0.000
795.943; 5503.300;  146.125;    0.000
796.133; 5363.300;  119.125;    0.000
796.323; 5066.300;  141.125;    0.000
796.513; 5030.300;  134.125;    0.000
796.703; 4805.300;  116.125;    0.000
796.893; 4767.300;  120.125;    0.000
797.083; 4721.300;  131.125;    0.000
797.273; 4622.300;  118.125;    0.000
797.463; 4478.300;  130.125;    0.000
797.653; 4352.300;   87.125;    0.000
797.843; 4369.300;  123.125;    0.000
798.033; 4322.300;  115.125;    0.000
798.223; 4266.300;  142.125;    0.000
798.413; 4248.300;  148.125;    0.000
798.603; 4051.300;  147.125;    0.000
798.793; 4122.300;  107.125;    0.000
798.983; 4044.300;  121.125;    0.000
799.172; 3968.300;  120.125;    0.000
799.362; 3983.300;  145.125;    0.000
799.552; 3903.300;  101.125;    0.000
799.742; 3996.300;  149.125;    0.000
799.932; 3833.300;  104.125;    0.000
800.121; 3867.300;  175.125;    0.000
800.311; 3711.300;  132.125;    0.000
800.501; 3859.300;  118.125;    0.000
800.690; 3819.300;  162.125;    0.000
800.880; 3772.300;  141.125;    0.000
801.070; 3831.300;  151.125;    0.000
801.259; 3873.300;  167.125;    0.000
801.449; 3773.300;  108.125;    0.000
801.638; 3807.300;  176.125;    0.000
801.828; 3719.300;  118.125;    0.000
802.017; 3689.300;  179.125;    0.000
802.207; 3666.300;  127.125;    0.000
802.396; 3732.300;  167.125;    0.000
802.586; 3587.300;  129.125;    0.000
802.775; 3691.300;  142.125;    0.000
802.965; 3702.300;  147.125;    0.000
803.154; 3714.300;  179.125;    0.000
803.343; 3565.300;  117.125;    0.000
803.533; 3575.300;  120.125;    0.000
803.722; 3565.300;  122.125;    0.000
803.911; 3582.300;  155.125;    0.000
804.101; 3616.300;  147.125;    0.000
804.290; 3522.300;  160.125;    0.000
804.479; 3569.300;  139.125;    0.000
804.668; 3448.300;  180.125;    0.000
804.857; 3566.300;  131.125;    0.000
805.047; 3569.300;  119.125;    0.000
805.236; 3610.300;  139.125;    0.000
805.425; 3556.300;  163.125;    0.000
805.614; 3503.300;  103.125;    0.000
805.803; 3586.300;  133.125;    0.000
805.992; 3528.300;  147.125;    0.000
806.181; 3510.300;  109.125;    0.000
806.370; 3439.300;  133.125;    0.000
806.559; 3537.300;  119.125;    0.000
806.748; 3464.300;  144.125;    0.000
806.937; 3539.300;  147.125;    0.000
807.126; 3528.300;  134.125;    0.000
807.315; 3455.300;  132.125;    0.000
807.504; 3428.300;  141.125;    0.000
807.693; 3359.300;  145.125;    0.000
807.882; 3465.300;   91.125;    0.000
808.071; 3485.300;  116.125;    0.000
808.260; 3305.300;  105.125;    0.000
808.448; 3417.300;  184.125;    0.000
808.637; 3317.300;  146.125;    0.000
808.826; 3398.300;  153.125;    0.000
809.015; 3426.300;  113.125;    0.000
809.203; 3426.300;  166.125;    0.000
809.392; 3420.300;  117.125;    0.000
809.581; 3484.300;  186.125;    0.000
809.770; 3416.300;  122.125;    0.000
809.958; 3354.300;  140.125;    0.000
810.147; 3422.300;  130.125;    0.000
810.335; 3431.300;  112.125;    0.000
810.524; 3423.300;  106.125;    0.000
810.713; 3443.300;  154.125;    0.000
810.901; 3420.300;  131.125;    0.000
811.090; 3554.300;  164.125;    0.000
811.278; 3471.300;  159.125;    0.000
811.467; 3625.300;  194.125;    0.000
811.655; 3665.300;  164.125;    0.000
811.844; 3573.300;  149.125;    0.000
812.032; 3600.300;  169.125;    0.000
812.220; 3535.300;  163.125;    0.000
812.409; 3548.300;  134.125;    0.000
812.597; 3470.300;  165.125;    0.000
812.785; 3618.300;  180.125;    0.000
812.974; 3533.300;  166.125;    0.000
813.162; 3517.300;  171.125;    0.000
813.350; 3593.300;  142.125;    0.000
813.539; 3544.300;  126.125;    0.000
813.727; 3488.300;  153.125;    0.000
813.915; 3432.300;  138.125;    0.000
814.103; 3496.300;  191.125;    0.000
814.291; 3572.300;  142.125;    0.000
814.479; 3469.300;  156.125;    0.000
814.668; 3559.300;  152.125;    0.000
814.856; 3671.300;  150.125;    0.000
815.044; 3577.300;  165.125;    0.000
815.232; 3535.300;  172.125;    0.000
815.420; 3718.300;  147.125;    0.000
815.608; 3699.300;  143.125;    0.000
815.796; 3589.300;  126.125;    0.000
815.984; 3660.300;  152.125;    0.000
816.172; 3719.300;  129.125;    0.000
816.360; 3800.300;  177.125;    0.000
816.548; 3703.300;  141.125;    0.000
816.736; 3868.300;  142.125;    0.000
816.924; 3879.300;  161.125;    0.000
817.111; 3919.300;  138.125;    0.000
817.299; 4089.300;  112.125;    0.000
817.487; 4049.300;  180.125;    0.000
817.675; 4311.300;  138.125;    0.000
817.863; 4471.300;  172.125;    0.000
818.050; 4983.300;  142.125;    0.000
818.238; 6526.300;  151.125;    0.000
818.426; 8806.300;  129.125;    0.000
818.613; 8395.300;  124.125;    0.000
818.801; 8501.300;  209.125;    0.000
818.989; 8245.300;  178.125;    0.000
819.176; 7502.300;  155.125;    0.000
819.364; 8186.300;  174.125;    0.000
819.552;10139.300;  131.125;    0.000
819.739; 7512.300;  184.125;    0.000
819.927; 6532.300;  132.125;    0.000
820.114; 6340.300;  173.125;    0.000
820.302; 5974.300;  140.125;    0.000
820.489; 5927.300;  133.125;    0.000
820.677; 5909.300;  167.125;    0.000
820.864; 5997.300;  161.125;    0.000
821.052; 6893.300;  134.125;    0.000
821.239; 7574.300;  149.125;    0.000
821.426; 8395.300;  160.125;    0.000
821.614;10896.300;  143.125;    0.000
821.801;12086.300;  118.125;    0.000
821.988;10480.300;  154.125;    0.000
822.176; 9912.300;  112.125;    0.000
822.363;10407.300;  131.125;    0.000
822.550; 9471.300;  131.125;    0.000
822.737; 8250.300;  104.125;    0.000
822.924; 7873.300;  160.125;    0.000
823.112; 7305.300;  161.125;    0.000
823.299; 6851.300;  169.125;    0.000
823.486; 6565.300;  129.125;    0.000
823.673; 6252.300;  135.125;    0.000
823.860; 6100.300;  169.125;    0.000
824.047; 6144.300;  124.125;    0.000
824.234; 7021.300;  160.125;    0.000
824.421; 7176.300;  114.125;    0.000
824.608; 6373.300;  191.125;    0.000
824.795; 5619.300;  160.125;    0.000
824.982; 5329.300;  139.125;    0.000
825.169; 5032.300;  121.125;    0.000
825.356; 4765.300;  148.125;    0.000
825.543; 4704.300;  167.125;    0.000
825.730; 4439.300;  103.125;    0.000
825.917; 4282.300;  113.125;    0.000
826.104; 4153.300;  188.125;    0.000
826.290; 3990.300;  193.125;    0.000
826.477; 3967.300;  175.125;    0.000
826.664; 3953.300;  151.125;    0.000
826.851; 3780.300;  122.125;    0.000
827.038; 3712.300;  121.125;    0.000
827.224; 3732.300;  124.125;    0.000
827.411; 3615.300;  155.125;    0.000
827.598; 3578.300;  127.125;    0.000
827.784; 3607.300;  140.125;    0.000
827.971; 3517.300;  114.125;    0.000
828.157; 3423.300;  135.125;    0.000
828.344; 3387.300;  173.125;    0.000
828.531; 3382.300;  113.125;    0.000
828.717; 3287.300;  137.125;    0.000
828.904; 3260.300;  158.125;    0.000
829.090; 3299.300;  199.125;    0.000
829.277; 3139.300;  156.125;    0.000
829.463; 3212.300;  154.125;    0.000
829.650; 3247.300;  174.125;    0.000
829.836; 3145.300;  136.125;    0.000
830.022; 3253.300;  143.125;    0.000
830.209; 3219.300;  157.125;    0.000
830.395; 3099.300;  156.125;    0.000
830.581; 3055.300;  148.125;    0.000
830.768; 3006.300;  169.125;    0.000
830.954; 3032.300;  169.125;    0.000
831.140; 3005.300;  124.125;    0.000
831.327; 3059.300;  157.125;    0.000
831.513; 2997.300;  163.125;    0.000
831.699; 2944.300;  176.125;    0.000
831.885; 2989.300;  154.125;    0.000
832.071; 2896.300;  159.125;    0.000
832.257; 2951.300;  142.125;    0.000
832.444; 2926.300;  159.125;    0.000
832.630; 2917.300;  129.125;    0.000
832.816; 2946.300;  132.125;    0.000
833.002; 2761.300;  125.125;    0.000
833.188; 2867.300;  144.125;    0.000
833.374; 2882.300;  131.125;    0.000
833.560; 2870.300;  154.125;    0.000
833.746; 2830.300;  171.125;    0.000
833.932; 2860.300;  162.125;    0.000
834.118; 2735.300;  131.125;    0.000
834.303; 2786.300;  113.125;    0.000
834.489; 2780.300;  170.125;    0.000
834.675; 2780.300;  177.125;    0.000
834.861; 2783.300;  154.125;    0.000
835.047; 2737.300;  171.125;    0.000
835.233; 2740.300;   98.125;    0.000
835.418; 2871.300;  138.125;    0.000
835.604; 2747.300;  140.125;    0.000
835.790; 2747.300;  130.125;    0.000
835.976; 2780.300;  129.125;    0.000
836.161; 2723.300;  142.125;    0.000
836.347; 2705.300;  128.125;    0.000
836.533; 2709.300;  143.125;    0.000
836.718; 2735.300;  164.125;    0.000
836.904; 2755.300;  172.125;    0.000
837.089; 2745.300;  152.125;    0.000
837.275; 2772.300;  143.125;    0.000
837.460; 2730.300;  125.125;    0.000
837.646; 2837.300;  137.125;    0.000
837.831; 2735.300;  153.125;    0.000
838.017; 2796.300;  171.125;    0.000
838.202; 2695.300;  111.125;    0.000
838.388; 2790.300;  140.125;    0.000
838.573; 2746.300;  158.125;    0.000
838.759; 2837.300;  188.125;    0.000
838.944; 2679.300;  125.125;    0.000
839.129; 2855.300;  123.125;    0.000
839.315; 2698.300;  181.125;    0.000
839.500; 2726.300;  150.125;    0.000
839.685; 2780.300;  109.125;    0.000
839.870; 2709.300;  202.125;    0.000
840.056; 2729.300;  101.125;    0.000
840.241; 2738.300;  184.125;    0.000
840.426; 2808.300;  192.125;    0.000
840.611; 2871.300;  180.125;    0.000
840.796; 2962.300;  156.125;    0.000
840.981; 2868.300;  142.125;    0.000
841.166; 2946.300;  161.125;    0.000
841.352; 2925.300;  185.125;    0.000
841.537; 2903.300;  139.125;    0.000
841.722; 2946.300;  143.125;    0.000
841.907; 2977.300;  140.125;    0.000
842.092; 3004.300;  176.125;    0.000
842.277; 3044.300;  136.125;    0.000
842.461; 3159.300;  155.125;    0.000
842.646; 3152.300;  163.125;    0.000
842.831; 3240.300;  153.125;    0.000
843.016; 3327.300;  187.125;    0.000
843.201; 3471.300;  179.125;    0.000
843.386; 3461.300;  167.125;    0.000
843.571; 3599.300;  129.125;    0.000
843.755; 3769.300;  136.125;    0.000
843.940; 4089.300;  121.125;    0.000
844.125; 4537.300;  157.125;    0.000
844.310; 5328.300;  175.125;    0.000
844.494; 6999.300;  164.125;    0.000
844.679; 9944.300;  167.125;    0.000
844.864; 9526.300;  166.125;    0.000
845.048; 7834.300;  132.125;    0.000
845.233; 6335.300;  175.125;    0.000
845.418; 5721.300;  159.125;    0.000
845.602; 4929.300;  147.125;    0.000
845.787; 4654.300;  132.125;    0.000
845.971; 4426.300;  187.125;    0.000
846.156; 4017.300;  141.125;    0.000
846.340; 3864.300;  153.125;    0.000
846.525; 3668.300;  157.125;    0.000
846.709; 3522.300;  117.125;    0.000
846.893; 3466.300;  147.125;    0.000
847.078; 3278.300;  170.125;    0.000
847.262; 3157.300;  150.125;    0.000
847.447; 3199.300;  132.125;    0.000
847.631; 3030.300;  144.125;    0.000
847.815; 2960.300;  157.125;    0.000
848.000; 2982.300;  164.125;    0.000
848.184; 2992.300;  174.125;    0.000
848.368; 2823.300;  149.125;    0.000
848.552; 2876.300;  143.125;    0.000
848.736; 2807.300;  132.125;    0.000
848.921; 2764.300;  147.125;    0.000
849.105; 2739.300;  150.125;    0.000
849.289; 2705.300;  146.125;    0.000
849.473; 2637.300;  167.125;    0.000
849.657; 2709.300;  149.125;    0.000
849.841; 2679.300;  181.125;    0.000
850.025; 2597.300;  154.125;    0.000
850.209; 2622.300;  152.125;    0.000
850.393; 2584.300;  139.125;    0.000
850.577; 2548.300;  128.125;    0.000
850.761; 2549.300;  194.125;    0.000
850.945; 2544.300;  152.125;    0.000
851.129; 2612.300;  157.125;    0.000
851.313; 2521.300;  181.125;    0.000
851.497; 2483.300;  145.125;    0.000
851.680; 2554.300;  168.125;    0.000
851.864; 2499.300;  185.125;    0.000
852.048; 2559.300;  170.125;    0.000
852.232; 2464.300;  192.125;    0.000
852.416; 2581.300;  182.125;    0.000
852.599; 2476.300;  169.125;    0.000
852.783; 2481.300;  168.125;    0.000
852.967; 2521.300;  184.125;    0.000
853.150; 2569.300;  163.125;    0.000
853.334; 2468.300;  164.125;    0.000
853.518; 2523.300;  190.125;    0.000
853.701; 2456.300;  137.125;    0.000
853.885; 2464.300;  177.125;    0.000
854.068; 2406.300;  163.125;    0.000
854.252; 2489.300;  139.125;    0.000
854.435; 2485.300;  152.125;    0.000
854.619; 2423.300;  148.125;    0.000
854.802; 2461.300;  168.125;    0.000
854.986; 2414.300;  157.125;    0.000
855.169; 2474.300;  147.125;    0.000
855.353; 2458.300;  173.125;    0.000
855.536; 2373.300;  127.125;    0.000
855.719; 2476.300;  191.125;    0.000
855.903; 2564.300;  186.125;    0.000
856.086; 2518.300;  145.125;    0.000
856.269; 2508.300;  130.125;    0.000
856.452; 2604.300;  153.125;    0.000
856.636; 2637.300;  129.125;    0.000
856.819; 2815.300;  134.125;    0.000
857.002; 2890.300;  152.125;    0.000
857.185; 2815.300;  140.125;    0.000
857.368; 2715.300;  170.125;    0.000
857.552; 2692.300;  132.125;    0.000
857.735; 2603.300;  160.125;    0.000
857.918; 2738.300;  139.125;    0.000
858.101; 2587.300;  159.125;    0.000
858.284; 2707.300;  136.125;    0.000
858.467; 2647.300;  147.125;    0.000
858.650; 2759.300;  153.125;    0.000
858.833; 2690.300;  113.125;    0.000
859.016; 2777.300;  167.125;    0.000
859.199; 2855.300;  141.125;    0.000
859.382; 3121.300;  155.125;    0.000
859.564; 3305.300;  136.125;    0.000
859.747; 3264.300;  142.125;    0.000
859.930; 3080.300;  141.125;    0.000
860.113; 3001.300;  156.125;    0.000
860.296; 2978.300;  167.125;    0.000
860.478; 2942.300;  121.125;    0.000
860.661; 3053.300;  230.125;    0.000
860.844; 2969.300;  186.125;    0.000
861.027; 2788.300;  155.125;    0.000
861.209; 2816.300;  151.125;    0.000
861.392; 2874.300;  162.125;    0.000
861.575; 2792.300;  150.125;    0.000
861.757; 2974.300;  162.125;    0.000
861.940; 2947.300;  207.125;    0.000
862.122; 3065.300;  113.125;    0.000
862.305; 3054.300;  114.125;    0.000
862.487; 3183.300;  162.125;    0.000
862.670; 3402.300;  148.125;    0.000
862.852; 3915.300;  131.125;    0.000
863.035; 4608.300;  174.125;    0.000
863.217; 4510.300;  170.125;    0.000
863.400; 4133.300;  148.125;    0.000
863.582; 3994.300;  129.125;    0.000
863.764; 3745.300;  181.125;    0.000
863.947; 3535.300;  152.125;    0.000
864.129; 3530.300;  178.125;    0.000
864.311; 3368.300;  139.125;    0.000
864.493; 3408.300;  166.125;    0.000
864.676; 3330.300;  148.125;    0.000
864.858; 3289.300;  123.125;    0.000
865.040; 3376.300;  180.125;    0.000
865.222; 3367.300;  131.125;    0.000
865.404; 3417.300;  146.125;    0.000
865.587; 3630.300;  175.125;    0.000
865.769; 3524.300;  183.125;    0.000
865.951; 3571.300;  171.125;    0.000
866.133; 3731.300;  165.125;    0.000
866.315; 3650.300;  138.125;    0.000
866.497; 3694.300;  139.125;    0.000
866.679; 3785.300;  167.125;    0.000
866.861; 3851.300;  151.125;    0.000
867.043; 4121.300;  190.125;    0.000
867.225; 4346.300;  140.125;    0.000
867.407; 4664.300;  125.125;    0.000
867.589; 5232.300;  141.125;    0.000
867.770; 6289.300;  149.125;    0.000
867.952; 8508.300;  138.125;    0.000
868.134;11282.300;  153.125;    0.000
868.316;10935.300;  148.125;    0.000
868.498;10745.300;  180.125;    0.000
868.679; 9394.300;  152.125;    0.000
868.861; 7867.300;  174.125;    0.000
869.043; 6718.300;  152.125;    0.000
869.224; 5847.300;  177.125;    0.000
869.406; 5474.300;  171.125;    0.000
869.588; 5008.300;  177.125;    0.000
869.769; 4721.300;  174.125;    0.000
869.951; 4644.300;  167.125;    0.000
870.132; 4675.300;  144.125;    0.000
870.314; 5128.300;  143.125;    0.000
870.495; 5455.300;  162.125;    0.000
870.677; 4792.300;  136.125;    0.000
870.858; 4707.300;  155.125;    0.000
871.040; 5025.300;  179.125;    0.000
871.221; 5465.300;  177.125;    0.000
871.403; 5265.300;  180.125;    0.000
871.584; 4887.300;  157.125;    0.000
871.765; 4925.300;  183.125;    0.000
871.947; 5282.300;  169.125;    0.000
872.128; 4716.300;  162.125;    0.000
872.309; 4228.300;  159.125;    0.000
872.491; 3903.300;  148.125;    0.000
872.672; 3682.300;  163.125;    0.000
872.853; 3610.300;  152.125;    0.000
873.034; 3469.300;  166.125;    0.000
873.215; 3271.300;  155.125;    0.000
873.396; 3119.300;  147.125;    0.000
873.578; 3020.300;  147.125;    0.000
873.759; 3004.300;  153.125;    0.000
873.940; 2880.300;  194.125;    0.000
874.121; 2793.300;  179.125;    0.000
874.302; 2783.300;  155.125;    0.000
874.483; 2697.300;  131.125;    0.000
874.664; 2709.300;  106.125;    0.000
874.845; 2741.300;  122.125;    0.000
875.026; 2656.300;  127.125;    0.000
875.207; 2587.300;  151.125;    0.000
875.388; 2552.300;  149.125;    0.000
875.568; 2500.300;  164.125;    0.000
875.749; 2510.300;  176.125;    0.000
875.930; 2449.300;  207.125;    0.000
876.111; 2445.300;  177.125;    0.000
876.292; 2431.300;  178.125;    0.000
876.472; 2407.300;  163.125;    0.000
876.653; 2400.300;  159.125;    0.000
876.834; 2396.300;  177.125;    0.000
877.015; 2388.300;  212.125;    0.000
877.195; 2407.300;  166.125;    0.000
877.376; 2319.300;  157.125;    0.000
877.556; 2335.300;  175.125;    0.000
877.737; 2329.300;  220.125;    0.000
877.918; 2281.300;  163.125;    0.000
878.098; 2263.300;  166.125;    0.000
878.279; 2229.300;  136.125;    0.000
878.459; 2223.300;  167.125;    0.000
878.640; 2214.300;  167.125;    0.000
878.820; 2232.300;  155.125;    0.000
879.000; 2207.300;  158.125;    0.000
879.181; 2220.300;  155.125;    0.000
879.361; 2287.300;  181.125;    0.000
879.542; 2238.300;  181.125;    0.000
879.722; 2259.300;  117.125;    0.000
879.902; 2239.300;  180.125;    0.000
880.083; 2259.300;  139.125;    0.000
880.263; 2267.300;  168.125;    0.000
880.443; 2304.300;  206.125;    0.000
880.623; 2791.300;  132.125;    0.000
880.803; 3049.300;  149.125;    0.000
880.984; 2509.300;  189.125;    0.000
881.164; 2449.300;  171.125;    0.000
881.344; 2365.300;  150.125;    0.000
881.524; 2429.300;  185.125;    0.000
881.704; 2396.300;  152.125;    0.000
881.884; 2508.300;  188.125;    0.000
882.064; 2550.300;  155.125;    0.000
882.244; 2574.300;  182.125;    0.000
882.424; 2460.300;  154.125;    0.000
882.604; 2347.300;  175.125;    0.000
882.784; 2303.300;  137.125;    0.000
882.964; 2302.300;  135.125;    0.000
883.144; 2204.300;  142.125;    0.000
883.324; 2249.300;  192.125;    0.000
883.504; 2235.300;  193.125;    0.000
883.683; 2217.300;  208.125;    0.000
883.863; 2154.300;  127.125;    0.000
884.043; 2135.300;  140.125;    0.000
884.223; 2186.300;  167.125;    0.000
884.402; 2097.300;  156.125;    0.000
884.582; 2058.300;  185.125;    0.000
884.762; 2152.300;  187.125;    0.000
884.941; 2071.300;  201.125;    0.000
885.121; 2028.300;  157.125;    0.000
885.301; 2114.300;  173.125;    0.000
885.480; 2042.300;  158.125;    0.000
885.660; 2095.300;  153.125;    0.000
885.839; 2027.300;  144.125;    0.000
886.019; 2089.300;  184.125;    0.000
886.198; 2040.300;  132.125;    0.000
886.378; 2030.300;  124.125;    0.000
886.557; 1959.300;  146.125;    0.000
886.737; 2015.300;  157.125;    0.000
886.916; 1976.300;  203.125;    0.000
887.095; 2093.300;  151.125;    0.000
887.275; 2024.300;  143.125;    0.000
887.454; 1931.300;  140.125;    0.000
887.633; 2011.300;  196.125;    0.000
887.813; 2017.300;  161.125;    0.000
887.992; 1994.300;  183.125;    0.000
888.171; 1969.300;  153.125;    0.000
888.350; 2017.300;  185.125;    0.000
888.530; 2027.300;  163.125;    0.000
888.709; 1912.300;  174.125;    0.000
888.888; 1972.300;  179.125;    0.000
889.067; 1956.300;  178.125;    0.000
889.246; 2060.300;  184.125;    0.000
889.425; 1907.300;  169.125;    0.000
889.604; 2029.300;  210.125;    0.000
889.783; 1991.300;  183.125;    0.000
889.962; 1957.300;  116.125;    0.000
890.141; 1985.300;  179.125;    0.000
890.320; 1975.300;  182.125;    0.000
890.499; 1960.300;  188.125;    0.000
890.678; 2021.300;  167.125;    0.000
890.857; 1940.300;  141.125;    0.000
891.036; 1964.300;  179.125;    0.000
891.214; 1965.300;  156.125;    0.000
891.393; 1921.300;  209.125;    0.000
891.572; 2000.300;  181.125;    0.000
891.751; 1995.300;  172.125;    0.000
891.930; 1999.300;  169.125;    0.000
892.108; 1840.300;  131.125;    0.000
892.287; 1862.300;  162.125;    0.000
892.466; 1995.300;  178.125;    0.000
892.644; 1943.300;  161.125;    0.000
892.823; 1943.300;  180.125;    0.000
893.001; 1953.300;  179.125;    0.000
893.180; 1874.300;  152.125;    0.000
893.359; 1985.300;  184.125;    0.000
893.537; 1875.300;  178.125;    0.000
893.716; 1945.300;  169.125;    0.000
893.894; 2032.300;  159.125;    0.000
894.073; 1942.300;  179.125;    0.000
894.251; 2006.300;  167.125;    0.000
894.429; 1999.300;  142.125;    0.000
894.608; 1906.300;  166.125;    0.000
894.786; 1993.300;  153.125;    0.000
894.964; 1974.300;  181.125;    0.000
895.143; 1942.300;  161.125;    0.000
895.321; 1987.300;  198.125;    0.000
895.499; 1930.300;  184.125;    0.000
895.677; 1948.300;  178.125;    0.000
895.856; 2016.300;  226.125;    0.000
896.034; 2014.300;  180.125;    0.000
896.212; 2027.300;  200.125;    0.000
896.390; 1974.300;  161.125;    0.000
896.568; 1985.300;  204.125;    0.000
896.746; 2027.300;  136.125;    0.000
896.924; 1964.300;  171.125;    0.000
897.102; 2035.300;  203.125;    0.000
897.280; 1972.300;  142.125;    0.000
897.458; 1944.300;  159.125;    0.000
897.636; 1933.300;  163.125;    0.000
897.814; 1907.300;  137.125;    0.000
897.992; 2067.300;  199.125;    0.000
898.170; 1981.300;  176.125;    0.000
898.348; 1945.300;  195.125;    0.000
898.526; 1982.300;  199.125;    0.000
898.704; 2069.300;  260.125;    0.000
898.882; 2015.300;  185.125;    0.000
899.059; 2030.300;  169.125;    0.000
899.237; 2008.300;  197.125;    0.000
899.415; 2054.300;  207.125;    0.000
899.593; 2000.300;  169.125;    0.000
899.770; 1981.300;  182.125;    0.000
899.948; 2082.300;  198.125;    0.000
900.125; 2045.300;  200.125;    0.000
900.303; 1988.300;  165.125;    0.000
900.481; 2033.300;  182.125;    0.000
900.658; 2078.300;  206.125;    0.000
900.836; 2136.300;  188.125;    0.000
901.013; 2116.300;  169.125;    0.000
901.191; 2193.300;  172.125;    0.000
901.368; 2166.300;  170.125;    0.000
901.546; 2276.300;  234.125;    0.000
901.723; 2153.300;  173.125;    0.000
901.901; 2253.300;  190.125;    0.000
902.078; 2302.300;  145.125;    0.000
902.255; 2336.300;  204.125;    0.000
902.433; 2299.300;  198.125;    0.000
902.610; 2318.300;  190.125;    0.000
902.787; 2452.300;  204.125;    0.000
902.964; 2378.300;  208.125;    0.000
903.142; 2427.300;  187.125;    0.000
903.319; 2443.300;  216.125;    0.000
903.496; 2532.300;  186.125;    0.000
903.673; 2527.300;  201.125;    0.000
903.850; 2534.300;  195.125;    0.000
904.027; 2627.300;  211.125;    0.000
904.204; 2667.300;  197.125;    0.000
904.381; 2893.300;  198.125;    0.000
904.558; 3305.300;  188.125;    0.000
904.735; 3538.300;  207.125;    0.000
904.912; 3719.300;  217.125;    0.000
905.089; 3657.300;  188.125;    0.000
905.266; 3436.300;  160.125;    0.000
905.443; 3290.300;  221.125;    0.000
905.620; 3050.300;  163.125;    0.000
905.797; 2833.300;  186.125;    0.000
905.974; 2844.300;  205.125;    0.000
906.151; 2747.300;  159.125;    0.000
906.327; 2780.300;  206.125;    0.000
906.504; 2698.300;  201.125;    0.000
906.681; 2654.300;  202.125;    0.000
906.858; 2619.300;  188.125;    0.000
907.034; 2595.300;  207.125;    0.000
907.211; 2509.300;  182.125;    0.000
907.388; 2496.300;  184.125;    0.000
907.564; 2394.300;  148.125;    0.000
907.741; 2415.300;  181.125;    0.000
907.917; 2485.300;  191.125;    0.000
908.094; 2394.300;  210.125;    0.000
908.271; 2337.300;  171.125;    0.000
908.447; 2352.300;  241.125;    0.000
908.623; 2215.300;  188.125;    0.000
908.800; 2224.300;  205.125;    0.000
908.976; 2230.300;  210.125;    0.000
909.153; 2328.300;  193.125;    0.000
909.329; 2235.300;  206.125;    0.000
909.505; 2217.300;  181.125;    0.000
909.682; 2235.300;  192.125;    0.000
909.858; 2164.300;  134.125;    0.000
910.034; 2171.300;  214.125;    0.000
910.211; 2111.300;  182.125;    0.000
910.387; 2196.300;  194.125;    0.000
910.563; 2139.300;  199.125;    0.000
910.739; 2221.300;  188.125;    0.000
910.915; 2103.300;  192.125;    0.000
911.091; 2089.300;  198.125;    0.000
911.268; 2093.300;  178.125;    0.000
911.444; 2143.300;  201.125;    0.000
911.620; 2160.300;  181.125;    0.000
911.796; 2091.300;  185.125;    0.000
911.972; 2114.300;  176.125;    0.000
912.148; 2088.300;  196.125;    0.000
912.324; 2131.300;  192.125;    0.000
912.500; 2159.300;  204.125;    0.000
912.676; 2063.300;  164.125;    0.000
912.851; 2072.300;  193.125;    0.000
913.027; 2113.300;  175.125;    0.000
913.203; 2129.300;  193.125;    0.000
913.379; 2085.300;  213.125;    0.000
913.555; 2021.300;  211.125;    0.000
913.730; 2069.300;  194.125;    0.000
913.906; 2080.300;  153.125;    0.000
914.082; 2130.300;  212.125;    0.000
914.258; 2062.300;  194.125;    0.000
914.433; 2110.300;  191.125;    0.000
914.609; 2080.300;  208.125;    0.000
914.784; 2077.300;  176.125;    0.000
914.960; 2068.300;  227.125;    0.000
915.136; 2042.300;  152.125;    0.000
915.311; 2106.300;  171.125;    0.000
915.487; 2107.300;  173.125;    0.000
915.662; 2168.300;  189.125;    0.000
915.838; 2175.300;  179.125;    0.000
916.013; 2090.300;  191.125;    0.000
916.189; 2062.300;  207.125;    0.000
916.364; 2167.300;  194.125;    0.000
916.539; 2125.300;  174.125;    0.000
916.715; 2069.300;  207.125;    0.000
916.890; 2132.300;  193.125;    0.000
917.065; 2108.300;  199.125;    0.000
917.240; 2087.300;  214.125;    0.000
917.416; 2154.300;  194.125;    0.000
917.591; 2102.300;  213.125;    0.000
917.766; 2099.300;  194.125;    0.000
917.941; 2069.300;  201.125;    0.000
918.116; 2117.300;  198.125;    0.000
918.292; 2036.300;  176.125;    0.000
918.467; 2144.300;  190.125;    0.000
918.642; 2089.300;  200.125;    0.000
918.817; 2116.300;  186.125;    0.000
918.992; 2116.300;  174.125;    0.000
919.167; 2181.300;  197.125;    0.000
919.342; 2193.300;  188.125;    0.000
919.517; 2188.300;  179.125;    0.000
919.692; 2171.300;  182.125;    0.000
919.867; 2123.300;  216.125;    0.000
920.041; 2148.300;  208.125;    0.000
920.216; 2242.300;  223.125;    0.000
920.391; 2225.300;  203.125;    0.000
920.566; 2253.300;  202.125;    0.000
920.741; 2301.300;  197.125;    0.000
920.915; 2451.300;  223.125;    0.000
921.090; 2500.300;  183.125;    0.000
921.265; 2684.300;  169.125;    0.000
921.439; 2864.300;  212.125;    0.000
921.614; 2642.300;  190.125;    0.000
921.789; 2513.300;  177.125;    0.000
921.963; 2457.300;  233.125;    0.000
922.138; 2461.300;  156.125;    0.000
922.312; 2367.300;  193.125;    0.000
922.487; 2406.300;  208.125;    0.000
922.661; 2354.300;  212.125;    0.000
922.836; 2510.300;  210.125;    0.000
923.010; 2550.300;  183.125;    0.000
923.185; 2423.300;  228.125;    0.000
923.359; 2402.300;  227.125;    0.000
923.534; 2356.300;  189.125;    0.000
923.708; 2492.300;  210.125;    0.000
923.882; 2614.300;  217.125;    0.000
924.057; 2495.300;  195.125;    0.000
924.231; 2516.300;  201.125;    0.000
924.405; 2471.300;  188.125;    0.000
924.579; 2421.300;  188.125;    0.000
924.753; 2372.300;  174.125;    0.000
924.928; 2399.300;  179.125;    0.000
925.102; 2375.300;  186.125;    0.000
925.276; 2349.300;  201.125;    0.000
925.450; 2456.300;  211.125;    0.000
925.624; 2475.300;  238.125;    0.000
925.798; 2491.300;  191.125;    0.000
925.972; 2713.300;  192.125;    0.000
926.146; 2740.300;  198.125;    0.000
926.320; 2905.300;  151.125;    0.000
926.494; 3233.300;  202.125;    0.000
926.668; 3375.300;  197.125;    0.000
926.842; 3366.300;  177.125;    0.000
927.016; 3359.300;  202.125;    0.000
927.190; 3350.300;  207.125;    0.000
927.363; 3300.300;  180.125;    0.000
927.537; 3141.300;  212.125;    0.000
927.711; 3002.300;  148.125;    0.000
927.885; 3053.300;  196.125;    0.000
928.058; 2898.300;  173.125;    0.000
928.232; 2967.300;  219.125;    0.000
928.406; 2812.300;  141.125;    0.000
928.579; 2746.300;  157.125;    0.000
928.753; 2762.300;  205.125;    0.000
928.927; 2632.300;  196.125;    0.000
929.100; 2731.300;  237.125;    0.000
929.274; 2577.300;  166.125;    0.000
929.447; 2586.300;  150.125;    0.000
929.621; 2524.300;  188.125;    0.000
929.794; 2551.300;  169.125;    0.000
929.968; 2493.300;  194.125;    0.000
930.141; 2416.300;  226.125;    0.000
930.315; 2418.300;  196.125;    0.000
930.488; 2385.300;  233.125;    0.000
930.661; 2353.300;  188.125;    0.000
930.835; 2396.300;  170.125;    0.000
931.008; 2287.300;  176.125;    0.000
931.181; 2396.300;  175.125;    0.000
931.354; 2312.300;  212.125;    0.000
931.528; 2322.300;  177.125;    0.000
931.701; 2335.300;  218.125;    0.000
931.874; 2209.300;  175.125;    0.000
932.047; 2183.300;  157.125;    0.000
932.220; 2163.300;  187.125;    0.000
932.393; 2198.300;  166.125;    0.000
932.566; 2207.300;  168.125;    0.000
932.739; 2198.300;  203.125;    0.000
932.912; 2247.300;  202.125;    0.000
933.085; 2173.300;  209.125;    0.000
933.258; 2188.300;  196.125;    0.000
933.431; 2109.300;  207.125;    0.000
933.604; 2144.300;  201.125;    0.000
933.777; 2153.300;  202.125;    0.000
933.950; 2114.300;  184.125;    0.000
934.123; 2051.300;  167.125;    0.000
934.296; 2050.300;  209.125;    0.000
934.468; 2115.300;  216.125;    0.000
934.641; 2092.300;  156.125;    0.000
934.814; 2088.300;  215.125;    0.000
934.987; 2147.300;  201.125;    0.000
935.159; 2130.300;  176.125;    0.000
935.332; 2195.300;  203.125;    0.000
935.505; 2137.300;  163.125;    0.000
935.677; 2019.300;  169.125;    0.000
935.850; 2131.300;  178.125;    0.000
936.022; 2174.300;  187.125;    0.000
936.195; 2065.300;  207.125;    0.000
936.367; 2098.300;  191.125;    0.000
936.540; 2143.300;  214.125;    0.000
936.712; 2155.300;  202.125;    0.000
936.885; 2136.300;  195.125;    0.000
937.057; 2156.300;  173.125;    0.000
937.229; 2156.300;  179.125;    0.000
937.402; 2203.300;  174.125;    0.000
937.574; 2187.300;  140.125;    0.000
937.746; 2261.300;  153.125;    0.000
937.919; 2273.300;  196.125;    0.000
938.091; 2385.300;  173.125;    0.000
938.263; 2507.300;  206.125;    0.000
938.435; 2725.300;  213.125;    0.000
938.608; 2956.300;  204.125;    0.000
938.780; 3382.300;  199.125;    0.000
938.952; 3524.300;  190.125;    0.000
939.124; 3609.300;  182.125;    0.000
939.296; 4024.300;  188.125;    0.000
939.468; 4159.300;  119.125;    0.000
939.640; 3742.300;  171.125;    0.000
939.812; 3381.300;  222.125;    0.000
939.984; 3036.300;  172.125;    0.000
940.156; 2967.300;  171.125;    0.000
940.328; 2771.300;  215.125;    0.000
940.500; 2680.300;  179.125;    0.000
940.672; 2592.300;  178.125;    0.000
940.843; 2521.300;  193.125;    0.000
941.015; 2485.300;  207.125;    0.000
941.187; 2329.300;  179.125;    0.000
941.359; 2365.300;  191.125;    0.000
941.531; 2307.300;  160.125;    0.000
941.702; 2276.300;  208.125;    0.000
941.874; 2224.300;  143.125;    0.000
942.046; 2264.300;  189.125;    0.000
942.217; 2202.300;  167.125;    0.000
942.389; 2127.300;  199.125;    0.000
942.560; 2051.300;  179.125;    0.000
942.732; 2115.300;  209.125;    0.000
942.904; 2051.300;  180.125;    0.000
943.075; 2040.300;  197.125;    0.000
943.247; 2021.300;  207.125;    0.000
943.418; 1993.300;  183.125;    0.000
943.589; 2055.300;  176.125;    0.000
943.761; 2065.300;  165.125;    0.000
943.932; 2003.300;  170.125;    0.000
944.104; 1980.300;  147.125;    0.000
944.275; 1934.300;  149.125;    0.000
944.446; 1941.300;  191.125;    0.000
944.617; 1928.300;  128.125;    0.000
944.789; 1923.300;  166.125;    0.000
944.960; 1895.300;  195.125;    0.000
945.131; 1962.300;  164.125;    0.000
945.302; 1936.300;  229.125;    0.000
945.473; 1863.300;  153.125;    0.000
945.645; 1955.300;  166.125;    0.000
945.816; 1993.300;  187.125;    0.000
945.987; 2040.300;  193.125;    0.000
946.158; 2057.300;  166.125;    0.000
946.329; 2009.300;  196.125;    0.000
946.500; 1999.300;  152.125;    0.000
946.671; 2006.300;  161.125;    0.000
946.842; 2013.300;  176.125;    0.000
947.013; 1968.300;  188.125;    0.000
947.183; 1968.300;  213.125;    0.000
947.354; 2001.300;  163.125;    0.000
947.525; 1858.300;  204.125;    0.000
947.696; 1936.300;  159.125;    0.000
947.867; 1869.300;  197.125;    0.000
948.037; 1845.300;  174.125;    0.000
948.208; 1856.300;  163.125;    0.000
948.379; 1894.300;  189.125;    0.000
948.550; 1923.300;  173.125;    0.000
948.720; 1824.300;  186.125;    0.000
948.891; 1928.300;  166.125;    0.000
949.061; 1825.300;  197.125;    0.000
949.232; 1758.300;  168.125;    0.000
949.403; 1867.300;  188.125;    0.000
949.573; 1823.300;  164.125;    0.000
949.744; 1849.300;  194.125;    0.000
949.914; 1860.300;  154.125;    0.000
950.085; 1886.300;  197.125;    0.000
950.255; 1845.300;  187.125;    0.000
950.425; 1885.300;  193.125;    0.000
950.596; 1858.300;  182.125;    0.000
950.766; 1709.300;  202.125;    0.000
950.936; 1884.300;  230.125;    0.000
951.107; 1830.300;  133.125;    0.000
951.277; 1816.300;  234.125;    0.000
951.447; 1802.300;  200.125;    0.000
951.617; 1850.300;  212.125;    0.000
951.788; 1765.300;  176.125;    0.000
951.958; 1814.300;  218.125;    0.000
952.128; 1757.300;  198.125;    0.000
952.298; 1808.300;  185.125;    0.000
952.468; 1774.300;  231.125;    0.000
952.638; 1824.300;  213.125;    0.000
952.808; 1804.300;  218.125;    0.000
952.978; 1856.300;  252.125;    0.000
953.148; 1753.300;  200.125;    0.000
953.318; 1716.300;  243.125;    0.000
953.488; 1693.300;  140.125;    0.000
953.658; 1693.300;  208.125;    0.000
953.828; 1755.300;  179.125;    0.000
953.998; 1790.300;  211.125;    0.000
954.167; 1783.300;  197.125;    0.000
954.337; 1786.300;  217.125;    0.000
954.507; 1750.300;  219.125;    0.000
954.677; 1739.300;  201.125;    0.000
954.846; 1826.300;  241.125;    0.000
955.016; 1791.300;  222.125;    0.000
955.186; 1728.300;  200.125;    0.000
955.355; 1778.300;  247.125;    0.000
955.525; 1739.300;  212.125;    0.000
955.695; 1730.300;  200.125;    0.000
955.864; 1805.300;  196.125;    0.000
956.034; 1659.300;  195.125;    0.000
956.203; 1694.300;  243.125;    0.000
956.373; 1631.300;  197.125;    0.000
956.542; 1694.300;  237.125;    0.000
956.711; 1720.300;  249.125;    0.000
956.881; 1751.300;  235.125;    0.000
957.050; 1710.300;  259.125;    0.000
957.220; 1715.300;  234.125;    0.000
957.389; 1726.300;  250.125;    0.000
957.558; 1613.300;  214.125;    0.000
957.727; 1709.300;  225.125;    0.000
957.897; 1652.300;  211.125;    0.000
958.066; 1699.300;  200.125;    0.000
958.235; 1662.300;  202.125;    0.000
958.404; 1742.300;  242.125;    0.000
958.573; 1710.300;  222.125;    0.000
958.743; 1667.300;  191.125;    0.000
958.912; 1637.300;  183.125;    0.000
959.081; 1634.300;  212.125;    0.000
959.250; 1658.300;  192.125;    0.000
959.419; 1784.300;  238.125;    0.000
959.588; 1689.300;  205.125;    0.000
959.757; 1582.300;  213.125;    0.000
959.926; 1682.300;  217.125;    0.000
960.094; 1664.300;  215.125;    0.000
960.263; 1703.300;  220.125;    0.000
960.432; 1624.300;  164.125;    0.000
960.601; 1650.300;  228.125;    0.000
960.770; 1662.300;  176.125;    0.000
960.939; 1633.300;  201.125;    0.000
961.107; 1631.300;  183.125;    0.000
961.276; 1673.300;  199.125;    0.000
961.445; 1628.300;  205.125;    0.000
961.613; 1600.300;  183.125;    0.000
961.782; 1596.300;  216.125;    0.000
961.951; 1597.300;  169.125;    0.000
962.119; 1604.300;  211.125;    0.000
962.288; 1651.300;  204.125;    0.000
962.456; 1615.300;  187.125;    0.000
962.625; 1601.300;  223.125;    0.000
962.793; 1654.300;  200.125;    0.000
962.962; 1615.300;  185.125;    0.000
963.130; 1571.300;  195.125;    0.000
963.298; 1633.300;  187.125;    0.000
963.467; 1634.300;  247.125;    0.000
963.635; 1584.300;  165.125;    0.000
963.803; 1627.300;  192.125;    0.000
963.972; 1679.300;  191.125;    0.000
964.140; 1576.300;  163.125;    0.000
964.308; 1576.300;  161.125;    0.000
964.477; 1687.300;  182.125;    0.000
964.645; 1663.300;  195.125;    0.000
964.813; 1643.300;  165.125;    0.000
964.981; 1597.300;  193.125;    0.000
965.149; 1639.300;  174.125;    0.000
965.317; 1625.300;  194.125;    0.000
965.485; 1607.300;  209.125;    0.000
965.653; 1599.300;  210.125;    0.000
965.821; 1650.300;  194.125;    0.000
965.989; 1593.300;  182.125;    0.000
966.157; 1632.300;  180.125;    0.000
966.325; 1563.300;  198.125;    0.000
966.493; 1639.300;  182.125;    0.000
966.661; 1646.300;  200.125;    0.000
966.829; 1600.300;  190.125;    0.000
966.996; 1657.300;  221.125;    0.000
967.164; 1611.300;  176.125;    0.000
967.332; 1713.300;  228.125;    0.000
967.500; 1584.300;  177.125;    0.000
967.667; 1723.300;  202.125;    0.000
967.835; 1634.300;  220.125;    0.000
968.003; 1697.300;  183.125;    0.000
968.170; 1622.300;  163.125;    0.000
968.338; 1597.300;  162.125;    0.000
968.505; 1685.300;  198.125;    0.000
968.673; 1540.300;  213.125;    0.000
968.841; 1658.300;  131.125;    0.000
969.008; 1628.300;  225.125;    0.000
969.175; 1580.300;  202.125;    0.000
969.343; 1590.300;  222.125;    0.000
969.510; 1613.300;  230.125;    0.000
969.678; 1640.300;  161.125;    0.000
969.845; 1617.300;  208.125;    0.000
970.012; 1607.300;  186.125;    0.000
970.180; 1708.300;  226.125;    0.000
970.347; 1644.300;  222.125;    0.000
970.514; 1677.300;  206.125;    0.000
970.681; 1688.300;  173.125;    0.000
970.849; 1579.300;  190.125;    0.000
971.016; 1659.300;  220.125;    0.000
971.183; 1719.300;  202.125;    0.000
971.350; 1598.300;  196.125;    0.000
971.517; 1601.300;  218.125;    0.000
971.684; 1671.300;  228.125;    0.000
971.851; 1615.300;  235.125;    0.000
972.018; 1613.300;  200.125;    0.000
972.185; 1630.300;  183.125;    0.000
972.352; 1644.300;  216.125;    0.000
972.519; 1613.300;  227.125;    0.000
972.686; 1607.300;  209.125;    0.000
972.853; 1606.300;  157.125;    0.000
973.020; 1610.300;  179.125;    0.000
973.186; 1627.300;  173.125;    0.000
973.353; 1626.300;  189.125;    0.000
973.520; 1585.300;  228.125;    0.000
973.687; 1712.300;  190.125;    0.000
973.853; 1618.300;  197.125;    0.000
974.020; 1719.300;  208.125;    0.000
974.187; 1644.300;  158.125;    0.000
974.353; 1606.300;  201.125;    0.000
974.520; 1609.300;  158.125;    0.000
974.687; 1608.300;  192.125;    0.000
974.853; 1593.300;  177.125;    0.000
975.020; 1619.300;  212.125;    0.000
975.186; 1628.300;  200.125;    0.000
975.353; 1578.300;  208.125;    0.000
975.519; 1551.300;  169.125;    0.000
975.685; 1622.300;  176.125;    0.000
975.852; 1631.300;  201.125;    0.000
976.018; 1637.300;  209.125;    0.000
976.184; 1582.300;  197.125;    0.000
976.351; 1603.300;  196.125;    0.000
976.517; 1584.300;  243.125;    0.000
976.683; 1577.300;  210.125;    0.000
976.849; 1658.300;  226.125;    0.000
977.016; 1542.300;  218.125;    0.000
977.182; 1565.300;  213.125;    0.000
977.348; 1565.300;  205.125;    0.000
977.514; 1506.300;  210.125;    0.000
977.680; 1584.300;  226.125;    0.000
977.846; 1510.300;  206.125;    0.000
978.012; 1554.300;  222.125;    0.000
978.178; 1596.300;  216.125;    0.000
978.344; 1602.300;  172.125;    0.000
978.510; 1525.300;  210.125;    0.000
978.676; 1612.300;  184.125;    0.000
978.842; 1554.300;  190.125;    0.000
979.008; 1553.300;  203.125;    0.000
979.174; 1618.300;  211.125;    0.000
979.340; 1592.300;  190.125;    0.000
979.505; 1599.300;  235.125;    0.000
979.671; 1644.300;  182.125;    0.000
979.837; 1622.300;  235.125;    0.000
980.003; 1570.300;  183.125;    0.000
980.168; 1639.300;  220.125;    0.000
980.334; 1589.300;  161.125;    0.000
980.499; 1627.300;  212.125;    0.000
980.665; 1628.300;  219.125;    0.000
980.831; 1586.300;  201.125;    0.000
980.996; 1573.300;  189.125;    0.000
981.162; 1706.300;  222.125;    0.000
981.327; 1611.300;  173.125;    0.000
981.493; 1661.300;  197.125;    0.000
981.658; 1630.300;  178.125;    0.000
981.823; 1714.300;  196.125;    0.000
981.989; 1674.300;  248.125;    0.000
982.154; 1709.300;  222.125;    0.000
982.319; 1566.300;  226.125;    0.000
982.485; 1650.300;  188.125;    0.000
982.650; 1722.300;  203.125;    0.000
982.815; 1640.300;  237.125;    0.000
982.980; 1656.300;  210.125;    0.000
983.146; 1660.300;  202.125;    0.000
983.311; 1604.300;  195.125;    0.000
983.476; 1576.300;  207.125;    0.000
983.641; 1587.300;  198.125;    0.000
983.806; 1653.300;  136.125;    0.000
983.971; 1685.300;  248.125;    0.000
984.136; 1603.300;  213.125;    0.000
984.301; 1625.300;  181.125;    0.000
984.466; 1641.300;  210.125;    0.000
984.631; 1620.300;  219.125;    0.000
984.796; 1624.300;  207.125;    0.000
984.961; 1615.300;  214.125;    0.000
985.126; 1622.300;  218.125;    0.000
985.291; 1658.300;  214.125;    0.000
985.455; 1595.300;  187.125;    0.000
985.620; 1553.300;  191.125;    0.000
985.785; 1625.300;  190.125;    0.000
985.950; 1614.300;  184.125;    0.000
986.114; 1594.300;  242.125;    0.000
986.279; 1633.300;  251.125;    0.000
986.444; 1592.300;  177.125;    0.000
986.608; 1680.300;  216.125;    0.000
986.773; 1656.300;  211.125;    0.000
986.937; 1750.300;  244.125;    0.000
987.102; 1642.300;  187.125;    0.000
987.266; 1645.300;  178.125;    0.000
987.431; 1675.300;  205.125;    0.000
987.595; 1671.300;  221.125;    0.000
987.760; 1710.300;  205.125;    0.000
987.924; 1674.300;  195.125;    0.000
988.088; 1634.300;  184.125;    0.000
988.253; 1661.300;  188.125;    0.000
988.417; 1667.300;  196.125;    0.000
988.581; 1580.300;  218.125;    0.000
988.746; 1592.300;  203.125;    0.000
988.910; 1584.300;  195.125;    0.000
989.074; 1602.300;  187.125;    0.000
989.238; 1589.300;  243.125;    0.000
989.402; 1585.300;  242.125;    0.000
989.566; 1567.300;  205.125;    0.000
989.731; 1609.300;  195.125;    0.000
989.895; 1534.300;  211.125;    0.000
990.059; 1640.300;  175.125;    0.000
990.223; 1616.300;  176.125;    0.000
990.387; 1623.300;  234.125;    0.000
990.551; 1532.300;  231.125;    0.000
990.714; 1580.300;  209.125;    0.000
990.878; 1531.300;  187.125;    0.000
991.042; 1539.300;  183.125;    0.000
991.206; 1555.300;  216.125;    0.000
991.370; 1621.300;  257.125;    0.000
991.534; 1583.300;  188.125;    0.000
991.697; 1611.300;  203.125;    0.000
991.861; 1621.300;  219.125;    0.000
992.025; 1559.300;  221.125;    0.000
992.188; 1592.300;  188.125;    0.000
992.352; 1551.300;  205.125;    0.000
992.516; 1613.300;  189.125;    0.000
992.679; 1596.300;  207.125;    0.000
992.843; 1559.300;  210.125;    0.000
993.006; 1635.300;  191.125;    0.000
993.170; 1599.300;  228.125;    0.000
993.333; 1582.300;  142.125;    0.000
993.497; 1601.300;  175.125;    0.000
993.660; 1629.300;  220.125;    0.000
993.824; 1579.300;  193.125;    0.000
993.987; 1555.300;  219.125;    0.000
994.150; 1610.300;  166.125;    0.000
994.314; 1622.300;  207.125;    0.000
994.477; 1606.300;  227.125;    0.000
994.640; 1525.300;  210.125;    0.000
994.803; 1617.300;  219.125;    0.000
994.967; 1656.300;  192.125;    0.000
995.130; 1546.300;  197.125;    0.000
995.293; 1586.300;  189.125;    0.000
995.456; 1586.300;  180.125;    0.000
995.619; 1586.300;  239.125;    0.000
995.782; 1597.300;  209.125;    0.000
995.945; 1620.300;  216.125;    0.000
996.108; 1608.300;  198.125;    0.000
996.271; 1570.300;  205.125;    0.000
996.434; 1614.300;  205.125;    0.000
996.597; 1624.300;  208.125;    0.000
996.760; 1581.300;  205.125;    0.000
996.923; 1591.300;  174.125;    0.000
997.086; 1520.300;  198.125;    0.000
997.248; 1560.300;  214.125;    0.000
997.411; 1587.300;  237.125;    0.000
997.574; 1552.300;  182.125;    0.000
997.737; 1585.300;  188.125;    0.000
997.899; 1619.300;  216.125;    0.000
998.062; 1619.300;  210.125;    0.000
998.225; 1481.300;  202.125;    0.000
998.387; 1577.300;  202.125;    0.000
998.550; 1552.300;  193.125;    0.000
998.712; 1517.300;  225.125;    0.000
998.875; 1533.300;  228.125;    0.000
999.037; 1516.300;  186.125;    0.000
999.200; 1546.300;  212.125;    0.000
999.362; 1521.300;  234.125;    0.000
999.525; 1496.300;  170.125;    0.000
999.687; 1572.300;  191.125;    0.000
999.849; 1553.300;  218.125;    0.000
1000.012; 1560.300;  187.125;    0.000
1000.174; 1602.300;  216.125;    0.000
1000.336; 1601.300;  194.125;    0.000
1000.499; 1587.300;  209.125;    0.000
1000.661; 1574.300;  208.125;    0.000
1000.823; 1571.300;  197.125;    0.000
1000.985; 1570.300;  201.125;    0.000
1001.147; 1686.300;  234.125;    0.000
1001.309; 1695.300;  180.125;    0.000
1001.471; 1566.300;  223.125;    0.000
1001.633; 1685.300;  198.125;    0.000
1001.796; 1622.300;  200.125;    0.000
1001.958; 1704.300;  204.125;    0.000
1002.119; 1713.300;  193.125;    0.000
1002.281; 1762.300;  205.125;    0.000
1002.443; 1854.300;  236.125;    0.000
1002.605; 1934.300;  197.125;    0.000
1002.767; 1989.300;  223.125;    0.000
1002.929; 2074.300;  220.125;    0.000
1003.091; 2102.300;  214.125;    0.000
1003.252; 2308.300;  233.125;    0.000
1003.414; 2354.300;  230.125;    0.000
1003.576; 2506.300;  203.125;    0.000
1003.738; 2612.300;  201.125;    0.000
1003.899; 2826.300;  222.125;    0.000
1004.061; 3001.300;  208.125;    0.000
1004.222; 3058.300;  194.125;    0.000
1004.384; 3172.300;  205.125;    0.000
1004.546; 3275.300;  162.125;    0.000
1004.707; 3346.300;  232.125;    0.000
1004.869; 3330.300;  223.125;    0.000
1005.030; 3322.300;  204.125;    0.000
1005.191; 3229.300;  214.125;    0.000
1005.353; 3151.300;  226.125;    0.000
1005.514; 2972.300;  201.125;    0.000
1005.675; 2846.300;  205.125;    0.000
1005.837; 2814.300;  235.125;    0.000
1005.998; 2640.300;  210.125;    0.000
1006.159; 2573.300;  214.125;    0.000
1006.321; 2577.300;  236.125;    0.000
1006.482; 2638.300;  214.125;    0.000
1006.643; 2794.300;  213.125;    0.000
1006.804; 2963.300;  204.125;    0.000
1006.965; 3074.300;  212.125;    0.000
1007.126; 3154.300;  251.125;    0.000
1007.287; 3150.300;  238.125;    0.000
1007.448; 3078.300;  198.125;    0.000
1007.609; 3021.300;  241.125;    0.000
1007.770; 2888.300;  213.125;    0.000
1007.931; 2980.300;  225.125;    0.000
1008.092; 2960.300;  204.125;    0.000
1008.253; 3006.300;  220.125;    0.000
1008.414; 3120.300;  180.125;    0.000
1008.575; 3143.300;  224.125;    0.000
1008.736; 3073.300;  164.125;    0.000
1008.896; 3199.300;  247.125;    0.000
1009.057; 3016.300;  263.125;    0.000
1009.218; 2989.300;  233.125;    0.000
1009.379; 2911.300;  207.125;    0.000
1009.539; 3126.300;  221.125;    0.000
1009.700; 3197.300;  209.125;    0.000
1009.860; 3209.300;  217.125;    0.000
1010.021; 3176.300;  182.125;    0.000
1010.182; 3177.300;  233.125;    0.000
1010.342; 3096.300;  210.125;    0.000
1010.503; 3254.300;  232.125;    0.000
1010.663; 3334.300;  228.125;    0.000
1010.823; 3347.300;  212.125;    0.000
1010.984; 3286.300;  244.125;    0.000
1011.144; 3305.300;  200.125;    0.000
1011.305; 3432.300;  237.125;    0.000
1011.465; 3540.300;  225.125;    0.000
1011.625; 3767.300;  215.125;    0.000
1011.785; 3752.300;  235.125;    0.000
1011.946; 3638.300;  231.125;    0.000
1012.106; 3453.300;  206.125;    0.000
1012.266; 3569.300;  218.125;    0.000
1012.426; 3625.300;  249.125;    0.000
1012.586; 3625.300;  217.125;    0.000
1012.746; 3686.300;  231.125;    0.000
1012.906; 3518.300;  230.125;    0.000
1013.066; 3596.300;  260.125;    0.000
1013.226; 3554.300;  206.125;    0.000
1013.386; 3576.300;  220.125;    0.000
1013.546; 3532.300;  233.125;    0.000
1013.706; 3522.300;  194.125;    0.000
1013.866; 3447.300;  209.125;    0.000
1014.026; 3544.300;  204.125;    0.000
1014.186; 3457.300;  203.125;    0.000
1014.346; 3477.300;  244.125;    0.000
1014.505; 3626.300;  206.125;    0.000
1014.665; 3637.300;  210.125;    0.000
1014.825; 3581.300;  235.125;    0.000
1014.985; 3704.300;  227.125;    0.000
1015.144; 3988.300;  237.125;    0.000
1015.304; 4034.300;  196.125;    0.000
1015.464; 3856.300;  228.125;    0.000
1015.623; 3964.300;  235.125;    0.000
1015.783; 4407.300;  187.125;    0.000
1015.942; 4501.300;  184.125;    0.000
1016.102; 4450.300;  245.125;    0.000
1016.261; 4417.300;  203.125;    0.000
1016.420; 4905.300;  209.125;    0.000
1016.580; 5531.300;  235.125;    0.000
1016.739; 5302.300;  175.125;    0.000
1016.899; 5112.300;  220.125;    0.000
1017.058; 5454.300;  219.125;    0.000
1017.217; 5894.300;  238.125;    0.000
1017.376; 5441.300;  235.125;    0.000
1017.536; 4818.300;  195.125;    0.000
1017.695; 4965.300;  215.125;    0.000
1017.854; 5092.300;  231.125;    0.000
1018.013; 4772.300;  184.125;    0.000
1018.172; 4506.300;  179.125;    0.000
1018.331; 4498.300;  205.125;    0.000
1018.490; 4856.300;  203.125;    0.000
1018.649; 5275.300;  261.125;    0.000
1018.808; 5533.300;  253.125;    0.000
1018.967; 5378.300;  201.125;    0.000
1019.126; 5422.300;  216.125;    0.000
1019.285; 5619.300;  169.125;    0.000
1019.444; 5331.300;  226.125;    0.000
1019.603; 5320.300;  252.125;    0.000
1019.762; 5032.300;  206.125;    0.000
1019.921; 5054.300;  235.125;    0.000
1020.079; 5579.300;  192.125;    0.000
1020.238; 5841.300;  226.125;    0.000
1020.397; 5707.300;  231.125;    0.000
1020.555; 5159.300;  218.125;    0.000
1020.714; 5294.300;  235.125;    0.000
1020.873; 5883.300;  229.125;    0.000
1021.031; 5946.300;  234.125;    0.000
1021.190; 5529.300;  223.125;    0.000
1021.348; 5307.300;  186.125;    0.000
1021.507; 5944.300;  201.125;    0.000
1021.665; 6325.300;  222.125;    0.000
1021.824; 6020.300;  208.125;    0.000
1021.982; 5546.300;  209.125;    0.000
1022.141; 5527.300;  224.125;    0.000
1022.299; 6201.300;  214.125;    0.000
1022.457; 6680.300;  176.125;    0.000
1022.616; 6043.300;  211.125;    0.000
1022.774; 5272.300;  218.125;    0.000
1022.932; 5531.300;  205.125;    0.000
1023.090; 6540.300;  246.125;    0.000
1023.249; 6865.300;  249.125;    0.000
1023.407; 6091.300;  235.125;    0.000
1023.565; 5481.300;  202.125;    0.000
1023.723; 5835.300;  210.125;    0.000
1023.881; 6739.300;  206.125;    0.000
1024.039; 6790.300;  240.125;    0.000
1024.197; 6121.300;  275.125;    0.000
1024.355; 5594.300;  228.125;    0.000
1024.513; 5899.300;  234.125;    0.000
1024.671; 6757.300;  222.125;    0.000
1024.829; 6902.300;  241.125;    0.000
1024.987; 6184.300;  209.125;    0.000
1025.145; 5662.300;  227.125;    0.000
1025.302; 5917.300;  208.125;    0.000
1025.460; 6620.300;  210.125;    0.000
1025.618; 7112.300;  192.125;    0.000
1025.776; 6515.300;  220.125;    0.000
1025.933; 5812.300;  223.125;    0.000
1026.091; 6006.300;  189.125;    0.000
1026.249; 6619.300;  210.125;    0.000
1026.406; 7201.300;  231.125;    0.000
1026.564; 6837.300;  247.125;    0.000
1026.721; 6303.300;  213.125;    0.000
1026.879; 5946.300;  208.125;    0.000
1027.036; 6663.300;  222.125;    0.000
1027.194; 7080.300;  253.125;    0.000
1027.351; 7178.300;  239.125;    0.000
1027.509; 6721.300;  232.125;    0.000
1027.666; 6148.300;  251.125;    0.000
1027.823; 6663.300;  212.125;    0.000
1027.981; 7187.300;  260.125;    0.000
1028.138; 7462.300;  263.125;    0.000
1028.295; 6990.300;  251.125;    0.000
1028.452; 6541.300;  249.125;    0.000
1028.609; 6513.300;  259.125;    0.000
1028.767; 6961.300;  255.125;    0.000
1028.924; 7546.300;  201.125;    0.000
1029.081; 7408.300;  217.125;    0.000
1029.238; 7016.300;  230.125;    0.000
1029.395; 6550.300;  263.125;    0.000
1029.552; 6792.300;  207.125;    0.000
1029.709; 7466.300;  220.125;    0.000
1029.866; 7779.300;  214.125;    0.000
1030.023; 7345.300;  224.125;    0.000
1030.180; 6686.300;  209.125;    0.000
1030.337; 6737.300;  269.125;    0.000
1030.494; 7244.300;  207.125;    0.000
1030.650; 7525.300;  230.125;    0.000
1030.807; 8054.300;  217.125;    0.000
1030.964; 7096.300;  212.125;    0.000
1031.121; 6894.300;  220.125;    0.000
1031.277; 6719.300;  233.125;    0.000
1031.434; 7416.300;  266.125;    0.000
1031.591; 7888.300;  270.125;    0.000
1031.747; 7983.300;  229.125;    0.000
1031.904; 7812.300;  227.125;    0.000
1032.060; 7069.300;  210.125;    0.000
1032.217; 6957.300;  218.125;    0.000
1032.373; 8041.300;  190.125;    0.000
1032.530; 8175.300;  236.125;    0.000
1032.686; 9083.300;  199.125;    0.000
1032.843; 8854.300;  216.125;    0.000
1032.999; 8302.300;  204.125;    0.000
1033.155; 8504.300;  208.125;    0.000
1033.312; 8407.300;  231.125;    0.000
1033.468;10067.300;  213.125;    0.000
1033.624;11114.300;  235.125;    0.000
1033.780;11568.300;  233.125;    0.000
1033.937;11563.300;  201.125;    0.000
1034.093;10221.300;  233.125;    0.000
1034.249;10577.300;  214.125;    0.000
1034.405;10474.300;  245.125;    0.000
1034.561;11533.300;  228.125;    0.000
1034.717;12747.300;  234.125;    0.000
1034.873;12266.300;  248.125;    0.000
1035.029;12724.300;  220.125;    0.000
1035.185;11442.300;  294.125;    0.000
1035.341;10862.300;  231.125;    0.000
1035.497;11887.300;  254.125;    0.000
1035.653;12256.300;  225.125;    0.000
1035.809;13503.300;  243.125;    0.000
1035.964;15324.300;  216.125;    0.000
1036.120;13628.300;  199.125;    0.000
1036.276;14281.300;  220.125;    0.000
1036.432;13103.300;  210.125;    0.000
1036.587;12169.300;  225.125;    0.000
1036.743;13623.300;  245.125;    0.000
1036.899;14547.300;  219.125;    0.000
1037.054;14536.300;  157.125;    0.000
1037.210;16277.300;  208.125;    0.000
1037.365;15986.300;  230.125;    0.000
1037.521;14989.300;  236.125;    0.000
1037.676;14399.300;  193.125;    0.000
1037.832;13799.300;  246.125;    0.000
1037.987;14106.300;  231.125;    0.000
1038.143;14792.300;  234.125;    0.000
1038.298;16858.301;  219.125;    0.000
1038.453;16259.300;  230.125;    0.000
1038.609;17715.301;  254.125;    0.000
1038.764;17810.301;  249.125;    0.000
1038.919;16513.301;  224.125;    0.000
1039.074;16560.301;  209.125;    0.000
1039.229;15531.300;  214.125;    0.000
1039.385;15033.300;  268.125;    0.000
1039.540;16218.300;  268.125;    0.000
1039.695;17696.301;  229.125;    0.000
1039.850;18681.301;  252.125;    0.000
1040.005;20099.301;  248.125;    0.000
1040.160;21532.301;  215.125;    0.000
1040.315;20346.301;  239.125;    0.000
1040.470;18987.301;  210.125;    0.000
1040.625;18024.301;  239.125;    0.000
1040.780;17571.301;  251.125;    0.000
1040.935;17227.301;  247.125;    0.000
1041.089;18360.301;  215.125;    0.000
1041.244;21515.301;  210.125;    0.000
1041.399;21733.301;  237.125;    0.000
1041.554;23009.301;  253.125;    0.000
1041.708;25311.301;  227.125;    0.000
1041.863;25127.301;  219.125;    0.000
1042.018;23513.301;  246.125;    0.000
1042.172;23274.301;  236.125;    0.000
1042.327;22944.301;  272.125;    0.000
1042.481;22545.301;  197.125;    0.000
1042.636;23067.301;  213.125;    0.000
1042.791;23174.301;  250.125;    0.000
1042.945;25936.301;  267.125;    0.000
1043.099;30001.301;  257.125;    0.000
1043.254;28250.301;  206.125;    0.000
1043.408;29411.301;  266.125;    0.000
1043.563;33130.301;  232.125;    0.000
1043.717;30777.301;  241.125;    0.000
1043.871;27950.301;  248.125;    0.000
1044.025;27210.301;  234.125;    0.000
1044.180;27299.301;  222.125;    0.000
1044.334;26918.301;  235.125;    0.000
1044.488;29846.301;  270.125;    0.000
1044.642;29586.301;  215.125;    0.000
1044.796;32368.301;  212.125;    0.000
1044.950;36515.301;  228.125;    0.000
1045.104;39626.301;  223.125;    0.000
1045.258;39748.301;  236.125;    0.000
1045.412;39822.301;  225.125;    0.000
1045.566;39735.301;  245.125;    0.000
1045.720;37393.301;  201.125;    0.000
1045.874;33726.301;  229.125;    0.000
1046.028;32791.301;  243.125;    0.000
1046.182;32808.301;  212.125;    0.000
1046.336;32815.301;  256.125;    0.000
1046.489;33876.301;  234.125;    0.000
1046.643;35298.301;  246.125;    0.000
1046.797;37837.301;  219.125;    0.000
1046.951;39449.301;  231.125;    0.000
1047.104;40833.301;  285.125;    0.000
1047.258;43959.301;  256.125;    0.000
1047.411;45606.301;  232.125;    0.000
1047.565;44536.301;  269.125;    0.000
1047.719;43334.301;  213.125;    0.000
1047.872;40694.301;  210.125;    0.000
1048.026;38723.301;  251.125;    0.000
1048.179;39392.301;  213.125;    0.000
1048.332;38191.301;  212.125;    0.000
1048.486;38602.301;  218.125;    0.000
1048.639;40138.301;  218.125;    0.000
1048.792;38463.301;  247.125;    0.000
1048.946;42539.301;  208.125;    0.000
1049.099;47299.301;  247.125;    0.000
1049.252;46242.301;  274.125;    0.000
1049.406;42722.301;  232.125;    0.000
1049.559;44711.301;  251.125;    0.000
1049.712;51695.301;  243.125;    0.000
1049.865;55785.301;  219.125;    0.000
1050.018;54392.301;  216.125;    0.000
1050.171;47268.301;  237.125;    0.000
1050.324;45859.301;  291.125;    0.000
1050.477;49213.301;  241.125;    0.000
1050.630;53700.301;  245.125;    0.000
1050.783;55529.301;  213.125;    0.000
1050.936;51227.301;  246.125;    0.000
1051.089;46563.301;  255.125;    0.000
1051.242;48242.301;  228.125;    0.000
1051.394;53845.301;  276.125;    0.000
1051.547;56656.301;  246.125;    0.000
1051.700;54503.301;  252.125;    0.000
1051.853;52315.301;  267.125;    0.000
1052.005;55040.301;  261.125;    0.000
1052.158;58346.301;  313.125;    0.000
1052.311;63383.301;  264.125;    0.000
1052.463;61303.301;  271.125;    0.000
1052.616;54615.301;  291.125;    0.000
1052.768;50907.301;  298.125;    0.000
1052.921;48918.301;  262.125;    0.000
1053.073;54027.301;  307.125;    0.000
1053.226;60321.301;  301.125;    0.000
1053.378;65102.301;  309.125;    0.000
1053.531;65102.301;  280.125;    0.000
1053.683;65102.301;  258.125;    0.000
1053.835;58227.301;  267.125;    0.000
1053.988;44462.301;  294.125;    0.000
1054.140; 7852.300;  292.125;    0.000
1054.292; 1920.300;  249.125;    0.000
1054.444; 1517.300;  288.125;    0.000
1054.596; 1357.300;  275.125;    0.000
1054.749; 1284.300;  284.125;    0.000
1054.901; 1173.300;  291.125;    0.000
1055.053; 1067.300;  274.125;    0.000
1055.205; 1012.300;  313.125;    0.000
1055.357;  950.300;  309.125;    0.000
1055.509;  907.300;  283.125;    0.000
1055.661;  886.300;  341.125;    0.000
1055.813;  841.300;  288.125;    0.000
1055.965;  895.300;  300.125;    0.000
1056.116;  802.300;  296.125;    0.000
1056.268;  863.300;  319.125;    0.000
1056.420;  814.300;  298.125;    0.000

