
Integration time [ms]:   1.000
Averaging Nr. [scans]: 1
Smoothing Nr. [pixels]: 0
Data measured with spectrometer [name]: NIR
Wave   ;Sample   ;Dark     ;Reference
[nm]   ;[counts] ;[counts] ;[counts] 

691.496;   -8.000;  163.125;    0.000
691.696;   10.000;  208.125;    0.000
691.896;   -4.000;  111.125;    0.000
692.096;   11.000;  178.125;    0.000
692.296;  -48.000;   93.125;    0.000
692.496;   -2.000;  161.125;    0.000
692.695;  -53.000;  135.125;    0.000
692.895;   12.000;  179.125;    0.000
693.095;   -4.000;  158.125;    0.000
693.295;   24.000;  168.125;    0.000
693.495;   19.000;  170.125;    0.000
693.695;  -22.000;  155.125;    0.000
693.894;  -18.000;  151.125;    0.000
694.094;  -22.000;  164.125;    0.000
694.294;  -36.000;  129.125;    0.000
694.494;  230.000;  170.125;    0.000
694.693; 2769.000;  137.125;    0.000
694.893; 3067.000;  163.125;    0.000
695.093; 3017.000;  121.125;    0.000
695.293; 3088.000;  144.125;    0.000
695.492; 3053.000;   88.125;    0.000
695.692; 3123.000;  148.125;    0.000
695.891; 3032.000;  125.125;    0.000
696.091; 3107.000;  184.125;    0.000
696.291; 3156.000;  153.125;    0.000
696.490; 3123.000;  131.125;    0.000
696.690; 3094.000;  123.125;    0.000
696.889; 3266.000;  180.125;    0.000
697.089; 3092.000;  147.125;    0.000
697.288; 3256.000;  164.125;    0.000
697.488; 3218.000;  133.125;    0.000
697.687; 3255.000;  153.125;    0.000
697.887; 3111.000;  119.125;    0.000
698.086; 3230.000;  143.125;    0.000
698.286; 3210.000;  125.125;    0.000
698.485; 3217.000;  120.125;    0.000
698.684; 3266.000;  116.125;    0.000
698.884; 3272.000;  131.125;    0.000
699.083; 3127.000;  115.125;    0.000
699.282; 3235.000;  144.125;    0.000
699.482; 3235.000;  109.125;    0.000
699.681; 3133.000;  115.125;    0.000
699.880; 3238.000;  125.125;    0.000
700.080; 3334.000;  139.125;    0.000
700.279; 3232.000;  111.125;    0.000
700.478; 3242.000;  146.125;    0.000
700.677; 3227.000;  131.125;    0.000
700.877; 3319.000;  156.125;    0.000
701.076; 3281.000;  153.125;    0.000
701.275; 3278.000;  123.125;    0.000
701.474; 3259.000;  150.125;    0.000
701.673; 3186.000;   97.125;    0.000
701.872; 3280.000;  139.125;    0.000
702.071; 3203.000;  108.125;    0.000
702.271; 3323.000;  125.125;    0.000
702.470; 3256.000;  108.125;    0.000
702.669; 3305.000;  102.125;    0.000
702.868; 3290.000;  153.125;    0.000
703.067; 3328.000;  145.125;    0.000
703.266; 3322.000;   96.125;    0.000
703.465; 3374.000;  165.125;    0.000
703.664; 3377.000;  106.125;    0.000
703.863; 3299.000;  144.125;    0.000
704.062; 3266.000;   86.125;    0.000
704.260; 3377.000;   99.125;    0.000
704.459; 3329.000;  112.125;    0.000
704.658; 3357.000;  106.125;    0.000
704.857; 3348.000;  129.125;    0.000
705.056; 3377.000;   98.125;    0.000
705.255; 3279.000;   97.125;    0.000
705.454; 3263.000;  101.125;    0.000
705.652; 3373.000;  142.125;    0.000
705.851; 3372.000;  100.125;    0.000
706.050; 3467.000;  162.125;    0.000
706.249; 3338.000;  146.125;    0.000
706.447; 3340.000;  120.125;    0.000
706.646; 3377.000;  114.125;    0.000
706.845; 3436.000;  117.125;    0.000
707.043; 3338.000;  136.125;    0.000
707.242; 3365.000;   90.125;    0.000
707.441; 3376.000;  131.125;    0.000
707.639; 3491.000;  120.125;    0.000
707.838; 3416.000;  122.125;    0.000
708.037; 3497.000;  109.125;    0.000
708.235; 3457.000;  122.125;    0.000
708.434; 3424.000;  109.125;    0.000
708.632; 3404.000;   47.125;    0.000
708.831; 3462.000;  122.125;    0.000
709.029; 3479.000;  130.125;    0.000
709.228; 3365.000;  112.125;    0.000
709.426; 3500.000;  128.125;    0.000
709.625; 3538.000;  129.125;    0.000
709.823; 3391.000;  130.125;    0.000
710.022; 3528.000;   90.125;    0.000
710.220; 3459.000;  131.125;    0.000
710.418; 3508.000;  133.125;    0.000
710.617; 3615.000;   82.125;    0.000
710.815; 3580.000;   90.125;    0.000
711.013; 3490.000;   86.125;    0.000
711.212; 3534.000;  117.125;    0.000
711.410; 3610.000;  106.125;    0.000
711.608; 3584.000;  138.125;    0.000
711.807; 3560.000;  116.125;    0.000
712.005; 3481.000;   82.125;    0.000
712.203; 3605.000;   90.125;    0.000
712.401; 3653.000;  124.125;    0.000
712.599; 3606.000;   64.125;    0.000
712.798; 3620.000;  113.125;    0.000
712.996; 3581.000;  100.125;    0.000
713.194; 3647.000;  130.125;    0.000
713.392; 3611.000;   89.125;    0.000
713.590; 3705.000;  105.125;    0.000
713.788; 3666.000;  100.125;    0.000
713.986; 3677.000;  117.125;    0.000
714.184; 3734.000;   72.125;    0.000
714.382; 3732.000;   88.125;    0.000
714.580; 3769.000;   88.125;    0.000
714.778; 3807.000;  129.125;    0.000
714.976; 3843.000;   90.125;    0.000
715.174; 3959.000;  119.125;    0.000
715.372; 4026.000;  117.125;    0.000
715.570; 4209.000;  101.125;    0.000
715.768; 4414.000;  122.125;    0.000
715.966; 4506.000;  114.125;    0.000
716.164; 4378.000;  135.125;    0.000
716.362; 4295.000;  126.125;    0.000
716.560; 4217.000;  126.125;    0.000
716.758; 4241.000;   98.125;    0.000
716.955; 4135.000;   76.125;    0.000
717.153; 4061.000;   45.125;    0.000
717.351; 4024.000;  106.125;    0.000
717.549; 4121.000;  108.125;    0.000
717.746; 4055.000;   66.125;    0.000
717.944; 4096.000;  127.125;    0.000
718.142; 4053.000;  148.125;    0.000
718.340; 3990.000;   94.125;    0.000
718.537; 3991.000;  107.125;    0.000
718.735; 4042.000;  130.125;    0.000
718.933; 3992.000;  111.125;    0.000
719.130; 4069.000;  107.125;    0.000
719.328; 3967.000;  128.125;    0.000
719.525; 3986.000;  141.125;    0.000
719.723; 3949.000;  122.125;    0.000
719.920; 3942.000;   85.125;    0.000
720.118; 3969.000;  115.125;    0.000
720.316; 4004.000;  153.125;    0.000
720.513; 3947.000;  120.125;    0.000
720.711; 3893.000;  134.125;    0.000
720.908; 4087.000;  126.125;    0.000
721.105; 3967.000;  119.125;    0.000
721.303; 3944.000;  112.125;    0.000
721.500; 4016.000;  125.125;    0.000
721.698; 3925.000;   94.125;    0.000
721.895; 4094.000;  118.125;    0.000
722.092; 3914.000;   77.125;    0.000
722.290; 4024.000;  135.125;    0.000
722.487; 3932.000;  154.125;    0.000
722.684; 3917.000;  122.125;    0.000
722.882; 3919.000;   90.125;    0.000
723.079; 3927.000;  132.125;    0.000
723.276; 3998.000;   95.125;    0.000
723.473; 3914.000;  106.125;    0.000
723.671; 3937.000;   80.125;    0.000
723.868; 4022.000;  112.125;    0.000
724.065; 3960.000;  107.125;    0.000
724.262; 3921.000;  119.125;    0.000
724.459; 3991.000;   80.125;    0.000
724.656; 4085.000;  109.125;    0.000
724.854; 4121.000;  107.125;    0.000
725.051; 4092.000;  103.125;    0.000
725.248; 3963.000;  101.125;    0.000
725.445; 4048.000;   93.125;    0.000
725.642; 4061.000;   92.125;    0.000
725.839; 4019.000;  157.125;    0.000
726.036; 3974.000;   71.125;    0.000
726.233; 4010.000;   80.125;    0.000
726.430; 4082.000;  146.125;    0.000
726.627; 4121.000;  103.125;    0.000
726.824; 4030.000;   46.125;    0.000
727.021; 4099.000;  149.125;    0.000
727.218; 4103.000;   87.125;    0.000
727.414; 4111.000;  112.125;    0.000
727.611; 4199.000;  111.125;    0.000
727.808; 4089.000;  122.125;    0.000
728.005; 4194.000;   58.125;    0.000
728.202; 4104.000;  129.125;    0.000
728.399; 4086.000;  111.125;    0.000
728.595; 4064.000;   93.125;    0.000
728.792; 4125.000;   78.125;    0.000
728.989; 4245.000;  104.125;    0.000
729.186; 4108.000;  110.125;    0.000
729.382; 4143.000;   93.125;    0.000
729.579; 4114.000;  102.125;    0.000
729.776; 4177.000;  112.125;    0.000
729.972; 4105.000;  101.125;    0.000
730.169; 4188.000;  150.125;    0.000
730.366; 4070.000;   92.125;    0.000
730.562; 4227.000;   74.125;    0.000
730.759; 4209.000;   97.125;    0.000
730.955; 4291.000;   86.125;    0.000
731.152; 4172.000;   88.125;    0.000
731.348; 4149.000;  117.125;    0.000
731.545; 4146.000;   62.125;    0.000
731.741; 4217.000;   84.125;    0.000
731.938; 4136.000;  108.125;    0.000
732.134; 4194.000;  115.125;    0.000
732.331; 4273.000;   88.125;    0.000
732.527; 4303.000;   96.125;    0.000
732.724; 4263.000;  103.125;    0.000
732.920; 4190.000;   93.125;    0.000
733.116; 4269.000;  109.125;    0.000
733.313; 4191.000;   77.125;    0.000
733.509; 4264.000;   81.125;    0.000
733.705; 4230.000;  141.125;    0.000
733.902; 4247.000;   88.125;    0.000
734.098; 4285.000;   56.125;    0.000
734.294; 4202.000;  122.125;    0.000
734.490; 4306.000;  102.125;    0.000
734.687; 4179.000;   70.125;    0.000
734.883; 4078.000;   73.125;    0.000
735.079; 4253.000;   65.125;    0.000
735.275; 4265.000;  112.125;    0.000
735.471; 4303.000;  124.125;    0.000
735.667; 4276.000;   94.125;    0.000
735.863; 4229.000;  106.125;    0.000
736.060; 4341.000;  106.125;    0.000
736.256; 4297.000;   95.125;    0.000
736.452; 4364.000;  103.125;    0.000
736.648; 4348.000;  106.125;    0.000
736.844; 4323.000;   98.125;    0.000
737.040; 4473.000;  118.125;    0.000
737.236; 4351.000;   95.125;    0.000
737.432; 4462.000;   59.125;    0.000
737.628; 4476.000;  120.125;    0.000
737.824; 4342.000;   78.125;    0.000
738.019; 4351.000;   98.125;    0.000
738.215; 4404.000;  127.125;    0.000
738.411; 4453.000;  111.125;    0.000
738.607; 4448.000;   69.125;    0.000
738.803; 4393.000;   40.125;    0.000
738.999; 4486.000;  128.125;    0.000
739.195; 4508.000;   81.125;    0.000
739.390; 4567.000;   97.125;    0.000
739.586; 4442.000;  100.125;    0.000
739.782; 4617.000;  135.125;    0.000
739.978; 4589.000;  121.125;    0.000
740.173; 4476.000;   92.125;    0.000
740.369; 4738.000;   92.125;    0.000
740.565; 4609.000;  119.125;    0.000
740.760; 4581.000;  139.125;    0.000
740.956; 4641.000;  134.125;    0.000
741.152; 4666.000;  107.125;    0.000
741.347; 4609.000;   63.125;    0.000
741.543; 4643.000;   99.125;    0.000
741.738; 4829.000;  119.125;    0.000
741.934; 4985.000;  156.125;    0.000
742.129; 5229.000;   87.125;    0.000
742.325; 5673.000;  143.125;    0.000
742.520; 6208.000;  109.125;    0.000
742.716; 5939.000;  135.125;    0.000
742.911; 5711.000;   77.125;    0.000
743.107; 5757.000;  117.125;    0.000
743.302; 5587.000;   93.125;    0.000
743.498; 5576.000;  118.125;    0.000
743.693; 5622.000;   95.125;    0.000
743.888; 5736.000;  122.125;    0.000
744.084; 6641.000;  104.125;    0.000
744.279; 7674.000;   94.125;    0.000
744.474; 7794.000;  138.125;    0.000
744.670; 7195.000;  113.125;    0.000
744.865; 6788.000;  116.125;    0.000
745.060; 6441.000;   89.125;    0.000
745.255; 6327.000;  144.125;    0.000
745.451; 6227.000;   98.125;    0.000
745.646; 6168.000;  110.125;    0.000
745.841; 6018.000;   87.125;    0.000
746.036; 6191.000;   98.125;    0.000
746.231; 6148.000;  153.125;    0.000
746.426; 6454.000;   90.125;    0.000
746.622; 7228.000;  154.125;    0.000
746.817; 8989.000;  111.125;    0.000
747.012;10182.000;  110.125;    0.000
747.207; 9170.000;   76.125;    0.000
747.402; 8341.000;   94.125;    0.000
747.597; 7860.000;   68.125;    0.000
747.792; 7491.000;  125.125;    0.000
747.987; 7199.000;   92.125;    0.000
748.182; 6991.000;  113.125;    0.000
748.377; 6645.000;   72.125;    0.000
748.572; 6380.000;  135.125;    0.000
748.767; 6286.000;   98.125;    0.000
748.961; 6166.000;  123.125;    0.000
749.156; 5846.000;   96.125;    0.000
749.351; 5767.000;  121.125;    0.000
749.546; 5680.000;   95.125;    0.000
749.741; 5599.000;  144.125;    0.000
749.936; 5573.000;  105.125;    0.000
750.130; 5425.000;  101.125;    0.000
750.325; 5556.000;  126.125;    0.000
750.520; 5384.000;  113.125;    0.000
750.715; 5352.000;  135.125;    0.000
750.909; 5327.000;  138.125;    0.000
751.104; 5201.000;   96.125;    0.000
751.299; 5196.000;  118.125;    0.000
751.493; 5178.000;  124.125;    0.000
751.688; 5156.000;  131.125;    0.000
751.882; 5194.000;   96.125;    0.000
752.077; 5109.000;  123.125;    0.000
752.272; 5074.000;  112.125;    0.000
752.466; 5015.000;  143.125;    0.000
752.661; 4878.000;  107.125;    0.000
752.855; 5031.000;   97.125;    0.000
753.050; 5101.000;  125.125;    0.000
753.244; 4991.000;  161.125;    0.000
753.439; 4790.000;  101.125;    0.000
753.633; 4905.000;  129.125;    0.000
753.828; 4906.000;  114.125;    0.000
754.022; 4909.000;  118.125;    0.000
754.216; 4778.000;  126.125;    0.000
754.411; 4853.000;  148.125;    0.000
754.605; 4791.000;  100.125;    0.000
754.799; 4753.000;  146.125;    0.000
754.994; 4769.000;  116.125;    0.000
755.188; 4751.000;  146.125;    0.000
755.382; 4833.000;  103.125;    0.000
755.576; 4808.000;  119.125;    0.000
755.771; 4737.000;  100.125;    0.000
755.965; 4869.000;  129.125;    0.000
756.159; 4722.000;  100.125;    0.000
756.353; 4763.000;  153.125;    0.000
756.547; 4754.000;  113.125;    0.000
756.742; 4785.000;  129.125;    0.000
756.936; 4667.000;   70.125;    0.000
757.130; 4773.000;   91.125;    0.000
757.324; 4754.000;   92.125;    0.000
757.518; 4857.000;  128.125;    0.000
757.712; 4749.000;  146.125;    0.000
757.906; 4756.000;  114.125;    0.000
758.100; 4785.000;  153.125;    0.000
758.294; 4875.000;  133.125;    0.000
758.488; 4783.000;  149.125;    0.000
758.682; 4783.000;  132.125;    0.000
758.876; 4678.000;  128.125;    0.000
759.070; 4699.000;  178.125;    0.000
759.264; 4596.000;   98.125;    0.000
759.458; 4636.000;  168.125;    0.000
759.651; 4632.000;  131.125;    0.000
759.845; 4669.000;  133.125;    0.000
760.039; 4702.000;  120.125;    0.000
760.233; 4700.000;  116.125;    0.000
760.427; 4718.000;  121.125;    0.000
760.620; 4738.000;  163.125;    0.000
760.814; 4719.000;  106.125;    0.000
761.008; 4695.000;  119.125;    0.000
761.202; 4632.000;  121.125;    0.000
761.395; 4815.000;  136.125;    0.000
761.589; 4739.000;  111.125;    0.000
761.783; 4814.000;  116.125;    0.000
761.976; 4808.000;  139.125;    0.000
762.170; 4842.000;  140.125;    0.000
762.363; 4788.000;  115.125;    0.000
762.557; 4650.000;  129.125;    0.000
762.750; 4783.000;   85.125;    0.000
762.944; 4686.000;  107.125;    0.000
763.138; 4797.000;   99.125;    0.000
763.331; 4788.000;   97.125;    0.000
763.524; 4807.000;  100.125;    0.000
763.718; 4910.000;  130.125;    0.000
763.911; 4823.000;  127.125;    0.000
764.105; 4701.000;   69.125;    0.000
764.298; 4798.000;   94.125;    0.000
764.492; 4804.000;  129.125;    0.000
764.685; 4811.000;  114.125;    0.000
764.878; 4756.000;  145.125;    0.000
765.072; 4811.000;  124.125;    0.000
765.265; 4969.000;  124.125;    0.000
765.458; 4726.000;  108.125;    0.000
765.651; 4828.000;  132.125;    0.000
765.845; 4732.000;  106.125;    0.000
766.038; 4798.000;  155.125;    0.000
766.231; 5363.000;  153.125;    0.000
766.424; 7305.000;  165.125;    0.000
766.617; 7430.000;   85.125;    0.000
766.811; 5098.000;  140.125;    0.000
767.004; 4849.000;  151.125;    0.000
767.197; 5066.000;  178.125;    0.000
767.390; 4899.000;  112.125;    0.000
767.583; 4875.000;  134.125;    0.000
767.776; 4873.000;  101.125;    0.000
767.969; 4811.000;   99.125;    0.000
768.162; 5015.000;  152.125;    0.000
768.355; 4794.000;  115.125;    0.000
768.548; 4972.000;  154.125;    0.000
768.741; 4903.000;  124.125;    0.000
768.934; 5130.000;  129.125;    0.000
769.127; 5082.000;  137.125;    0.000
769.320; 4979.000;  115.125;    0.000
769.513; 5190.000;  144.125;    0.000
769.706; 5646.000;  107.125;    0.000
769.898; 7343.000;  134.125;    0.000
770.091; 6209.000;  128.125;    0.000
770.284; 5268.000;   97.125;    0.000
770.477; 5267.000;  135.125;    0.000
770.670; 5205.000;  137.125;    0.000
770.862; 5148.000;  112.125;    0.000
771.055; 5285.000;  127.125;    0.000
771.248; 5244.000;  116.125;    0.000
771.441; 5500.000;  101.125;    0.000
771.633; 5377.000;  130.125;    0.000
771.826; 5506.000;  147.125;    0.000
772.018; 5475.000;  117.125;    0.000
772.211; 5384.000;  141.125;    0.000
772.404; 5484.000;  104.125;    0.000
772.596; 5515.000;  128.125;    0.000
772.789; 5727.000;  131.125;    0.000
772.981; 5664.000;  134.125;    0.000
773.174; 5696.000;  108.125;    0.000
773.366; 5810.000;  153.125;    0.000
773.559; 5828.000;  137.125;    0.000
773.751; 5988.000;  119.125;    0.000
773.944; 6172.000;  148.125;    0.000
774.136; 6236.000;  155.125;    0.000
774.329; 6383.000;  126.125;    0.000
774.521; 6446.000;  116.125;    0.000
774.713; 6588.000;  119.125;    0.000
774.906; 6900.000;  179.125;    0.000
775.098; 7204.000;  127.125;    0.000
775.290; 7494.000;  146.125;    0.000
775.483; 7761.000;  123.125;    0.000
775.675; 8112.000;  119.125;    0.000
775.867; 8588.000;  119.125;    0.000
776.059; 9426.000;  137.125;    0.000
776.251;10243.000;  154.125;    0.000
776.444;11605.000;  101.125;    0.000
776.636;13310.000;  153.125;    0.000
776.828;16232.000;  127.125;    0.000
777.020;22459.000;  140.125;    0.000
777.212;32568.000;  160.125;    0.000
777.404;36351.000;  170.125;    0.000
777.596;33889.000;  136.125;    0.000
777.788;25996.000;  137.125;    0.000
777.980;20360.000;  129.125;    0.000
778.172;16810.000;  139.125;    0.000
778.364;14228.000;  124.125;    0.000
778.556;12787.000;  163.125;    0.000
778.748;11314.000;  142.125;    0.000
778.940;10568.000;  178.125;    0.000
779.132; 9919.000;  159.125;    0.000
779.324; 9142.000;  109.125;    0.000
779.516; 8566.000;  143.125;    0.000
779.708; 8101.000;  158.125;    0.000
779.900; 7676.000;  142.125;    0.000
780.091; 7306.000;  131.125;    0.000
780.283; 7103.000;  176.125;    0.000
780.475; 6879.000;  151.125;    0.000
780.667; 6709.000;  120.125;    0.000
780.859; 6476.000;  134.125;    0.000
781.050; 6223.000;  183.125;    0.000
781.242; 6262.000;   95.125;    0.000
781.434; 6086.000;  127.125;    0.000
781.625; 5919.000;  163.125;    0.000
781.817; 5782.000;  170.125;    0.000
782.008; 5792.000;  123.125;    0.000
782.200; 5727.000;  141.125;    0.000
782.392; 5703.000;  149.125;    0.000
782.583; 5484.000;  155.125;    0.000
782.775; 5495.000;  140.125;    0.000
782.966; 5392.000;  167.125;    0.000
783.158; 5416.000;  164.125;    0.000
783.349; 5284.000;  174.125;    0.000
783.541; 5272.000;  141.125;    0.000
783.732; 5202.000;  115.125;    0.000
783.924; 5146.000;  135.125;    0.000
784.115; 5086.000;  157.125;    0.000
784.306; 4976.000;  102.125;    0.000
784.498; 5230.000;  124.125;    0.000
784.689; 5087.000;  171.125;    0.000
784.880; 5091.000;  165.125;    0.000
785.072; 4911.000;  152.125;    0.000
785.263; 4876.000;  146.125;    0.000
785.454; 4843.000;  145.125;    0.000
785.645; 4902.000;  127.125;    0.000
785.837; 4868.000;  138.125;    0.000
786.028; 4908.000;  151.125;    0.000
786.219; 4966.000;  142.125;    0.000
786.410; 4820.000;  140.125;    0.000
786.601; 4905.000;  137.125;    0.000
786.792; 4804.000;  158.125;    0.000
786.984; 4864.000;  139.125;    0.000
787.175; 4779.000;  140.125;    0.000
787.366; 4768.000;  145.125;    0.000
787.557; 4791.000;  156.125;    0.000
787.748; 4744.000;  148.125;    0.000
787.939; 4858.000;  157.125;    0.000
788.130; 4834.000;  179.125;    0.000
788.321; 4830.000;  142.125;    0.000
788.512; 4890.000;  167.125;    0.000
788.703; 4736.000;  145.125;    0.000
788.894; 4845.000;  132.125;    0.000
789.084; 4875.000;  113.125;    0.000
789.275; 4889.000;  134.125;    0.000
789.466; 4939.000;  151.125;    0.000
789.657; 4980.000;  138.125;    0.000
789.848; 5021.000;  145.125;    0.000
790.039; 4940.000;  130.125;    0.000
790.229; 4967.000;  140.125;    0.000
790.420; 4820.000;  135.125;    0.000
790.611; 4820.000;  156.125;    0.000
790.801; 4873.000;   64.125;    0.000
790.992; 4918.000;  150.125;    0.000
791.183; 4940.000;  177.125;    0.000
791.373; 4846.000;   91.125;    0.000
791.564; 4788.000;   85.125;    0.000
791.755; 4735.000;  125.125;    0.000
791.945; 4863.000;   94.125;    0.000
792.136; 4842.000;   98.125;    0.000
792.326; 4829.000;  105.125;    0.000
792.517; 4750.000;  136.125;    0.000
792.707; 4916.000;  140.125;    0.000
792.898; 4894.000;  164.125;    0.000
793.088; 4939.000;  116.125;    0.000
793.279; 4921.000;  112.125;    0.000
793.469; 4969.000;  105.125;    0.000
793.660; 5130.000;  161.125;    0.000
793.850; 5251.000;  133.125;    0.000
794.040; 5280.000;  121.125;    0.000
794.231; 5595.000;  115.125;    0.000
794.421; 5939.000;  152.125;    0.000
794.611; 6645.000;  132.125;    0.000
794.802; 7316.000;  144.125;    0.000
794.992; 7858.000;  142.125;    0.000
795.182; 8010.000;  179.125;    0.000
795.372; 7536.000;  167.125;    0.000
795.563; 6991.000;  149.125;    0.000
795.753; 6418.000;  117.125;    0.000
795.943; 6031.000;  146.125;    0.000
796.133; 5817.000;  119.125;    0.000
796.323; 5578.000;  141.125;    0.000
796.513; 5310.000;  134.125;    0.000
796.703; 5257.000;  116.125;    0.000
796.893; 5206.000;  120.125;    0.000
797.083; 5019.000;  131.125;    0.000
797.273; 5053.000;  118.125;    0.000
797.463; 4869.000;  130.125;    0.000
797.653; 4855.000;   87.125;    0.000
797.843; 4785.000;  123.125;    0.000
798.033; 4670.000;  115.125;    0.000
798.223; 4609.000;  142.125;    0.000
798.413; 4577.000;  148.125;    0.000
798.603; 4488.000;  147.125;    0.000
798.793; 4397.000;  107.125;    0.000
798.983; 4327.000;  121.125;    0.000
799.172; 4365.000;  120.125;    0.000
799.362; 4311.000;  145.125;    0.000
799.552; 4272.000;  101.125;    0.000
799.742; 4141.000;  149.125;    0.000
799.932; 4236.000;  104.125;    0.000
800.121; 4175.000;  175.125;    0.000
800.311; 4102.000;  132.125;    0.000
800.501; 4108.000;  118.125;    0.000
800.690; 4197.000;  162.125;    0.000
800.880; 4232.000;  141.125;    0.000
801.070; 4116.000;  151.125;    0.000
801.259; 4081.000;  167.125;    0.000
801.449; 4120.000;  108.125;    0.000
801.638; 4051.000;  176.125;    0.000
801.828; 4008.000;  118.125;    0.000
802.017; 4032.000;  179.125;    0.000
802.207; 4023.000;  127.125;    0.000
802.396; 3982.000;  167.125;    0.000
802.586; 3928.000;  129.125;    0.000
802.775; 4002.000;  142.125;    0.000
802.965; 4016.000;  147.125;    0.000
803.154; 3958.000;  179.125;    0.000
803.343; 3949.000;  117.125;    0.000
803.533; 4034.000;  120.125;    0.000
803.722; 3903.000;  122.125;    0.000
803.911; 3876.000;  155.125;    0.000
804.101; 3963.000;  147.125;    0.000
804.290; 3891.000;  160.125;    0.000
804.479; 3899.000;  139.125;    0.000
804.668; 3824.000;  180.125;    0.000
804.857; 3738.000;  131.125;    0.000
805.047; 3714.000;  119.125;    0.000
805.236; 3844.000;  139.125;    0.000
805.425; 3904.000;  163.125;    0.000
805.614; 3796.000;  103.125;    0.000
805.803; 3895.000;  133.125;    0.000
805.992; 3825.000;  147.125;    0.000
806.181; 3784.000;  109.125;    0.000
806.370; 3712.000;  133.125;    0.000
806.559; 3750.000;  119.125;    0.000
806.748; 3788.000;  144.125;    0.000
806.937; 3733.000;  147.125;    0.000
807.126; 3694.000;  134.125;    0.000
807.315; 3822.000;  132.125;    0.000
807.504; 3787.000;  141.125;    0.000
807.693; 3714.000;  145.125;    0.000
807.882; 3725.000;   91.125;    0.000
808.071; 3725.000;  116.125;    0.000
808.260; 3657.000;  105.125;    0.000
808.448; 3788.000;  184.125;    0.000
808.637; 3799.000;  146.125;    0.000
808.826; 3687.000;  153.125;    0.000
809.015; 3793.000;  113.125;    0.000
809.203; 3765.000;  166.125;    0.000
809.392; 3752.000;  117.125;    0.000
809.581; 3762.000;  186.125;    0.000
809.770; 3774.000;  122.125;    0.000
809.958; 3711.000;  140.125;    0.000
810.147; 3757.000;  130.125;    0.000
810.335; 3776.000;  112.125;    0.000
810.524; 3687.000;  106.125;    0.000
810.713; 3855.000;  154.125;    0.000
810.901; 3876.000;  131.125;    0.000
811.090; 3817.000;  164.125;    0.000
811.278; 3852.000;  159.125;    0.000
811.467; 3962.000;  194.125;    0.000
811.655; 3946.000;  164.125;    0.000
811.844; 3972.000;  149.125;    0.000
812.032; 3907.000;  169.125;    0.000
812.220; 3902.000;  163.125;    0.000
812.409; 3771.000;  134.125;    0.000
812.597; 3965.000;  165.125;    0.000
812.785; 3866.000;  180.125;    0.000
812.974; 3850.000;  166.125;    0.000
813.162; 3905.000;  171.125;    0.000
813.350; 3974.000;  142.125;    0.000
813.539; 3939.000;  126.125;    0.000
813.727; 3831.000;  153.125;    0.000
813.915; 3947.000;  138.125;    0.000
814.103; 3963.000;  191.125;    0.000
814.291; 3867.000;  142.125;    0.000
814.479; 3926.000;  156.125;    0.000
814.668; 3860.000;  152.125;    0.000
814.856; 4006.000;  150.125;    0.000
815.044; 4004.000;  165.125;    0.000
815.232; 4034.000;  172.125;    0.000
815.420; 4007.000;  147.125;    0.000
815.608; 4118.000;  143.125;    0.000
815.796; 3939.000;  126.125;    0.000
815.984; 4084.000;  152.125;    0.000
816.172; 4101.000;  129.125;    0.000
816.360; 4260.000;  177.125;    0.000
816.548; 4283.000;  141.125;    0.000
816.736; 4350.000;  142.125;    0.000
816.924; 4476.000;  161.125;    0.000
817.111; 4313.000;  138.125;    0.000
817.299; 4528.000;  112.125;    0.000
817.487; 4768.000;  180.125;    0.000
817.675; 4977.000;  138.125;    0.000
817.863; 5338.000;  172.125;    0.000
818.050; 6209.000;  142.125;    0.000
818.238; 9524.000;  151.125;    0.000
818.426;12940.000;  129.125;    0.000
818.613;10489.000;  124.125;    0.000
818.801; 9899.000;  209.125;    0.000
818.989; 9737.000;  178.125;    0.000
819.176; 9190.000;  155.125;    0.000
819.364;11694.000;  174.125;    0.000
819.552;15841.000;  131.125;    0.000
819.739;11078.000;  184.125;    0.000
819.927; 8561.000;  132.125;    0.000
820.114; 7815.000;  173.125;    0.000
820.302; 7331.000;  140.125;    0.000
820.489; 6975.000;  133.125;    0.000
820.677; 6859.000;  167.125;    0.000
820.864; 7223.000;  161.125;    0.000
821.052; 7672.000;  134.125;    0.000
821.239; 8358.000;  149.125;    0.000
821.426; 9194.000;  160.125;    0.000
821.614;11652.000;  143.125;    0.000
821.801;12976.000;  118.125;    0.000
821.988;11338.000;  154.125;    0.000
822.176;10901.000;  112.125;    0.000
822.363;11097.000;  131.125;    0.000
822.550;10402.000;  131.125;    0.000
822.737; 9240.000;  104.125;    0.000
822.924; 8531.000;  160.125;    0.000
823.112; 8061.000;  161.125;    0.000
823.299; 7535.000;  169.125;    0.000
823.486; 7313.000;  129.125;    0.000
823.673; 6868.000;  135.125;    0.000
823.860; 6724.000;  169.125;    0.000
824.047; 6699.000;  124.125;    0.000
824.234; 7678.000;  160.125;    0.000
824.421; 7797.000;  114.125;    0.000
824.608; 7066.000;  191.125;    0.000
824.795; 6268.000;  160.125;    0.000
824.982; 5900.000;  139.125;    0.000
825.169; 5699.000;  121.125;    0.000
825.356; 5285.000;  148.125;    0.000
825.543; 4957.000;  167.125;    0.000
825.730; 4896.000;  103.125;    0.000
825.917; 4750.000;  113.125;    0.000
826.104; 4584.000;  188.125;    0.000
826.290; 4469.000;  193.125;    0.000
826.477; 4305.000;  175.125;    0.000
826.664; 4360.000;  151.125;    0.000
826.851; 4133.000;  122.125;    0.000
827.038; 4110.000;  121.125;    0.000
827.224; 4055.000;  124.125;    0.000
827.411; 4019.000;  155.125;    0.000
827.598; 3830.000;  127.125;    0.000
827.784; 3865.000;  140.125;    0.000
827.971; 3835.000;  114.125;    0.000
828.157; 3714.000;  135.125;    0.000
828.344; 3650.000;  173.125;    0.000
828.531; 3773.000;  113.125;    0.000
828.717; 3577.000;  137.125;    0.000
828.904; 3594.000;  158.125;    0.000
829.090; 3577.000;  199.125;    0.000
829.277; 3477.000;  156.125;    0.000
829.463; 3489.000;  154.125;    0.000
829.650; 3485.000;  174.125;    0.000
829.836; 3475.000;  136.125;    0.000
830.022; 3459.000;  143.125;    0.000
830.209; 3449.000;  157.125;    0.000
830.395; 3317.000;  156.125;    0.000
830.581; 3331.000;  148.125;    0.000
830.768; 3248.000;  169.125;    0.000
830.954; 3260.000;  169.125;    0.000
831.140; 3303.000;  124.125;    0.000
831.327; 3307.000;  157.125;    0.000
831.513; 3234.000;  163.125;    0.000
831.699; 3176.000;  176.125;    0.000
831.885; 3270.000;  154.125;    0.000
832.071; 3228.000;  159.125;    0.000
832.257; 3132.000;  142.125;    0.000
832.444; 3167.000;  159.125;    0.000
832.630; 3242.000;  129.125;    0.000
832.816; 3167.000;  132.125;    0.000
833.002; 3112.000;  125.125;    0.000
833.188; 3040.000;  144.125;    0.000
833.374; 3056.000;  131.125;    0.000
833.560; 3191.000;  154.125;    0.000
833.746; 3072.000;  171.125;    0.000
833.932; 2966.000;  162.125;    0.000
834.118; 3150.000;  131.125;    0.000
834.303; 3024.000;  113.125;    0.000
834.489; 3106.000;  170.125;    0.000
834.675; 3092.000;  177.125;    0.000
834.861; 3009.000;  154.125;    0.000
835.047; 3085.000;  171.125;    0.000
835.233; 3052.000;   98.125;    0.000
835.418; 2963.000;  138.125;    0.000
835.604; 3002.000;  140.125;    0.000
835.790; 2995.000;  130.125;    0.000
835.976; 2933.000;  129.125;    0.000
836.161; 3042.000;  142.125;    0.000
836.347; 3012.000;  128.125;    0.000
836.533; 2977.000;  143.125;    0.000
836.718; 2998.000;  164.125;    0.000
836.904; 3055.000;  172.125;    0.000
837.089; 3043.000;  152.125;    0.000
837.275; 3098.000;  143.125;    0.000
837.460; 2983.000;  125.125;    0.000
837.646; 3011.000;  137.125;    0.000
837.831; 2992.000;  153.125;    0.000
838.017; 3006.000;  171.125;    0.000
838.202; 2941.000;  111.125;    0.000
838.388; 3032.000;  140.125;    0.000
838.573; 2944.000;  158.125;    0.000
838.759; 3102.000;  188.125;    0.000
838.944; 2957.000;  125.125;    0.000
839.129; 3011.000;  123.125;    0.000
839.315; 2988.000;  181.125;    0.000
839.500; 3026.000;  150.125;    0.000
839.685; 2927.000;  109.125;    0.000
839.870; 2999.000;  202.125;    0.000
840.056; 3034.000;  101.125;    0.000
840.241; 2968.000;  184.125;    0.000
840.426; 3027.000;  192.125;    0.000
840.611; 3080.000;  180.125;    0.000
840.796; 3024.000;  156.125;    0.000
840.981; 3167.000;  142.125;    0.000
841.166; 3198.000;  161.125;    0.000
841.352; 3192.000;  185.125;    0.000
841.537; 3108.000;  139.125;    0.000
841.722; 3220.000;  143.125;    0.000
841.907; 3198.000;  140.125;    0.000
842.092; 3225.000;  176.125;    0.000
842.277; 3310.000;  136.125;    0.000
842.461; 3436.000;  155.125;    0.000
842.646; 3370.000;  163.125;    0.000
842.831; 3511.000;  153.125;    0.000
843.016; 3605.000;  187.125;    0.000
843.201; 3703.000;  179.125;    0.000
843.386; 3898.000;  167.125;    0.000
843.571; 4007.000;  129.125;    0.000
843.755; 4248.000;  136.125;    0.000
843.940; 4543.000;  121.125;    0.000
844.125; 5000.000;  157.125;    0.000
844.310; 5863.000;  175.125;    0.000
844.494; 7416.000;  164.125;    0.000
844.679;10094.000;  167.125;    0.000
844.864;10000.000;  166.125;    0.000
845.048; 8372.000;  132.125;    0.000
845.233; 7106.000;  175.125;    0.000
845.418; 6276.000;  159.125;    0.000
845.602; 5631.000;  147.125;    0.000
845.787; 5006.000;  132.125;    0.000
845.971; 4738.000;  187.125;    0.000
846.156; 4393.000;  141.125;    0.000
846.340; 4270.000;  153.125;    0.000
846.525; 4150.000;  157.125;    0.000
846.709; 3943.000;  117.125;    0.000
846.893; 3721.000;  147.125;    0.000
847.078; 3657.000;  170.125;    0.000
847.262; 3573.000;  150.125;    0.000
847.447; 3353.000;  132.125;    0.000
847.631; 3318.000;  144.125;    0.000
847.815; 3227.000;  157.125;    0.000
848.000; 3177.000;  164.125;    0.000
848.184; 3187.000;  174.125;    0.000
848.368; 3099.000;  149.125;    0.000
848.552; 3187.000;  143.125;    0.000
848.736; 3094.000;  132.125;    0.000
848.921; 3043.000;  147.125;    0.000
849.105; 3028.000;  150.125;    0.000
849.289; 2972.000;  146.125;    0.000
849.473; 2868.000;  167.125;    0.000
849.657; 2963.000;  149.125;    0.000
849.841; 2864.000;  181.125;    0.000
850.025; 2970.000;  154.125;    0.000
850.209; 2758.000;  152.125;    0.000
850.393; 2824.000;  139.125;    0.000
850.577; 2804.000;  128.125;    0.000
850.761; 2870.000;  194.125;    0.000
850.945; 2699.000;  152.125;    0.000
851.129; 2879.000;  157.125;    0.000
851.313; 2734.000;  181.125;    0.000
851.497; 2624.000;  145.125;    0.000
851.680; 2743.000;  168.125;    0.000
851.864; 2842.000;  185.125;    0.000
852.048; 2768.000;  170.125;    0.000
852.232; 2685.000;  192.125;    0.000
852.416; 2780.000;  182.125;    0.000
852.599; 2646.000;  169.125;    0.000
852.783; 2665.000;  168.125;    0.000
852.967; 2764.000;  184.125;    0.000
853.150; 2631.000;  163.125;    0.000
853.334; 2718.000;  164.125;    0.000
853.518; 2679.000;  190.125;    0.000
853.701; 2699.000;  137.125;    0.000
853.885; 2628.000;  177.125;    0.000
854.068; 2702.000;  163.125;    0.000
854.252; 2669.000;  139.125;    0.000
854.435; 2648.000;  152.125;    0.000
854.619; 2706.000;  148.125;    0.000
854.802; 2724.000;  168.125;    0.000
854.986; 2695.000;  157.125;    0.000
855.169; 2583.000;  147.125;    0.000
855.353; 2668.000;  173.125;    0.000
855.536; 2631.000;  127.125;    0.000
855.719; 2612.000;  191.125;    0.000
855.903; 2684.000;  186.125;    0.000
856.086; 2768.000;  145.125;    0.000
856.269; 2686.000;  130.125;    0.000
856.452; 2778.000;  153.125;    0.000
856.636; 2970.000;  129.125;    0.000
856.819; 2996.000;  134.125;    0.000
857.002; 3080.000;  152.125;    0.000
857.185; 3001.000;  140.125;    0.000
857.368; 2919.000;  170.125;    0.000
857.552; 2859.000;  132.125;    0.000
857.735; 2972.000;  160.125;    0.000
857.918; 2874.000;  139.125;    0.000
858.101; 2857.000;  159.125;    0.000
858.284; 2890.000;  136.125;    0.000
858.467; 2860.000;  147.125;    0.000
858.650; 2936.000;  153.125;    0.000
858.833; 2873.000;  113.125;    0.000
859.016; 2991.000;  167.125;    0.000
859.199; 3089.000;  141.125;    0.000
859.382; 3452.000;  155.125;    0.000
859.564; 3688.000;  136.125;    0.000
859.747; 3539.000;  142.125;    0.000
859.930; 3444.000;  141.125;    0.000
860.113; 3311.000;  156.125;    0.000
860.296; 3314.000;  167.125;    0.000
860.478; 3222.000;  121.125;    0.000
860.661; 3206.000;  230.125;    0.000
860.844; 3158.000;  186.125;    0.000
861.027; 3146.000;  155.125;    0.000
861.209; 3143.000;  151.125;    0.000
861.392; 3123.000;  162.125;    0.000
861.575; 3163.000;  150.125;    0.000
861.757; 3237.000;  162.125;    0.000
861.940; 3165.000;  207.125;    0.000
862.122; 3258.000;  113.125;    0.000
862.305; 3250.000;  114.125;    0.000
862.487; 3470.000;  162.125;    0.000
862.670; 3729.000;  148.125;    0.000
862.852; 4231.000;  131.125;    0.000
863.035; 4939.000;  174.125;    0.000
863.217; 4885.000;  170.125;    0.000
863.400; 4585.000;  148.125;    0.000
863.582; 4295.000;  129.125;    0.000
863.764; 4190.000;  181.125;    0.000
863.947; 3924.000;  152.125;    0.000
864.129; 3807.000;  178.125;    0.000
864.311; 3761.000;  139.125;    0.000
864.493; 3706.000;  166.125;    0.000
864.676; 3657.000;  148.125;    0.000
864.858; 3648.000;  123.125;    0.000
865.040; 3536.000;  180.125;    0.000
865.222; 3557.000;  131.125;    0.000
865.404; 3685.000;  146.125;    0.000
865.587; 3809.000;  175.125;    0.000
865.769; 3870.000;  183.125;    0.000
865.951; 3866.000;  171.125;    0.000
866.133; 3941.000;  165.125;    0.000
866.315; 3935.000;  138.125;    0.000
866.497; 4023.000;  139.125;    0.000
866.679; 4203.000;  167.125;    0.000
866.861; 4157.000;  151.125;    0.000
867.043; 4381.000;  190.125;    0.000
867.225; 4628.000;  140.125;    0.000
867.407; 5206.000;  125.125;    0.000
867.589; 5756.000;  141.125;    0.000
867.770; 6903.000;  149.125;    0.000
867.952; 9137.000;  138.125;    0.000
868.134;11520.000;  153.125;    0.000
868.316;11823.000;  148.125;    0.000
868.498;11302.000;  180.125;    0.000
868.679;10006.000;  152.125;    0.000
868.861; 8417.000;  174.125;    0.000
869.043; 7394.000;  152.125;    0.000
869.224; 6440.000;  177.125;    0.000
869.406; 5997.000;  171.125;    0.000
869.588; 5645.000;  177.125;    0.000
869.769; 5303.000;  174.125;    0.000
869.951; 5163.000;  167.125;    0.000
870.132; 5224.000;  144.125;    0.000
870.314; 5685.000;  143.125;    0.000
870.495; 5837.000;  162.125;    0.000
870.677; 5350.000;  136.125;    0.000
870.858; 5246.000;  155.125;    0.000
871.040; 5298.000;  179.125;    0.000
871.221; 5927.000;  177.125;    0.000
871.403; 5615.000;  180.125;    0.000
871.584; 5377.000;  157.125;    0.000
871.765; 5363.000;  183.125;    0.000
871.947; 5815.000;  169.125;    0.000
872.128; 5140.000;  162.125;    0.000
872.309; 4636.000;  159.125;    0.000
872.491; 4163.000;  148.125;    0.000
872.672; 4022.000;  163.125;    0.000
872.853; 3922.000;  152.125;    0.000
873.034; 3704.000;  166.125;    0.000
873.215; 3670.000;  155.125;    0.000
873.396; 3516.000;  147.125;    0.000
873.578; 3311.000;  147.125;    0.000
873.759; 3263.000;  153.125;    0.000
873.940; 3238.000;  194.125;    0.000
874.121; 3061.000;  179.125;    0.000
874.302; 2986.000;  155.125;    0.000
874.483; 2954.000;  131.125;    0.000
874.664; 2986.000;  106.125;    0.000
874.845; 2919.000;  122.125;    0.000
875.026; 2887.000;  127.125;    0.000
875.207; 2793.000;  151.125;    0.000
875.388; 2705.000;  149.125;    0.000
875.568; 2683.000;  164.125;    0.000
875.749; 2660.000;  176.125;    0.000
875.930; 2660.000;  207.125;    0.000
876.111; 2665.000;  177.125;    0.000
876.292; 2607.000;  178.125;    0.000
876.472; 2568.000;  163.125;    0.000
876.653; 2438.000;  159.125;    0.000
876.834; 2510.000;  177.125;    0.000
877.015; 2543.000;  212.125;    0.000
877.195; 2484.000;  166.125;    0.000
877.376; 2490.000;  157.125;    0.000
877.556; 2475.000;  175.125;    0.000
877.737; 2457.000;  220.125;    0.000
877.918; 2382.000;  163.125;    0.000
878.098; 2382.000;  166.125;    0.000
878.279; 2437.000;  136.125;    0.000
878.459; 2304.000;  167.125;    0.000
878.640; 2391.000;  167.125;    0.000
878.820; 2389.000;  155.125;    0.000
879.000; 2313.000;  158.125;    0.000
879.181; 2375.000;  155.125;    0.000
879.361; 2442.000;  181.125;    0.000
879.542; 2320.000;  181.125;    0.000
879.722; 2345.000;  117.125;    0.000
879.902; 2361.000;  180.125;    0.000
880.083; 2358.000;  139.125;    0.000
880.263; 2379.000;  168.125;    0.000
880.443; 2512.000;  206.125;    0.000
880.623; 2811.000;  132.125;    0.000
880.803; 3049.000;  149.125;    0.000
880.984; 2691.000;  189.125;    0.000
881.164; 2530.000;  171.125;    0.000
881.344; 2404.000;  150.125;    0.000
881.524; 2460.000;  185.125;    0.000
881.704; 2501.000;  152.125;    0.000
881.884; 2516.000;  188.125;    0.000
882.064; 2713.000;  155.125;    0.000
882.244; 2764.000;  182.125;    0.000
882.424; 2546.000;  154.125;    0.000
882.604; 2533.000;  175.125;    0.000
882.784; 2400.000;  137.125;    0.000
882.964; 2429.000;  135.125;    0.000
883.144; 2304.000;  142.125;    0.000
883.324; 2427.000;  192.125;    0.000
883.504; 2309.000;  193.125;    0.000
883.683; 2318.000;  208.125;    0.000
883.863; 2287.000;  127.125;    0.000
884.043; 2182.000;  140.125;    0.000
884.223; 2238.000;  167.125;    0.000
884.402; 2257.000;  156.125;    0.000
884.582; 2141.000;  185.125;    0.000
884.762; 2178.000;  187.125;    0.000
884.941; 2283.000;  201.125;    0.000
885.121; 2181.000;  157.125;    0.000
885.301; 2165.000;  173.125;    0.000
885.480; 2119.000;  158.125;    0.000
885.660; 2127.000;  153.125;    0.000
885.839; 2140.000;  144.125;    0.000
886.019; 2241.000;  184.125;    0.000
886.198; 2061.000;  132.125;    0.000
886.378; 2058.000;  124.125;    0.000
886.557; 2108.000;  146.125;    0.000
886.737; 2064.000;  157.125;    0.000
886.916; 2187.000;  203.125;    0.000
887.095; 2113.000;  151.125;    0.000
887.275; 2087.000;  143.125;    0.000
887.454; 2060.000;  140.125;    0.000
887.633; 2058.000;  196.125;    0.000
887.813; 2068.000;  161.125;    0.000
887.992; 2107.000;  183.125;    0.000
888.171; 2044.000;  153.125;    0.000
888.350; 2090.000;  185.125;    0.000
888.530; 2007.000;  163.125;    0.000
888.709; 2008.000;  174.125;    0.000
888.888; 2138.000;  179.125;    0.000
889.067; 1960.000;  178.125;    0.000
889.246; 2087.000;  184.125;    0.000
889.425; 2092.000;  169.125;    0.000
889.604; 2094.000;  210.125;    0.000
889.783; 2093.000;  183.125;    0.000
889.962; 1914.000;  116.125;    0.000
890.141; 2086.000;  179.125;    0.000
890.320; 2066.000;  182.125;    0.000
890.499; 2061.000;  188.125;    0.000
890.678; 2021.000;  167.125;    0.000
890.857; 2049.000;  141.125;    0.000
891.036; 2049.000;  179.125;    0.000
891.214; 2043.000;  156.125;    0.000
891.393; 2039.000;  209.125;    0.000
891.572; 2035.000;  181.125;    0.000
891.751; 1963.000;  172.125;    0.000
891.930; 2063.000;  169.125;    0.000
892.108; 2006.000;  131.125;    0.000
892.287; 1998.000;  162.125;    0.000
892.466; 2040.000;  178.125;    0.000
892.644; 2068.000;  161.125;    0.000
892.823; 2008.000;  180.125;    0.000
893.001; 2003.000;  179.125;    0.000
893.180; 2051.000;  152.125;    0.000
893.359; 1950.000;  184.125;    0.000
893.537; 1998.000;  178.125;    0.000
893.716; 2022.000;  169.125;    0.000
893.894; 2002.000;  159.125;    0.000
894.073; 1948.000;  179.125;    0.000
894.251; 1991.000;  167.125;    0.000
894.429; 1955.000;  142.125;    0.000
894.608; 1983.000;  166.125;    0.000
894.786; 1983.000;  153.125;    0.000
894.964; 1992.000;  181.125;    0.000
895.143; 1990.000;  161.125;    0.000
895.321; 2070.000;  198.125;    0.000
895.499; 1994.000;  184.125;    0.000
895.677; 1944.000;  178.125;    0.000
895.856; 2088.000;  226.125;    0.000
896.034; 2057.000;  180.125;    0.000
896.212; 2113.000;  200.125;    0.000
896.390; 2019.000;  161.125;    0.000
896.568; 2050.000;  204.125;    0.000
896.746; 2006.000;  136.125;    0.000
896.924; 2111.000;  171.125;    0.000
897.102; 2039.000;  203.125;    0.000
897.280; 2070.000;  142.125;    0.000
897.458; 2069.000;  159.125;    0.000
897.636; 2081.000;  163.125;    0.000
897.814; 2084.000;  137.125;    0.000
897.992; 2078.000;  199.125;    0.000
898.170; 2109.000;  176.125;    0.000
898.348; 2093.000;  195.125;    0.000
898.526; 2139.000;  199.125;    0.000
898.704; 2108.000;  260.125;    0.000
898.882; 2071.000;  185.125;    0.000
899.059; 2069.000;  169.125;    0.000
899.237; 2057.000;  197.125;    0.000
899.415; 2166.000;  207.125;    0.000
899.593; 2098.000;  169.125;    0.000
899.770; 2030.000;  182.125;    0.000
899.948; 2111.000;  198.125;    0.000
900.125; 2165.000;  200.125;    0.000
900.303; 2063.000;  165.125;    0.000
900.481; 2135.000;  182.125;    0.000
900.658; 2147.000;  206.125;    0.000
900.836; 2160.000;  188.125;    0.000
901.013; 2133.000;  169.125;    0.000
901.191; 2136.000;  172.125;    0.000
901.368; 2198.000;  170.125;    0.000
901.546; 2306.000;  234.125;    0.000
901.723; 2218.000;  173.125;    0.000
901.901; 2379.000;  190.125;    0.000
902.078; 2352.000;  145.125;    0.000
902.255; 2333.000;  204.125;    0.000
902.433; 2389.000;  198.125;    0.000
902.610; 2309.000;  190.125;    0.000
902.787; 2434.000;  204.125;    0.000
902.964; 2458.000;  208.125;    0.000
903.142; 2481.000;  187.125;    0.000
903.319; 2573.000;  216.125;    0.000
903.496; 2531.000;  186.125;    0.000
903.673; 2639.000;  201.125;    0.000
903.850; 2617.000;  195.125;    0.000
904.027; 2727.000;  211.125;    0.000
904.204; 2841.000;  197.125;    0.000
904.381; 3036.000;  198.125;    0.000
904.558; 3490.000;  188.125;    0.000
904.735; 3711.000;  207.125;    0.000
904.912; 3666.000;  217.125;    0.000
905.089; 3783.000;  188.125;    0.000
905.266; 3590.000;  160.125;    0.000
905.443; 3383.000;  221.125;    0.000
905.620; 3238.000;  163.125;    0.000
905.797; 3149.000;  186.125;    0.000
905.974; 2982.000;  205.125;    0.000
906.151; 2919.000;  159.125;    0.000
906.327; 2902.000;  206.125;    0.000
906.504; 2853.000;  201.125;    0.000
906.681; 2803.000;  202.125;    0.000
906.858; 2759.000;  188.125;    0.000
907.034; 2756.000;  207.125;    0.000
907.211; 2675.000;  182.125;    0.000
907.388; 2553.000;  184.125;    0.000
907.564; 2454.000;  148.125;    0.000
907.741; 2516.000;  181.125;    0.000
907.917; 2536.000;  191.125;    0.000
908.094; 2486.000;  210.125;    0.000
908.271; 2393.000;  171.125;    0.000
908.447; 2489.000;  241.125;    0.000
908.623; 2354.000;  188.125;    0.000
908.800; 2366.000;  205.125;    0.000
908.976; 2305.000;  210.125;    0.000
909.153; 2325.000;  193.125;    0.000
909.329; 2381.000;  206.125;    0.000
909.505; 2325.000;  181.125;    0.000
909.682; 2307.000;  192.125;    0.000
909.858; 2221.000;  134.125;    0.000
910.034; 2293.000;  214.125;    0.000
910.211; 2263.000;  182.125;    0.000
910.387; 2307.000;  194.125;    0.000
910.563; 2260.000;  199.125;    0.000
910.739; 2253.000;  188.125;    0.000
910.915; 2197.000;  192.125;    0.000
911.091; 2204.000;  198.125;    0.000
911.268; 2158.000;  178.125;    0.000
911.444; 2150.000;  201.125;    0.000
911.620; 2167.000;  181.125;    0.000
911.796; 2137.000;  185.125;    0.000
911.972; 2196.000;  176.125;    0.000
912.148; 2081.000;  196.125;    0.000
912.324; 2165.000;  192.125;    0.000
912.500; 2240.000;  204.125;    0.000
912.676; 2183.000;  164.125;    0.000
912.851; 2132.000;  193.125;    0.000
913.027; 2199.000;  175.125;    0.000
913.203; 2159.000;  193.125;    0.000
913.379; 2152.000;  213.125;    0.000
913.555; 2114.000;  211.125;    0.000
913.730; 2200.000;  194.125;    0.000
913.906; 2096.000;  153.125;    0.000
914.082; 2144.000;  212.125;    0.000
914.258; 2186.000;  194.125;    0.000
914.433; 2081.000;  191.125;    0.000
914.609; 2134.000;  208.125;    0.000
914.784; 2098.000;  176.125;    0.000
914.960; 2120.000;  227.125;    0.000
915.136; 2151.000;  152.125;    0.000
915.311; 2155.000;  171.125;    0.000
915.487; 2119.000;  173.125;    0.000
915.662; 2179.000;  189.125;    0.000
915.838; 2074.000;  179.125;    0.000
916.013; 2206.000;  191.125;    0.000
916.189; 2176.000;  207.125;    0.000
916.364; 2108.000;  194.125;    0.000
916.539; 2094.000;  174.125;    0.000
916.715; 2077.000;  207.125;    0.000
916.890; 2131.000;  193.125;    0.000
917.065; 2136.000;  199.125;    0.000
917.240; 2064.000;  214.125;    0.000
917.416; 2113.000;  194.125;    0.000
917.591; 2119.000;  213.125;    0.000
917.766; 2104.000;  194.125;    0.000
917.941; 2126.000;  201.125;    0.000
918.116; 2126.000;  198.125;    0.000
918.292; 2209.000;  176.125;    0.000
918.467; 2098.000;  190.125;    0.000
918.642; 2232.000;  200.125;    0.000
918.817; 2181.000;  186.125;    0.000
918.992; 2149.000;  174.125;    0.000
919.167; 2061.000;  197.125;    0.000
919.342; 2139.000;  188.125;    0.000
919.517; 2120.000;  179.125;    0.000
919.692; 2189.000;  182.125;    0.000
919.867; 2129.000;  216.125;    0.000
920.041; 2235.000;  208.125;    0.000
920.216; 2238.000;  223.125;    0.000
920.391; 2276.000;  203.125;    0.000
920.566; 2317.000;  202.125;    0.000
920.741; 2231.000;  197.125;    0.000
920.915; 2362.000;  223.125;    0.000
921.090; 2401.000;  183.125;    0.000
921.265; 2578.000;  169.125;    0.000
921.439; 2847.000;  212.125;    0.000
921.614; 2640.000;  190.125;    0.000
921.789; 2491.000;  177.125;    0.000
921.963; 2533.000;  233.125;    0.000
922.138; 2445.000;  156.125;    0.000
922.312; 2500.000;  193.125;    0.000
922.487; 2426.000;  208.125;    0.000
922.661; 2372.000;  212.125;    0.000
922.836; 2567.000;  210.125;    0.000
923.010; 2497.000;  183.125;    0.000
923.185; 2534.000;  228.125;    0.000
923.359; 2461.000;  227.125;    0.000
923.534; 2480.000;  189.125;    0.000
923.708; 2510.000;  210.125;    0.000
923.882; 2547.000;  217.125;    0.000
924.057; 2519.000;  195.125;    0.000
924.231; 2469.000;  201.125;    0.000
924.405; 2506.000;  188.125;    0.000
924.579; 2389.000;  188.125;    0.000
924.753; 2426.000;  174.125;    0.000
924.928; 2488.000;  179.125;    0.000
925.102; 2405.000;  186.125;    0.000
925.276; 2405.000;  201.125;    0.000
925.450; 2477.000;  211.125;    0.000
925.624; 2481.000;  238.125;    0.000
925.798; 2598.000;  191.125;    0.000
925.972; 2649.000;  192.125;    0.000
926.146; 2795.000;  198.125;    0.000
926.320; 3035.000;  151.125;    0.000
926.494; 3117.000;  202.125;    0.000
926.668; 3215.000;  197.125;    0.000
926.842; 3391.000;  177.125;    0.000
927.016; 3422.000;  202.125;    0.000
927.190; 3306.000;  207.125;    0.000
927.363; 3225.000;  180.125;    0.000
927.537; 3140.000;  212.125;    0.000
927.711; 3090.000;  148.125;    0.000
927.885; 3063.000;  196.125;    0.000
928.058; 2959.000;  173.125;    0.000
928.232; 3005.000;  219.125;    0.000
928.406; 2938.000;  141.125;    0.000
928.579; 2807.000;  157.125;    0.000
928.753; 2818.000;  205.125;    0.000
928.927; 2736.000;  196.125;    0.000
929.100; 2767.000;  237.125;    0.000
929.274; 2733.000;  166.125;    0.000
929.447; 2620.000;  150.125;    0.000
929.621; 2671.000;  188.125;    0.000
929.794; 2620.000;  169.125;    0.000
929.968; 2542.000;  194.125;    0.000
930.141; 2529.000;  226.125;    0.000
930.315; 2536.000;  196.125;    0.000
930.488; 2536.000;  233.125;    0.000
930.661; 2376.000;  188.125;    0.000
930.835; 2383.000;  170.125;    0.000
931.008; 2437.000;  176.125;    0.000
931.181; 2362.000;  175.125;    0.000
931.354; 2422.000;  212.125;    0.000
931.528; 2384.000;  177.125;    0.000
931.701; 2418.000;  218.125;    0.000
931.874; 2235.000;  175.125;    0.000
932.047; 2247.000;  157.125;    0.000
932.220; 2313.000;  187.125;    0.000
932.393; 2228.000;  166.125;    0.000
932.566; 2179.000;  168.125;    0.000
932.739; 2270.000;  203.125;    0.000
932.912; 2256.000;  202.125;    0.000
933.085; 2207.000;  209.125;    0.000
933.258; 2200.000;  196.125;    0.000
933.431; 2204.000;  207.125;    0.000
933.604; 2257.000;  201.125;    0.000
933.777; 2258.000;  202.125;    0.000
933.950; 2166.000;  184.125;    0.000
934.123; 2200.000;  167.125;    0.000
934.296; 2214.000;  209.125;    0.000
934.468; 2149.000;  216.125;    0.000
934.641; 2075.000;  156.125;    0.000
934.814; 2181.000;  215.125;    0.000
934.987; 2074.000;  201.125;    0.000
935.159; 2125.000;  176.125;    0.000
935.332; 2181.000;  203.125;    0.000
935.505; 2076.000;  163.125;    0.000
935.677; 2113.000;  169.125;    0.000
935.850; 2135.000;  178.125;    0.000
936.022; 2135.000;  187.125;    0.000
936.195; 2167.000;  207.125;    0.000
936.367; 2068.000;  191.125;    0.000
936.540; 2163.000;  214.125;    0.000
936.712; 2204.000;  202.125;    0.000
936.885; 2152.000;  195.125;    0.000
937.057; 2114.000;  173.125;    0.000
937.229; 2120.000;  179.125;    0.000
937.402; 2210.000;  174.125;    0.000
937.574; 2250.000;  140.125;    0.000
937.746; 2318.000;  153.125;    0.000
937.919; 2325.000;  196.125;    0.000
938.091; 2448.000;  173.125;    0.000
938.263; 2567.000;  206.125;    0.000
938.435; 2735.000;  213.125;    0.000
938.608; 2995.000;  204.125;    0.000
938.780; 3559.000;  199.125;    0.000
938.952; 3618.000;  190.125;    0.000
939.124; 3664.000;  182.125;    0.000
939.296; 4118.000;  188.125;    0.000
939.468; 4184.000;  119.125;    0.000
939.640; 3890.000;  171.125;    0.000
939.812; 3571.000;  222.125;    0.000
939.984; 3206.000;  172.125;    0.000
940.156; 3031.000;  171.125;    0.000
940.328; 2916.000;  215.125;    0.000
940.500; 2779.000;  179.125;    0.000
940.672; 2660.000;  178.125;    0.000
940.843; 2589.000;  193.125;    0.000
941.015; 2552.000;  207.125;    0.000
941.187; 2390.000;  179.125;    0.000
941.359; 2372.000;  191.125;    0.000
941.531; 2330.000;  160.125;    0.000
941.702; 2391.000;  208.125;    0.000
941.874; 2194.000;  143.125;    0.000
942.046; 2217.000;  189.125;    0.000
942.217; 2146.000;  167.125;    0.000
942.389; 2203.000;  199.125;    0.000
942.560; 2216.000;  179.125;    0.000
942.732; 2141.000;  209.125;    0.000
942.904; 2083.000;  180.125;    0.000
943.075; 1985.000;  197.125;    0.000
943.247; 1978.000;  207.125;    0.000
943.418; 2038.000;  183.125;    0.000
943.589; 1993.000;  176.125;    0.000
943.761; 1966.000;  165.125;    0.000
943.932; 2005.000;  170.125;    0.000
944.104; 1939.000;  147.125;    0.000
944.275; 1873.000;  149.125;    0.000
944.446; 1935.000;  191.125;    0.000
944.617; 1897.000;  128.125;    0.000
944.789; 1975.000;  166.125;    0.000
944.960; 1870.000;  195.125;    0.000
945.131; 1889.000;  164.125;    0.000
945.302; 1926.000;  229.125;    0.000
945.473; 1845.000;  153.125;    0.000
945.645; 1982.000;  166.125;    0.000
945.816; 1959.000;  187.125;    0.000
945.987; 2017.000;  193.125;    0.000
946.158; 1953.000;  166.125;    0.000
946.329; 2033.000;  196.125;    0.000
946.500; 1987.000;  152.125;    0.000
946.671; 1912.000;  161.125;    0.000
946.842; 1857.000;  176.125;    0.000
947.013; 1879.000;  188.125;    0.000
947.183; 1921.000;  213.125;    0.000
947.354; 1828.000;  163.125;    0.000
947.525; 1876.000;  204.125;    0.000
947.696; 1831.000;  159.125;    0.000
947.867; 1890.000;  197.125;    0.000
948.037; 1815.000;  174.125;    0.000
948.208; 1890.000;  163.125;    0.000
948.379; 1862.000;  189.125;    0.000
948.550; 1822.000;  173.125;    0.000
948.720; 1769.000;  186.125;    0.000
948.891; 1864.000;  166.125;    0.000
949.061; 1793.000;  197.125;    0.000
949.232; 1771.000;  168.125;    0.000
949.403; 1759.000;  188.125;    0.000
949.573; 1785.000;  164.125;    0.000
949.744; 1756.000;  194.125;    0.000
949.914; 1831.000;  154.125;    0.000
950.085; 1830.000;  197.125;    0.000
950.255; 1770.000;  187.125;    0.000
950.425; 1789.000;  193.125;    0.000
950.596; 1776.000;  182.125;    0.000
950.766; 1784.000;  202.125;    0.000
950.936; 1825.000;  230.125;    0.000
951.107; 1693.000;  133.125;    0.000
951.277; 1783.000;  234.125;    0.000
951.447; 1850.000;  200.125;    0.000
951.617; 1746.000;  212.125;    0.000
951.788; 1747.000;  176.125;    0.000
951.958; 1821.000;  218.125;    0.000
952.128; 1800.000;  198.125;    0.000
952.298; 1741.000;  185.125;    0.000
952.468; 1787.000;  231.125;    0.000
952.638; 1698.000;  213.125;    0.000
952.808; 1715.000;  218.125;    0.000
952.978; 1726.000;  252.125;    0.000
953.148; 1791.000;  200.125;    0.000
953.318; 1660.000;  243.125;    0.000
953.488; 1695.000;  140.125;    0.000
953.658; 1700.000;  208.125;    0.000
953.828; 1767.000;  179.125;    0.000
953.998; 1666.000;  211.125;    0.000
954.167; 1714.000;  197.125;    0.000
954.337; 1718.000;  217.125;    0.000
954.507; 1686.000;  219.125;    0.000
954.677; 1724.000;  201.125;    0.000
954.846; 1749.000;  241.125;    0.000
955.016; 1659.000;  222.125;    0.000
955.186; 1715.000;  200.125;    0.000
955.355; 1663.000;  247.125;    0.000
955.525; 1684.000;  212.125;    0.000
955.695; 1679.000;  200.125;    0.000
955.864; 1642.000;  196.125;    0.000
956.034; 1586.000;  195.125;    0.000
956.203; 1706.000;  243.125;    0.000
956.373; 1590.000;  197.125;    0.000
956.542; 1634.000;  237.125;    0.000
956.711; 1561.000;  249.125;    0.000
956.881; 1653.000;  235.125;    0.000
957.050; 1635.000;  259.125;    0.000
957.220; 1593.000;  234.125;    0.000
957.389; 1639.000;  250.125;    0.000
957.558; 1623.000;  214.125;    0.000
957.727; 1653.000;  225.125;    0.000
957.897; 1618.000;  211.125;    0.000
958.066; 1645.000;  200.125;    0.000
958.235; 1520.000;  202.125;    0.000
958.404; 1626.000;  242.125;    0.000
958.573; 1659.000;  222.125;    0.000
958.743; 1525.000;  191.125;    0.000
958.912; 1623.000;  183.125;    0.000
959.081; 1630.000;  212.125;    0.000
959.250; 1527.000;  192.125;    0.000
959.419; 1560.000;  238.125;    0.000
959.588; 1553.000;  205.125;    0.000
959.757; 1546.000;  213.125;    0.000
959.926; 1573.000;  217.125;    0.000
960.094; 1568.000;  215.125;    0.000
960.263; 1588.000;  220.125;    0.000
960.432; 1579.000;  164.125;    0.000
960.601; 1515.000;  228.125;    0.000
960.770; 1549.000;  176.125;    0.000
960.939; 1524.000;  201.125;    0.000
961.107; 1526.000;  183.125;    0.000
961.276; 1508.000;  199.125;    0.000
961.445; 1548.000;  205.125;    0.000
961.613; 1593.000;  183.125;    0.000
961.782; 1590.000;  216.125;    0.000
961.951; 1569.000;  169.125;    0.000
962.119; 1528.000;  211.125;    0.000
962.288; 1610.000;  204.125;    0.000
962.456; 1485.000;  187.125;    0.000
962.625; 1617.000;  223.125;    0.000
962.793; 1585.000;  200.125;    0.000
962.962; 1542.000;  185.125;    0.000
963.130; 1523.000;  195.125;    0.000
963.298; 1515.000;  187.125;    0.000
963.467; 1549.000;  247.125;    0.000
963.635; 1553.000;  165.125;    0.000
963.803; 1553.000;  192.125;    0.000
963.972; 1590.000;  191.125;    0.000
964.140; 1534.000;  163.125;    0.000
964.308; 1523.000;  161.125;    0.000
964.477; 1501.000;  182.125;    0.000
964.645; 1575.000;  195.125;    0.000
964.813; 1453.000;  165.125;    0.000
964.981; 1489.000;  193.125;    0.000
965.149; 1552.000;  174.125;    0.000
965.317; 1507.000;  194.125;    0.000
965.485; 1506.000;  209.125;    0.000
965.653; 1513.000;  210.125;    0.000
965.821; 1505.000;  194.125;    0.000
965.989; 1488.000;  182.125;    0.000
966.157; 1580.000;  180.125;    0.000
966.325; 1521.000;  198.125;    0.000
966.493; 1511.000;  182.125;    0.000
966.661; 1551.000;  200.125;    0.000
966.829; 1482.000;  190.125;    0.000
966.996; 1506.000;  221.125;    0.000
967.164; 1503.000;  176.125;    0.000
967.332; 1574.000;  228.125;    0.000
967.500; 1542.000;  177.125;    0.000
967.667; 1439.000;  202.125;    0.000
967.835; 1439.000;  220.125;    0.000
968.003; 1530.000;  183.125;    0.000
968.170; 1531.000;  163.125;    0.000
968.338; 1513.000;  162.125;    0.000
968.505; 1510.000;  198.125;    0.000
968.673; 1544.000;  213.125;    0.000
968.841; 1495.000;  131.125;    0.000
969.008; 1566.000;  225.125;    0.000
969.175; 1467.000;  202.125;    0.000
969.343; 1529.000;  222.125;    0.000
969.510; 1470.000;  230.125;    0.000
969.678; 1506.000;  161.125;    0.000
969.845; 1481.000;  208.125;    0.000
970.012; 1472.000;  186.125;    0.000
970.180; 1487.000;  226.125;    0.000
970.347; 1491.000;  222.125;    0.000
970.514; 1471.000;  206.125;    0.000
970.681; 1493.000;  173.125;    0.000
970.849; 1480.000;  190.125;    0.000
971.016; 1524.000;  220.125;    0.000
971.183; 1500.000;  202.125;    0.000
971.350; 1504.000;  196.125;    0.000
971.517; 1521.000;  218.125;    0.000
971.684; 1476.000;  228.125;    0.000
971.851; 1488.000;  235.125;    0.000
972.018; 1518.000;  200.125;    0.000
972.185; 1556.000;  183.125;    0.000
972.352; 1515.000;  216.125;    0.000
972.519; 1558.000;  227.125;    0.000
972.686; 1516.000;  209.125;    0.000
972.853; 1467.000;  157.125;    0.000
973.020; 1466.000;  179.125;    0.000
973.186; 1488.000;  173.125;    0.000
973.353; 1549.000;  189.125;    0.000
973.520; 1524.000;  228.125;    0.000
973.687; 1562.000;  190.125;    0.000
973.853; 1565.000;  197.125;    0.000
974.020; 1482.000;  208.125;    0.000
974.187; 1471.000;  158.125;    0.000
974.353; 1554.000;  201.125;    0.000
974.520; 1475.000;  158.125;    0.000
974.687; 1555.000;  192.125;    0.000
974.853; 1433.000;  177.125;    0.000
975.020; 1532.000;  212.125;    0.000
975.186; 1485.000;  200.125;    0.000
975.353; 1476.000;  208.125;    0.000
975.519; 1464.000;  169.125;    0.000
975.685; 1423.000;  176.125;    0.000
975.852; 1456.000;  201.125;    0.000
976.018; 1475.000;  209.125;    0.000
976.184; 1528.000;  197.125;    0.000
976.351; 1460.000;  196.125;    0.000
976.517; 1488.000;  243.125;    0.000
976.683; 1556.000;  210.125;    0.000
976.849; 1436.000;  226.125;    0.000
977.016; 1542.000;  218.125;    0.000
977.182; 1450.000;  213.125;    0.000
977.348; 1494.000;  205.125;    0.000
977.514; 1472.000;  210.125;    0.000
977.680; 1434.000;  226.125;    0.000
977.846; 1549.000;  206.125;    0.000
978.012; 1495.000;  222.125;    0.000
978.178; 1449.000;  216.125;    0.000
978.344; 1404.000;  172.125;    0.000
978.510; 1419.000;  210.125;    0.000
978.676; 1459.000;  184.125;    0.000
978.842; 1394.000;  190.125;    0.000
979.008; 1441.000;  203.125;    0.000
979.174; 1428.000;  211.125;    0.000
979.340; 1438.000;  190.125;    0.000
979.505; 1456.000;  235.125;    0.000
979.671; 1463.000;  182.125;    0.000
979.837; 1495.000;  235.125;    0.000
980.003; 1492.000;  183.125;    0.000
980.168; 1447.000;  220.125;    0.000
980.334; 1432.000;  161.125;    0.000
980.499; 1472.000;  212.125;    0.000
980.665; 1490.000;  219.125;    0.000
980.831; 1494.000;  201.125;    0.000
980.996; 1458.000;  189.125;    0.000
981.162; 1562.000;  222.125;    0.000
981.327; 1532.000;  173.125;    0.000
981.493; 1451.000;  197.125;    0.000
981.658; 1443.000;  178.125;    0.000
981.823; 1471.000;  196.125;    0.000
981.989; 1493.000;  248.125;    0.000
982.154; 1540.000;  222.125;    0.000
982.319; 1494.000;  226.125;    0.000
982.485; 1546.000;  188.125;    0.000
982.650; 1570.000;  203.125;    0.000
982.815; 1515.000;  237.125;    0.000
982.980; 1432.000;  210.125;    0.000
983.146; 1497.000;  202.125;    0.000
983.311; 1507.000;  195.125;    0.000
983.476; 1485.000;  207.125;    0.000
983.641; 1468.000;  198.125;    0.000
983.806; 1472.000;  136.125;    0.000
983.971; 1495.000;  248.125;    0.000
984.136; 1556.000;  213.125;    0.000
984.301; 1489.000;  181.125;    0.000
984.466; 1506.000;  210.125;    0.000
984.631; 1550.000;  219.125;    0.000
984.796; 1476.000;  207.125;    0.000
984.961; 1478.000;  214.125;    0.000
985.126; 1505.000;  218.125;    0.000
985.291; 1505.000;  214.125;    0.000
985.455; 1443.000;  187.125;    0.000
985.620; 1478.000;  191.125;    0.000
985.785; 1467.000;  190.125;    0.000
985.950; 1489.000;  184.125;    0.000
986.114; 1499.000;  242.125;    0.000
986.279; 1546.000;  251.125;    0.000
986.444; 1501.000;  177.125;    0.000
986.608; 1442.000;  216.125;    0.000
986.773; 1515.000;  211.125;    0.000
986.937; 1568.000;  244.125;    0.000
987.102; 1585.000;  187.125;    0.000
987.266; 1409.000;  178.125;    0.000
987.431; 1571.000;  205.125;    0.000
987.595; 1438.000;  221.125;    0.000
987.760; 1520.000;  205.125;    0.000
987.924; 1501.000;  195.125;    0.000
988.088; 1457.000;  184.125;    0.000
988.253; 1522.000;  188.125;    0.000
988.417; 1445.000;  196.125;    0.000
988.581; 1468.000;  218.125;    0.000
988.746; 1511.000;  203.125;    0.000
988.910; 1477.000;  195.125;    0.000
989.074; 1461.000;  187.125;    0.000
989.238; 1507.000;  243.125;    0.000
989.402; 1470.000;  242.125;    0.000
989.566; 1494.000;  205.125;    0.000
989.731; 1389.000;  195.125;    0.000
989.895; 1501.000;  211.125;    0.000
990.059; 1396.000;  175.125;    0.000
990.223; 1509.000;  176.125;    0.000
990.387; 1509.000;  234.125;    0.000
990.551; 1417.000;  231.125;    0.000
990.714; 1423.000;  209.125;    0.000
990.878; 1466.000;  187.125;    0.000
991.042; 1499.000;  183.125;    0.000
991.206; 1479.000;  216.125;    0.000
991.370; 1513.000;  257.125;    0.000
991.534; 1470.000;  188.125;    0.000
991.697; 1451.000;  203.125;    0.000
991.861; 1458.000;  219.125;    0.000
992.025; 1420.000;  221.125;    0.000
992.188; 1393.000;  188.125;    0.000
992.352; 1389.000;  205.125;    0.000
992.516; 1460.000;  189.125;    0.000
992.679; 1453.000;  207.125;    0.000
992.843; 1404.000;  210.125;    0.000
993.006; 1447.000;  191.125;    0.000
993.170; 1471.000;  228.125;    0.000
993.333; 1386.000;  142.125;    0.000
993.497; 1455.000;  175.125;    0.000
993.660; 1422.000;  220.125;    0.000
993.824; 1476.000;  193.125;    0.000
993.987; 1472.000;  219.125;    0.000
994.150; 1417.000;  166.125;    0.000
994.314; 1450.000;  207.125;    0.000
994.477; 1431.000;  227.125;    0.000
994.640; 1390.000;  210.125;    0.000
994.803; 1464.000;  219.125;    0.000
994.967; 1415.000;  192.125;    0.000
995.130; 1421.000;  197.125;    0.000
995.293; 1412.000;  189.125;    0.000
995.456; 1407.000;  180.125;    0.000
995.619; 1454.000;  239.125;    0.000
995.782; 1514.000;  209.125;    0.000
995.945; 1415.000;  216.125;    0.000
996.108; 1368.000;  198.125;    0.000
996.271; 1496.000;  205.125;    0.000
996.434; 1501.000;  205.125;    0.000
996.597; 1355.000;  208.125;    0.000
996.760; 1370.000;  205.125;    0.000
996.923; 1426.000;  174.125;    0.000
997.086; 1380.000;  198.125;    0.000
997.248; 1457.000;  214.125;    0.000
997.411; 1350.000;  237.125;    0.000
997.574; 1331.000;  182.125;    0.000
997.737; 1407.000;  188.125;    0.000
997.899; 1470.000;  216.125;    0.000
998.062; 1419.000;  210.125;    0.000
998.225; 1423.000;  202.125;    0.000
998.387; 1358.000;  202.125;    0.000
998.550; 1496.000;  193.125;    0.000
998.712; 1415.000;  225.125;    0.000
998.875; 1492.000;  228.125;    0.000
999.037; 1348.000;  186.125;    0.000
999.200; 1375.000;  212.125;    0.000
999.362; 1430.000;  234.125;    0.000
999.525; 1400.000;  170.125;    0.000
999.687; 1378.000;  191.125;    0.000
999.849; 1458.000;  218.125;    0.000
1000.012; 1382.000;  187.125;    0.000
1000.174; 1395.000;  216.125;    0.000
1000.336; 1414.000;  194.125;    0.000
1000.499; 1383.000;  209.125;    0.000
1000.661; 1459.000;  208.125;    0.000
1000.823; 1423.000;  197.125;    0.000
1000.985; 1488.000;  201.125;    0.000
1001.147; 1535.000;  234.125;    0.000
1001.309; 1434.000;  180.125;    0.000
1001.471; 1532.000;  223.125;    0.000
1001.633; 1504.000;  198.125;    0.000
1001.796; 1456.000;  200.125;    0.000
1001.958; 1552.000;  204.125;    0.000
1002.119; 1547.000;  193.125;    0.000
1002.281; 1504.000;  205.125;    0.000
1002.443; 1646.000;  236.125;    0.000
1002.605; 1568.000;  197.125;    0.000
1002.767; 1728.000;  223.125;    0.000
1002.929; 1766.000;  220.125;    0.000
1003.091; 1804.000;  214.125;    0.000
1003.252; 1977.000;  233.125;    0.000
1003.414; 2072.000;  230.125;    0.000
1003.576; 2142.000;  203.125;    0.000
1003.738; 2181.000;  201.125;    0.000
1003.899; 2360.000;  222.125;    0.000
1004.061; 2445.000;  208.125;    0.000
1004.222; 2440.000;  194.125;    0.000
1004.384; 2633.000;  205.125;    0.000
1004.546; 2647.000;  162.125;    0.000
1004.707; 2748.000;  232.125;    0.000
1004.869; 2713.000;  223.125;    0.000
1005.030; 2672.000;  204.125;    0.000
1005.191; 2615.000;  214.125;    0.000
1005.353; 2526.000;  226.125;    0.000
1005.514; 2472.000;  201.125;    0.000
1005.675; 2351.000;  205.125;    0.000
1005.837; 2252.000;  235.125;    0.000
1005.998; 2214.000;  210.125;    0.000
1006.159; 2207.000;  214.125;    0.000
1006.321; 2196.000;  236.125;    0.000
1006.482; 2288.000;  214.125;    0.000
1006.643; 2360.000;  213.125;    0.000
1006.804; 2425.000;  204.125;    0.000
1006.965; 2550.000;  212.125;    0.000
1007.126; 2478.000;  251.125;    0.000
1007.287; 2492.000;  238.125;    0.000
1007.448; 2472.000;  198.125;    0.000
1007.609; 2471.000;  241.125;    0.000
1007.770; 2365.000;  213.125;    0.000
1007.931; 2329.000;  225.125;    0.000
1008.092; 2394.000;  204.125;    0.000
1008.253; 2436.000;  220.125;    0.000
1008.414; 2556.000;  180.125;    0.000
1008.575; 2551.000;  224.125;    0.000
1008.736; 2567.000;  164.125;    0.000
1008.896; 2583.000;  247.125;    0.000
1009.057; 2532.000;  263.125;    0.000
1009.218; 2560.000;  233.125;    0.000
1009.379; 2546.000;  207.125;    0.000
1009.539; 2606.000;  221.125;    0.000
1009.700; 2624.000;  209.125;    0.000
1009.860; 2600.000;  217.125;    0.000
1010.021; 2638.000;  182.125;    0.000
1010.182; 2619.000;  233.125;    0.000
1010.342; 2621.000;  210.125;    0.000
1010.503; 2654.000;  232.125;    0.000
1010.663; 2718.000;  228.125;    0.000
1010.823; 2861.000;  212.125;    0.000
1010.984; 2866.000;  244.125;    0.000
1011.144; 2853.000;  200.125;    0.000
1011.305; 2849.000;  237.125;    0.000
1011.465; 2985.000;  225.125;    0.000
1011.625; 3057.000;  215.125;    0.000
1011.785; 3169.000;  235.125;    0.000
1011.946; 3101.000;  231.125;    0.000
1012.106; 3113.000;  206.125;    0.000
1012.266; 3075.000;  218.125;    0.000
1012.426; 3059.000;  249.125;    0.000
1012.586; 3067.000;  217.125;    0.000
1012.746; 3115.000;  231.125;    0.000
1012.906; 3005.000;  230.125;    0.000
1013.066; 3114.000;  260.125;    0.000
1013.226; 3012.000;  206.125;    0.000
1013.386; 3070.000;  220.125;    0.000
1013.546; 2956.000;  233.125;    0.000
1013.706; 2891.000;  194.125;    0.000
1013.866; 3117.000;  209.125;    0.000
1014.026; 3124.000;  204.125;    0.000
1014.186; 2985.000;  203.125;    0.000
1014.346; 2928.000;  244.125;    0.000
1014.505; 3096.000;  206.125;    0.000
1014.665; 3155.000;  210.125;    0.000
1014.825; 3004.000;  235.125;    0.000
1014.985; 2947.000;  227.125;    0.000
1015.144; 3252.000;  237.125;    0.000
1015.304; 3432.000;  196.125;    0.000
1015.464; 3316.000;  228.125;    0.000
1015.623; 3264.000;  235.125;    0.000
1015.783; 3462.000;  187.125;    0.000
1015.942; 3766.000;  184.125;    0.000
1016.102; 3678.000;  245.125;    0.000
1016.261; 3608.000;  203.125;    0.000
1016.420; 4082.000;  209.125;    0.000
1016.580; 4349.000;  235.125;    0.000
1016.739; 4187.000;  175.125;    0.000
1016.899; 4015.000;  220.125;    0.000
1017.058; 4378.000;  219.125;    0.000
1017.217; 4399.000;  238.125;    0.000
1017.376; 4251.000;  235.125;    0.000
1017.536; 3976.000;  195.125;    0.000
1017.695; 3966.000;  215.125;    0.000
1017.854; 4165.000;  231.125;    0.000
1018.013; 3984.000;  184.125;    0.000
1018.172; 3766.000;  179.125;    0.000
1018.331; 3728.000;  205.125;    0.000
1018.490; 3911.000;  203.125;    0.000
1018.649; 4283.000;  261.125;    0.000
1018.808; 4228.000;  253.125;    0.000
1018.967; 4219.000;  201.125;    0.000
1019.126; 4220.000;  216.125;    0.000
1019.285; 4274.000;  169.125;    0.000
1019.444; 4226.000;  226.125;    0.000
1019.603; 4206.000;  252.125;    0.000
1019.762; 3890.000;  206.125;    0.000
1019.921; 3948.000;  235.125;    0.000
1020.079; 4371.000;  192.125;    0.000
1020.238; 4591.000;  226.125;    0.000
1020.397; 4249.000;  231.125;    0.000
1020.555; 4051.000;  218.125;    0.000
1020.714; 4168.000;  235.125;    0.000
1020.873; 4452.000;  229.125;    0.000
1021.031; 4510.000;  234.125;    0.000
1021.190; 4213.000;  223.125;    0.000
1021.348; 4118.000;  186.125;    0.000
1021.507; 4468.000;  201.125;    0.000
1021.665; 4804.000;  222.125;    0.000
1021.824; 4517.000;  208.125;    0.000
1021.982; 4231.000;  209.125;    0.000
1022.141; 4277.000;  224.125;    0.000
1022.299; 4764.000;  214.125;    0.000
1022.457; 5084.000;  176.125;    0.000
1022.616; 4691.000;  211.125;    0.000
1022.774; 4146.000;  218.125;    0.000
1022.932; 4425.000;  205.125;    0.000
1023.090; 5078.000;  246.125;    0.000
1023.249; 5196.000;  249.125;    0.000
1023.407; 4650.000;  235.125;    0.000
1023.565; 4213.000;  202.125;    0.000
1023.723; 4625.000;  210.125;    0.000
1023.881; 5137.000;  206.125;    0.000
1024.039; 5140.000;  240.125;    0.000
1024.197; 4895.000;  275.125;    0.000
1024.355; 4449.000;  228.125;    0.000
1024.513; 4553.000;  234.125;    0.000
1024.671; 5245.000;  222.125;    0.000
1024.829; 5366.000;  241.125;    0.000
1024.987; 4918.000;  209.125;    0.000
1025.145; 4513.000;  227.125;    0.000
1025.302; 4691.000;  208.125;    0.000
1025.460; 5179.000;  210.125;    0.000
1025.618; 5493.000;  192.125;    0.000
1025.776; 4977.000;  220.125;    0.000
1025.933; 4583.000;  223.125;    0.000
1026.091; 4610.000;  189.125;    0.000
1026.249; 5134.000;  210.125;    0.000
1026.406; 5505.000;  231.125;    0.000
1026.564; 5257.000;  247.125;    0.000
1026.721; 4854.000;  213.125;    0.000
1026.879; 4611.000;  208.125;    0.000
1027.036; 5159.000;  222.125;    0.000
1027.194; 5517.000;  253.125;    0.000
1027.351; 5315.000;  239.125;    0.000
1027.509; 5209.000;  232.125;    0.000
1027.666; 4770.000;  251.125;    0.000
1027.823; 5108.000;  212.125;    0.000
1027.981; 5217.000;  260.125;    0.000
1028.138; 5606.000;  263.125;    0.000
1028.295; 5223.000;  251.125;    0.000
1028.452; 4927.000;  249.125;    0.000
1028.609; 4996.000;  259.125;    0.000
1028.767; 5345.000;  255.125;    0.000
1028.924; 5725.000;  201.125;    0.000
1029.081; 5472.000;  217.125;    0.000
1029.238; 5426.000;  230.125;    0.000
1029.395; 5176.000;  263.125;    0.000
1029.552; 5359.000;  207.125;    0.000
1029.709; 5715.000;  220.125;    0.000
1029.866; 5770.000;  214.125;    0.000
1030.023; 5567.000;  224.125;    0.000
1030.180; 5032.000;  209.125;    0.000
1030.337; 5118.000;  269.125;    0.000
1030.494; 5346.000;  207.125;    0.000
1030.650; 5667.000;  230.125;    0.000
1030.807; 6016.000;  217.125;    0.000
1030.964; 5446.000;  212.125;    0.000
1031.121; 5251.000;  220.125;    0.000
1031.277; 5203.000;  233.125;    0.000
1031.434; 5416.000;  266.125;    0.000
1031.591; 6020.000;  270.125;    0.000
1031.747; 6027.000;  229.125;    0.000
1031.904; 5850.000;  227.125;    0.000
1032.060; 5458.000;  210.125;    0.000
1032.217; 5362.000;  218.125;    0.000
1032.373; 5994.000;  190.125;    0.000
1032.530; 6280.000;  236.125;    0.000
1032.686; 6831.000;  199.125;    0.000
1032.843; 6653.000;  216.125;    0.000
1032.999; 6391.000;  204.125;    0.000
1033.155; 6657.000;  208.125;    0.000
1033.312; 6482.000;  231.125;    0.000
1033.468; 7636.000;  213.125;    0.000
1033.624; 8363.000;  235.125;    0.000
1033.780; 8588.000;  233.125;    0.000
1033.937; 8525.000;  201.125;    0.000
1034.093; 7627.000;  233.125;    0.000
1034.249; 7926.000;  214.125;    0.000
1034.405; 7828.000;  245.125;    0.000
1034.561; 8452.000;  228.125;    0.000
1034.717; 8999.000;  234.125;    0.000
1034.873; 8734.000;  248.125;    0.000
1035.029; 9191.000;  220.125;    0.000
1035.185; 8212.000;  294.125;    0.000
1035.341; 8282.000;  231.125;    0.000
1035.497; 9006.000;  254.125;    0.000
1035.653; 9253.000;  225.125;    0.000
1035.809;10096.000;  243.125;    0.000
1035.964;10806.000;  216.125;    0.000
1036.120;10161.000;  199.125;    0.000
1036.276;10159.000;  220.125;    0.000
1036.432; 9735.000;  210.125;    0.000
1036.587; 9326.000;  225.125;    0.000
1036.743; 9955.000;  245.125;    0.000
1036.899;11079.000;  219.125;    0.000
1037.054;11014.000;  157.125;    0.000
1037.210;12414.000;  208.125;    0.000
1037.365;12497.000;  230.125;    0.000
1037.521;11240.000;  236.125;    0.000
1037.676;11182.000;  193.125;    0.000
1037.832;10373.000;  246.125;    0.000
1037.987;10347.000;  231.125;    0.000
1038.143;10885.000;  234.125;    0.000
1038.298;12490.000;  219.125;    0.000
1038.453;12079.000;  230.125;    0.000
1038.609;13367.000;  254.125;    0.000
1038.764;13896.000;  249.125;    0.000
1038.919;12317.000;  224.125;    0.000
1039.074;12397.000;  209.125;    0.000
1039.229;11470.000;  214.125;    0.000
1039.385;11300.000;  268.125;    0.000
1039.540;12244.000;  268.125;    0.000
1039.695;13051.000;  229.125;    0.000
1039.850;14009.000;  252.125;    0.000
1040.005;14839.000;  248.125;    0.000
1040.160;15916.000;  215.125;    0.000
1040.315;15080.000;  239.125;    0.000
1040.470;14380.000;  210.125;    0.000
1040.625;13653.000;  239.125;    0.000
1040.780;13230.000;  251.125;    0.000
1040.935;13002.000;  247.125;    0.000
1041.089;13940.000;  215.125;    0.000
1041.244;15924.000;  210.125;    0.000
1041.399;16751.000;  237.125;    0.000
1041.554;18115.000;  253.125;    0.000
1041.708;19559.000;  227.125;    0.000
1041.863;19388.000;  219.125;    0.000
1042.018;18182.000;  246.125;    0.000
1042.172;17198.000;  236.125;    0.000
1042.327;16910.000;  272.125;    0.000
1042.481;16942.000;  197.125;    0.000
1042.636;17278.000;  213.125;    0.000
1042.791;17737.000;  250.125;    0.000
1042.945;21349.000;  267.125;    0.000
1043.099;22425.000;  257.125;    0.000
1043.254;21809.000;  206.125;    0.000
1043.408;23119.000;  266.125;    0.000
1043.563;24531.000;  232.125;    0.000
1043.717;23529.000;  241.125;    0.000
1043.871;21755.000;  248.125;    0.000
1044.025;21485.000;  234.125;    0.000
1044.180;21586.000;  222.125;    0.000
1044.334;21738.000;  235.125;    0.000
1044.488;22177.000;  270.125;    0.000
1044.642;23346.000;  215.125;    0.000
1044.796;25949.000;  212.125;    0.000
1044.950;28699.000;  228.125;    0.000
1045.104;30831.000;  223.125;    0.000
1045.258;30703.000;  236.125;    0.000
1045.412;30553.000;  225.125;    0.000
1045.566;28857.000;  245.125;    0.000
1045.720;28502.000;  201.125;    0.000
1045.874;26064.000;  229.125;    0.000
1046.028;24288.000;  243.125;    0.000
1046.182;24339.000;  212.125;    0.000
1046.336;25751.000;  256.125;    0.000
1046.489;26871.000;  234.125;    0.000
1046.643;27536.000;  246.125;    0.000
1046.797;29982.000;  219.125;    0.000
1046.951;30862.000;  231.125;    0.000
1047.104;32360.000;  285.125;    0.000
1047.258;33824.000;  256.125;    0.000
1047.411;35050.000;  232.125;    0.000
1047.565;34327.000;  269.125;    0.000
1047.719;34081.000;  213.125;    0.000
1047.872;31528.000;  210.125;    0.000
1048.026;30836.000;  251.125;    0.000
1048.179;30027.000;  213.125;    0.000
1048.332;29602.000;  212.125;    0.000
1048.486;28653.000;  218.125;    0.000
1048.639;29114.000;  218.125;    0.000
1048.792;29086.000;  247.125;    0.000
1048.946;33454.000;  208.125;    0.000
1049.099;35685.000;  247.125;    0.000
1049.252;36689.000;  274.125;    0.000
1049.406;34453.000;  232.125;    0.000
1049.559;36257.000;  251.125;    0.000
1049.712;39287.000;  243.125;    0.000
1049.865;41959.000;  219.125;    0.000
1050.018;41527.000;  216.125;    0.000
1050.171;36645.000;  237.125;    0.000
1050.324;36305.000;  291.125;    0.000
1050.477;38548.000;  241.125;    0.000
1050.630;41230.000;  245.125;    0.000
1050.783;41512.000;  213.125;    0.000
1050.936;39375.000;  246.125;    0.000
1051.089;37161.000;  255.125;    0.000
1051.242;39262.000;  228.125;    0.000
1051.394;41255.000;  276.125;    0.000
1051.547;43910.000;  246.125;    0.000
1051.700;41898.000;  252.125;    0.000
1051.853;40953.000;  267.125;    0.000
1052.005;43049.000;  261.125;    0.000
1052.158;46708.000;  313.125;    0.000
1052.311;50711.000;  264.125;    0.000
1052.463;48435.000;  271.125;    0.000
1052.616;43507.000;  291.125;    0.000
1052.768;38971.000;  298.125;    0.000
1052.921;38168.000;  262.125;    0.000
1053.073;42190.000;  307.125;    0.000
1053.226;46966.000;  301.125;    0.000
1053.378;52946.000;  309.125;    0.000
1053.531;56682.000;  280.125;    0.000
1053.683;52854.000;  258.125;    0.000
1053.835;45475.000;  267.125;    0.000
1053.988;36391.000;  294.125;    0.000
1054.140; 6629.000;  292.125;    0.000
1054.292; 1539.000;  249.125;    0.000
1054.444; 1179.000;  288.125;    0.000
1054.596; 1142.000;  275.125;    0.000
1054.749;  996.000;  284.125;    0.000
1054.901;  951.000;  291.125;    0.000
1055.053;  892.000;  274.125;    0.000
1055.205;  838.000;  313.125;    0.000
1055.357;  799.000;  309.125;    0.000
1055.509;  762.000;  283.125;    0.000
1055.661;  786.000;  341.125;    0.000
1055.813;  778.000;  288.125;    0.000
1055.965;  707.000;  300.125;    0.000
1056.116;  704.000;  296.125;    0.000
1056.268;  715.000;  319.125;    0.000
1056.420;  741.000;  298.125;    0.000

