
Integration time [ms]:   1.000
Averaging Nr. [scans]: 1
Smoothing Nr. [pixels]: 0
Data measured with spectrometer [name]: UV2
Wave   ;Sample   ;Dark     ;Reference
[nm]   ;[counts] ;[counts] ;[counts] 

353.533;  217.150;  216.475;    0.000
353.597;  242.150;  244.475;    0.000
353.660;  230.150;  181.475;    0.000
353.723;  182.150;  203.475;    0.000
353.786;  180.150;  180.475;    0.000
353.850;  207.150;  213.475;    0.000
353.913;  201.150;  191.475;    0.000
353.976;  211.150;  195.475;    0.000
354.039;  195.150;  158.475;    0.000
354.102;  190.150;  199.475;    0.000
354.166;  192.150;  185.475;    0.000
354.229;  209.150;  188.475;    0.000
354.292;  194.150;  188.475;    0.000
354.355;  238.150;  226.475;    0.000
354.418;  179.150;  158.475;    0.000
354.481;  194.150;  185.475;    0.000
354.545;  775.150;  191.475;    0.000
354.608;  793.150;  247.475;    0.000
354.671;  767.150;  176.475;    0.000
354.734;  832.150;  198.475;    0.000
354.797;  805.150;  195.475;    0.000
354.860;  796.150;  212.475;    0.000
354.923;  769.150;  184.475;    0.000
354.986;  778.150;  169.475;    0.000
355.050;  830.150;  206.475;    0.000
355.113;  863.150;  210.475;    0.000
355.176;  902.150;  217.475;    0.000
355.239;  893.150;  201.475;    0.000
355.302;  919.150;  193.475;    0.000
355.365;  887.150;  234.475;    0.000
355.428;  912.150;  182.475;    0.000
355.491;  899.150;  233.475;    0.000
355.554;  927.150;  167.475;    0.000
355.617;  938.150;  195.475;    0.000
355.680;  948.150;  198.475;    0.000
355.743;  930.150;  186.475;    0.000
355.806;  990.150;  171.475;    0.000
355.869; 1032.150;  244.475;    0.000
355.932;  989.150;  164.475;    0.000
355.995;  958.150;  220.475;    0.000
356.058;  973.150;  172.475;    0.000
356.121; 1039.150;  228.475;    0.000
356.184; 1044.150;  225.475;    0.000
356.247; 1011.150;  161.475;    0.000
356.310; 1001.150;  195.475;    0.000
356.373; 1035.150;  191.475;    0.000
356.436; 1014.150;  147.475;    0.000
356.498; 1014.150;  183.475;    0.000
356.561; 1056.150;  137.475;    0.000
356.624; 1059.150;  186.475;    0.000
356.687; 1084.150;  158.475;    0.000
356.750; 1041.150;  194.475;    0.000
356.813; 1093.150;  186.475;    0.000
356.876; 1064.150;  161.475;    0.000
356.939; 1064.150;  188.475;    0.000
357.001; 1086.150;  200.475;    0.000
357.064; 1035.150;  182.475;    0.000
357.127; 1085.150;  168.475;    0.000
357.190; 1092.150;  157.475;    0.000
357.253; 1096.150;  199.475;    0.000
357.316; 1151.150;  187.475;    0.000
357.378; 1128.150;  174.475;    0.000
357.441; 1061.150;  165.475;    0.000
357.504; 1070.150;  189.475;    0.000
357.567; 1058.150;  116.475;    0.000
357.629; 1162.150;  176.475;    0.000
357.692; 1046.150;  134.475;    0.000
357.755; 1131.150;  175.475;    0.000
357.818; 1077.150;  159.475;    0.000
357.880; 1087.150;  185.475;    0.000
357.943; 1071.150;  159.475;    0.000
358.006; 1085.150;  176.475;    0.000
358.069; 1126.150;  156.475;    0.000
358.131; 1129.150;  170.475;    0.000
358.194; 1086.150;  125.475;    0.000
358.257; 1064.150;  186.475;    0.000
358.319; 1061.150;  139.475;    0.000
358.382; 1103.150;  175.475;    0.000
358.445; 1127.150;  170.475;    0.000
358.507; 1165.150;  129.475;    0.000
358.570; 1114.150;  168.475;    0.000
358.633; 1175.150;  152.475;    0.000
358.695; 1170.150;  194.475;    0.000
358.758; 1160.150;  154.475;    0.000
358.821; 1137.150;  147.475;    0.000
358.883; 1169.150;  163.475;    0.000
358.946; 1174.150;  155.475;    0.000
359.008; 1159.150;  208.475;    0.000
359.071; 1208.150;  182.475;    0.000
359.134; 1121.150;  126.475;    0.000
359.196; 1159.150;  142.475;    0.000
359.259; 1129.150;  138.475;    0.000
359.321; 1180.150;  153.475;    0.000
359.384; 1132.150;  186.475;    0.000
359.446; 1193.150;  152.475;    0.000
359.509; 1234.150;  144.475;    0.000
359.571; 1155.150;  164.475;    0.000
359.634; 1202.150;  171.475;    0.000
359.696; 1180.150;  144.475;    0.000
359.759; 1185.150;  171.475;    0.000
359.821; 1139.150;  161.475;    0.000
359.884; 1256.150;  159.475;    0.000
359.946; 1241.150;  186.475;    0.000
360.009; 1212.150;  171.475;    0.000
360.071; 1231.150;  166.475;    0.000
360.134; 1242.150;  215.475;    0.000
360.196; 1198.150;  138.475;    0.000
360.259; 1183.150;  196.475;    0.000
360.321; 1190.150;  148.475;    0.000
360.384; 1194.150;  150.475;    0.000
360.446; 1165.150;  148.475;    0.000
360.508; 1223.150;  172.475;    0.000
360.571; 1252.150;  155.475;    0.000
360.633; 1229.150;  153.475;    0.000
360.696; 1213.150;  142.475;    0.000
360.758; 1299.150;  165.475;    0.000
360.820; 1260.150;  155.475;    0.000
360.883; 1214.150;  156.475;    0.000
360.945; 1287.150;  171.475;    0.000
361.007; 1219.150;  138.475;    0.000
361.070; 1286.150;  129.475;    0.000
361.132; 1262.150;  166.475;    0.000
361.194; 1241.150;  143.475;    0.000
361.257; 1248.150;  154.475;    0.000
361.319; 1252.150;  176.475;    0.000
361.381; 1287.150;  143.475;    0.000
361.443; 1247.150;  136.475;    0.000
361.506; 1311.150;  160.475;    0.000
361.568; 1270.150;  140.475;    0.000
361.630; 1252.150;  159.475;    0.000
361.693; 1288.150;  162.475;    0.000
361.755; 1348.150;  185.475;    0.000
361.817; 1350.150;  209.475;    0.000
361.879; 1345.150;  161.475;    0.000
361.941; 1266.150;  152.475;    0.000
362.004; 1268.150;  132.475;    0.000
362.066; 1306.150;  159.475;    0.000
362.128; 1299.150;  143.475;    0.000
362.190; 1325.150;  131.475;    0.000
362.252; 1267.150;  131.475;    0.000
362.315; 1368.150;  175.475;    0.000
362.377; 1323.150;  140.475;    0.000
362.439; 1320.150;  140.475;    0.000
362.501; 1349.150;  140.475;    0.000
362.563; 1390.150;  152.475;    0.000
362.625; 1310.150;  174.475;    0.000
362.688; 1282.150;  195.475;    0.000
362.750; 1390.150;  221.475;    0.000
362.812; 1299.150;  171.475;    0.000
362.874; 1279.150;  117.475;    0.000
362.936; 1365.150;  162.475;    0.000
362.998; 1391.150;  142.475;    0.000
363.060; 1359.150;  143.475;    0.000
363.122; 1334.150;  148.475;    0.000
363.184; 1338.150;  179.475;    0.000
363.246; 1329.150;  186.475;    0.000
363.308; 1374.150;  180.475;    0.000
363.370; 1446.150;  200.475;    0.000
363.432; 1347.150;  139.475;    0.000
363.494; 1329.150;  138.475;    0.000
363.556; 1329.150;  114.475;    0.000
363.618; 1345.150;  153.475;    0.000
363.680; 1311.150;  153.475;    0.000
363.742; 1362.150;  178.475;    0.000
363.804; 1395.150;  214.475;    0.000
363.866; 1369.150;  170.475;    0.000
363.928; 1297.150;  145.475;    0.000
363.990; 1370.150;  215.475;    0.000
364.052; 1347.150;  166.475;    0.000
364.114; 1388.150;  168.475;    0.000
364.176; 1381.150;  176.475;    0.000
364.238; 1345.150;  203.475;    0.000
364.300; 1475.150;  158.475;    0.000
364.362; 1328.150;  152.475;    0.000
364.424; 1412.150;  119.475;    0.000
364.486; 1407.150;  187.475;    0.000
364.548; 1385.150;  180.475;    0.000
364.609; 1430.150;  212.475;    0.000
364.671; 1392.150;  165.475;    0.000
364.733; 1328.150;  190.475;    0.000
364.795; 1446.150;  148.475;    0.000
364.857; 1375.150;  159.475;    0.000
364.919; 1379.150;  159.475;    0.000
364.981; 1438.150;  191.475;    0.000
365.042; 1394.150;  170.475;    0.000
365.104; 1375.150;  145.475;    0.000
365.166; 1322.150;  134.475;    0.000
365.228; 1418.150;  150.475;    0.000
365.290; 1487.150;  158.475;    0.000
365.351; 1349.150;  168.475;    0.000
365.413; 1366.150;  173.475;    0.000
365.475; 1381.150;  172.475;    0.000
365.537; 1395.150;  126.475;    0.000
365.598; 1438.150;  160.475;    0.000
365.660; 1423.150;  127.475;    0.000
365.722; 1433.150;  189.475;    0.000
365.784; 1373.150;  161.475;    0.000
365.845; 1456.150;  152.475;    0.000
365.907; 1377.150;  117.475;    0.000
365.969; 1422.150;  146.475;    0.000
366.030; 1483.150;  171.475;    0.000
366.092; 1369.150;  155.475;    0.000
366.154; 1412.150;  137.475;    0.000
366.215; 1387.150;  147.475;    0.000
366.277; 1387.150;  148.475;    0.000
366.339; 1456.150;  158.475;    0.000
366.400; 1409.150;  140.475;    0.000
366.462; 1380.150;  159.475;    0.000
366.524; 1404.150;  160.475;    0.000
366.585; 1404.150;  157.475;    0.000
366.647; 1448.150;  170.475;    0.000
366.708; 1355.150;  123.475;    0.000
366.770; 1456.150;  194.475;    0.000
366.832; 1466.150;  191.475;    0.000
366.893; 1514.150;  155.475;    0.000
366.955; 1464.150;  132.475;    0.000
367.016; 1494.150;  126.475;    0.000
367.078; 1418.150;  202.475;    0.000
367.139; 1487.150;  116.475;    0.000
367.201; 1383.150;  134.475;    0.000
367.262; 1428.150;  157.475;    0.000
367.324; 1419.150;  202.475;    0.000
367.385; 1435.150;  118.475;    0.000
367.447; 1544.150;  155.475;    0.000
367.508; 1442.150;  134.475;    0.000
367.570; 1428.150;  165.475;    0.000
367.631; 1434.150;  118.475;    0.000
367.693; 1464.150;  170.475;    0.000
367.754; 1514.150;  154.475;    0.000
367.816; 1455.150;  146.475;    0.000
367.877; 1472.150;  175.475;    0.000
367.939; 1513.150;  200.475;    0.000
368.000; 1484.150;  168.475;    0.000
368.062; 1503.150;  138.475;    0.000
368.123; 1488.150;  170.475;    0.000
368.184; 1502.150;  188.475;    0.000
368.246; 1409.150;  145.475;    0.000
368.307; 1456.150;  163.475;    0.000
368.369; 1428.150;  144.475;    0.000
368.430; 1448.150;  140.475;    0.000
368.491; 1523.150;  133.475;    0.000
368.553; 1481.150;  145.475;    0.000
368.614; 1506.150;  158.475;    0.000
368.675; 1444.150;  147.475;    0.000
368.737; 1504.150;  157.475;    0.000
368.798; 1532.150;  163.475;    0.000
368.859; 1541.150;  173.475;    0.000
368.921; 1455.150;  122.475;    0.000
368.982; 1514.150;  184.475;    0.000
369.043; 1458.150;  169.475;    0.000
369.104; 1542.150;  142.475;    0.000
369.166; 1469.150;  169.475;    0.000
369.227; 1512.150;  156.475;    0.000
369.288; 1439.150;  151.475;    0.000
369.349; 1559.150;  191.475;    0.000
369.411; 1499.150;  168.475;    0.000
369.472; 1505.150;  155.475;    0.000
369.533; 1510.150;  149.475;    0.000
369.594; 1502.150;  174.475;    0.000
369.656; 1564.150;  188.475;    0.000
369.717; 1498.150;  113.475;    0.000
369.778; 1517.150;  184.475;    0.000
369.839; 1551.150;  151.475;    0.000
369.900; 1617.150;  180.475;    0.000
369.961; 1566.150;  171.475;    0.000
370.023; 1547.150;  143.475;    0.000
370.084; 1573.150;  137.475;    0.000
370.145; 1514.150;  152.475;    0.000
370.206; 1545.150;  151.475;    0.000
370.267; 1475.150;  134.475;    0.000
370.328; 1546.150;  178.475;    0.000
370.389; 1499.150;  181.475;    0.000
370.451; 1573.150;  169.475;    0.000
370.512; 1595.150;  172.475;    0.000
370.573; 1570.150;  148.475;    0.000
370.634; 1561.150;  156.475;    0.000
370.695; 1442.150;  151.475;    0.000
370.756; 1539.150;  185.475;    0.000
370.817; 1554.150;  185.475;    0.000
370.878; 1617.150;  191.475;    0.000
370.939; 1561.150;  147.475;    0.000
371.000; 1573.150;  162.475;    0.000
371.061; 1576.150;  145.475;    0.000
371.122; 1555.150;  179.475;    0.000
371.183; 1503.150;  114.475;    0.000
371.244; 1643.150;  180.475;    0.000
371.305; 1503.150;  138.475;    0.000
371.366; 1588.150;  157.475;    0.000
371.427; 1524.150;  148.475;    0.000
371.488; 1580.150;  138.475;    0.000
371.549; 1562.150;  193.475;    0.000
371.610; 1570.150;  158.475;    0.000
371.671; 1520.150;  119.475;    0.000
371.732; 1530.150;  159.475;    0.000
371.793; 1614.150;  178.475;    0.000
371.853; 1561.150;  155.475;    0.000
371.914; 1569.150;  148.475;    0.000
371.975; 1652.150;  124.475;    0.000
372.036; 1609.150;  158.475;    0.000
372.097; 1565.150;  136.475;    0.000
372.158; 1527.150;  116.475;    0.000
372.219; 1611.150;  157.475;    0.000
372.280; 1582.150;  151.475;    0.000
372.340; 1563.150;  190.475;    0.000
372.401; 1641.150;  151.475;    0.000
372.462; 1634.150;  129.475;    0.000
372.523; 1558.150;  121.475;    0.000
372.584; 1575.150;  152.475;    0.000
372.645; 1616.150;  132.475;    0.000
372.705; 1639.150;  190.475;    0.000
372.766; 1607.150;  153.475;    0.000
372.827; 1579.150;  133.475;    0.000
372.888; 1598.150;  161.475;    0.000
372.948; 1626.150;  159.475;    0.000
373.009; 1572.150;  164.475;    0.000
373.070; 1592.150;  139.475;    0.000
373.131; 1620.150;  137.475;    0.000
373.191; 1657.150;  181.475;    0.000
373.252; 1611.150;  154.475;    0.000
373.313; 1662.150;  179.475;    0.000
373.373; 1516.150;  136.475;    0.000
373.434; 1648.150;  169.475;    0.000
373.495; 1575.150;   97.475;    0.000
373.555; 1646.150;  142.475;    0.000
373.616; 1499.150;  178.475;    0.000
373.677; 1584.150;  167.475;    0.000
373.737; 1682.150;  139.475;    0.000
373.798; 1600.150;  155.475;    0.000
373.859; 1609.150;  162.475;    0.000
373.919; 1658.150;  174.475;    0.000
373.980; 1622.150;  172.475;    0.000
374.041; 1641.150;  166.475;    0.000
374.101; 1668.150;  172.475;    0.000
374.162; 1639.150;  188.475;    0.000
374.222; 1641.150;  186.475;    0.000
374.283; 1725.150;  195.475;    0.000
374.343; 1687.150;  204.475;    0.000
374.404; 1654.150;  187.475;    0.000
374.465; 1686.150;  183.475;    0.000
374.525; 1661.150;  136.475;    0.000
374.586; 1683.150;  140.475;    0.000
374.646; 1722.150;  191.475;    0.000
374.707; 1713.150;  208.475;    0.000
374.767; 1635.150;  178.475;    0.000
374.828; 1705.150;  159.475;    0.000
374.888; 1686.150;  143.475;    0.000
374.949; 1683.150;  202.475;    0.000
375.009; 1703.150;  151.475;    0.000
375.070; 1708.150;  160.475;    0.000
375.130; 1727.150;  160.475;    0.000
375.190; 1777.150;  164.475;    0.000
375.251; 1736.150;  196.475;    0.000
375.311; 1766.150;  154.475;    0.000
375.372; 1724.150;  197.475;    0.000
375.432; 1718.150;  159.475;    0.000
375.493; 1749.150;  197.475;    0.000
375.553; 1680.150;  165.475;    0.000
375.613; 1749.150;  174.475;    0.000
375.674; 1728.150;  165.475;    0.000
375.734; 1731.150;  128.475;    0.000
375.794; 1663.150;  169.475;    0.000
375.855; 1698.150;  193.475;    0.000
375.915; 1785.150;  162.475;    0.000
375.975; 1716.150;  181.475;    0.000
376.036; 1728.150;  161.475;    0.000
376.096; 1716.150;  131.475;    0.000
376.156; 1679.150;  165.475;    0.000
376.217; 1703.150;  182.475;    0.000
376.277; 1732.150;  185.475;    0.000
376.337; 1654.150;  177.475;    0.000
376.398; 1686.150;  162.475;    0.000
376.458; 1716.150;  179.475;    0.000
376.518; 1790.150;  150.475;    0.000
376.578; 1672.150;  165.475;    0.000
376.639; 1837.150;  159.475;    0.000
376.699; 1785.150;  180.475;    0.000
376.759; 1730.150;  206.475;    0.000
376.819; 1791.150;  146.475;    0.000
376.880; 1836.150;  177.475;    0.000
376.940; 1791.150;  160.475;    0.000
377.000; 1789.150;  149.475;    0.000
377.060; 1811.150;  180.475;    0.000
377.120; 1802.150;  146.475;    0.000
377.180; 1766.150;  137.475;    0.000
377.241; 1854.150;  163.475;    0.000
377.301; 1863.150;  169.475;    0.000
377.361; 1782.150;  137.475;    0.000
377.421; 1809.150;  184.475;    0.000
377.481; 1807.150;  185.475;    0.000
377.541; 1843.150;  146.475;    0.000
377.601; 1804.150;  179.475;    0.000
377.661; 1857.150;  181.475;    0.000
377.722; 1857.150;  185.475;    0.000
377.782; 1792.150;  147.475;    0.000
377.842; 1896.150;  190.475;    0.000
377.902; 1814.150;  166.475;    0.000
377.962; 1805.150;  153.475;    0.000
378.022; 1931.150;  163.475;    0.000
378.082; 1898.150;  146.475;    0.000
378.142; 1866.150;  152.475;    0.000
378.202; 1933.150;  164.475;    0.000
378.262; 1949.150;  195.475;    0.000
378.322; 1946.150;  190.475;    0.000
378.382; 1923.150;  152.475;    0.000
378.442; 1965.150;  175.475;    0.000
378.502; 1867.150;  153.475;    0.000
378.562; 1985.150;  142.475;    0.000
378.622; 1981.150;  166.475;    0.000
378.682; 2040.150;  173.475;    0.000
378.742; 1943.150;  182.475;    0.000
378.802; 1968.150;  145.475;    0.000
378.862; 2021.150;  210.475;    0.000
378.921; 1945.150;  182.475;    0.000
378.981; 2006.150;  185.475;    0.000
379.041; 2042.150;  130.475;    0.000
379.101; 2052.150;  177.475;    0.000
379.161; 2025.150;  166.475;    0.000
379.221; 1979.150;  162.475;    0.000
379.281; 2061.150;  167.475;    0.000
379.341; 2023.150;  136.475;    0.000
379.401; 2080.150;  145.475;    0.000
379.460; 2091.150;  176.475;    0.000
379.520; 1942.150;  162.475;    0.000
379.580; 1991.150;  144.475;    0.000
379.640; 2152.150;  163.475;    0.000
379.700; 2090.150;  157.475;    0.000
379.759; 2160.150;  165.475;    0.000
379.819; 2105.150;  190.475;    0.000
379.879; 2050.150;  143.475;    0.000
379.939; 2104.150;  188.475;    0.000
379.999; 2203.150;  141.475;    0.000
380.058; 2166.150;  169.475;    0.000
380.118; 2185.150;  158.475;    0.000
380.178; 2185.150;  114.475;    0.000
380.237; 2218.150;  157.475;    0.000
380.297; 2206.150;  177.475;    0.000
380.357; 2215.150;  189.475;    0.000
380.417; 2145.150;  182.475;    0.000
380.476; 2159.150;  178.475;    0.000
380.536; 2209.150;  189.475;    0.000
380.596; 2177.150;  183.475;    0.000
380.655; 2258.150;  195.475;    0.000
380.715; 2263.150;  170.475;    0.000
380.775; 2214.150;  170.475;    0.000
380.834; 2293.150;  179.475;    0.000
380.894; 2219.150;  188.475;    0.000
380.954; 2219.150;  142.475;    0.000
381.013; 2272.150;  178.475;    0.000
381.073; 2223.150;  164.475;    0.000
381.132; 2353.150;  192.475;    0.000
381.192; 2336.150;  187.475;    0.000
381.252; 2356.150;  176.475;    0.000
381.311; 2338.150;  206.475;    0.000
381.371; 2348.150;  167.475;    0.000
381.430; 2453.150;  131.475;    0.000
381.490; 2398.150;  150.475;    0.000
381.549; 2424.150;  129.475;    0.000
381.609; 2371.150;  178.475;    0.000
381.668; 2462.150;  194.475;    0.000
381.728; 2487.150;  210.475;    0.000
381.787; 2509.150;  190.475;    0.000
381.847; 2458.150;  181.475;    0.000
381.906; 2472.150;  156.475;    0.000
381.966; 2597.150;  176.475;    0.000
382.025; 2590.150;  186.475;    0.000
382.085; 2575.150;  192.475;    0.000
382.144; 2671.150;  173.475;    0.000
382.204; 2768.150;  207.475;    0.000
382.263; 2633.150;  193.475;    0.000
382.323; 2793.150;  164.475;    0.000
382.382; 2784.150;  161.475;    0.000
382.441; 2738.150;  199.475;    0.000
382.501; 3052.150;  208.475;    0.000
382.560; 2951.150;  173.475;    0.000
382.619; 3175.150;  179.475;    0.000
382.679; 3316.150;  177.475;    0.000
382.738; 3437.150;  190.475;    0.000
382.798; 3708.150;  213.475;    0.000
382.857; 4088.150;  195.475;    0.000
382.916; 4534.150;  184.475;    0.000
382.976; 4616.150;  169.475;    0.000
383.035; 4407.150;  194.475;    0.000
383.094; 4558.150;  185.475;    0.000
383.154; 5112.150;  198.475;    0.000
383.213; 5839.150;  147.475;    0.000
383.272; 5500.150;  175.475;    0.000
383.331; 4524.150;  122.475;    0.000
383.391; 4163.150;  185.475;    0.000
383.450; 4110.150;  160.475;    0.000
383.509; 4054.150;  168.475;    0.000
383.568; 4186.150;  196.475;    0.000
383.628; 4394.150;  156.475;    0.000
383.687; 4920.150;  171.475;    0.000
383.746; 5579.150;  155.475;    0.000
383.805; 6337.150;  201.475;    0.000
383.864; 6135.150;  125.475;    0.000
383.924; 5013.150;  213.475;    0.000
383.983; 4180.150;  188.475;    0.000
384.042; 3786.150;  162.475;    0.000
384.101; 3531.150;  183.475;    0.000
384.160; 3316.150;  155.475;    0.000
384.219; 3111.150;  155.475;    0.000
384.279; 3140.150;  189.475;    0.000
384.338; 2987.150;  156.475;    0.000
384.397; 2952.150;  148.475;    0.000
384.456; 2836.150;  154.475;    0.000
384.515; 2784.150;  160.475;    0.000
384.574; 2766.150;  223.475;    0.000
384.633; 2712.150;  133.475;    0.000
384.692; 2740.150;  163.475;    0.000
384.751; 2726.150;  186.475;    0.000
384.810; 2718.150;  187.475;    0.000
384.869; 2593.150;  172.475;    0.000
384.929; 2616.150;  153.475;    0.000
384.988; 2646.150;  174.475;    0.000
385.047; 2613.150;  154.475;    0.000
385.106; 2667.150;  164.475;    0.000
385.165; 2635.150;  151.475;    0.000
385.224; 2594.150;  147.475;    0.000
385.283; 2621.150;  176.475;    0.000
385.342; 2517.150;  142.475;    0.000
385.401; 2638.150;  175.475;    0.000
385.459; 2624.150;  150.475;    0.000
385.518; 2489.150;  124.475;    0.000
385.577; 2567.150;  115.475;    0.000
385.636; 2627.150;  174.475;    0.000
385.695; 2623.150;  158.475;    0.000
385.754; 2492.150;  150.475;    0.000
385.813; 2643.150;  129.475;    0.000
385.872; 2526.150;  146.475;    0.000
385.931; 2580.150;  194.475;    0.000
385.990; 2524.150;  174.475;    0.000
386.049; 2504.150;  176.475;    0.000
386.107; 2510.150;  151.475;    0.000
386.166; 2469.150;  178.475;    0.000
386.225; 2562.150;  162.475;    0.000
386.284; 2508.150;  180.475;    0.000
386.343; 2460.150;  171.475;    0.000
386.402; 2539.150;  176.475;    0.000
386.460; 2585.150;  144.475;    0.000
386.519; 2471.150;  140.475;    0.000
386.578; 2462.150;  145.475;    0.000
386.637; 2482.150;  164.475;    0.000
386.696; 2496.150;  189.475;    0.000
386.754; 2405.150;  135.475;    0.000
386.813; 2444.150;  139.475;    0.000
386.872; 2433.150;  121.475;    0.000
386.931; 2423.150;  153.475;    0.000
386.989; 2546.150;  211.475;    0.000
387.048; 2487.150;  156.475;    0.000
387.107; 2532.150;  210.475;    0.000
387.165; 2405.150;  129.475;    0.000
387.224; 2424.150;  205.475;    0.000
387.283; 2435.150;  130.475;    0.000
387.342; 2410.150;  171.475;    0.000
387.400; 2522.150;  156.475;    0.000
387.459; 2445.150;  141.475;    0.000
387.517; 2362.150;  219.475;    0.000
387.576; 2442.150;  166.475;    0.000
387.635; 2365.150;  136.475;    0.000
387.693; 2501.150;  191.475;    0.000
387.752; 2397.150;  165.475;    0.000
387.811; 2403.150;  158.475;    0.000
387.869; 2449.150;  204.475;    0.000
387.928; 2455.150;  149.475;    0.000
387.986; 2451.150;  156.475;    0.000
388.045; 2307.150;  123.475;    0.000
388.103; 2422.150;  150.475;    0.000
388.162; 2381.150;  173.475;    0.000
388.221; 2410.150;  143.475;    0.000
388.279; 2410.150;  129.475;    0.000
388.338; 2426.150;  212.475;    0.000
388.396; 2391.150;  150.475;    0.000
388.455; 2375.150;  167.475;    0.000
388.513; 2331.150;  116.475;    0.000
388.572; 2323.150;  181.475;    0.000
388.630; 2383.150;  187.475;    0.000
388.689; 2350.150;  180.475;    0.000
388.747; 2374.150;  154.475;    0.000
388.806; 2368.150;  161.475;    0.000
388.864; 2292.150;  167.475;    0.000
388.922; 2368.150;  184.475;    0.000
388.981; 2299.150;  169.475;    0.000
389.039; 2283.150;  102.475;    0.000
389.098; 2374.150;  183.475;    0.000
389.156; 2388.150;  182.475;    0.000
389.214; 2398.150;  173.475;    0.000
389.273; 2380.150;  167.475;    0.000
389.331; 2378.150;  170.475;    0.000
389.390; 2281.150;  150.475;    0.000
389.448; 2266.150;  156.475;    0.000
389.506; 2349.150;  149.475;    0.000
389.565; 2324.150;  162.475;    0.000
389.623; 2347.150;  188.475;    0.000
389.681; 2453.150;  204.475;    0.000
389.740; 2369.150;  187.475;    0.000
389.798; 2397.150;  153.475;    0.000
389.856; 2388.150;  214.475;    0.000
389.914; 2352.150;  177.475;    0.000
389.973; 2409.150;  189.475;    0.000
390.031; 2349.150;  178.475;    0.000
390.089; 2279.150;  163.475;    0.000
390.147; 2278.150;  170.475;    0.000
390.206; 2334.150;  183.475;    0.000
390.264; 2415.150;  161.475;    0.000
390.322; 2303.150;  148.475;    0.000
390.380; 2318.150;  138.475;    0.000
390.439; 2275.150;  194.475;    0.000
390.497; 2377.150;  170.475;    0.000
390.555; 2278.150;  165.475;    0.000
390.613; 2306.150;  177.475;    0.000
390.671; 2351.150;  170.475;    0.000
390.729; 2294.150;  158.475;    0.000
390.788; 2315.150;  162.475;    0.000
390.846; 2261.150;  161.475;    0.000
390.904; 2329.150;  197.475;    0.000
390.962; 2308.150;  212.475;    0.000
391.020; 2285.150;  224.475;    0.000
391.078; 2298.150;  184.475;    0.000
391.136; 2329.150;  191.475;    0.000
391.194; 2273.150;  187.475;    0.000
391.253; 2432.150;  197.475;    0.000
391.311; 2369.150;  185.475;    0.000
391.369; 2311.150;  207.475;    0.000
391.427; 2379.150;  222.475;    0.000
391.485; 2335.150;  184.475;    0.000
391.543; 2336.150;  203.475;    0.000
391.601; 2329.150;  151.475;    0.000
391.659; 2412.150;  176.475;    0.000
391.717; 2308.150;  190.475;    0.000
391.775; 2334.150;  159.475;    0.000
391.833; 2332.150;  186.475;    0.000
391.891; 2353.150;  154.475;    0.000
391.949; 2274.150;  181.475;    0.000
392.007; 2352.150;  190.475;    0.000
392.065; 2373.150;  182.475;    0.000
392.123; 2434.150;  158.475;    0.000
392.180; 2387.150;  198.475;    0.000
392.238; 2375.150;  191.475;    0.000
392.296; 2336.150;  164.475;    0.000
392.354; 2359.150;  172.475;    0.000
392.412; 2389.150;  194.475;    0.000
392.470; 2376.150;  154.475;    0.000
392.528; 2402.150;  172.475;    0.000
392.586; 2348.150;  179.475;    0.000
392.644; 2418.150;  173.475;    0.000
392.701; 2387.150;  202.475;    0.000
392.759; 2306.150;  180.475;    0.000
392.817; 2387.150;  181.475;    0.000
392.875; 2378.150;  168.475;    0.000
392.933; 2395.150;  161.475;    0.000
392.991; 2368.150;  216.475;    0.000
393.048; 2419.150;  197.475;    0.000
393.106; 2476.150;  199.475;    0.000
393.164; 2413.150;  173.475;    0.000
393.222; 2416.150;  179.475;    0.000
393.279; 2464.150;  209.475;    0.000
393.337; 2508.150;  185.475;    0.000
393.395; 2472.150;  174.475;    0.000
393.453; 2467.150;  181.475;    0.000
393.510; 2410.150;  188.475;    0.000
393.568; 2394.150;  191.475;    0.000
393.626; 2360.150;  151.475;    0.000
393.684; 2466.150;  208.475;    0.000
393.741; 2416.150;  179.475;    0.000
393.799; 2381.150;  149.475;    0.000
393.857; 2305.150;  136.475;    0.000
393.914; 2422.150;  190.475;    0.000
393.972; 2361.150;  155.475;    0.000
394.030; 2358.150;  170.475;    0.000
394.087; 2405.150;  213.475;    0.000
394.145; 2461.150;  191.475;    0.000
394.202; 2465.150;  188.475;    0.000
394.260; 2459.150;  168.475;    0.000
394.318; 2369.150;  176.475;    0.000
394.375; 2375.150;  159.475;    0.000
394.433; 2369.150;  168.475;    0.000
394.490; 2327.150;  163.475;    0.000
394.548; 2380.150;  163.475;    0.000
394.605; 2477.150;  181.475;    0.000
394.663; 2340.150;  180.475;    0.000
394.720; 2451.150;  193.475;    0.000
394.778; 2530.150;  168.475;    0.000
394.836; 2442.150;  128.475;    0.000
394.893; 2443.150;  151.475;    0.000
394.951; 2412.150;  173.475;    0.000
395.008; 2450.150;  201.475;    0.000
395.065; 2429.150;  139.475;    0.000
395.123; 2375.150;  173.475;    0.000
395.180; 2458.150;  144.475;    0.000
395.238; 2416.150;  135.475;    0.000
395.295; 2483.150;  167.475;    0.000
395.353; 2483.150;  150.475;    0.000
395.410; 2416.150;  165.475;    0.000
395.468; 2455.150;  223.475;    0.000
395.525; 2530.150;  156.475;    0.000
395.582; 2452.150;  178.475;    0.000
395.640; 2510.150;  178.475;    0.000
395.697; 2598.150;  173.475;    0.000
395.754; 2550.150;  154.475;    0.000
395.812; 2499.150;  169.475;    0.000
395.869; 2548.150;  196.475;    0.000
395.927; 2571.150;  190.475;    0.000
395.984; 2547.150;  195.475;    0.000
396.041; 2439.150;  160.475;    0.000
396.098; 2498.150;  161.475;    0.000
396.156; 2508.150;  187.475;    0.000
396.213; 2562.150;  200.475;    0.000
396.270; 2576.150;  160.475;    0.000
396.328; 2582.150;  113.475;    0.000
396.385; 2607.150;  165.475;    0.000
396.442; 2536.150;  168.475;    0.000
396.499; 2497.150;  117.475;    0.000
396.557; 2480.150;  203.475;    0.000
396.614; 2541.150;  155.475;    0.000
396.671; 2492.150;  187.475;    0.000
396.728; 2508.150;  169.475;    0.000
396.785; 2649.150;  167.475;    0.000
396.843; 2584.150;  154.475;    0.000
396.900; 2533.150;  172.475;    0.000
396.957; 2628.150;  176.475;    0.000
397.014; 2510.150;  193.475;    0.000
397.071; 2617.150;  170.475;    0.000
397.128; 2658.150;  172.475;    0.000
397.186; 2705.150;  205.475;    0.000
397.243; 2616.150;  163.475;    0.000
397.300; 2679.150;  193.475;    0.000
397.357; 2629.150;  166.475;    0.000
397.414; 2595.150;  149.475;    0.000
397.471; 2561.150;  157.475;    0.000
397.528; 2558.150;  180.475;    0.000
397.585; 2574.150;  203.475;    0.000
397.642; 2641.150;  156.475;    0.000
397.699; 2588.150;  229.475;    0.000
397.756; 2667.150;  185.475;    0.000
397.814; 2643.150;  191.475;    0.000
397.871; 2661.150;  170.475;    0.000
397.928; 2681.150;  191.475;    0.000
397.985; 2680.150;  183.475;    0.000
398.042; 2640.150;  161.475;    0.000
398.099; 2628.150;  192.475;    0.000
398.156; 2641.150;  176.475;    0.000
398.212; 2717.150;  170.475;    0.000
398.269; 2742.150;  158.475;    0.000
398.326; 2716.150;  175.475;    0.000
398.383; 2722.150;  177.475;    0.000
398.440; 2723.150;  169.475;    0.000
398.497; 2697.150;  184.475;    0.000
398.554; 2713.150;  196.475;    0.000
398.611; 2760.150;  198.475;    0.000
398.668; 2735.150;  135.475;    0.000
398.725; 2730.150;  181.475;    0.000
398.782; 2775.150;  195.475;    0.000
398.839; 2797.150;  179.475;    0.000
398.895; 2736.150;  188.475;    0.000
398.952; 2798.150;  176.475;    0.000
399.009; 2861.150;  183.475;    0.000
399.066; 2854.150;  190.475;    0.000
399.123; 2913.150;  174.475;    0.000
399.180; 2926.150;  191.475;    0.000
399.236; 2871.150;  217.475;    0.000
399.293; 2989.150;  154.475;    0.000
399.350; 2913.150;  210.475;    0.000
399.407; 3053.150;  202.475;    0.000
399.463; 2961.150;  162.475;    0.000
399.520; 2950.150;  207.475;    0.000
399.577; 3045.150;  174.475;    0.000
399.634; 3067.150;  170.475;    0.000
399.690; 3045.150;  186.475;    0.000
399.747; 3061.150;  218.475;    0.000
399.804; 3071.150;  200.475;    0.000
399.861; 3127.150;  190.475;    0.000
399.917; 3118.150;  218.475;    0.000
399.974; 2983.150;  200.475;    0.000
400.031; 3027.150;  200.475;    0.000
400.087; 2978.150;  153.475;    0.000
400.144; 2982.150;  188.475;    0.000
400.201; 3017.150;  198.475;    0.000
400.257; 3052.150;  205.475;    0.000
400.314; 2926.150;  183.475;    0.000
400.370; 2967.150;  227.475;    0.000
400.427; 2955.150;  177.475;    0.000
400.484; 2893.150;  202.475;    0.000
400.540; 2932.150;  173.475;    0.000
400.597; 2935.150;  212.475;    0.000
400.653; 2982.150;  182.475;    0.000
400.710; 2980.150;  201.475;    0.000
400.766; 2959.150;  188.475;    0.000
400.823; 2912.150;  205.475;    0.000
400.879; 2890.150;  165.475;    0.000
400.936; 2819.150;  180.475;    0.000
400.993; 2980.150;  181.475;    0.000
401.049; 2964.150;  147.475;    0.000
401.105; 2958.150;  205.475;    0.000
401.162; 2947.150;  197.475;    0.000
401.218; 2892.150;  177.475;    0.000
401.275; 2872.150;  183.475;    0.000
401.331; 2960.150;  198.475;    0.000
401.388; 2889.150;  209.475;    0.000
401.444; 2782.150;  211.475;    0.000
401.501; 2850.150;  185.475;    0.000
401.557; 2888.150;  190.475;    0.000
401.614; 2814.150;  172.475;    0.000
401.670; 2907.150;  185.475;    0.000
401.726; 2923.150;  196.475;    0.000
401.783; 2887.150;  187.475;    0.000
401.839; 2876.150;  192.475;    0.000
401.895; 2867.150;  173.475;    0.000
401.952; 2860.150;  145.475;    0.000
402.008; 2908.150;  197.475;    0.000
402.064; 2846.150;  146.475;    0.000
402.121; 2826.150;  197.475;    0.000
402.177; 2840.150;  173.475;    0.000
402.233; 2932.150;  185.475;    0.000
402.290; 2858.150;  175.475;    0.000
402.346; 2969.150;  164.475;    0.000
402.402; 2859.150;  173.475;    0.000
402.458; 2872.150;  183.475;    0.000
402.515; 2834.150;  147.475;    0.000
402.571; 2987.150;  210.475;    0.000
402.627; 2849.150;  181.475;    0.000
402.683; 2946.150;  177.475;    0.000
402.740; 2894.150;  162.475;    0.000
402.796; 2853.150;  178.475;    0.000
402.852; 3068.150;  138.475;    0.000
402.908; 2993.150;  181.475;    0.000
402.964; 3063.150;  151.475;    0.000
403.021; 2941.150;  170.475;    0.000
403.077; 3007.150;  204.475;    0.000
403.133; 2992.150;  144.475;    0.000
403.189; 3055.150;  207.475;    0.000
403.245; 2964.150;  184.475;    0.000
403.301; 3001.150;  170.475;    0.000
403.357; 2922.150;  201.475;    0.000
403.414; 3044.150;  205.475;    0.000
403.470; 2958.150;  170.475;    0.000
403.526; 2892.150;  135.475;    0.000
403.582; 2993.150;  180.475;    0.000
403.638; 3015.150;  185.475;    0.000
403.694; 3042.150;  169.475;    0.000
403.750; 2963.150;  210.475;    0.000
403.806; 3040.150;  210.475;    0.000
403.862; 3041.150;  219.475;    0.000
403.918; 3000.150;  191.475;    0.000
403.974; 2981.150;  193.475;    0.000
404.030; 2920.150;  154.475;    0.000
404.086; 2974.150;  170.475;    0.000
404.142; 2971.150;  194.475;    0.000
404.198; 2974.150;  224.475;    0.000
404.254; 3013.150;  177.475;    0.000
404.310; 2950.150;  204.475;    0.000
404.366; 3011.150;  170.475;    0.000
404.422; 3110.150;  172.475;    0.000
404.478; 3047.150;  153.475;    0.000
404.534; 3021.150;  159.475;    0.000
404.590; 3073.150;  203.475;    0.000
404.646; 3124.150;  164.475;    0.000
404.701; 3083.150;  141.475;    0.000
404.757; 3186.150;  195.475;    0.000
404.813; 3005.150;  152.475;    0.000
404.869; 3093.150;  174.475;    0.000
404.925; 3050.150;  167.475;    0.000
404.981; 3030.150;  175.475;    0.000
405.037; 3063.150;  170.475;    0.000
405.092; 2947.150;  155.475;    0.000
405.148; 3091.150;  160.475;    0.000
405.204; 3101.150;  158.475;    0.000
405.260; 3053.150;  128.475;    0.000
405.316; 3074.150;  168.475;    0.000
405.371; 2994.150;  162.475;    0.000
405.427; 3122.150;  187.475;    0.000
405.483; 3031.150;  214.475;    0.000
405.539; 3089.150;  163.475;    0.000
405.594; 3089.150;  191.475;    0.000
405.650; 3079.150;  124.475;    0.000
405.706; 3177.150;  188.475;    0.000
405.761; 3246.150;  204.475;    0.000
405.817; 3135.150;  150.475;    0.000
405.873; 3131.150;  152.475;    0.000
405.928; 3114.150;  135.475;    0.000
405.984; 3287.150;  209.475;    0.000
406.040; 3133.150;  165.475;    0.000
406.095; 3066.150;  146.475;    0.000
406.151; 3160.150;  169.475;    0.000
406.207; 3207.150;  174.475;    0.000
406.262; 3254.150;  189.475;    0.000
406.318; 3177.150;  141.475;    0.000
406.374; 3177.150;  178.475;    0.000
406.429; 3210.150;  197.475;    0.000
406.485; 3314.150;  194.475;    0.000
406.540; 3285.150;  149.475;    0.000
406.596; 3199.150;  173.475;    0.000
406.651; 3247.150;  154.475;    0.000
406.707; 3265.150;  183.475;    0.000
406.763; 3327.150;  156.475;    0.000
406.818; 3311.150;  181.475;    0.000
406.874; 3288.150;  135.475;    0.000
406.929; 3388.150;  194.475;    0.000
406.985; 3359.150;  166.475;    0.000
407.040; 3368.150;  207.475;    0.000
407.095; 3438.150;  213.475;    0.000
407.151; 3336.150;  198.475;    0.000
407.206; 3376.150;  186.475;    0.000
407.262; 3410.150;  148.475;    0.000
407.317; 3552.150;  212.475;    0.000
407.373; 3539.150;  209.475;    0.000
407.428; 3566.150;  218.475;    0.000
407.484; 3440.150;  158.475;    0.000
407.539; 3437.150;  165.475;    0.000
407.594; 3474.150;  197.475;    0.000
407.650; 3484.150;  177.475;    0.000
407.705; 3435.150;  154.475;    0.000
407.760; 3500.150;  198.475;    0.000
407.816; 3405.150;  181.475;    0.000
407.871; 3457.150;  185.475;    0.000
407.926; 3576.150;  167.475;    0.000
407.982; 3380.150;  172.475;    0.000
408.037; 3432.150;  202.475;    0.000
408.092; 3429.150;  201.475;    0.000
408.148; 3459.150;  199.475;    0.000
408.203; 3412.150;  174.475;    0.000
408.258; 3380.150;  157.475;    0.000
408.314; 3426.150;  194.475;    0.000
408.369; 3403.150;  189.475;    0.000
408.424; 3452.150;  204.475;    0.000
408.479; 3364.150;  192.475;    0.000
408.534; 3496.150;  215.475;    0.000
408.590; 3387.150;  190.475;    0.000
408.645; 3456.150;  159.475;    0.000
408.700; 3308.150;  191.475;    0.000
408.755; 3406.150;  217.475;    0.000
408.810; 3348.150;  158.475;    0.000
408.866; 3360.150;  166.475;    0.000
408.921; 3486.150;  214.475;    0.000
408.976; 3414.150;  158.475;    0.000
409.031; 3393.150;  185.475;    0.000
409.086; 3382.150;  158.475;    0.000
409.141; 3380.150;  180.475;    0.000
409.196; 3489.150;  188.475;    0.000
409.252; 3257.150;  186.475;    0.000
409.307; 3341.150;  135.475;    0.000
409.362; 3335.150;  162.475;    0.000
409.417; 3388.150;  149.475;    0.000
409.472; 3321.150;  205.475;    0.000
409.527; 3397.150;  184.475;    0.000
409.582; 3383.150;  174.475;    0.000
409.637; 3400.150;  188.475;    0.000
409.692; 3430.150;  211.475;    0.000
409.747; 3315.150;  159.475;    0.000
409.802; 3519.150;  199.475;    0.000
409.857; 3364.150;  118.475;    0.000
409.912; 3384.150;  177.475;    0.000
409.967; 3345.150;  182.475;    0.000
410.022; 3364.150;  188.475;    0.000
410.077; 3416.150;  204.475;    0.000
410.132; 3388.150;  174.475;    0.000
410.187; 3402.150;  169.475;    0.000
410.242; 3365.150;  178.475;    0.000
410.297; 3468.150;  185.475;    0.000
410.351; 3346.150;  203.475;    0.000
410.406; 3384.150;  180.475;    0.000
410.461; 3419.150;  213.475;    0.000
410.516; 3433.150;  198.475;    0.000
410.571; 3422.150;  171.475;    0.000
410.626; 3377.150;  186.475;    0.000
410.681; 3388.150;  187.475;    0.000
410.736; 3442.150;  147.475;    0.000
410.790; 3323.150;  186.475;    0.000
410.845; 3369.150;  152.475;    0.000
410.900; 3431.150;  202.475;    0.000
410.955; 3336.150;  196.475;    0.000
411.010; 3331.150;  150.475;    0.000
411.064; 3374.150;  200.475;    0.000
411.119; 3411.150;  203.475;    0.000
411.174; 3426.150;  176.475;    0.000
411.229; 3316.150;  203.475;    0.000
411.283; 3340.150;  176.475;    0.000
411.338; 3333.150;  153.475;    0.000
411.393; 3338.150;  168.475;    0.000
411.447; 3457.150;  223.475;    0.000
411.502; 3504.150;  238.475;    0.000
411.557; 3420.150;  179.475;    0.000
411.612; 3285.150;  159.475;    0.000
411.666; 3403.150;  189.475;    0.000
411.721; 3479.150;  212.475;    0.000
411.776; 3438.150;  242.475;    0.000
411.830; 3414.150;  194.475;    0.000
411.885; 3417.150;  188.475;    0.000
411.939; 3472.150;  245.475;    0.000
411.994; 3418.150;  177.475;    0.000
412.049; 3417.150;  170.475;    0.000
412.103; 3381.150;  196.475;    0.000
412.158; 3371.150;  215.475;    0.000
412.212; 3458.150;  199.475;    0.000
412.267; 3409.150;  191.475;    0.000
412.322; 3431.150;  238.475;    0.000
412.376; 3469.150;  243.475;    0.000
412.431; 3494.150;  214.475;    0.000
412.485; 3399.150;  210.475;    0.000
412.540; 3415.150;  200.475;    0.000
412.594; 3474.150;  174.475;    0.000
412.649; 3429.150;  246.475;    0.000
412.703; 3409.150;  182.475;    0.000
412.758; 3486.150;  222.475;    0.000
412.812; 3416.150;  201.475;    0.000
412.866; 3451.150;  162.475;    0.000
412.921; 3435.150;  202.475;    0.000
412.975; 3399.150;  212.475;    0.000
413.030; 3377.150;  238.475;    0.000
413.084; 3310.150;  201.475;    0.000
413.139; 3430.150;  210.475;    0.000
413.193; 3280.150;  218.475;    0.000
413.247; 3408.150;  203.475;    0.000
413.302; 3357.150;  176.475;    0.000
413.356; 3425.150;  215.475;    0.000
413.410; 3411.150;  204.475;    0.000
413.465; 3412.150;  186.475;    0.000
413.519; 3440.150;  196.475;    0.000
413.573; 3491.150;  181.475;    0.000
413.628; 3395.150;  200.475;    0.000
413.682; 3360.150;  157.475;    0.000
413.736; 3350.150;  194.475;    0.000
413.791; 3340.150;  193.475;    0.000
413.845; 3494.150;  225.475;    0.000
413.899; 3394.150;  195.475;    0.000
413.953; 3372.150;  173.475;    0.000
414.008; 3313.150;  186.475;    0.000
414.062; 3426.150;  217.475;    0.000
414.116; 3321.150;  169.475;    0.000
414.170; 3467.150;  228.475;    0.000
414.225; 3358.150;  177.475;    0.000
414.279; 3321.150;  210.475;    0.000
414.333; 3433.150;  207.475;    0.000
414.387; 3373.150;  217.475;    0.000
414.441; 3322.150;  187.475;    0.000
414.496; 3387.150;  215.475;    0.000
414.550; 3357.150;  204.475;    0.000
414.604; 3379.150;  206.475;    0.000
414.658; 3365.150;  139.475;    0.000
414.712; 3453.150;  198.475;    0.000
414.766; 3476.150;  208.475;    0.000
414.820; 3347.150;  199.475;    0.000
414.874; 3392.150;  216.475;    0.000
414.928; 3497.150;  186.475;    0.000
414.982; 3383.150;  176.475;    0.000
415.037; 3346.150;  181.475;    0.000
415.091; 3388.150;  208.475;    0.000
415.145; 3448.150;  209.475;    0.000
415.199; 3367.150;  186.475;    0.000
415.253; 3396.150;  203.475;    0.000
415.307; 3441.150;  197.475;    0.000
415.361; 3374.150;  223.475;    0.000
415.415; 3412.150;  213.475;    0.000
415.469; 3340.150;  226.475;    0.000
415.523; 3410.150;  222.475;    0.000
415.577; 3367.150;  205.475;    0.000
415.631; 3455.150;  224.475;    0.000
415.684; 3410.150;  193.475;    0.000
415.738; 3340.150;  224.475;    0.000
415.792; 3357.150;  204.475;    0.000
415.846; 3406.150;  189.475;    0.000
415.900; 3364.150;  223.475;    0.000
415.954; 3335.150;  187.475;    0.000
416.008; 3406.150;  237.475;    0.000
416.062; 3337.150;  195.475;    0.000
416.116; 3453.150;  223.475;    0.000
416.169; 3332.150;  210.475;    0.000
416.223; 3398.150;  232.475;    0.000
416.277; 3413.150;  227.475;    0.000
416.331; 3335.150;  216.475;    0.000
416.385; 3401.150;  186.475;    0.000
416.439; 3484.150;  226.475;    0.000
416.492; 3469.150;  229.475;    0.000
416.546; 3397.150;  216.475;    0.000
416.600; 3384.150;  211.475;    0.000
416.654; 3421.150;  226.475;    0.000
416.707; 3364.150;  248.475;    0.000
416.761; 3347.150;  217.475;    0.000
416.815; 3375.150;  207.475;    0.000
416.869; 3436.150;  226.475;    0.000
416.922; 3327.150;  192.475;    0.000
416.976; 3362.150;  205.475;    0.000
417.030; 3324.150;  233.475;    0.000
417.083; 3352.150;  226.475;    0.000
417.137; 3282.150;  222.475;    0.000
417.191; 3440.150;  217.475;    0.000
417.244; 3377.150;  221.475;    0.000
417.298; 3326.150;  201.475;    0.000
417.352; 3306.150;  170.475;    0.000
417.405; 3519.150;  234.475;    0.000
417.459; 3380.150;  241.475;    0.000
417.512; 3351.150;  247.475;    0.000
417.566; 3419.150;  219.475;    0.000
417.620; 3301.150;  228.475;    0.000
417.673; 3250.150;  192.475;    0.000
417.727; 3392.150;  203.475;    0.000
417.780; 3292.150;  204.475;    0.000
417.834; 3456.150;  234.475;    0.000
417.887; 3461.150;  245.475;    0.000
417.941; 3355.150;  211.475;    0.000
417.994; 3390.150;  244.475;    0.000
418.048; 3408.150;  203.475;    0.000
418.101; 3348.150;  212.475;    0.000
418.155; 3401.150;  251.475;    0.000
418.208; 3444.150;  286.475;    0.000
418.262; 3347.150;  243.475;    0.000
418.315; 3320.150;  214.475;    0.000
418.369; 3400.150;  269.475;    0.000
418.422; 3325.150;  222.475;    0.000
418.476; 3392.150;  226.475;    0.000
418.529; 3346.150;  238.475;    0.000
418.582; 3342.150;  210.475;    0.000
418.636; 3482.150;  221.475;    0.000
418.689; 3365.150;  224.475;    0.000
418.743; 3316.150;  228.475;    0.000
418.796; 3389.150;  192.475;    0.000
418.849; 3377.150;  230.475;    0.000
418.903; 3475.150;  257.475;    0.000
418.956; 3405.150;  241.475;    0.000
419.009; 3490.150;  247.475;    0.000
419.063; 3297.150;  235.475;    0.000
419.116; 3339.150;  218.475;    0.000
419.169; 3446.150;  219.475;    0.000
419.222; 3369.150;  215.475;    0.000
419.276; 3307.150;  202.475;    0.000
419.329; 3259.150;  210.475;    0.000
419.382; 3356.150;  188.475;    0.000
419.435; 3367.150;  222.475;    0.000
419.489; 3413.150;  232.475;    0.000
419.542; 3404.150;  250.475;    0.000
419.595; 3214.150;  240.475;    0.000
419.648; 3376.150;  261.475;    0.000
419.701; 3322.150;  222.475;    0.000
419.755; 3259.150;  233.475;    0.000
419.808; 3334.150;  178.475;    0.000
419.861; 3339.150;  207.475;    0.000
419.914; 3286.150;  223.475;    0.000
419.967; 3415.150;  216.475;    0.000
420.020; 3324.150;  211.475;    0.000
420.073; 3331.150;  200.475;    0.000
420.127; 3352.150;  248.475;    0.000
420.180; 3283.150;  220.475;    0.000
420.233; 3266.150;  215.475;    0.000
420.286; 3366.150;  222.475;    0.000
420.339; 3288.150;  229.475;    0.000
420.392; 3228.150;  245.475;    0.000
420.445; 3224.150;  221.475;    0.000
420.498; 3245.150;  224.475;    0.000
420.551; 3193.150;  170.475;    0.000
420.604; 3216.150;  237.475;    0.000
420.657; 3278.150;  235.475;    0.000
420.710; 3256.150;  223.475;    0.000
420.763; 3381.150;  219.475;    0.000
420.816; 3229.150;  200.475;    0.000
420.869; 3222.150;  197.475;    0.000
420.922; 3253.150;  212.475;    0.000
420.975; 3306.150;  274.475;    0.000
421.028; 3241.150;  228.475;    0.000
421.081; 3293.150;  243.475;    0.000
421.134; 3249.150;  227.475;    0.000
421.187; 3211.150;  245.475;    0.000
421.239; 3205.150;  210.475;    0.000
421.292; 3163.150;  193.475;    0.000
421.345; 3259.150;  226.475;    0.000
421.398; 3181.150;  226.475;    0.000
421.451; 3194.150;  259.475;    0.000
421.504; 3219.150;  204.475;    0.000
421.557; 3226.150;  215.475;    0.000
421.609; 3118.150;  194.475;    0.000
421.662; 3209.150;  216.475;    0.000
421.715; 3157.150;  226.475;    0.000
421.768; 3316.150;  177.475;    0.000
421.821; 3235.150;  210.475;    0.000
421.873; 3133.150;  208.475;    0.000
421.926; 3217.150;  223.475;    0.000
421.979; 3247.150;  230.475;    0.000
422.032; 3130.150;  227.475;    0.000
422.084; 3184.150;  234.475;    0.000
422.137; 3143.150;  207.475;    0.000
422.190; 3191.150;  228.475;    0.000
422.243; 3140.150;  206.475;    0.000
422.295; 3087.150;  236.475;    0.000
422.348; 3226.150;  232.475;    0.000
422.401; 3180.150;  228.475;    0.000
422.453; 3242.150;  239.475;    0.000
422.506; 3096.150;  226.475;    0.000
422.559; 3156.150;  205.475;    0.000
422.611; 3181.150;  235.475;    0.000
422.664; 3248.150;  231.475;    0.000
422.716; 3191.150;  228.475;    0.000
422.769; 3276.150;  204.475;    0.000
422.822; 3210.150;  205.475;    0.000
422.874; 3135.150;  228.475;    0.000
422.927; 3150.150;  266.475;    0.000
422.979; 3162.150;  223.475;    0.000
423.032; 3136.150;  207.475;    0.000
423.084; 3193.150;  211.475;    0.000
423.137; 3124.150;  205.475;    0.000
423.189; 3107.150;  254.475;    0.000
423.242; 3137.150;  208.475;    0.000
423.294; 3204.150;  240.475;    0.000
423.347; 3061.150;  218.475;    0.000
423.399; 3116.150;  237.475;    0.000
423.452; 3180.150;  242.475;    0.000
423.504; 3133.150;  225.475;    0.000
423.557; 3072.150;  195.475;    0.000
423.609; 3081.150;  206.475;    0.000
423.662; 3170.150;  211.475;    0.000
423.714; 3020.150;  252.475;    0.000
423.766; 3099.150;  181.475;    0.000
423.819; 3020.150;  216.475;    0.000
423.871; 3015.150;  216.475;    0.000
423.923; 2989.150;  222.475;    0.000
423.976; 3022.150;  223.475;    0.000
424.028; 3096.150;  229.475;    0.000
424.081; 3146.150;  267.475;    0.000
424.133; 3052.150;  251.475;    0.000
424.185; 3071.150;  238.475;    0.000
424.238; 3079.150;  220.475;    0.000
424.290; 3022.150;  259.475;    0.000
424.342; 3035.150;  248.475;    0.000
424.394; 3052.150;  234.475;    0.000
424.447; 3068.150;  248.475;    0.000
424.499; 3006.150;  233.475;    0.000
424.551; 3033.150;  236.475;    0.000
424.603; 3116.150;  207.475;    0.000
424.656; 3036.150;  210.475;    0.000
424.708; 3100.150;  251.475;    0.000
424.760; 3025.150;  221.475;    0.000
424.812; 3095.150;  275.475;    0.000
424.864; 3120.150;  206.475;    0.000
424.917; 3086.150;  198.475;    0.000
424.969; 3058.150;  246.475;    0.000
425.021; 3083.150;  209.475;    0.000
425.073; 3038.150;  242.475;    0.000
425.125; 3066.150;  254.475;    0.000
425.177; 3031.150;  224.475;    0.000
425.229; 3051.150;  256.475;    0.000
425.282; 3074.150;  265.475;    0.000
425.334; 3091.150;  266.475;    0.000
425.386; 3109.150;  242.475;    0.000
425.438; 2958.150;  205.475;    0.000
425.490; 2988.150;  227.475;    0.000
425.542; 3047.150;  235.475;    0.000
425.594; 2870.150;  210.475;    0.000
425.646; 3013.150;  232.475;    0.000
425.698; 2901.150;  243.475;    0.000
425.750; 2992.150;  230.475;    0.000
425.802; 3038.150;  218.475;    0.000
425.854; 2937.150;  222.475;    0.000
425.906; 3001.150;  235.475;    0.000
425.958; 2963.150;  220.475;    0.000
426.010; 2976.150;  236.475;    0.000
426.062; 3027.150;  230.475;    0.000
426.114; 2945.150;  216.475;    0.000
426.166; 2915.150;  230.475;    0.000
426.218; 2972.150;  237.475;    0.000
426.270; 2988.150;  217.475;    0.000
426.321; 2872.150;  224.475;    0.000
426.373; 2901.150;  207.475;    0.000
426.425; 3012.150;  278.475;    0.000
426.477; 2944.150;  243.475;    0.000
426.529; 2930.150;  247.475;    0.000
426.581; 2960.150;  229.475;    0.000
426.633; 2939.150;  212.475;    0.000
426.684; 2902.150;  244.475;    0.000
426.736; 2900.150;  250.475;    0.000
426.788; 2921.150;  210.475;    0.000
426.840; 2970.150;  201.475;    0.000
426.892; 2938.150;  225.475;    0.000
426.943; 2891.150;  215.475;    0.000
426.995; 2888.150;  216.475;    0.000
427.047; 2845.150;  216.475;    0.000
427.099; 2913.150;  203.475;    0.000
427.150; 2941.150;  195.475;    0.000
427.202; 2930.150;  212.475;    0.000
427.254; 2958.150;  233.475;    0.000
427.306; 2967.150;  211.475;    0.000
427.357; 2995.150;  210.475;    0.000
427.409; 2893.150;  244.475;    0.000
427.461; 2851.150;  187.475;    0.000
427.512; 2913.150;  227.475;    0.000
427.564; 2832.150;  210.475;    0.000
427.616; 2956.150;  202.475;    0.000
427.667; 2895.150;  185.475;    0.000
427.719; 2784.150;  222.475;    0.000
427.770; 2859.150;  230.475;    0.000
427.822; 2960.150;  254.475;    0.000
427.874; 2856.150;  222.475;    0.000
427.925; 2922.150;  199.475;    0.000
427.977; 2820.150;  228.475;    0.000
428.028; 2854.150;  226.475;    0.000
428.080; 2886.150;  236.475;    0.000
428.131; 2926.150;  220.475;    0.000
428.183; 2947.150;  256.475;    0.000
428.234; 2842.150;  217.475;    0.000
428.286; 2809.150;  234.475;    0.000
428.337; 2807.150;  209.475;    0.000
428.389; 2827.150;  219.475;    0.000
428.440; 2826.150;  249.475;    0.000
428.492; 2837.150;  255.475;    0.000
428.543; 2827.150;  224.475;    0.000
428.595; 2728.150;  225.475;    0.000
428.646; 2754.150;  240.475;    0.000
428.697; 2909.150;  211.475;    0.000
428.749; 2855.150;  200.475;    0.000
428.800; 2954.150;  235.475;    0.000
428.852; 2684.150;  265.475;    0.000
428.903; 2819.150;  201.475;    0.000
428.954; 2815.150;  242.475;    0.000
429.006; 2852.150;  245.475;    0.000
429.057; 2761.150;  252.475;    0.000
429.108; 2792.150;  211.475;    0.000
429.160; 2830.150;  217.475;    0.000
429.211; 2824.150;  234.475;    0.000
429.262; 2746.150;  205.475;    0.000
429.314; 2797.150;  211.475;    0.000
429.365; 2764.150;  240.475;    0.000
429.416; 2779.150;  263.475;    0.000
429.467; 2724.150;  244.475;    0.000
429.519; 2789.150;  223.475;    0.000
429.570; 2751.150;  214.475;    0.000
429.621; 2894.150;  235.475;    0.000
429.672; 2804.150;  202.475;    0.000
429.724; 2790.150;  189.475;    0.000
429.775; 2755.150;  214.475;    0.000
429.826; 2762.150;  178.475;    0.000
429.877; 2707.150;  224.475;    0.000
429.928; 2780.150;  230.475;    0.000
429.980; 2697.150;  199.475;    0.000
430.031; 2756.150;  208.475;    0.000
430.082; 2833.150;  224.475;    0.000
430.133; 2716.150;  193.475;    0.000
430.184; 2782.150;  220.475;    0.000
430.235; 2651.150;  184.475;    0.000
430.286; 2810.150;  197.475;    0.000
430.337; 2781.150;  199.475;    0.000
430.388; 2770.150;  207.475;    0.000
430.439; 2831.150;  227.475;    0.000
430.490; 2724.150;  215.475;    0.000
430.542; 2757.150;  211.475;    0.000
430.593; 2737.150;  230.475;    0.000
430.644; 2745.150;  186.475;    0.000
430.695; 2724.150;  232.475;    0.000
430.746; 2790.150;  214.475;    0.000
430.797; 2777.150;  260.475;    0.000
430.848; 2717.150;  214.475;    0.000
430.898; 2825.150;  204.475;    0.000
430.949; 2770.150;  189.475;    0.000
431.000; 2685.150;  240.475;    0.000
431.051; 2735.150;  201.475;    0.000
431.102; 2723.150;  188.475;    0.000
431.153; 2739.150;  209.475;    0.000
431.204; 2673.150;  187.475;    0.000
431.255; 2721.150;  171.475;    0.000
431.306; 2722.150;  181.475;    0.000
431.357; 2790.150;  221.475;    0.000
431.408; 2726.150;  217.475;    0.000
431.458; 2755.150;  206.475;    0.000
431.509; 2629.150;  194.475;    0.000
431.560; 2753.150;  235.475;    0.000
431.611; 2677.150;  213.475;    0.000
431.662; 2851.150;  237.475;    0.000
431.713; 2750.150;  220.475;    0.000
431.763; 2693.150;  212.475;    0.000
431.814; 2825.150;  238.475;    0.000
431.865; 2747.150;  213.475;    0.000
431.916; 2716.150;  191.475;    0.000
431.966; 2705.150;  171.475;    0.000
432.017; 2759.150;  263.475;    0.000
432.068; 2739.150;  240.475;    0.000
432.118; 2732.150;  235.475;    0.000
432.169; 2674.150;  212.475;    0.000
432.220; 2721.150;  188.475;    0.000
432.271; 2710.150;  216.475;    0.000
432.321; 2814.150;  223.475;    0.000
432.372; 2778.150;  254.475;    0.000
432.423; 2717.150;  193.475;    0.000
432.473; 2723.150;  219.475;    0.000
432.524; 2751.150;  215.475;    0.000
432.574; 2717.150;  234.475;    0.000
432.625; 2619.150;  226.475;    0.000
432.676; 2711.150;  219.475;    0.000
432.726; 2730.150;  254.475;    0.000
432.777; 2706.150;  210.475;    0.000
432.827; 2607.150;  234.475;    0.000
432.878; 2684.150;  212.475;    0.000
432.928; 2710.150;  238.475;    0.000
432.979; 2673.150;  252.475;    0.000
433.029; 2717.150;  222.475;    0.000
433.080; 2672.150;  188.475;    0.000
433.130; 2748.150;  223.475;    0.000
433.181; 2707.150;  254.475;    0.000
433.231; 2669.150;  237.475;    0.000
433.282; 2713.150;  242.475;    0.000
433.332; 2778.150;  261.475;    0.000
433.383; 2682.150;  266.475;    0.000
433.433; 2696.150;  286.475;    0.000
433.484; 2711.150;  231.475;    0.000
433.534; 2723.150;  256.475;    0.000
433.585; 2733.150;  253.475;    0.000
433.635; 2585.150;  228.475;    0.000
433.685; 2660.150;  226.475;    0.000
433.736; 2772.150;  276.475;    0.000
433.786; 2712.150;  253.475;    0.000
433.836; 2715.150;  289.475;    0.000
433.887; 2717.150;  241.475;    0.000
433.937; 2756.150;  252.475;    0.000
433.987; 2822.150;  223.475;    0.000
434.038; 2684.150;  241.475;    0.000
434.088; 2730.150;  231.475;    0.000
434.138; 2761.150;  259.475;    0.000
434.189; 2710.150;  263.475;    0.000
434.239; 2697.150;  194.475;    0.000
434.289; 2814.150;  273.475;    0.000
434.339; 2721.150;  212.475;    0.000
434.389; 2745.150;  248.475;    0.000
434.440; 2733.150;  250.475;    0.000
434.490; 2755.150;  278.475;    0.000
434.540; 2749.150;  241.475;    0.000
434.590; 2797.150;  251.475;    0.000
434.640; 2729.150;  207.475;    0.000
434.691; 2645.150;  242.475;    0.000
434.741; 2746.150;  218.475;    0.000
434.791; 2811.150;  267.475;    0.000
434.841; 2781.150;  272.475;    0.000
434.891; 2741.150;  260.475;    0.000
434.941; 2823.150;  258.475;    0.000
434.991; 2745.150;  264.475;    0.000
435.042; 2796.150;  264.475;    0.000
435.092; 2717.150;  271.475;    0.000
435.142; 2709.150;  229.475;    0.000
435.192; 2718.150;  226.475;    0.000
435.242; 2755.150;  253.475;    0.000
435.292; 2762.150;  215.475;    0.000
435.342; 2631.150;  240.475;    0.000
435.392; 2683.150;  235.475;    0.000
435.442; 2703.150;  230.475;    0.000
435.492; 2652.150;  235.475;    0.000
435.542; 2731.150;  230.475;    0.000
435.592; 2758.150;  239.475;    0.000
435.642; 2712.150;  244.475;    0.000
435.692; 2652.150;  236.475;    0.000
435.742; 2670.150;  236.475;    0.000
435.792; 2680.150;  230.475;    0.000
435.842; 2627.150;  248.475;    0.000
435.891; 2718.150;  233.475;    0.000
435.941; 2616.150;  243.475;    0.000
435.991; 2731.150;  279.475;    0.000
436.041; 2600.150;  204.475;    0.000
436.091; 2608.150;  217.475;    0.000
436.141; 2565.150;  205.475;    0.000
436.191; 2626.150;  220.475;    0.000
436.241; 2592.150;  248.475;    0.000
436.290; 2618.150;  255.475;    0.000
436.340; 2646.150;  235.475;    0.000
436.390; 2539.150;  207.475;    0.000
436.440; 2593.150;  207.475;    0.000
436.490; 2584.150;  251.475;    0.000
436.539; 2549.150;  240.475;    0.000
436.589; 2563.150;  198.475;    0.000
436.639; 2636.150;  240.475;    0.000
436.689; 2577.150;  216.475;    0.000
436.738; 2656.150;  246.475;    0.000
436.788; 2519.150;  203.475;    0.000
436.838; 2620.150;  230.475;    0.000
436.887; 2496.150;  235.475;    0.000
436.937; 2563.150;  249.475;    0.000
436.987; 2576.150;  208.475;    0.000
437.036; 2564.150;  232.475;    0.000
437.086; 2564.150;  238.475;    0.000
437.136; 2570.150;  228.475;    0.000
437.185; 2500.150;  219.475;    0.000
437.235; 2614.150;  227.475;    0.000
437.285; 2610.150;  241.475;    0.000
437.334; 2580.150;  216.475;    0.000
437.384; 2511.150;  243.475;    0.000
437.433; 2592.150;  214.475;    0.000
437.483; 2531.150;  246.475;    0.000
437.532; 2547.150;  261.475;    0.000
437.582; 2538.150;  205.475;    0.000
437.631; 2518.150;  218.475;    0.000
437.681; 2530.150;  240.475;    0.000
437.730; 2492.150;  258.475;    0.000
437.780; 2484.150;  237.475;    0.000
437.829; 2555.150;  209.475;    0.000
437.879; 2571.150;  214.475;    0.000
437.928; 2493.150;  223.475;    0.000
437.978; 2572.150;  220.475;    0.000
438.027; 2572.150;  239.475;    0.000
438.077; 2536.150;  231.475;    0.000
438.126; 2444.150;  266.475;    0.000
438.176; 2471.150;  234.475;    0.000
438.225; 2478.150;  237.475;    0.000
438.274; 2508.150;  234.475;    0.000
438.324; 2546.150;  244.475;    0.000
438.373; 2492.150;  232.475;    0.000
438.422; 2532.150;  218.475;    0.000
438.472; 2525.150;  221.475;    0.000
438.521; 2518.150;  190.475;    0.000
438.570; 2499.150;  243.475;    0.000
438.620; 2524.150;  255.475;    0.000
438.669; 2518.150;  210.475;    0.000
438.718; 2537.150;  237.475;    0.000
438.768; 2473.150;  220.475;    0.000
438.817; 2574.150;  218.475;    0.000
438.866; 2474.150;  198.475;    0.000
438.915; 2573.150;  256.475;    0.000
438.965; 2487.150;  221.475;    0.000
439.014; 2553.150;  255.475;    0.000
439.063; 2539.150;  276.475;    0.000
439.112; 2431.150;  220.475;    0.000
439.162; 2553.150;  253.475;    0.000
439.211; 2552.150;  247.475;    0.000
439.260; 2535.150;  220.475;    0.000
439.309; 2598.150;  235.475;    0.000
439.358; 2568.150;  205.475;    0.000
439.407; 2565.150;  207.475;    0.000
439.456; 2558.150;  216.475;    0.000
439.506; 2496.150;  245.475;    0.000
439.555; 2531.150;  264.475;    0.000
439.604; 2550.150;  227.475;    0.000
439.653; 2511.150;  220.475;    0.000
439.702; 2549.150;  223.475;    0.000
439.751; 2504.150;  197.475;    0.000
439.800; 2506.150;  207.475;    0.000
439.849; 2493.150;  238.475;    0.000
439.898; 2448.150;  209.475;    0.000
439.947; 2503.150;  170.475;    0.000
439.996; 2604.150;  233.475;    0.000
440.045; 2545.150;  222.475;    0.000
440.094; 2591.150;  240.475;    0.000
440.143; 2542.150;  249.475;    0.000
440.192; 2540.150;  252.475;    0.000
440.241; 2436.150;  239.475;    0.000
440.290; 2583.150;  234.475;    0.000
440.339; 2492.150;  241.475;    0.000
440.388; 2555.150;  239.475;    0.000
440.437; 2544.150;  231.475;    0.000
440.486; 2530.150;  254.475;    0.000
440.535; 2536.150;  266.475;    0.000
440.583; 2556.150;  205.475;    0.000
440.632; 2582.150;  234.475;    0.000
440.681; 2600.150;  218.475;    0.000
440.730; 2583.150;  248.475;    0.000
440.779; 2594.150;  246.475;    0.000
440.828; 2526.150;  235.475;    0.000
440.876; 2597.150;  218.475;    0.000
440.925; 2596.150;  228.475;    0.000
440.974; 2580.150;  249.475;    0.000
441.023; 2561.150;  192.475;    0.000
441.072; 2501.150;  226.475;    0.000
441.120; 2629.150;  238.475;    0.000
441.169; 2628.150;  255.475;    0.000
441.218; 2574.150;  233.475;    0.000
441.267; 2593.150;  231.475;    0.000
441.315; 2619.150;  214.475;    0.000
441.364; 2649.150;  250.475;    0.000
441.413; 2596.150;  228.475;    0.000
441.461; 2671.150;  209.475;    0.000
441.510; 2699.150;  260.475;    0.000
441.559; 2602.150;  230.475;    0.000
441.607; 2559.150;  220.475;    0.000
441.656; 2588.150;  251.475;    0.000
441.705; 2748.150;  237.475;    0.000
441.753; 2640.150;  257.475;    0.000
441.802; 2695.150;  256.475;    0.000
441.850; 2688.150;  253.475;    0.000
441.899; 2630.150;  212.475;    0.000
441.948; 2702.150;  251.475;    0.000
441.996; 2706.150;  239.475;    0.000
442.045; 2662.150;  223.475;    0.000
442.093; 2700.150;  211.475;    0.000
442.142; 2633.150;  235.475;    0.000
442.190; 2665.150;  254.475;    0.000
442.239; 2653.150;  226.475;    0.000
442.287; 2727.150;  242.475;    0.000
442.336; 2584.150;  256.475;    0.000
442.384; 2699.150;  252.475;    0.000
442.433; 2763.150;  262.475;    0.000
442.481; 2633.150;  246.475;    0.000
442.529; 2664.150;  290.475;    0.000
442.578; 2694.150;  247.475;    0.000
442.626; 2670.150;  247.475;    0.000
442.675; 2700.150;  272.475;    0.000
442.723; 2663.150;  230.475;    0.000
442.771; 2642.150;  234.475;    0.000
442.820; 2723.150;  224.475;    0.000
442.868; 2707.150;  246.475;    0.000
442.917; 2724.150;  249.475;    0.000
442.965; 2630.150;  260.475;    0.000
443.013; 2761.150;  258.475;    0.000
443.062; 2726.150;  259.475;    0.000
443.110; 2696.150;  226.475;    0.000
443.158; 2658.150;  213.475;    0.000
443.206; 2655.150;  201.475;    0.000
443.255; 2699.150;  280.475;    0.000
443.303; 2777.150;  292.475;    0.000
443.351; 2678.150;  256.475;    0.000
443.399; 2709.150;  215.475;    0.000
443.448; 2746.150;  243.475;    0.000
443.496; 2796.150;  249.475;    0.000
443.544; 2773.150;  231.475;    0.000
443.592; 2739.150;  243.475;    0.000
443.640; 2697.150;  252.475;    0.000
443.689; 2727.150;  220.475;    0.000
443.737; 2708.150;  231.475;    0.000
443.785; 2761.150;  256.475;    0.000
443.833; 2704.150;  268.475;    0.000
443.881; 2679.150;  181.475;    0.000
443.929; 2720.150;  245.475;    0.000
443.977; 2818.150;  278.475;    0.000
444.025; 2805.150;  245.475;    0.000
444.074; 2754.150;  233.475;    0.000
444.122; 2770.150;  267.475;    0.000
444.170; 2774.150;  247.475;    0.000
444.218; 2795.150;  246.475;    0.000
444.266; 2725.150;  275.475;    0.000
444.314; 2859.150;  263.475;    0.000
444.362; 2863.150;  240.475;    0.000
444.410; 2801.150;  220.475;    0.000
444.458; 2914.150;  258.475;    0.000
444.506; 2843.150;  258.475;    0.000
444.554; 2846.150;  224.475;    0.000
444.602; 2900.150;  245.475;    0.000
444.650; 2873.150;  261.475;    0.000
444.698; 2813.150;  232.475;    0.000
444.746; 2874.150;  206.475;    0.000
444.793; 2843.150;  249.475;    0.000
444.841; 2876.150;  261.475;    0.000
444.889; 2963.150;  221.475;    0.000
444.937; 2863.150;  215.475;    0.000
444.985; 2937.150;  244.475;    0.000
445.033; 2998.150;  211.475;    0.000
445.081; 2942.150;  225.475;    0.000
445.129; 2850.150;  217.475;    0.000
445.176; 2836.150;  196.475;    0.000
445.224; 2903.150;  211.475;    0.000
445.272; 2981.150;  242.475;    0.000
445.320; 3027.150;  225.475;    0.000
445.368; 2885.150;  249.475;    0.000
445.415; 2924.150;  243.475;    0.000
445.463; 2832.150;  242.475;    0.000
445.511; 2833.150;  248.475;    0.000
445.559; 3000.150;  219.475;    0.000
445.606; 2987.150;  221.475;    0.000
445.654; 2866.150;  202.475;    0.000
445.702; 2958.150;  210.475;    0.000
445.749; 2999.150;  249.475;    0.000
445.797; 2846.150;  206.475;    0.000
445.845; 2954.150;  213.475;    0.000
445.892; 2989.150;  224.475;    0.000
445.940; 2953.150;  214.475;    0.000
445.988; 2976.150;  247.475;    0.000
446.035; 2929.150;  204.475;    0.000
446.083; 2965.150;  235.475;    0.000
446.130; 2949.150;  195.475;    0.000
446.178; 2923.150;  236.475;    0.000
446.226; 3014.150;  218.475;    0.000
446.273; 2921.150;  215.475;    0.000
446.321; 2971.150;  222.475;    0.000
446.368; 3023.150;  228.475;    0.000
446.416; 2938.150;  223.475;    0.000
446.463; 3037.150;  220.475;    0.000
446.511; 3131.150;  198.475;    0.000
446.558; 2984.150;  208.475;    0.000
446.606; 3088.150;  253.475;    0.000
446.653; 3023.150;  198.475;    0.000
446.701; 3071.150;  231.475;    0.000
446.748; 3198.150;  224.475;    0.000
446.796; 3100.150;  201.475;    0.000
446.843; 3132.150;  257.475;    0.000
446.891; 3196.150;  218.475;    0.000
446.938; 3242.150;  232.475;    0.000
446.985; 3219.150;  229.475;    0.000
447.033; 3282.150;  251.475;    0.000
447.080; 3272.150;  257.475;    0.000
447.128; 3364.150;  232.475;    0.000
447.175; 3337.150;  269.475;    0.000
447.222; 3322.150;  185.475;    0.000
447.270; 3363.150;  264.475;    0.000
447.317; 3316.150;  225.475;    0.000
447.364; 3360.150;  243.475;    0.000
447.411; 3545.150;  263.475;    0.000
447.459; 3431.150;  257.475;    0.000
447.506; 3570.150;  175.475;    0.000
447.553; 3500.150;  203.475;    0.000
447.601; 3566.150;  238.475;    0.000
447.648; 3617.150;  244.475;    0.000
447.695; 3736.150;  249.475;    0.000
447.742; 3655.150;  234.475;    0.000
447.789; 3774.150;  228.475;    0.000
447.837; 3839.150;  258.475;    0.000
447.884; 3927.150;  243.475;    0.000
447.931; 3974.150;  235.475;    0.000
447.978; 4050.150;  224.475;    0.000
448.025; 3975.150;  245.475;    0.000
448.072; 4050.150;  212.475;    0.000
448.120; 4098.150;  256.475;    0.000
448.167; 4095.150;  240.475;    0.000
448.214; 4011.150;  247.475;    0.000
448.261; 3938.150;  245.475;    0.000
448.308; 3743.150;  273.475;    0.000
448.355; 3897.150;  257.475;    0.000
448.402; 3798.150;  259.475;    0.000
448.449; 3698.150;  238.475;    0.000
448.496; 3699.150;  245.475;    0.000
448.543; 3582.150;  217.475;    0.000
448.590; 3653.150;  269.475;    0.000
448.637; 3497.150;  250.475;    0.000
448.684; 3483.150;  250.475;    0.000
448.731; 3476.150;  235.475;    0.000
448.778; 3429.150;  265.475;    0.000
448.825; 3351.150;  257.475;    0.000
448.872; 3319.150;  234.475;    0.000
448.919; 3376.150;  216.475;    0.000
448.966; 3292.150;  274.475;    0.000
449.013; 3293.150;  263.475;    0.000
449.060; 3176.150;  247.475;    0.000
449.107; 3152.150;  218.475;    0.000
449.154; 3100.150;  225.475;    0.000
449.200; 2980.150;  212.475;    0.000
449.247; 3149.150;  242.475;    0.000
449.294; 3028.150;  228.475;    0.000
449.341; 3068.150;  232.475;    0.000
449.388; 3018.150;  247.475;    0.000
449.435; 3004.150;  227.475;    0.000
449.481; 3089.150;  270.475;    0.000
449.528; 3110.150;  265.475;    0.000
449.575; 2972.150;  255.475;    0.000
449.622; 2959.150;  210.475;    0.000
449.668; 2986.150;  234.475;    0.000
449.715; 3021.150;  262.475;    0.000
449.762; 2905.150;  247.475;    0.000
449.809; 3008.150;  286.475;    0.000
449.855; 2960.150;  246.475;    0.000
449.902; 2835.150;  224.475;    0.000
449.949; 2977.150;  244.475;    0.000
449.995; 2923.150;  274.475;    0.000
450.042; 2866.150;  272.475;    0.000
450.089; 2876.150;  274.475;    0.000
450.135; 2932.150;  285.475;    0.000
450.182; 2821.150;  251.475;    0.000
450.229; 2780.150;  242.475;    0.000
450.275; 2801.150;  277.475;    0.000
450.322; 2828.150;  260.475;    0.000
450.368; 2800.150;  257.475;    0.000
450.415; 2827.150;  276.475;    0.000
450.462; 2780.150;  298.475;    0.000
450.508; 2865.150;  255.475;    0.000
450.555; 2792.150;  271.475;    0.000
450.601; 2716.150;  281.475;    0.000
450.648; 2754.150;  249.475;    0.000
450.694; 2744.150;  270.475;    0.000
450.741; 2745.150;  256.475;    0.000
450.787; 2782.150;  292.475;    0.000
450.834; 2718.150;  221.475;    0.000
450.880; 2693.150;  265.475;    0.000
450.927; 2686.150;  242.475;    0.000
450.973; 2745.150;  259.475;    0.000
451.019; 2607.150;  221.475;    0.000
451.066; 2617.150;  257.475;    0.000
451.112; 2617.150;  251.475;    0.000
451.159; 2779.150;  278.475;    0.000
451.205; 2703.150;  274.475;    0.000
451.251; 2648.150;  281.475;    0.000
451.298; 2653.150;  273.475;    0.000
451.344; 2681.150;  246.475;    0.000
451.390; 2620.150;  286.475;    0.000
451.437; 2610.150;  268.475;    0.000
451.483; 2620.150;  315.475;    0.000
451.529; 2573.150;  251.475;    0.000
451.576; 2615.150;  306.475;    0.000
451.622; 2608.150;  234.475;    0.000
451.668; 2603.150;  243.475;    0.000
451.714; 2560.150;  256.475;    0.000
451.761; 2653.150;  264.475;    0.000
451.807; 2608.150;  284.475;    0.000
451.853; 2634.150;  282.475;    0.000
451.899; 2552.150;  240.475;    0.000
451.945; 2556.150;  263.475;    0.000
451.992; 2627.150;  255.475;    0.000
452.038; 2482.150;  273.475;    0.000
452.084; 2531.150;  274.475;    0.000
452.130; 2568.150;  261.475;    0.000
452.176; 2536.150;  246.475;    0.000
452.222; 2498.150;  238.475;    0.000
452.268; 2533.150;  267.475;    0.000
452.315; 2478.150;  274.475;    0.000
452.361; 2522.150;  241.475;    0.000
452.407; 2472.150;  274.475;    0.000
452.453; 2551.150;  260.475;    0.000
452.499; 2621.150;  232.475;    0.000
452.545; 2613.150;  252.475;    0.000
452.591; 2541.150;  263.475;    0.000
452.637; 2436.150;  208.475;    0.000
452.683; 2466.150;  237.475;    0.000
452.729; 2455.150;  263.475;    0.000
452.775; 2461.150;  291.475;    0.000
452.821; 2515.150;  238.475;    0.000
452.867; 2526.150;  223.475;    0.000
452.913; 2497.150;  257.475;    0.000
452.959; 2484.150;  238.475;    0.000
453.005; 2425.150;  252.475;    0.000
453.051; 2498.150;  260.475;    0.000
453.097; 2475.150;  268.475;    0.000
453.142; 2471.150;  231.475;    0.000
453.188; 2510.150;  266.475;    0.000
453.234; 2409.150;  233.475;    0.000
453.280; 2413.150;  219.475;    0.000
453.326; 2394.150;  265.475;    0.000
453.372; 2392.150;  238.475;    0.000
453.418; 2417.150;  240.475;    0.000
453.463; 2369.150;  219.475;    0.000
453.509; 2479.150;  264.475;    0.000
453.555; 2361.150;  247.475;    0.000
453.601; 2438.150;  230.475;    0.000
453.647; 2437.150;  285.475;    0.000
453.692; 2443.150;  240.475;    0.000
453.738; 2438.150;  233.475;    0.000
453.784; 2409.150;  230.475;    0.000
453.829; 2397.150;  246.475;    0.000
453.875; 2437.150;  261.475;    0.000
453.921; 2460.150;  203.475;    0.000
453.967; 2451.150;  241.475;    0.000
454.012; 2479.150;  250.475;    0.000
454.058; 2479.150;  252.475;    0.000
454.104; 2479.150;  239.475;    0.000
454.149; 2390.150;  250.475;    0.000
454.195; 2464.150;  243.475;    0.000
454.240; 2458.150;  252.475;    0.000
454.286; 2382.150;  245.475;    0.000
454.332; 2392.150;  286.475;    0.000
454.377; 2429.150;  254.475;    0.000
454.423; 2472.150;  246.475;    0.000
454.468; 2443.150;  235.475;    0.000
454.514; 2499.150;  231.475;    0.000
454.559; 2436.150;  246.475;    0.000
454.605; 2403.150;  204.475;    0.000
454.650; 2366.150;  272.475;    0.000
454.696; 2418.150;  222.475;    0.000
454.741; 2380.150;  290.475;    0.000
454.787; 2436.150;  262.475;    0.000
454.832; 2374.150;  227.475;    0.000
454.878; 2367.150;  241.475;    0.000
454.923; 2429.150;  272.475;    0.000
454.969; 2386.150;  290.475;    0.000
455.014; 2434.150;  278.475;    0.000
455.060; 2343.150;  246.475;    0.000
455.105; 2356.150;  231.475;    0.000
455.150; 2453.150;  265.475;    0.000
455.196; 2391.150;  266.475;    0.000
455.241; 2401.150;  258.475;    0.000
455.286; 2480.150;  266.475;    0.000
455.332; 2412.150;  252.475;    0.000
455.377; 2419.150;  219.475;    0.000
455.422; 2406.150;  262.475;    0.000
455.468; 2415.150;  260.475;    0.000
455.513; 2318.150;  212.475;    0.000
455.558; 2264.150;  197.475;    0.000
455.604; 2416.150;  262.475;    0.000
455.649; 2417.150;  238.475;    0.000
455.694; 2386.150;  221.475;    0.000
455.739; 2359.150;  251.475;    0.000
455.785; 2430.150;  287.475;    0.000
455.830; 2364.150;  284.475;    0.000
455.875; 2347.150;  234.475;    0.000
455.920; 2433.150;  215.475;    0.000
455.965; 2360.150;  256.475;    0.000
456.010; 2369.150;  266.475;    0.000
456.056; 2310.150;  263.475;    0.000
456.101; 2378.150;  240.475;    0.000
456.146; 2407.150;  258.475;    0.000
456.191; 2336.150;  241.475;    0.000
456.236; 2353.150;  252.475;    0.000
456.281; 2401.150;  218.475;    0.000
456.326; 2323.150;  251.475;    0.000
456.371; 2398.150;  256.475;    0.000
456.416; 2362.150;  301.475;    0.000
456.461; 2331.150;  233.475;    0.000
456.507; 2373.150;  218.475;    0.000
456.552; 2298.150;  278.475;    0.000
456.597; 2363.150;  223.475;    0.000
456.642; 2371.150;  203.475;    0.000
456.687; 2430.150;  245.475;    0.000
456.732; 2343.150;  256.475;    0.000
456.776; 2383.150;  244.475;    0.000
456.821; 2430.150;  276.475;    0.000
456.866; 2364.150;  232.475;    0.000
456.911; 2339.150;  225.475;    0.000
456.956; 2372.150;  237.475;    0.000
457.001; 2398.150;  261.475;    0.000
457.046; 2363.150;  205.475;    0.000
457.091; 2350.150;  241.475;    0.000
457.136; 2374.150;  217.475;    0.000
457.181; 2378.150;  251.475;    0.000
457.225; 2451.150;  241.475;    0.000
457.270; 2414.150;  237.475;    0.000
457.315; 2423.150;  279.475;    0.000
457.360; 2407.150;  245.475;    0.000
457.405; 2311.150;  202.475;    0.000
457.450; 2424.150;  247.475;    0.000
457.494; 2395.150;  243.475;    0.000
457.539; 2324.150;  222.475;    0.000
457.584; 2352.150;  239.475;    0.000
457.629; 2418.150;  236.475;    0.000
457.673; 2384.150;  234.475;    0.000
457.718; 2368.150;  202.475;    0.000
457.763; 2384.150;  274.475;    0.000
457.807; 2376.150;  236.475;    0.000
457.852; 2331.150;  265.475;    0.000
457.897; 2376.150;  252.475;    0.000
457.941; 2330.150;  264.475;    0.000
457.986; 2338.150;  280.475;    0.000
458.031; 2388.150;  217.475;    0.000
458.075; 2438.150;  249.475;    0.000
458.120; 2436.150;  257.475;    0.000
458.165; 2413.150;  183.475;    0.000
458.209; 2317.150;  245.475;    0.000
458.254; 2380.150;  245.475;    0.000
458.298; 2441.150;  265.475;    0.000
458.343; 2396.150;  241.475;    0.000
458.387; 2489.150;  262.475;    0.000
458.432; 2519.150;  245.475;    0.000
458.476; 2380.150;  255.475;    0.000
458.521; 2367.150;  269.475;    0.000
458.565; 2516.150;  265.475;    0.000
458.610; 2449.150;  222.475;    0.000
458.654; 2504.150;  257.475;    0.000
458.699; 2416.150;  296.475;    0.000
458.743; 2438.150;  203.475;    0.000
458.788; 2600.150;  267.475;    0.000
458.832; 2455.150;  274.475;    0.000
458.877; 2484.150;  251.475;    0.000
458.921; 2542.150;  237.475;    0.000
458.965; 2517.150;  264.475;    0.000
459.010; 2452.150;  256.475;    0.000
459.054; 2520.150;  280.475;    0.000
459.099; 2462.150;  240.475;    0.000
459.143; 2561.150;  287.475;    0.000
459.187; 2491.150;  257.475;    0.000
459.231; 2612.150;  273.475;    0.000
459.276; 2500.150;  231.475;    0.000
459.320; 2545.150;  261.475;    0.000
459.364; 2549.150;  278.475;    0.000
459.409; 2570.150;  249.475;    0.000
459.453; 2540.150;  235.475;    0.000
459.497; 2582.150;  262.475;    0.000
459.541; 2587.150;  269.475;    0.000
459.586; 2609.150;  240.475;    0.000
459.630; 2607.150;  261.475;    0.000
459.674; 2612.150;  276.475;    0.000
459.718; 2635.150;  236.475;    0.000
459.762; 2580.150;  263.475;    0.000
459.807; 2607.150;  263.475;    0.000
459.851; 2598.150;  225.475;    0.000
459.895; 2546.150;  247.475;    0.000
459.939; 2590.150;  231.475;    0.000
459.983; 2564.150;  242.475;    0.000
460.027; 2610.150;  248.475;    0.000
460.071; 2615.150;  273.475;    0.000
460.115; 2633.150;  282.475;    0.000
460.159; 2647.150;  264.475;    0.000
460.204; 2622.150;  288.475;    0.000
460.248; 2657.150;  293.475;    0.000
460.292; 2594.150;  277.475;    0.000
460.336; 2669.150;  250.475;    0.000
460.380; 2614.150;  275.475;    0.000
460.424; 2741.150;  243.475;    0.000
460.468; 2599.150;  277.475;    0.000
460.512; 2653.150;  261.475;    0.000
460.556; 2681.150;  266.475;    0.000
460.599; 2685.150;  246.475;    0.000
460.643; 2667.150;  256.475;    0.000
460.687; 2698.150;  257.475;    0.000
460.731; 2619.150;  235.475;    0.000
460.775; 2627.150;  278.475;    0.000
460.819; 2601.150;  268.475;    0.000
460.863; 2642.150;  257.475;    0.000
460.907; 2713.150;  213.475;    0.000
460.951; 2622.150;  274.475;    0.000
460.995; 2624.150;  258.475;    0.000
461.038; 2637.150;  219.475;    0.000
461.082; 2729.150;  253.475;    0.000
461.126; 2673.150;  281.475;    0.000
461.170; 2673.150;  244.475;    0.000
461.214; 2572.150;  262.475;    0.000
461.257; 2713.150;  284.475;    0.000
461.301; 2691.150;  275.475;    0.000
461.345; 2703.150;  267.475;    0.000
461.389; 2615.150;  255.475;    0.000
461.432; 2686.150;  282.475;    0.000
461.476; 2639.150;  263.475;    0.000
461.520; 2636.150;  260.475;    0.000
461.563; 2714.150;  278.475;    0.000
461.607; 2626.150;  236.475;    0.000
461.651; 2643.150;  262.475;    0.000
461.694; 2590.150;  236.475;    0.000
461.738; 2628.150;  295.475;    0.000
461.782; 2611.150;  252.475;    0.000
461.825; 2665.150;  271.475;    0.000
461.869; 2714.150;  278.475;    0.000
461.913; 2683.150;  255.475;    0.000
461.956; 2678.150;  254.475;    0.000
462.000; 2696.150;  299.475;    0.000
462.043; 2783.150;  282.475;    0.000
462.087; 2769.150;  274.475;    0.000
462.130; 2772.150;  270.475;    0.000
462.174; 2813.150;  274.475;    0.000
462.217; 2760.150;  272.475;    0.000
462.261; 2810.150;  286.475;    0.000
462.304; 2715.150;  236.475;    0.000
462.348; 2762.150;  262.475;    0.000
462.391; 2713.150;  244.475;    0.000
462.435; 2744.150;  321.475;    0.000
462.478; 2711.150;  230.475;    0.000
462.522; 2780.150;  245.475;    0.000
462.565; 2797.150;  278.475;    0.000
462.608; 2787.150;  303.475;    0.000
462.652; 2832.150;  275.475;    0.000
462.695; 2790.150;  314.475;    0.000
462.739; 2844.150;  307.475;    0.000
462.782; 2795.150;  286.475;    0.000
462.825; 2814.150;  312.475;    0.000
462.869; 2944.150;  338.475;    0.000
462.912; 2895.150;  304.475;    0.000
462.955; 2910.150;  288.475;    0.000
462.998; 2840.150;  292.475;    0.000
463.042; 2967.150;  309.475;    0.000
463.085; 2852.150;  292.475;    0.000
463.128; 2814.150;  317.475;    0.000
463.172; 2797.150;  287.475;    0.000
463.215;  350.150;  313.475;    0.000
463.258;  346.150;  295.475;    0.000
463.301;  274.150;  275.475;    0.000
463.344;  319.150;  311.475;    0.000
463.388;  307.150;  296.475;    0.000
463.431;  273.150;  277.475;    0.000
463.474;  341.150;  364.475;    0.000
463.517;  321.150;  306.475;    0.000
463.560;  312.150;  308.475;    0.000
463.603;  332.150;  343.475;    0.000
463.646;  315.150;  309.475;    0.000
463.690;  319.150;  309.475;    0.000
463.733;  327.150;  320.475;    0.000
463.776;  308.150;  299.475;    0.000
463.819;  344.150;  320.475;    0.000
463.862;  280.150;  283.475;    0.000

