
Integration time [ms]:   1.000
Averaging Nr. [scans]: 1
Smoothing Nr. [pixels]: 0
Data measured with spectrometer [name]: VIS
Wave   ;Sample   ;Dark     ;Reference
[nm]   ;[counts] ;[counts] ;[counts] 

450.961;  216.425;  200.375;    0.000
451.100;  239.425;  241.375;    0.000
451.239;  218.425;  201.375;    0.000
451.377;  250.425;  262.375;    0.000
451.516;  205.425;  229.375;    0.000
451.655;  192.425;  211.375;    0.000
451.794;  233.425;  225.375;    0.000
451.932;  221.425;  247.375;    0.000
452.071;  231.425;  260.375;    0.000
452.210;  202.425;  235.375;    0.000
452.348;  242.425;  276.375;    0.000
452.487;  214.425;  259.375;    0.000
452.626;  204.425;  254.375;    0.000
452.764;  243.425;  233.375;    0.000
452.903;  259.425;  202.375;    0.000
453.042;  285.425;  211.375;    0.000
453.180; 2969.425;  240.375;    0.000
453.319; 2964.425;  238.375;    0.000
453.458; 3085.425;  215.375;    0.000
453.596; 3069.425;  252.375;    0.000
453.735; 3130.425;  240.375;    0.000
453.873; 3186.425;  257.375;    0.000
454.012; 3194.425;  228.375;    0.000
454.150; 3180.425;  270.375;    0.000
454.289; 3242.425;  233.375;    0.000
454.427; 3265.425;  243.375;    0.000
454.566; 3353.425;  257.375;    0.000
454.704; 3361.425;  243.375;    0.000
454.843; 3260.425;  190.375;    0.000
454.981; 3367.425;  271.375;    0.000
455.120; 3316.425;  210.375;    0.000
455.258; 3384.425;  235.375;    0.000
455.397; 3304.425;  214.375;    0.000
455.535; 3462.425;  214.375;    0.000
455.674; 3425.425;  184.375;    0.000
455.812; 3626.425;  228.375;    0.000
455.951; 3606.425;  204.375;    0.000
456.089; 3558.425;  220.375;    0.000
456.227; 3641.425;  196.375;    0.000
456.366; 3692.425;  261.375;    0.000
456.504; 3775.425;  249.375;    0.000
456.642; 3699.425;  245.375;    0.000
456.781; 3753.425;  183.375;    0.000
456.919; 3824.425;  203.375;    0.000
457.057; 3832.425;  177.375;    0.000
457.196; 3857.425;  191.375;    0.000
457.334; 3947.425;  233.375;    0.000
457.472; 3920.425;  214.375;    0.000
457.610; 4118.425;  230.375;    0.000
457.749; 4012.425;  247.375;    0.000
457.887; 4174.425;  220.375;    0.000
458.025; 4093.425;  195.375;    0.000
458.163; 4138.425;  224.375;    0.000
458.301; 4207.425;  228.375;    0.000
458.440; 4228.425;  200.375;    0.000
458.578; 4277.425;  233.375;    0.000
458.716; 4490.425;  182.375;    0.000
458.854; 4517.425;  251.375;    0.000
458.992; 4451.425;  187.375;    0.000
459.130; 4460.425;  229.375;    0.000
459.269; 4576.425;  237.375;    0.000
459.407; 4629.425;  228.375;    0.000
459.545; 4542.425;  216.375;    0.000
459.683; 4629.425;  204.375;    0.000
459.821; 4626.425;  191.375;    0.000
459.959; 4748.425;  227.375;    0.000
460.097; 4812.425;  221.375;    0.000
460.235; 4827.425;  241.375;    0.000
460.373; 4844.425;  231.375;    0.000
460.511; 4891.425;  214.375;    0.000
460.649; 4756.425;  172.375;    0.000
460.787; 4844.425;  275.375;    0.000
460.925; 4877.425;  175.375;    0.000
461.063; 5000.425;  252.375;    0.000
461.201; 4977.425;  210.375;    0.000
461.339; 5010.425;  237.375;    0.000
461.477; 4978.425;  210.375;    0.000
461.615; 5068.425;  236.375;    0.000
461.753; 5126.425;  215.375;    0.000
461.891; 5086.425;  222.375;    0.000
462.029; 5249.425;  227.375;    0.000
462.166; 5257.425;  202.375;    0.000
462.304; 5170.425;  191.375;    0.000
462.442; 5441.425;  210.375;    0.000
462.580; 5277.425;  184.375;    0.000
462.718; 5374.425;  220.375;    0.000
462.856; 5276.425;  226.375;    0.000
462.993; 5325.425;  254.375;    0.000
463.131; 5342.425;  200.375;    0.000
463.269; 5362.425;  215.375;    0.000
463.407; 5127.425;  213.375;    0.000
463.545; 5140.425;  242.375;    0.000
463.682; 5144.425;  212.375;    0.000
463.820; 5511.425;  185.375;    0.000
463.958; 5657.425;  212.375;    0.000
464.095; 5755.425;  181.375;    0.000
464.233; 5746.425;  192.375;    0.000
464.371; 5748.425;  247.375;    0.000
464.509; 5669.425;  151.375;    0.000
464.646; 5698.425;  207.375;    0.000
464.784; 5707.425;  199.375;    0.000
464.921; 5567.425;  253.375;    0.000
465.059; 5574.425;  214.375;    0.000
465.197; 5552.425;  200.375;    0.000
465.334; 5475.425;  180.375;    0.000
465.472; 5487.425;  204.375;    0.000
465.609; 5363.425;  203.375;    0.000
465.747; 5399.425;  214.375;    0.000
465.885; 5338.425;  233.375;    0.000
466.022; 5355.425;  215.375;    0.000
466.160; 5243.425;  201.375;    0.000
466.297; 5345.425;  196.375;    0.000
466.435; 5381.425;  230.375;    0.000
466.572; 5457.425;  227.375;    0.000
466.710; 5377.425;  218.375;    0.000
466.847; 5411.425;  245.375;    0.000
466.985; 5270.425;  223.375;    0.000
467.122; 5208.425;  168.375;    0.000
467.260; 5242.425;  196.375;    0.000
467.397; 5350.425;  198.375;    0.000
467.534; 5337.425;  219.375;    0.000
467.672; 5195.425;  214.375;    0.000
467.809; 5140.425;  185.375;    0.000
467.947; 5385.425;  247.375;    0.000
468.084; 5415.425;  196.375;    0.000
468.221; 5296.425;  238.375;    0.000
468.359; 5351.425;  236.375;    0.000
468.496; 5218.425;  235.375;    0.000
468.633; 5272.425;  218.375;    0.000
468.771; 5295.425;  223.375;    0.000
468.908; 5318.425;  208.375;    0.000
469.045; 5363.425;  249.375;    0.000
469.183; 5447.425;  222.375;    0.000
469.320; 5412.425;  216.375;    0.000
469.457; 5601.425;  224.375;    0.000
469.594; 5501.425;  259.375;    0.000
469.732; 5503.425;  223.375;    0.000
469.869; 5593.425;  234.375;    0.000
470.006; 5572.425;  225.375;    0.000
470.143; 5498.425;  243.375;    0.000
470.280; 5602.425;  208.375;    0.000
470.417; 5667.425;  232.375;    0.000
470.555; 5602.425;  218.375;    0.000
470.692; 5714.425;  223.375;    0.000
470.829; 5693.425;  238.375;    0.000
470.966; 5595.425;  205.375;    0.000
471.103; 5719.425;  259.375;    0.000
471.240; 5659.425;  214.375;    0.000
471.377; 5589.425;  226.375;    0.000
471.514; 5606.425;  250.375;    0.000
471.651; 5551.425;  221.375;    0.000
471.789; 5575.425;  242.375;    0.000
471.926; 5527.425;  190.375;    0.000
472.063; 5640.425;  234.375;    0.000
472.200; 5563.425;  252.375;    0.000
472.337; 5525.425;  241.375;    0.000
472.474; 5529.425;  244.375;    0.000
472.611; 5637.425;  268.375;    0.000
472.748; 5496.425;  222.375;    0.000
472.884; 5591.425;  271.375;    0.000
473.021; 5590.425;  195.375;    0.000
473.158; 5398.425;  205.375;    0.000
473.295; 5592.425;  223.375;    0.000
473.432; 5408.425;  216.375;    0.000
473.569; 5527.425;  196.375;    0.000
473.706; 5395.425;  190.375;    0.000
473.843; 5565.425;  211.375;    0.000
473.980; 5502.425;  254.375;    0.000
474.117; 5566.425;  185.375;    0.000
474.253; 5569.425;  229.375;    0.000
474.390; 5493.425;  238.375;    0.000
474.527; 5538.425;  220.375;    0.000
474.664; 5563.425;  242.375;    0.000
474.801; 5389.425;  229.375;    0.000
474.937; 5622.425;  229.375;    0.000
475.074; 5568.425;  210.375;    0.000
475.211; 5639.425;  219.375;    0.000
475.348; 5549.425;  226.375;    0.000
475.484; 5722.425;  207.375;    0.000
475.621; 5573.425;  233.375;    0.000
475.758; 5582.425;  230.375;    0.000
475.894; 5633.425;  234.375;    0.000
476.031; 5628.425;  202.375;    0.000
476.168; 5669.425;  222.375;    0.000
476.304; 5672.425;  237.375;    0.000
476.441; 5701.425;  238.375;    0.000
476.578; 5582.425;  216.375;    0.000
476.714; 5680.425;  212.375;    0.000
476.851; 5726.425;  210.375;    0.000
476.987; 5910.425;  239.375;    0.000
477.124; 5774.425;  250.375;    0.000
477.261; 5839.425;  227.375;    0.000
477.397; 5884.425;  189.375;    0.000
477.534; 5823.425;  204.375;    0.000
477.670; 5801.425;  190.375;    0.000
477.807; 5899.425;  198.375;    0.000
477.943; 5887.425;  216.375;    0.000
478.080; 6040.425;  213.375;    0.000
478.216; 5865.425;  239.375;    0.000
478.353; 5964.425;  218.375;    0.000
478.489; 5877.425;  184.375;    0.000
478.626; 5981.425;  223.375;    0.000
478.762; 5908.425;  213.375;    0.000
478.898; 6100.425;  216.375;    0.000
479.035; 6134.425;  250.375;    0.000
479.171; 6156.425;  201.375;    0.000
479.308; 6030.425;  242.375;    0.000
479.444; 6066.425;  205.375;    0.000
479.580; 6096.425;  203.375;    0.000
479.717; 6267.425;  260.375;    0.000
479.853; 6136.425;  225.375;    0.000
479.989; 6095.425;  226.375;    0.000
480.126; 6089.425;  211.375;    0.000
480.262; 6186.425;  220.375;    0.000
480.398; 6181.425;  207.375;    0.000
480.535; 6218.425;  179.375;    0.000
480.671; 6181.425;  200.375;    0.000
480.807; 6108.425;  190.375;    0.000
480.943; 6191.425;  165.375;    0.000
481.080; 6250.425;  210.375;    0.000
481.216; 6133.425;  232.375;    0.000
481.352; 6036.425;  235.375;    0.000
481.488; 6150.425;  208.375;    0.000
481.624; 6175.425;  245.375;    0.000
481.760; 6247.425;  210.375;    0.000
481.897; 6082.425;  189.375;    0.000
482.033; 6172.425;  256.375;    0.000
482.169; 6175.425;  257.375;    0.000
482.305; 6129.425;  199.375;    0.000
482.441; 6143.425;  182.375;    0.000
482.577; 6155.425;  223.375;    0.000
482.713; 6270.425;  243.375;    0.000
482.849; 6121.425;  197.375;    0.000
482.985; 6096.425;  240.375;    0.000
483.121; 6097.425;  210.375;    0.000
483.258; 6225.425;  248.375;    0.000
483.394; 6165.425;  224.375;    0.000
483.530; 6156.425;  209.375;    0.000
483.665; 6144.425;  225.375;    0.000
483.801; 6130.425;  216.375;    0.000
483.937; 6182.425;  211.375;    0.000
484.073; 6232.425;  259.375;    0.000
484.209; 6222.425;  191.375;    0.000
484.345; 6244.425;  239.375;    0.000
484.481; 6339.425;  231.375;    0.000
484.617; 6225.425;  216.375;    0.000
484.753; 6264.425;  180.375;    0.000
484.889; 6207.425;  252.375;    0.000
485.025; 6136.425;  244.375;    0.000
485.161; 6299.425;  242.375;    0.000
485.296; 6312.425;  235.375;    0.000
485.432; 6304.425;  247.375;    0.000
485.568; 6219.425;  203.375;    0.000
485.704; 6292.425;  229.375;    0.000
485.840; 6281.425;  230.375;    0.000
485.975; 6300.425;  266.375;    0.000
486.111; 6296.425;  220.375;    0.000
486.247; 6315.425;  264.375;    0.000
486.383; 6218.425;  213.375;    0.000
486.518; 6358.425;  222.375;    0.000
486.654; 6298.425;  244.375;    0.000
486.790; 6380.425;  273.375;    0.000
486.926; 6213.425;  203.375;    0.000
487.061; 6275.425;  227.375;    0.000
487.197; 6227.425;  210.375;    0.000
487.333; 6205.425;  209.375;    0.000
487.468; 6292.425;  197.375;    0.000
487.604; 6368.425;  230.375;    0.000
487.740; 6367.425;  254.375;    0.000
487.875; 6427.425;  286.375;    0.000
488.011; 6330.425;  225.375;    0.000
488.146; 6308.425;  251.375;    0.000
488.282; 6440.425;  242.375;    0.000
488.417; 6459.425;  230.375;    0.000
488.553; 6335.425;  260.375;    0.000
488.688; 6223.425;  207.375;    0.000
488.824; 6298.425;  204.375;    0.000
488.960; 6456.425;  248.375;    0.000
489.095; 6347.425;  204.375;    0.000
489.230; 6373.425;  227.375;    0.000
489.366; 6289.425;  226.375;    0.000
489.501; 6381.425;  199.375;    0.000
489.637; 6310.425;  233.375;    0.000
489.772; 6421.425;  249.375;    0.000
489.908; 6420.425;  200.375;    0.000
490.043; 6494.425;  246.375;    0.000
490.178; 6476.425;  222.375;    0.000
490.314; 6507.425;  219.375;    0.000
490.449; 6428.425;  227.375;    0.000
490.585; 6400.425;  209.375;    0.000
490.720; 6393.425;  238.375;    0.000
490.855; 6420.425;  222.375;    0.000
490.991; 6341.425;  202.375;    0.000
491.126; 6436.425;  272.375;    0.000
491.261; 6520.425;  261.375;    0.000
491.396; 6386.425;  190.375;    0.000
491.532; 6412.425;  202.375;    0.000
491.667; 6448.425;  208.375;    0.000
491.802; 6354.425;  203.375;    0.000
491.937; 6620.425;  253.375;    0.000
492.073; 6463.425;  242.375;    0.000
492.208; 6508.425;  230.375;    0.000
492.343; 6458.425;  183.375;    0.000
492.478; 6505.425;  246.375;    0.000
492.613; 6540.425;  223.375;    0.000
492.749; 6523.425;  230.375;    0.000
492.884; 6434.425;  190.375;    0.000
493.019; 6399.425;  234.375;    0.000
493.154; 6662.425;  218.375;    0.000
493.289; 6600.425;  222.375;    0.000
493.424; 6541.425;  196.375;    0.000
493.559; 6491.425;  202.375;    0.000
493.694; 6417.425;  180.375;    0.000
493.829; 6415.425;  224.375;    0.000
493.964; 6394.425;  218.375;    0.000
494.099; 6446.425;  275.375;    0.000
494.234; 6539.425;  226.375;    0.000
494.369; 6528.425;  225.375;    0.000
494.504; 6443.425;  219.375;    0.000
494.639; 6519.425;  296.375;    0.000
494.774; 6455.425;  228.375;    0.000
494.909; 6455.425;  222.375;    0.000
495.044; 6408.425;  215.375;    0.000
495.179; 6333.425;  200.375;    0.000
495.314; 6417.425;  235.375;    0.000
495.449; 6405.425;  249.375;    0.000
495.584; 6531.425;  228.375;    0.000
495.719; 6518.425;  212.375;    0.000
495.854; 6500.425;  201.375;    0.000
495.988; 6536.425;  248.375;    0.000
496.123; 6526.425;  209.375;    0.000
496.258; 6541.425;  249.375;    0.000
496.393; 6545.425;  223.375;    0.000
496.528; 6622.425;  209.375;    0.000
496.663; 6618.425;  207.375;    0.000
496.797; 6509.425;  229.375;    0.000
496.932; 6742.425;  225.375;    0.000
497.067; 6848.425;  218.375;    0.000
497.202; 6831.425;  163.375;    0.000
497.336; 6741.425;  246.375;    0.000
497.471; 6846.425;  229.375;    0.000
497.606; 7039.425;  251.375;    0.000
497.740; 7088.425;  220.375;    0.000
497.875; 7211.425;  216.375;    0.000
498.010; 7216.425;  226.375;    0.000
498.144; 7329.425;  237.375;    0.000
498.279; 7469.425;  196.375;    0.000
498.414; 7530.425;  219.375;    0.000
498.548; 7561.425;  205.375;    0.000
498.683; 7568.425;  206.375;    0.000
498.817; 7650.425;  225.375;    0.000
498.952; 7752.425;  221.375;    0.000
499.087; 7991.425;  220.375;    0.000
499.221; 8150.425;  233.375;    0.000
499.356; 8058.425;  230.375;    0.000
499.490; 8335.425;  229.375;    0.000
499.625; 8424.425;  231.375;    0.000
499.759; 8635.425;  243.375;    0.000
499.894; 8735.425;  241.375;    0.000
500.028; 8925.425;  264.375;    0.000
500.162; 9077.425;  287.375;    0.000
500.297; 8944.425;  234.375;    0.000
500.431; 9029.425;  230.375;    0.000
500.566; 9087.425;  213.375;    0.000
500.700; 9106.425;  243.375;    0.000
500.835; 8982.425;  272.375;    0.000
500.969; 8872.425;  188.375;    0.000
501.103; 8710.425;  200.375;    0.000
501.238; 8305.425;  257.375;    0.000
501.372; 8321.425;  224.375;    0.000
501.506; 8051.425;  225.375;    0.000
501.641; 8042.425;  271.375;    0.000
501.775; 7907.425;  199.375;    0.000
501.909; 7486.425;  249.375;    0.000
502.043; 7532.425;  211.375;    0.000
502.178; 7379.425;  269.375;    0.000
502.312; 7325.425;  198.375;    0.000
502.446; 7199.425;  256.375;    0.000
502.580; 7137.425;  195.375;    0.000
502.715; 7062.425;  224.375;    0.000
502.849; 6883.425;  245.375;    0.000
502.983; 6954.425;  250.375;    0.000
503.117; 6861.425;  193.375;    0.000
503.251; 6832.425;  242.375;    0.000
503.385; 6543.425;  227.375;    0.000
503.520; 6613.425;  235.375;    0.000
503.654; 6413.425;  220.375;    0.000
503.788; 6548.425;  267.375;    0.000
503.922; 6312.425;  220.375;    0.000
504.056; 6547.425;  238.375;    0.000
504.190; 6388.425;  212.375;    0.000
504.324; 6370.425;  265.375;    0.000
504.458; 6134.425;  228.375;    0.000
504.592; 6268.425;  231.375;    0.000
504.726; 6201.425;  218.375;    0.000
504.860; 6154.425;  253.375;    0.000
504.994; 6005.425;  217.375;    0.000
505.128; 6071.425;  243.375;    0.000
505.262; 5904.425;  194.375;    0.000
505.396; 5872.425;  210.375;    0.000
505.530; 5865.425;  211.375;    0.000
505.664; 5840.425;  219.375;    0.000
505.798; 5635.425;  240.375;    0.000
505.932; 5560.425;  240.375;    0.000
506.066; 5620.425;  252.375;    0.000
506.199; 5496.425;  242.375;    0.000
506.333; 5530.425;  244.375;    0.000
506.467; 5603.425;  223.375;    0.000
506.601; 5386.425;  183.375;    0.000
506.735; 5548.425;  249.375;    0.000
506.869; 5466.425;  270.375;    0.000
507.002; 5409.425;  207.375;    0.000
507.136; 5427.425;  242.375;    0.000
507.270; 5261.425;  232.375;    0.000
507.404; 5202.425;  195.375;    0.000
507.537; 5399.425;  218.375;    0.000
507.671; 5188.425;  246.375;    0.000
507.805; 5255.425;  244.375;    0.000
507.939; 5246.425;  251.375;    0.000
508.072; 5161.425;  212.375;    0.000
508.206; 5193.425;  198.375;    0.000
508.340; 5198.425;  234.375;    0.000
508.473; 5061.425;  217.375;    0.000
508.607; 5167.425;  224.375;    0.000
508.740; 5104.425;  207.375;    0.000
508.874; 5094.425;  230.375;    0.000
509.008; 5119.425;  246.375;    0.000
509.141; 5096.425;  239.375;    0.000
509.275; 5113.425;  229.375;    0.000
509.408; 5108.425;  234.375;    0.000
509.542; 5001.425;  212.375;    0.000
509.675; 5045.425;  256.375;    0.000
509.809; 4954.425;  232.375;    0.000
509.942; 5092.425;  237.375;    0.000
510.076; 5004.425;  226.375;    0.000
510.209; 5052.425;  251.375;    0.000
510.343; 4932.425;  229.375;    0.000
510.476; 5079.425;  285.375;    0.000
510.610; 4954.425;  211.375;    0.000
510.743; 4834.425;  258.375;    0.000
510.877; 4942.425;  244.375;    0.000
511.010; 4890.425;  235.375;    0.000
511.143; 5001.425;  251.375;    0.000
511.277; 4859.425;  228.375;    0.000
511.410; 4967.425;  216.375;    0.000
511.543; 4857.425;  231.375;    0.000
511.677; 4833.425;  244.375;    0.000
511.810; 4932.425;  186.375;    0.000
511.943; 4935.425;  211.375;    0.000
512.077; 4903.425;  201.375;    0.000
512.210; 4764.425;  194.375;    0.000
512.343; 4832.425;  233.375;    0.000
512.476; 4874.425;  234.375;    0.000
512.610; 4895.425;  224.375;    0.000
512.743; 4889.425;  255.375;    0.000
512.876; 4954.425;  264.375;    0.000
513.009; 4830.425;  283.375;    0.000
513.142; 4949.425;  246.375;    0.000
513.276; 4899.425;  217.375;    0.000
513.409; 4848.425;  222.375;    0.000
513.542; 4909.425;  237.375;    0.000
513.675; 4761.425;  238.375;    0.000
513.808; 4750.425;  220.375;    0.000
513.941; 4835.425;  233.375;    0.000
514.074; 4900.425;  248.375;    0.000
514.207; 4854.425;  233.375;    0.000
514.340; 4846.425;  190.375;    0.000
514.474; 4827.425;  221.375;    0.000
514.607; 4817.425;  213.375;    0.000
514.740; 4848.425;  251.375;    0.000
514.873; 4957.425;  257.375;    0.000
515.006; 5041.425;  268.375;    0.000
515.139; 4863.425;  257.375;    0.000
515.272; 4948.425;  227.375;    0.000
515.404; 4934.425;  238.375;    0.000
515.537; 5044.425;  275.375;    0.000
515.670; 5090.425;  239.375;    0.000
515.803; 5019.425;  223.375;    0.000
515.936; 5058.425;  202.375;    0.000
516.069; 5171.425;  188.375;    0.000
516.202; 5334.425;  240.375;    0.000
516.335; 5461.425;  252.375;    0.000
516.468; 5651.425;  254.375;    0.000
516.600; 6817.425;  254.375;    0.000
516.733; 8765.425;  255.375;    0.000
516.866; 8721.425;  265.375;    0.000
516.999; 7758.425;  251.375;    0.000
517.132; 9667.425;  256.375;    0.000
517.264;13862.425;  202.375;    0.000
517.397;13492.425;  248.375;    0.000
517.530;10116.425;  221.375;    0.000
517.663; 8125.425;  244.375;    0.000
517.795; 7541.425;  245.375;    0.000
517.928; 7327.425;  236.375;    0.000
518.061; 7468.425;  219.375;    0.000
518.193; 9842.425;  251.375;    0.000
518.326;15868.425;  271.375;    0.000
518.459;17208.426;  207.375;    0.000
518.591;12925.425;  217.375;    0.000
518.724; 9618.425;  200.375;    0.000
518.857; 8325.425;  204.375;    0.000
518.989; 7570.425;  242.375;    0.000
519.122; 6914.425;  254.375;    0.000
519.254; 6672.425;  239.375;    0.000
519.387; 6111.425;  235.375;    0.000
519.519; 5952.425;  227.375;    0.000
519.652; 5747.425;  178.375;    0.000
519.784; 5637.425;  226.375;    0.000
519.917; 5468.425;  256.375;    0.000
520.049; 5437.425;  234.375;    0.000
520.182; 5380.425;  258.375;    0.000
520.314; 5305.425;  298.375;    0.000
520.447; 5172.425;  204.375;    0.000
520.579; 5176.425;  235.375;    0.000
520.712; 4938.425;  208.375;    0.000
520.844; 5040.425;  272.375;    0.000
520.976; 4850.425;  234.375;    0.000
521.109; 4976.425;  235.375;    0.000
521.241; 4904.425;  250.375;    0.000
521.373; 4771.425;  233.375;    0.000
521.506; 4772.425;  231.375;    0.000
521.638; 4689.425;  258.375;    0.000
521.770; 4726.425;  226.375;    0.000
521.903; 4712.425;  258.375;    0.000
522.035; 4527.425;  263.375;    0.000
522.167; 4570.425;  214.375;    0.000
522.300; 4598.425;  212.375;    0.000
522.432; 4473.425;  220.375;    0.000
522.564; 4532.425;  228.375;    0.000
522.696; 4485.425;  272.375;    0.000
522.828; 4503.425;  222.375;    0.000
522.961; 4537.425;  205.375;    0.000
523.093; 4502.425;  253.375;    0.000
523.225; 4442.425;  239.375;    0.000
523.357; 4446.425;  263.375;    0.000
523.489; 4415.425;  264.375;    0.000
523.621; 4388.425;  259.375;    0.000
523.753; 4311.425;  233.375;    0.000
523.885; 4373.425;  232.375;    0.000
524.018; 4245.425;  214.375;    0.000
524.150; 4267.425;  235.375;    0.000
524.282; 4322.425;  242.375;    0.000
524.414; 4303.425;  261.375;    0.000
524.546; 4246.425;  233.375;    0.000
524.678; 4182.425;  242.375;    0.000
524.810; 4235.425;  216.375;    0.000
524.942; 4173.425;  220.375;    0.000
525.074; 4215.425;  249.375;    0.000
525.206; 4069.425;  227.375;    0.000
525.338; 4089.425;  250.375;    0.000
525.469; 4169.425;  231.375;    0.000
525.601; 4100.425;  245.375;    0.000
525.733; 4149.425;  187.375;    0.000
525.865; 4030.425;  280.375;    0.000
525.997; 4044.425;  216.375;    0.000
526.129; 4058.425;  228.375;    0.000
526.261; 4016.425;  187.375;    0.000
526.393; 4054.425;  228.375;    0.000
526.524; 3877.425;  201.375;    0.000
526.656; 3974.425;  199.375;    0.000
526.788; 4053.425;  233.375;    0.000
526.920; 4090.425;  256.375;    0.000
527.052; 3911.425;  219.375;    0.000
527.183; 3920.425;  227.375;    0.000
527.315; 3973.425;  266.375;    0.000
527.447; 3918.425;  239.375;    0.000
527.578; 3987.425;  213.375;    0.000
527.710; 4011.425;  216.375;    0.000
527.842; 3992.425;  240.375;    0.000
527.973; 3938.425;  286.375;    0.000
528.105; 3889.425;  222.375;    0.000
528.237; 3999.425;  223.375;    0.000
528.368; 3957.425;  211.375;    0.000
528.500; 3918.425;  215.375;    0.000
528.632; 3883.425;  216.375;    0.000
528.763; 3864.425;  234.375;    0.000
528.895; 3815.425;  196.375;    0.000
529.026; 3856.425;  202.375;    0.000
529.158; 3901.425;  226.375;    0.000
529.289; 3961.425;  229.375;    0.000
529.421; 3892.425;  264.375;    0.000
529.552; 3845.425;  265.375;    0.000
529.684; 3952.425;  260.375;    0.000
529.815; 3924.425;  284.375;    0.000
529.947; 3890.425;  237.375;    0.000
530.078; 3798.425;  223.375;    0.000
530.210; 3876.425;  223.375;    0.000
530.341; 3858.425;  209.375;    0.000
530.472; 3856.425;  203.375;    0.000
530.604; 3793.425;  223.375;    0.000
530.735; 3845.425;  218.375;    0.000
530.867; 3970.425;  222.375;    0.000
530.998; 3937.425;  239.375;    0.000
531.129; 3928.425;  250.375;    0.000
531.260; 3956.425;  224.375;    0.000
531.392; 3924.425;  216.375;    0.000
531.523; 3987.425;  234.375;    0.000
531.654; 3926.425;  256.375;    0.000
531.786; 3934.425;  226.375;    0.000
531.917; 3936.425;  239.375;    0.000
532.048; 3922.425;  205.375;    0.000
532.179; 3945.425;  244.375;    0.000
532.311; 3887.425;  235.375;    0.000
532.442; 3927.425;  258.375;    0.000
532.573; 3862.425;  220.375;    0.000
532.704; 3847.425;  213.375;    0.000
532.835; 3904.425;  249.375;    0.000
532.966; 3789.425;  226.375;    0.000
533.097; 3907.425;  246.375;    0.000
533.229; 3891.425;  237.375;    0.000
533.360; 3849.425;  225.375;    0.000
533.491; 3794.425;  241.375;    0.000
533.622; 3812.425;  242.375;    0.000
533.753; 3801.425;  264.375;    0.000
533.884; 3879.425;  245.375;    0.000
534.015; 3786.425;  269.375;    0.000
534.146; 3901.425;  267.375;    0.000
534.277; 3926.425;  282.375;    0.000
534.408; 3880.425;  229.375;    0.000
534.539; 3921.425;  269.375;    0.000
534.670; 3905.425;  231.375;    0.000
534.801; 3900.425;  260.375;    0.000
534.932; 3791.425;  232.375;    0.000
535.063; 3780.425;  227.375;    0.000
535.194; 3936.425;  281.375;    0.000
535.324; 3758.425;  206.375;    0.000
535.455; 3800.425;  257.375;    0.000
535.586; 3763.425;  275.375;    0.000
535.717; 3752.425;  206.375;    0.000
535.848; 3828.425;  271.375;    0.000
535.979; 3787.425;  250.375;    0.000
536.109; 3760.425;  253.375;    0.000
536.240; 3787.425;  234.375;    0.000
536.371; 3902.425;  230.375;    0.000
536.502; 3868.425;  270.375;    0.000
536.632; 3691.425;  228.375;    0.000
536.763; 3666.425;  249.375;    0.000
536.894; 3621.425;  262.375;    0.000
537.025; 3643.425;  258.375;    0.000
537.155; 3694.425;  278.375;    0.000
537.286; 3661.425;  209.375;    0.000
537.417; 3687.425;  255.375;    0.000
537.547; 3696.425;  208.375;    0.000
537.678; 3795.425;  224.375;    0.000
537.808; 3581.425;  224.375;    0.000
537.939; 3602.425;  257.375;    0.000
538.070; 3603.425;  240.375;    0.000
538.200; 3778.425;  259.375;    0.000
538.331; 3615.425;  235.375;    0.000
538.461; 3744.425;  251.375;    0.000
538.592; 3709.425;  245.375;    0.000
538.722; 3651.425;  239.375;    0.000
538.853; 3663.425;  216.375;    0.000
538.983; 3631.425;  226.375;    0.000
539.114; 3548.425;  240.375;    0.000
539.244; 3722.425;  237.375;    0.000
539.375; 3691.425;  198.375;    0.000
539.505; 3587.425;  263.375;    0.000
539.636; 3703.425;  226.375;    0.000
539.766; 3770.425;  229.375;    0.000
539.896; 3779.425;  219.375;    0.000
540.027; 3635.425;  246.375;    0.000
540.157; 3695.425;  218.375;    0.000
540.287; 3747.425;  216.375;    0.000
540.418; 3713.425;  267.375;    0.000
540.548; 3653.425;  260.375;    0.000
540.678; 3657.425;  242.375;    0.000
540.809; 3757.425;  260.375;    0.000
540.939; 3603.425;  257.375;    0.000
541.069; 3588.425;  226.375;    0.000
541.200; 3734.425;  227.375;    0.000
541.330; 3676.425;  218.375;    0.000
541.460; 3704.425;  223.375;    0.000
541.590; 3715.425;  237.375;    0.000
541.720; 3692.425;  222.375;    0.000
541.851; 3681.425;  250.375;    0.000
541.981; 3712.425;  222.375;    0.000
542.111; 3798.425;  212.375;    0.000
542.241; 3783.425;  205.375;    0.000
542.371; 3820.425;  202.375;    0.000
542.501; 3822.425;  218.375;    0.000
542.631; 3862.425;  222.375;    0.000
542.761; 3875.425;  249.375;    0.000
542.891; 3843.425;  173.375;    0.000
543.021; 3890.425;  218.375;    0.000
543.151; 3895.425;  222.375;    0.000
543.281; 3821.425;  188.375;    0.000
543.411; 3741.425;  239.375;    0.000
543.542; 3821.425;  215.375;    0.000
543.671; 3851.425;  250.375;    0.000
543.801; 3821.425;  212.375;    0.000
543.931; 3818.425;  233.375;    0.000
544.061; 3856.425;  194.375;    0.000
544.191; 3824.425;  218.375;    0.000
544.321; 3803.425;  220.375;    0.000
544.451; 3822.425;  183.375;    0.000
544.581; 3743.425;  221.375;    0.000
544.711; 3950.425;  224.375;    0.000
544.841; 3848.425;  214.375;    0.000
544.970; 3929.425;  227.375;    0.000
545.100; 3985.425;  186.375;    0.000
545.230; 3975.425;  205.375;    0.000
545.360; 3919.425;  211.375;    0.000
545.490; 3834.425;  202.375;    0.000
545.619; 3832.425;  182.375;    0.000
545.749; 3754.425;  174.375;    0.000
545.879; 3791.425;  169.375;    0.000
546.009; 3883.425;  182.375;    0.000
546.138; 3769.425;  200.375;    0.000
546.268; 3720.425;  204.375;    0.000
546.398; 3737.425;  200.375;    0.000
546.527; 3757.425;  179.375;    0.000
546.657; 3807.425;  162.375;    0.000
546.786; 3756.425;  179.375;    0.000
546.916; 3756.425;  221.375;    0.000
547.046; 3794.425;  179.375;    0.000
547.175; 3682.425;  168.375;    0.000
547.305; 3853.425;  200.375;    0.000
547.434; 3760.425;  166.375;    0.000
547.564; 3710.425;  177.375;    0.000
547.693; 3797.425;  152.375;    0.000
547.823; 3757.425;  171.375;    0.000
547.953; 3764.425;  195.375;    0.000
548.082; 3836.425;  214.375;    0.000
548.211; 3677.425;  177.375;    0.000
548.341; 3760.425;  189.375;    0.000
548.470; 3708.425;  194.375;    0.000
548.600; 3782.425;  172.375;    0.000
548.729; 3802.425;  158.375;    0.000
548.859; 3776.425;  193.375;    0.000
548.988; 3676.425;  131.375;    0.000
549.117; 3724.425;  204.375;    0.000
549.247; 3793.425;  191.375;    0.000
549.376; 3659.425;  202.375;    0.000
549.505; 3772.425;  187.375;    0.000
549.635; 3782.425;  198.375;    0.000
549.764; 3754.425;  155.375;    0.000
549.893; 3854.425;  176.375;    0.000
550.023; 3841.425;  202.375;    0.000
550.152; 3794.425;  168.375;    0.000
550.281; 3737.425;  180.375;    0.000
550.410; 3767.425;  180.375;    0.000
550.539; 3875.425;  181.375;    0.000
550.669; 3858.425;  168.375;    0.000
550.798; 3893.425;  223.375;    0.000
550.927; 3854.425;  179.375;    0.000
551.056; 3891.425;  159.375;    0.000
551.185; 3763.425;  199.375;    0.000
551.314; 3883.425;  185.375;    0.000
551.443; 3840.425;  172.375;    0.000
551.573; 3873.425;  158.375;    0.000
551.702; 3819.425;  210.375;    0.000
551.831; 3897.425;  238.375;    0.000
551.960; 3889.425;  191.375;    0.000
552.089; 3790.425;  195.375;    0.000
552.218; 3896.425;  196.375;    0.000
552.347; 3915.425;  194.375;    0.000
552.476; 4000.425;  192.375;    0.000
552.605; 3902.425;  172.375;    0.000
552.734; 4121.425;  214.375;    0.000
552.863; 4180.425;  177.375;    0.000
552.992; 4247.425;  190.375;    0.000
553.121; 4180.425;  185.375;    0.000
553.249; 4105.425;  175.375;    0.000
553.378; 4046.425;  192.375;    0.000
553.507; 3996.425;  193.375;    0.000
553.636; 4009.425;  182.375;    0.000
553.765; 4090.425;  187.375;    0.000
553.894; 3970.425;  214.375;    0.000
554.023; 4009.425;  217.375;    0.000
554.151; 3866.425;  223.375;    0.000
554.280; 3916.425;  170.375;    0.000
554.409; 3901.425;  172.375;    0.000
554.538; 3959.425;  182.375;    0.000
554.666; 3862.425;  195.375;    0.000
554.795; 3951.425;  176.375;    0.000
554.924; 3890.425;  164.375;    0.000
555.052; 3738.425;  171.375;    0.000
555.181; 3825.425;  208.375;    0.000
555.310; 3869.425;  214.375;    0.000
555.439; 3893.425;  193.375;    0.000
555.567; 3749.425;  189.375;    0.000
555.696; 3891.425;  196.375;    0.000
555.824; 3818.425;  183.375;    0.000
555.953; 3838.425;  234.375;    0.000
556.082; 3802.425;  183.375;    0.000
556.210; 3846.425;  199.375;    0.000
556.339; 3839.425;  201.375;    0.000
556.467; 3763.425;  208.375;    0.000
556.596; 3775.425;  194.375;    0.000
556.724; 3685.425;  170.375;    0.000
556.853; 3715.425;  166.375;    0.000
556.981; 3755.425;  185.375;    0.000
557.110; 3745.425;  213.375;    0.000
557.238; 3751.425;  188.375;    0.000
557.367; 3770.425;  176.375;    0.000
557.495; 3789.425;  180.375;    0.000
557.623; 3753.425;  193.375;    0.000
557.752; 3758.425;  207.375;    0.000
557.880; 3691.425;  189.375;    0.000
558.008; 3833.425;  169.375;    0.000
558.137; 3656.425;  203.375;    0.000
558.265; 3660.425;  167.375;    0.000
558.393; 3707.425;  204.375;    0.000
558.522; 3745.425;  203.375;    0.000
558.650; 3764.425;  215.375;    0.000
558.778; 3756.425;  190.375;    0.000
558.906; 3798.425;  186.375;    0.000
559.035; 3763.425;  193.375;    0.000
559.163; 3810.425;  198.375;    0.000
559.291; 3774.425;  222.375;    0.000
559.419; 3774.425;  192.375;    0.000
559.548; 3669.425;  186.375;    0.000
559.676; 3723.425;  199.375;    0.000
559.804; 3871.425;  186.375;    0.000
559.932; 3843.425;  202.375;    0.000
560.060; 3895.425;  183.375;    0.000
560.188; 3894.425;  212.375;    0.000
560.316; 3783.425;  192.375;    0.000
560.444; 3853.425;  180.375;    0.000
560.572; 3863.425;  206.375;    0.000
560.700; 3917.425;  184.375;    0.000
560.828; 3879.425;  177.375;    0.000
560.956; 3985.425;  221.375;    0.000
561.085; 3936.425;  227.375;    0.000
561.212; 3953.425;  208.375;    0.000
561.340; 3918.425;  189.375;    0.000
561.468; 3975.425;  189.375;    0.000
561.596; 3868.425;  183.375;    0.000
561.724; 3952.425;  188.375;    0.000
561.852; 3912.425;  183.375;    0.000
561.980; 3945.425;  209.375;    0.000
562.108; 3919.425;  165.375;    0.000
562.236; 4002.425;  188.375;    0.000
562.364; 3956.425;  177.375;    0.000
562.492; 3962.425;  192.375;    0.000
562.619; 3922.425;  187.375;    0.000
562.747; 3913.425;  217.375;    0.000
562.875; 4051.425;  221.375;    0.000
563.003; 4010.425;  199.375;    0.000
563.130; 4111.425;  191.375;    0.000
563.258; 4089.425;  186.375;    0.000
563.386; 4062.425;  191.375;    0.000
563.514; 4125.425;  217.375;    0.000
563.641; 4213.425;  220.375;    0.000
563.769; 4193.425;  186.375;    0.000
563.897; 4286.425;  158.375;    0.000
564.024; 4285.425;  192.375;    0.000
564.152; 4260.425;  217.375;    0.000
564.280; 4368.425;  203.375;    0.000
564.407; 4294.425;  190.375;    0.000
564.535; 4273.425;  188.375;    0.000
564.662; 4316.425;  199.375;    0.000
564.790; 4286.425;  227.375;    0.000
564.917; 4480.425;  160.375;    0.000
565.045; 4333.425;  222.375;    0.000
565.173; 4390.425;  169.375;    0.000
565.300; 4502.425;  208.375;    0.000
565.428; 4479.425;  174.375;    0.000
565.555; 4502.425;  201.375;    0.000
565.682; 4558.425;  180.375;    0.000
565.810; 4583.425;  165.375;    0.000
565.937; 4657.425;  167.375;    0.000
566.065; 4697.425;  190.375;    0.000
566.192; 4771.425;  169.375;    0.000
566.320; 4853.425;  167.375;    0.000
566.447; 4855.425;  151.375;    0.000
566.574; 4892.425;  176.375;    0.000
566.702; 5000.425;  198.375;    0.000
566.829; 5079.425;  209.375;    0.000
566.956; 5050.425;  186.375;    0.000
567.083; 5125.425;  188.375;    0.000
567.211; 5048.425;  159.375;    0.000
567.338; 5138.425;  204.375;    0.000
567.465; 5131.425;  141.375;    0.000
567.593; 5135.425;  168.375;    0.000
567.720; 5090.425;  177.375;    0.000
567.847; 5014.425;  160.375;    0.000
567.974; 5191.425;  139.375;    0.000
568.101; 5269.425;  153.375;    0.000
568.228; 5685.425;  173.375;    0.000
568.356; 5779.425;  149.375;    0.000
568.483; 5539.425;  185.375;    0.000
568.610; 5487.425;  170.375;    0.000
568.737; 5988.425;  223.375;    0.000
568.864; 6484.425;  167.375;    0.000
568.991; 6351.425;  177.375;    0.000
569.118; 5743.425;  169.375;    0.000
569.245; 5249.425;  128.375;    0.000
569.372; 5160.425;  160.375;    0.000
569.499; 4982.425;  156.375;    0.000
569.626; 4871.425;  191.375;    0.000
569.753; 4777.425;  163.375;    0.000
569.880; 4722.425;  167.375;    0.000
570.007; 4612.425;  143.375;    0.000
570.134; 4515.425;  191.375;    0.000
570.261; 4513.425;  164.375;    0.000
570.388; 4504.425;  162.375;    0.000
570.515; 4379.425;  220.375;    0.000
570.642; 4426.425;  184.375;    0.000
570.768; 4331.425;  174.375;    0.000
570.895; 4388.425;  177.375;    0.000
571.022; 4292.425;  152.375;    0.000
571.149; 4391.425;  183.375;    0.000
571.276; 4229.425;  153.375;    0.000
571.402; 4301.425;  190.375;    0.000
571.529; 4244.425;  187.375;    0.000
571.656; 4176.425;  167.375;    0.000
571.783; 4139.425;  186.375;    0.000
571.909; 4152.425;  183.375;    0.000
572.036; 4074.425;  162.375;    0.000
572.163; 4108.425;  196.375;    0.000
572.289; 4098.425;  180.375;    0.000
572.416; 4029.425;  190.375;    0.000
572.543; 4042.425;  174.375;    0.000
572.669; 4055.425;  186.375;    0.000
572.796; 4032.425;  205.375;    0.000
572.922; 3957.425;  185.375;    0.000
573.049; 4004.425;  178.375;    0.000
573.176; 3931.425;  196.375;    0.000
573.302; 3963.425;  202.375;    0.000
573.429; 4036.425;  189.375;    0.000
573.555; 4016.425;  145.375;    0.000
573.682; 3876.425;  228.375;    0.000
573.808; 3841.425;  197.375;    0.000
573.935; 3947.425;  216.375;    0.000
574.061; 3958.425;  173.375;    0.000
574.188; 3898.425;  151.375;    0.000
574.314; 3940.425;  181.375;    0.000
574.440; 3934.425;  167.375;    0.000
574.567; 3933.425;  185.375;    0.000
574.693; 3851.425;  173.375;    0.000
574.820; 3849.425;  164.375;    0.000
574.946; 3888.425;  199.375;    0.000
575.072; 3945.425;  162.375;    0.000
575.198; 3872.425;  225.375;    0.000
575.325; 3817.425;  171.375;    0.000
575.451; 3874.425;  183.375;    0.000
575.577; 3910.425;  190.375;    0.000
575.704; 3880.425;  210.375;    0.000
575.830; 3868.425;  185.375;    0.000
575.956; 3836.425;  168.375;    0.000
576.082; 3905.425;  158.375;    0.000
576.208; 3767.425;  158.375;    0.000
576.335; 3872.425;  196.375;    0.000
576.461; 3916.425;  187.375;    0.000
576.587; 3858.425;  157.375;    0.000
576.713; 3912.425;  156.375;    0.000
576.839; 3865.425;  196.375;    0.000
576.965; 3908.425;  187.375;    0.000
577.091; 3752.425;  204.375;    0.000
577.217; 3983.425;  207.375;    0.000
577.343; 3824.425;  175.375;    0.000
577.469; 3744.425;  197.375;    0.000
577.596; 3808.425;  182.375;    0.000
577.722; 3850.425;  159.375;    0.000
577.848; 3841.425;  162.375;    0.000
577.974; 3770.425;  180.375;    0.000
578.099; 3750.425;  161.375;    0.000
578.225; 3856.425;  180.375;    0.000
578.351; 3737.425;  190.375;    0.000
578.477; 3802.425;  212.375;    0.000
578.603; 3865.425;  179.375;    0.000
578.729; 3965.425;  195.375;    0.000
578.855; 3782.425;  153.375;    0.000
578.981; 3824.425;  162.375;    0.000
579.107; 3927.425;  149.375;    0.000
579.232; 3906.425;  164.375;    0.000
579.358; 3794.425;  162.375;    0.000
579.484; 3795.425;  181.375;    0.000
579.610; 3930.425;  190.375;    0.000
579.735; 3821.425;  191.375;    0.000
579.861; 3823.425;  189.375;    0.000
579.987; 3845.425;  202.375;    0.000
580.113; 3931.425;  197.375;    0.000
580.238; 3851.425;  228.375;    0.000
580.364; 3912.425;  212.375;    0.000
580.490; 3945.425;  225.375;    0.000
580.615; 3938.425;  218.375;    0.000
580.741; 3861.425;  167.375;    0.000
580.867; 3855.425;  215.375;    0.000
580.992; 3938.425;  191.375;    0.000
581.118; 3960.425;  171.375;    0.000
581.243; 4047.425;  204.375;    0.000
581.369; 3942.425;  186.375;    0.000
581.494; 3951.425;  184.375;    0.000
581.620; 3955.425;  212.375;    0.000
581.745; 3990.425;  192.375;    0.000
581.871; 3973.425;  195.375;    0.000
581.996; 3995.425;  160.375;    0.000
582.122; 3985.425;  217.375;    0.000
582.247; 3975.425;  213.375;    0.000
582.373; 3971.425;  187.375;    0.000
582.498; 4104.425;  208.375;    0.000
582.624; 4023.425;  189.375;    0.000
582.749; 4052.425;  185.375;    0.000
582.874; 4025.425;  195.375;    0.000
583.000; 4147.425;  208.375;    0.000
583.125; 4186.425;  147.375;    0.000
583.250; 4245.425;  201.375;    0.000
583.376; 4126.425;  191.375;    0.000
583.501; 4234.425;  206.375;    0.000
583.626; 4113.425;  167.375;    0.000
583.751; 4243.425;  180.375;    0.000
583.877; 4242.425;  185.375;    0.000
584.002; 4295.425;  186.375;    0.000
584.127; 4247.425;  176.375;    0.000
584.252; 4328.425;  214.375;    0.000
584.377; 4335.425;  225.375;    0.000
584.503; 4447.425;  195.375;    0.000
584.628; 4409.425;  206.375;    0.000
584.753; 4471.425;  181.375;    0.000
584.878; 4476.425;  136.375;    0.000
585.003; 4549.425;  215.375;    0.000
585.128; 4563.425;  206.375;    0.000
585.253; 4766.425;  200.375;    0.000
585.378; 4703.425;  169.375;    0.000
585.503; 4724.425;  191.375;    0.000
585.628; 4790.425;  182.375;    0.000
585.753; 4831.425;  164.375;    0.000
585.878; 4929.425;  123.375;    0.000
586.003; 5179.425;  187.375;    0.000
586.128; 5162.425;  198.375;    0.000
586.253; 5303.425;  172.375;    0.000
586.378; 5347.425;  191.375;    0.000
586.503; 5546.425;  190.375;    0.000
586.628; 5587.425;  178.375;    0.000
586.753; 5829.425;  184.375;    0.000
586.878; 5979.425;  169.375;    0.000
587.003; 6113.425;  186.375;    0.000
587.127; 6347.425;  170.375;    0.000
587.252; 6539.425;  170.375;    0.000
587.377; 6862.425;  181.375;    0.000
587.502; 7139.425;  209.375;    0.000
587.627; 7712.425;  210.375;    0.000
587.751; 8079.425;  212.375;    0.000
587.876; 8655.425;  198.375;    0.000
588.001; 9253.425;  161.375;    0.000
588.125;10069.425;  191.375;    0.000
588.250;11448.425;  132.375;    0.000
588.375;13103.425;  183.375;    0.000
588.499;15203.425;  176.375;    0.000
588.624;18666.426;  173.375;    0.000
588.749;23682.426;  204.375;    0.000
588.873;29858.426;  179.375;    0.000
588.998;34537.426;  182.375;    0.000
589.122;35631.426;  165.375;    0.000
589.247;32591.426;  185.375;    0.000
589.372;29467.426;  199.375;    0.000
589.496;30825.426;  182.375;    0.000
589.621;33486.426;  158.375;    0.000
589.745;31341.426;  213.375;    0.000
589.870;25217.426;  175.375;    0.000
589.994;20051.426;  194.375;    0.000
590.118;17068.426;  218.375;    0.000
590.243;14403.425;  170.375;    0.000
590.367;12664.425;  189.375;    0.000
590.492;11426.425;  196.375;    0.000
590.616;10415.425;  182.375;    0.000
590.740; 9678.425;  210.375;    0.000
590.865; 8985.425;  242.375;    0.000
590.989; 8520.425;  191.375;    0.000
591.114; 8045.425;  167.375;    0.000
591.238; 7641.425;  194.375;    0.000
591.362; 7457.425;  236.375;    0.000
591.486; 7086.425;  194.375;    0.000
591.611; 6758.425;  154.375;    0.000
591.735; 6588.425;  186.375;    0.000
591.859; 6446.425;  148.375;    0.000
591.983; 6474.425;  211.375;    0.000
592.107; 6201.425;  204.375;    0.000
592.232; 5985.425;  194.375;    0.000
592.356; 5882.425;  238.375;    0.000
592.480; 5821.425;  179.375;    0.000
592.604; 5743.425;  192.375;    0.000
592.728; 5598.425;  201.375;    0.000
592.852; 5530.425;  158.375;    0.000
592.976; 5293.425;  152.375;    0.000
593.100; 5188.425;  194.375;    0.000
593.224; 5285.425;  235.375;    0.000
593.349; 5263.425;  233.375;    0.000
593.473; 5089.425;  194.375;    0.000
593.597; 5056.425;  215.375;    0.000
593.721; 4972.425;  212.375;    0.000
593.844; 4992.425;  220.375;    0.000
593.968; 5007.425;  221.375;    0.000
594.092; 4846.425;  150.375;    0.000
594.216; 4940.425;  212.375;    0.000
594.340; 4724.425;  209.375;    0.000
594.464; 4738.425;  207.375;    0.000
594.588; 4711.425;  195.375;    0.000
594.712; 4591.425;  176.375;    0.000
594.836; 4478.425;  219.375;    0.000
594.959; 4580.425;  215.375;    0.000
595.083; 4431.425;  200.375;    0.000
595.207; 4491.425;  206.375;    0.000
595.331; 4381.425;  207.375;    0.000
595.455; 4339.425;  206.375;    0.000
595.578; 4316.425;  204.375;    0.000
595.702; 4301.425;  225.375;    0.000
595.826; 4317.425;  186.375;    0.000
595.949; 4192.425;  196.375;    0.000
596.073; 4221.425;  188.375;    0.000
596.197; 4302.425;  217.375;    0.000
596.320; 4118.425;  225.375;    0.000
596.444; 4140.425;  220.375;    0.000
596.568; 4150.425;  155.375;    0.000
596.691; 4060.425;  195.375;    0.000
596.815; 4065.425;  163.375;    0.000
596.938; 4007.425;  181.375;    0.000
597.062; 4056.425;  201.375;    0.000
597.186; 3943.425;  200.375;    0.000
597.309; 4012.425;  214.375;    0.000
597.433; 3944.425;  176.375;    0.000
597.556; 3935.425;  193.375;    0.000
597.680; 3968.425;  241.375;    0.000
597.803; 3939.425;  185.375;    0.000
597.926; 3862.425;  200.375;    0.000
598.050; 3858.425;  193.375;    0.000
598.173; 3895.425;  219.375;    0.000
598.297; 3736.425;  223.375;    0.000
598.420; 3751.425;  187.375;    0.000
598.543; 3853.425;  205.375;    0.000
598.667; 3807.425;  177.375;    0.000
598.790; 3767.425;  208.375;    0.000
598.913; 3740.425;  170.375;    0.000
599.037; 3801.425;  212.375;    0.000
599.160; 3774.425;  165.375;    0.000
599.283; 3759.425;  211.375;    0.000
599.406; 3689.425;  207.375;    0.000
599.530; 3642.425;  182.375;    0.000
599.653; 3650.425;  215.375;    0.000
599.776; 3743.425;  167.375;    0.000
599.899; 3709.425;  190.375;    0.000
600.022; 3716.425;  182.375;    0.000
600.145; 3627.425;  180.375;    0.000
600.269; 3715.425;  208.375;    0.000
600.392; 3547.425;  214.375;    0.000
600.515; 3676.425;  196.375;    0.000
600.638; 3510.425;  204.375;    0.000
600.761; 3585.425;  209.375;    0.000
600.884; 3579.425;  207.375;    0.000
601.007; 3541.425;  234.375;    0.000
601.130; 3598.425;  183.375;    0.000
601.253; 3521.425;  211.375;    0.000
601.376; 3512.425;  199.375;    0.000
601.499; 3499.425;  190.375;    0.000
601.622; 3578.425;  210.375;    0.000
601.745; 3469.425;  180.375;    0.000
601.868; 3498.425;  204.375;    0.000
601.991; 3416.425;  188.375;    0.000
602.113; 3463.425;  210.375;    0.000
602.236; 3487.425;  194.375;    0.000
602.359; 3486.425;  213.375;    0.000
602.482; 3525.425;  169.375;    0.000
602.605; 3484.425;  189.375;    0.000
602.728; 3485.425;  236.375;    0.000
602.850; 3483.425;  230.375;    0.000
602.973; 3469.425;  187.375;    0.000
603.096; 3536.425;  201.375;    0.000
603.219; 3396.425;  209.375;    0.000
603.341; 3410.425;  209.375;    0.000
603.464; 3509.425;  194.375;    0.000
603.587; 3488.425;  166.375;    0.000
603.709; 3384.425;  175.375;    0.000
603.832; 3472.425;  239.375;    0.000
603.955; 3481.425;  205.375;    0.000
604.077; 3466.425;  196.375;    0.000
604.200; 3442.425;  188.375;    0.000
604.323; 3268.425;  224.375;    0.000
604.445; 3478.425;  182.375;    0.000
604.568; 3406.425;  199.375;    0.000
604.690; 3309.425;  175.375;    0.000
604.813; 3325.425;  211.375;    0.000
604.935; 3414.425;  171.375;    0.000
605.058; 3373.425;  196.375;    0.000
605.180; 3421.425;  194.375;    0.000
605.303; 3364.425;  198.375;    0.000
605.425; 3352.425;  212.375;    0.000
605.547; 3441.425;  238.375;    0.000
605.670; 3362.425;  207.375;    0.000
605.792; 3346.425;  204.375;    0.000
605.915; 3420.425;  198.375;    0.000
606.037; 3404.425;  215.375;    0.000
606.159; 3362.425;  170.375;    0.000
606.282; 3355.425;  194.375;    0.000
606.404; 3337.425;  207.375;    0.000
606.526; 3362.425;  208.375;    0.000
606.648; 3366.425;  174.375;    0.000
606.771; 3305.425;  170.375;    0.000
606.893; 3293.425;  182.375;    0.000
607.015; 3298.425;  180.375;    0.000
607.137; 3339.425;  187.375;    0.000
607.260; 3219.425;  202.375;    0.000
607.382; 3326.425;  226.375;    0.000
607.504; 3340.425;  208.375;    0.000
607.626; 3279.425;  229.375;    0.000
607.748; 3283.425;  170.375;    0.000
607.870; 3291.425;  208.375;    0.000
607.992; 3269.425;  184.375;    0.000
608.114; 3302.425;  213.375;    0.000
608.237; 3379.425;  237.375;    0.000
608.359; 3225.425;  176.375;    0.000
608.481; 3257.425;  173.375;    0.000
608.603; 3314.425;  189.375;    0.000
608.725; 3305.425;  185.375;    0.000
608.847; 3263.425;  239.375;    0.000
608.969; 3316.425;  237.375;    0.000
609.090; 3314.425;  189.375;    0.000
609.212; 3183.425;  147.375;    0.000
609.334; 3290.425;  177.375;    0.000
609.456; 3283.425;  196.375;    0.000
609.578; 3224.425;  199.375;    0.000
609.700; 3215.425;  167.375;    0.000
609.822; 3289.425;  140.375;    0.000
609.944; 3333.425;  225.375;    0.000
610.065; 3207.425;  183.375;    0.000
610.187; 3220.425;  170.375;    0.000
610.309; 3283.425;  210.375;    0.000
610.431; 3150.425;  185.375;    0.000
610.552; 3244.425;  197.375;    0.000
610.674; 3233.425;  188.375;    0.000
610.796; 3230.425;  162.375;    0.000
610.918; 3187.425;  200.375;    0.000
611.039; 3139.425;  209.375;    0.000
611.161; 3204.425;  201.375;    0.000
611.282; 3346.425;  197.375;    0.000
611.404; 3199.425;  220.375;    0.000
611.526; 3129.425;  159.375;    0.000
611.647; 3253.425;  205.375;    0.000
611.769; 3184.425;  161.375;    0.000
611.890; 3267.425;  173.375;    0.000
612.012; 3201.425;  225.375;    0.000
612.133; 3226.425;  188.375;    0.000
612.255; 3164.425;  217.375;    0.000
612.377; 3174.425;  219.375;    0.000
612.498; 3093.425;  177.375;    0.000
612.619; 3242.425;  211.375;    0.000
612.741; 3151.425;  185.375;    0.000
612.862; 3238.425;  191.375;    0.000
612.984; 3157.425;  190.375;    0.000
613.105; 3222.425;  211.375;    0.000
613.226; 3139.425;  174.375;    0.000
613.348; 3113.425;  235.375;    0.000
613.469; 3271.425;  230.375;    0.000
613.590; 3116.425;  208.375;    0.000
613.712; 3141.425;  244.375;    0.000
613.833; 3133.425;  202.375;    0.000
613.954; 3206.425;  228.375;    0.000
614.076; 3091.425;  220.375;    0.000
614.197; 3198.425;  191.375;    0.000
614.318; 3168.425;  201.375;    0.000
614.439; 3172.425;  212.375;    0.000
614.560; 3089.425;  219.375;    0.000
614.682; 3123.425;  189.375;    0.000
614.803; 3209.425;  188.375;    0.000
614.924; 3172.425;  225.375;    0.000
615.045; 3132.425;  227.375;    0.000
615.166; 3220.425;  200.375;    0.000
615.287; 3193.425;  195.375;    0.000
615.408; 3462.425;  199.375;    0.000
615.529; 3460.425;  227.375;    0.000
615.650; 3312.425;  176.375;    0.000
615.771; 3290.425;  211.375;    0.000
615.892; 3250.425;  212.375;    0.000
616.013; 3671.425;  172.375;    0.000
616.134; 3838.425;  220.375;    0.000
616.255; 3628.425;  251.375;    0.000
616.376; 3451.425;  186.375;    0.000
616.497; 3309.425;  201.375;    0.000
616.618; 3201.425;  149.375;    0.000
616.739; 3321.425;  213.375;    0.000
616.860; 3268.425;  224.375;    0.000
616.981; 3129.425;  224.375;    0.000
617.102; 3164.425;  217.375;    0.000
617.222; 3288.425;  237.375;    0.000
617.343; 3124.425;  205.375;    0.000
617.464; 3202.425;  229.375;    0.000
617.585; 3218.425;  227.375;    0.000
617.705; 3116.425;  191.375;    0.000
617.826; 3102.425;  237.375;    0.000
617.947; 3134.425;  223.375;    0.000
618.068; 3057.425;  189.375;    0.000
618.188; 3147.425;  194.375;    0.000
618.309; 3126.425;  206.375;    0.000
618.430; 3091.425;  229.375;    0.000
618.550; 3077.425;  250.375;    0.000
618.671; 3112.425;  201.375;    0.000
618.791; 3131.425;  226.375;    0.000
618.912; 3093.425;  246.375;    0.000
619.033; 3135.425;  243.375;    0.000
619.153; 3056.425;  208.375;    0.000
619.274; 3062.425;  223.375;    0.000
619.394; 3185.425;  226.375;    0.000
619.515; 3030.425;  188.375;    0.000
619.635; 3115.425;  216.375;    0.000
619.756; 3070.425;  229.375;    0.000
619.876; 2979.425;  216.375;    0.000
619.996; 3058.425;  244.375;    0.000
620.117; 3061.425;  225.375;    0.000
620.237; 2977.425;  207.375;    0.000
620.358; 3127.425;  239.375;    0.000
620.478; 3027.425;  237.375;    0.000
620.598; 3031.425;  237.375;    0.000
620.719; 3006.425;  223.375;    0.000
620.839; 3102.425;  254.375;    0.000
620.959; 3055.425;  244.375;    0.000
621.079; 3013.425;  193.375;    0.000
621.200; 3053.425;  233.375;    0.000
621.320; 2993.425;  270.375;    0.000
621.440; 2999.425;  206.375;    0.000
621.560; 3023.425;  241.375;    0.000
621.681; 2980.425;  231.375;    0.000
621.801; 3048.425;  235.375;    0.000
621.921; 3068.425;  240.375;    0.000
622.041; 2953.425;  244.375;    0.000
622.161; 3017.425;  225.375;    0.000
622.281; 3062.425;  222.375;    0.000
622.401; 2908.425;  238.375;    0.000
622.521; 3026.425;  233.375;    0.000
622.641; 2946.425;  241.375;    0.000
622.761; 3120.425;  233.375;    0.000
622.882; 2969.425;  230.375;    0.000
623.002; 2902.425;  206.375;    0.000
623.121; 2993.425;  217.375;    0.000
623.241; 3049.425;  263.375;    0.000
623.361; 2930.425;  245.375;    0.000
623.481; 3014.425;  194.375;    0.000
623.601; 3011.425;  228.375;    0.000
623.721; 3020.425;  219.375;    0.000
623.841; 3108.425;  234.375;    0.000
623.961; 3025.425;  235.375;    0.000
624.081; 2841.425;  166.375;    0.000
624.201; 2933.425;  229.375;    0.000
624.320; 2918.425;  224.375;    0.000
624.440; 2948.425;  200.375;    0.000
624.560; 2944.425;  220.375;    0.000
624.680; 2986.425;  214.375;    0.000
624.799; 3002.425;  179.375;    0.000
624.919; 2857.425;  199.375;    0.000
625.039; 2934.425;  211.375;    0.000
625.159; 2932.425;  213.375;    0.000
625.278; 2907.425;  178.375;    0.000
625.398; 3039.425;  206.375;    0.000
625.518; 2884.425;  182.375;    0.000
625.637; 2895.425;  206.375;    0.000
625.757; 2958.425;  197.375;    0.000
625.876; 2847.425;  204.375;    0.000
625.996; 2935.425;  222.375;    0.000
626.115; 2904.425;  222.375;    0.000
626.235; 2917.425;  222.375;    0.000
626.354; 2893.425;  211.375;    0.000
626.474; 2861.425;  217.375;    0.000
626.594; 2909.425;  190.375;    0.000
626.713; 2946.425;  200.375;    0.000
626.832; 2934.425;  234.375;    0.000
626.952; 2872.425;  214.375;    0.000
627.071; 2922.425;  243.375;    0.000
627.191; 2906.425;  192.375;    0.000
627.310; 2839.425;  211.375;    0.000
627.429; 2877.425;  218.375;    0.000
627.549; 2858.425;  214.375;    0.000
627.668; 2767.425;  208.375;    0.000
627.787; 2885.425;  199.375;    0.000
627.907; 2881.425;  208.375;    0.000
628.026; 2890.425;  216.375;    0.000
628.145; 2863.425;  170.375;    0.000
628.264; 2815.425;  217.375;    0.000
628.384; 2842.425;  190.375;    0.000
628.503; 2880.425;  203.375;    0.000
628.622; 2863.425;  197.375;    0.000
628.741; 2893.425;  186.375;    0.000
628.860; 2917.425;  191.375;    0.000
628.980; 2861.425;  196.375;    0.000
629.099; 2790.425;  190.375;    0.000
629.218; 2723.425;  165.375;    0.000
629.337; 2812.425;  190.375;    0.000
629.456; 2868.425;  222.375;    0.000
629.575; 2886.425;  197.375;    0.000
629.694; 2831.425;  210.375;    0.000
629.813; 2831.425;  187.375;    0.000
629.932; 2832.425;  224.375;    0.000
630.051; 2860.425;  216.375;    0.000
630.170; 2799.425;  203.375;    0.000
630.289; 2871.425;  178.375;    0.000
630.408; 2775.425;  192.375;    0.000
630.527; 2828.425;  223.375;    0.000
630.646; 2834.425;  177.375;    0.000
630.764; 2825.425;  224.375;    0.000
630.883; 2869.425;  220.375;    0.000
631.002; 2731.425;  187.375;    0.000
631.121; 2804.425;  208.375;    0.000
631.240; 2839.425;  217.375;    0.000
631.359; 2844.425;  241.375;    0.000
631.477; 2902.425;  189.375;    0.000
631.596; 2821.425;  244.375;    0.000
631.715; 2848.425;  241.375;    0.000
631.834; 2809.425;  219.375;    0.000
631.952; 2834.425;  231.375;    0.000
632.071; 2881.425;  197.375;    0.000
632.190; 2798.425;  193.375;    0.000
632.308; 2840.425;  185.375;    0.000
632.427; 2804.425;  188.375;    0.000
632.546; 2729.425;  208.375;    0.000
632.664; 2680.425;  191.375;    0.000
632.783; 2747.425;  201.375;    0.000
632.901; 2800.425;  239.375;    0.000
633.020; 2808.425;  197.375;    0.000
633.138; 2792.425;  189.375;    0.000
633.257; 2814.425;  210.375;    0.000
633.375; 2861.425;  213.375;    0.000
633.494; 2742.425;  206.375;    0.000
633.612; 2810.425;  231.375;    0.000
633.731; 2734.425;  213.375;    0.000
633.849; 2757.425;  244.375;    0.000
633.968; 2752.425;  251.375;    0.000
634.086; 2761.425;  224.375;    0.000
634.204; 2825.425;  212.375;    0.000
634.323; 2819.425;  213.375;    0.000
634.441; 2820.425;  219.375;    0.000
634.559; 2740.425;  198.375;    0.000
634.678; 2742.425;  201.375;    0.000
634.796; 2812.425;  179.375;    0.000
634.914; 2805.425;  255.375;    0.000
635.032; 2890.425;  264.375;    0.000
635.151; 2720.425;  228.375;    0.000
635.269; 2855.425;  223.375;    0.000
635.387; 2748.425;  228.375;    0.000
635.505; 2702.425;  214.375;    0.000
635.623; 2731.425;  279.375;    0.000
635.742; 2732.425;  237.375;    0.000
635.860; 2721.425;  244.375;    0.000
635.978; 2746.425;  213.375;    0.000
636.096; 2701.425;  230.375;    0.000
636.214; 2807.425;  252.375;    0.000
636.332; 2664.425;  221.375;    0.000
636.450; 2832.425;  227.375;    0.000
636.568; 2737.425;  193.375;    0.000
636.686; 2664.425;  208.375;    0.000
636.804; 2735.425;  213.375;    0.000
636.922; 2676.425;  199.375;    0.000
637.040; 2674.425;  202.375;    0.000
637.158; 2750.425;  239.375;    0.000
637.276; 2782.425;  225.375;    0.000
637.394; 2735.425;  217.375;    0.000
637.512; 2706.425;  192.375;    0.000
637.629; 2731.425;  216.375;    0.000
637.747; 2675.425;  198.375;    0.000
637.865; 2733.425;  265.375;    0.000
637.983; 2697.425;  245.375;    0.000
638.101; 2701.425;  199.375;    0.000
638.218; 2639.425;  197.375;    0.000
638.336; 2723.425;  212.375;    0.000
638.454; 2700.425;  227.375;    0.000
638.572; 2738.425;  215.375;    0.000
638.689; 2746.425;  214.375;    0.000
638.807; 2697.425;  233.375;    0.000
638.925; 2793.425;  217.375;    0.000
639.042; 2642.425;  180.375;    0.000
639.160; 2629.425;  220.375;    0.000
639.278; 2655.425;  180.375;    0.000
639.395; 2724.425;  243.375;    0.000
639.513; 2726.425;  207.375;    0.000
639.630; 2665.425;  183.375;    0.000
639.748; 2654.425;  231.375;    0.000
639.865; 2685.425;  215.375;    0.000
639.983; 2730.425;  182.375;    0.000
640.100; 2699.425;  190.375;    0.000
640.218; 2678.425;  224.375;    0.000
640.335; 2731.425;  214.375;    0.000
640.453; 2688.425;  212.375;    0.000
640.570; 2681.425;  224.375;    0.000
640.688; 2621.425;  220.375;    0.000
640.805; 2645.425;  189.375;    0.000
640.922; 2673.425;  256.375;    0.000
641.040; 2706.425;  209.375;    0.000
641.157; 2690.425;  195.375;    0.000
641.274; 2782.425;  195.375;    0.000
641.391; 2754.425;  231.375;    0.000
641.509; 2652.425;  207.375;    0.000
641.626; 2667.425;  227.375;    0.000
641.743; 2687.425;  188.375;    0.000
641.860; 2749.425;  208.375;    0.000
641.978; 2713.425;  222.375;    0.000
642.095; 2756.425;  194.375;    0.000
642.212; 2633.425;  202.375;    0.000
642.329; 2645.425;  241.375;    0.000
642.446; 2600.425;  261.375;    0.000
642.563; 2696.425;  236.375;    0.000
642.681; 2590.425;  228.375;    0.000
642.798; 2656.425;  242.375;    0.000
642.915; 2650.425;  197.375;    0.000
643.032; 2684.425;  239.375;    0.000
643.149; 2744.425;  241.375;    0.000
643.266; 2753.425;  199.375;    0.000
643.383; 2750.425;  200.375;    0.000
643.500; 2635.425;  221.375;    0.000
643.617; 2692.425;  196.375;    0.000
643.734; 2736.425;  207.375;    0.000
643.850; 2684.425;  222.375;    0.000
643.967; 2731.425;  235.375;    0.000
644.084; 2721.425;  233.375;    0.000
644.201; 2710.425;  229.375;    0.000
644.318; 2686.425;  210.375;    0.000
644.435; 2790.425;  234.375;    0.000
644.552; 2653.425;  220.375;    0.000
644.668; 2816.425;  231.375;    0.000
644.785; 2715.425;  231.375;    0.000
644.902; 2687.425;  238.375;    0.000
645.019; 2727.425;  226.375;    0.000
645.135; 2686.425;  179.375;    0.000
645.252; 2716.425;  224.375;    0.000
645.369; 2775.425;  206.375;    0.000
645.485; 2749.425;  200.375;    0.000
645.602; 2737.425;  210.375;    0.000
645.719; 2727.425;  206.375;    0.000
645.835; 2712.425;  247.375;    0.000
645.952; 2817.425;  222.375;    0.000
646.068; 2640.425;  205.375;    0.000
646.185; 2794.425;  230.375;    0.000
646.302; 2845.425;  254.375;    0.000
646.418; 2776.425;  230.375;    0.000
646.535; 2748.425;  214.375;    0.000
646.651; 2754.425;  179.375;    0.000
646.768; 2793.425;  190.375;    0.000
646.884; 2798.425;  208.375;    0.000
647.000; 2912.425;  262.375;    0.000
647.117; 2884.425;  212.375;    0.000
647.233; 2785.425;  228.375;    0.000
647.350; 2830.425;  208.375;    0.000
647.466; 2821.425;  211.375;    0.000
647.582; 2836.425;  196.375;    0.000
647.699; 2858.425;  217.375;    0.000
647.815; 2788.425;  203.375;    0.000
647.931; 2843.425;  201.375;    0.000
648.047; 2872.425;  182.375;    0.000
648.164; 2894.425;  219.375;    0.000
648.280; 2859.425;  213.375;    0.000
648.396; 2886.425;  202.375;    0.000
648.512; 3003.425;  233.375;    0.000
648.629; 2912.425;  206.375;    0.000
648.745; 2981.425;  188.375;    0.000
648.861; 2915.425;  209.375;    0.000
648.977; 2923.425;  218.375;    0.000
649.093; 2873.425;  225.375;    0.000
649.209; 2952.425;  240.375;    0.000
649.325; 2926.425;  253.375;    0.000
649.441; 2913.425;  263.375;    0.000
649.557; 2961.425;  256.375;    0.000
649.673; 2950.425;  211.375;    0.000
649.789; 2996.425;  237.375;    0.000
649.905; 2897.425;  183.375;    0.000
650.021; 3038.425;  238.375;    0.000
650.137; 2926.425;  241.375;    0.000
650.253; 3067.425;  228.375;    0.000
650.369; 2942.425;  221.375;    0.000
650.485; 2992.425;  240.375;    0.000
650.601; 2969.425;  254.375;    0.000
650.717; 2957.425;  201.375;    0.000
650.833; 3035.425;  257.375;    0.000
650.948; 2973.425;  213.375;    0.000
651.064; 3050.425;  223.375;    0.000
651.180; 3088.425;  230.375;    0.000
651.296; 3068.425;  235.375;    0.000
651.411; 3075.425;  221.375;    0.000
651.527; 3048.425;  233.375;    0.000
651.643; 3155.425;  236.375;    0.000
651.759; 3104.425;  268.375;    0.000
651.874; 3114.425;  214.375;    0.000
651.990; 3175.425;  251.375;    0.000
652.105; 3114.425;  217.375;    0.000
652.221; 3243.425;  243.375;    0.000
652.337; 3166.425;  231.375;    0.000
652.452; 3275.425;  238.375;    0.000
652.568; 3251.425;  188.375;    0.000
652.683; 3293.425;  197.375;    0.000
652.799; 3229.425;  194.375;    0.000
652.914; 3271.425;  222.375;    0.000
653.030; 3297.425;  200.375;    0.000
653.145; 3249.425;  235.375;    0.000
653.261; 3368.425;  261.375;    0.000
653.376; 3420.425;  228.375;    0.000
653.492; 3487.425;  222.375;    0.000
653.607; 3492.425;  227.375;    0.000
653.722; 3564.425;  250.375;    0.000
653.838; 3638.425;  255.375;    0.000
653.953; 3562.425;  235.375;    0.000
654.068; 3735.425;  266.375;    0.000
654.184; 3676.425;  210.375;    0.000
654.299; 3812.425;  240.375;    0.000
654.414; 3765.425;  222.375;    0.000
654.530; 3783.425;  222.375;    0.000
654.645; 3841.425;  256.375;    0.000
654.760; 3926.425;  244.375;    0.000
654.875; 4106.425;  229.375;    0.000
654.990; 4002.425;  226.375;    0.000
655.106; 4247.425;  254.375;    0.000
655.221; 4272.425;  251.375;    0.000
655.336; 4405.425;  245.375;    0.000
655.451; 4527.425;  199.375;    0.000
655.566; 4607.425;  228.375;    0.000
655.681; 4687.425;  208.375;    0.000
655.796; 4876.425;  218.375;    0.000
655.911; 4894.425;  233.375;    0.000
656.026; 5077.425;  232.375;    0.000
656.141; 5303.425;  223.375;    0.000
656.256; 5259.425;  247.375;    0.000
656.371; 5386.425;  220.375;    0.000
656.486; 5437.425;  225.375;    0.000
656.601; 5444.425;  257.375;    0.000
656.716; 5345.425;  248.375;    0.000
656.831; 5113.425;  262.375;    0.000
656.946; 5105.425;  249.375;    0.000
657.060; 5068.425;  245.375;    0.000
657.175; 4830.425;  245.375;    0.000
657.290; 4872.425;  219.375;    0.000
657.405; 4838.425;  286.375;    0.000
657.520; 4664.425;  259.375;    0.000
657.634; 4554.425;  239.375;    0.000
657.749; 4553.425;  227.375;    0.000
657.864; 4400.425;  210.375;    0.000
657.979; 4379.425;  236.375;    0.000
658.093; 4240.425;  210.375;    0.000
658.208; 4193.425;  248.375;    0.000
658.323; 4032.425;  216.375;    0.000
658.437; 4126.425;  248.375;    0.000
658.552; 4057.425;  249.375;    0.000
658.666; 3900.425;  256.375;    0.000
658.781; 3966.425;  247.375;    0.000
658.895; 3872.425;  209.375;    0.000
659.010; 3937.425;  219.375;    0.000
659.125; 3852.425;  215.375;    0.000
659.239; 3700.425;  205.375;    0.000
659.353; 3623.425;  246.375;    0.000
659.468; 3662.425;  245.375;    0.000
659.582; 3590.425;  244.375;    0.000
659.697; 3548.425;  242.375;    0.000
659.811; 3570.425;  239.375;    0.000
659.926; 3481.425;  226.375;    0.000
660.040; 3541.425;  255.375;    0.000
660.154; 3429.425;  225.375;    0.000
660.269; 3400.425;  200.375;    0.000
660.383; 3399.425;  192.375;    0.000
660.497; 3298.425;  218.375;    0.000
660.612; 3370.425;  236.375;    0.000
660.726; 3314.425;  263.375;    0.000
660.840; 3236.425;  205.375;    0.000
660.954; 3209.425;  219.375;    0.000
661.068; 3159.425;  240.375;    0.000
661.183; 3171.425;  221.375;    0.000
661.297; 3199.425;  194.375;    0.000
661.411; 3098.425;  253.375;    0.000
661.525; 3094.425;  246.375;    0.000
661.639; 3113.425;  217.375;    0.000
661.753; 2979.425;  241.375;    0.000
661.867; 3101.425;  276.375;    0.000
661.981; 2985.425;  203.375;    0.000
662.095; 2941.425;  224.375;    0.000
662.209; 3032.425;  217.375;    0.000
662.323; 2963.425;  251.375;    0.000
662.437; 2864.425;  243.375;    0.000
662.551; 2950.425;  244.375;    0.000
662.665; 2884.425;  247.375;    0.000
662.779; 2870.425;  251.375;    0.000
662.893; 2889.425;  254.375;    0.000
663.007; 2768.425;  222.375;    0.000
663.121; 2865.425;  253.375;    0.000
663.235; 2878.425;  270.375;    0.000
663.349; 2781.425;  242.375;    0.000
663.462; 2776.425;  230.375;    0.000
663.576; 2790.425;  230.375;    0.000
663.690; 2724.425;  249.375;    0.000
663.804; 2653.425;  200.375;    0.000
663.917; 2630.425;  204.375;    0.000
664.031; 2626.425;  206.375;    0.000
664.145; 2689.425;  202.375;    0.000
664.258; 2650.425;  221.375;    0.000
664.372; 2596.425;  215.375;    0.000
664.486; 2663.425;  179.375;    0.000
664.599; 2613.425;  208.375;    0.000
664.713; 2714.425;  268.375;    0.000
664.827; 2597.425;  225.375;    0.000
664.940; 2666.425;  222.375;    0.000
665.054; 2545.425;  208.375;    0.000
665.167; 2532.425;  253.375;    0.000
665.281; 2573.425;  237.375;    0.000
665.394; 2556.425;  227.375;    0.000
665.508; 2503.425;  192.375;    0.000
665.621; 2484.425;  175.375;    0.000
665.735; 2584.425;  249.375;    0.000
665.848; 2526.425;  197.375;    0.000
665.961; 2506.425;  206.375;    0.000
666.075; 2559.425;  245.375;    0.000
666.188; 2526.425;  230.375;    0.000
666.301; 2446.425;  219.375;    0.000
666.415; 2423.425;  231.375;    0.000
666.528; 2541.425;  258.375;    0.000
666.641; 2435.425;  243.375;    0.000
666.755; 2435.425;  208.375;    0.000
666.868; 2413.425;  228.375;    0.000
666.981; 2501.425;  244.375;    0.000
667.094; 2372.425;  244.375;    0.000
667.207; 2389.425;  226.375;    0.000
667.321; 2477.425;  175.375;    0.000
667.434; 2360.425;  211.375;    0.000
667.547; 2488.425;  249.375;    0.000
667.660; 2354.425;  225.375;    0.000
667.773; 2380.425;  242.375;    0.000
667.886; 2330.425;  246.375;    0.000
667.999; 2348.425;  244.375;    0.000
668.112; 2318.425;  227.375;    0.000
668.225; 2347.425;  231.375;    0.000
668.338; 2382.425;  256.375;    0.000
668.451; 2297.425;  216.375;    0.000
668.564; 2268.425;  261.375;    0.000
668.677; 2263.425;  230.375;    0.000
668.790; 2299.425;  192.375;    0.000
668.903; 2319.425;  243.375;    0.000
669.016; 2252.425;  201.375;    0.000
669.129; 2334.425;  249.375;    0.000
669.242; 2263.425;  190.375;    0.000
669.354; 2227.425;  219.375;    0.000
669.467; 2265.425;  242.375;    0.000
669.580; 2276.425;  237.375;    0.000
669.693; 2215.425;  243.375;    0.000
669.806; 2259.425;  234.375;    0.000
669.918; 2219.425;  206.375;    0.000
670.031; 2306.425;  258.375;    0.000
670.144; 2288.425;  231.375;    0.000
670.256; 2227.425;  244.375;    0.000
670.369; 2245.425;  262.375;    0.000
670.482; 2233.425;  264.375;    0.000
670.594; 2217.425;  256.375;    0.000
670.707; 2154.425;  224.375;    0.000
670.820; 2217.425;  261.375;    0.000
670.932; 2268.425;  226.375;    0.000
671.045; 2192.425;  243.375;    0.000
671.157; 2242.425;  235.375;    0.000
671.270; 2269.425;  217.375;    0.000
671.382; 2200.425;  267.375;    0.000
671.495; 2176.425;  258.375;    0.000
671.607; 2146.425;  236.375;    0.000
671.720; 2227.425;  200.375;    0.000
671.832; 2112.425;  219.375;    0.000
671.944; 2152.425;  234.375;    0.000
672.057; 2172.425;  226.375;    0.000
672.169; 2203.425;  225.375;    0.000
672.281; 2161.425;  253.375;    0.000
672.394; 2212.425;  238.375;    0.000
672.506; 2206.425;  244.375;    0.000
672.618; 2124.425;  272.375;    0.000
672.731; 2147.425;  247.375;    0.000
672.843; 2144.425;  261.375;    0.000
672.955; 2186.425;  262.375;    0.000
673.067; 2229.425;  253.375;    0.000
673.180; 2120.425;  239.375;    0.000
673.292; 2143.425;  240.375;    0.000
673.404; 2130.425;  243.375;    0.000
673.516; 2205.425;  258.375;    0.000
673.628; 2176.425;  263.375;    0.000
673.740; 2042.425;  250.375;    0.000
673.852; 2103.425;  285.375;    0.000
673.964; 2189.425;  264.375;    0.000
674.076; 2152.425;  260.375;    0.000
674.188; 2120.425;  226.375;    0.000
674.300; 2155.425;  272.375;    0.000
674.412; 2017.425;  259.375;    0.000
674.524; 2184.425;  283.375;    0.000
674.636; 2108.425;  259.375;    0.000
674.748; 2046.425;  238.375;    0.000
674.860; 2171.425;  277.375;    0.000
674.972; 2146.425;  272.375;    0.000
675.084; 2102.425;  244.375;    0.000
675.196; 2060.425;  272.375;    0.000
675.307; 2057.425;  244.375;    0.000
675.419; 2093.425;  219.375;    0.000
675.531; 2085.425;  275.375;    0.000
675.643; 2047.425;  215.375;    0.000
675.755; 2050.425;  243.375;    0.000
675.866; 2072.425;  223.375;    0.000
675.978; 2102.425;  216.375;    0.000
676.090; 2048.425;  242.375;    0.000
676.201; 2015.425;  276.375;    0.000
676.313; 1997.425;  226.375;    0.000
676.425; 2078.425;  234.375;    0.000
676.536; 2009.425;  231.375;    0.000
676.648; 2028.425;  254.375;    0.000
676.759; 2069.425;  273.375;    0.000
676.871; 2018.425;  250.375;    0.000
676.983; 1975.425;  256.375;    0.000
677.094; 1988.425;  210.375;    0.000
677.206; 2004.425;  248.375;    0.000
677.317; 1976.425;  263.375;    0.000
677.429; 1925.425;  238.375;    0.000
677.540; 2019.425;  247.375;    0.000
677.651; 1976.425;  224.375;    0.000
677.763; 2056.425;  217.375;    0.000
677.874; 1992.425;  234.375;    0.000
677.986; 1962.425;  238.375;    0.000
678.097; 1961.425;  226.375;    0.000
678.208; 1944.425;  253.375;    0.000
678.320; 1982.425;  217.375;    0.000
678.431; 2018.425;  238.375;    0.000
678.542; 1949.425;  236.375;    0.000
678.653; 1924.425;  218.375;    0.000
678.765; 1992.425;  275.375;    0.000
678.876; 2001.425;  213.375;    0.000
678.987; 1889.425;  182.375;    0.000
679.098; 1930.425;  221.375;    0.000
679.209; 1928.425;  238.375;    0.000
679.320; 1936.425;  212.375;    0.000
679.432; 1904.425;  231.375;    0.000
679.543; 1886.425;  198.375;    0.000
679.654; 1921.425;  191.375;    0.000
679.765; 1960.425;  214.375;    0.000
679.876; 1962.425;  221.375;    0.000
679.987; 1904.425;  162.375;    0.000
680.098; 1899.425;  230.375;    0.000
680.209; 1866.425;  206.375;    0.000
680.320; 1896.425;  196.375;    0.000
680.431; 1933.425;  191.375;    0.000
680.542; 1902.425;  214.375;    0.000
680.653; 2011.425;  238.375;    0.000
680.763; 1939.425;  182.375;    0.000
680.874; 1888.425;  213.375;    0.000
680.985; 1886.425;  224.375;    0.000
681.096; 1909.425;  222.375;    0.000
681.207; 1925.425;  220.375;    0.000
681.318; 1875.425;  216.375;    0.000
681.428; 1974.425;  229.375;    0.000
681.539; 1849.425;  183.375;    0.000
681.650; 1898.425;  202.375;    0.000
681.760; 1902.425;  223.375;    0.000
681.871; 1853.425;  211.375;    0.000
681.982; 1885.425;  189.375;    0.000
682.093; 1906.425;  222.375;    0.000
682.203; 1859.425;  220.375;    0.000
682.314; 1887.425;  214.375;    0.000
682.424; 1886.425;  208.375;    0.000
682.535; 1848.425;  213.375;    0.000
682.646; 1899.425;  302.375;    0.000
682.756; 1907.425;  255.375;    0.000
682.867; 1969.425;  244.375;    0.000
682.977; 1823.425;  221.375;    0.000
683.088; 1900.425;  259.375;    0.000
683.198; 1897.425;  212.375;    0.000
683.308; 1813.425;  202.375;    0.000
683.419; 1886.425;  255.375;    0.000
683.529; 1841.425;  217.375;    0.000
683.640; 1902.425;  240.375;    0.000
683.750; 1830.425;  181.375;    0.000
683.860; 1900.425;  246.375;    0.000
683.971; 1871.425;  254.375;    0.000
684.081; 1834.425;  235.375;    0.000
684.191; 1947.425;  251.375;    0.000
684.301; 1863.425;  233.375;    0.000
684.412; 1828.425;  202.375;    0.000
684.522; 1911.425;  232.375;    0.000
684.632; 1881.425;  202.375;    0.000
684.742; 1885.425;  254.375;    0.000
684.852; 1811.425;  219.375;    0.000
684.963; 1848.425;  256.375;    0.000
685.073; 1855.425;  253.375;    0.000
685.183; 1870.425;  254.375;    0.000
685.293; 1810.425;  232.375;    0.000
685.403; 1815.425;  242.375;    0.000
685.513; 1808.425;  261.375;    0.000
685.623; 1887.425;  245.375;    0.000
685.733; 1885.425;  254.375;    0.000
685.843; 1885.425;  249.375;    0.000
685.953; 1883.425;  252.375;    0.000
686.063; 1864.425;  227.375;    0.000
686.173; 1763.425;  223.375;    0.000
686.283; 1838.425;  234.375;    0.000
686.393; 1810.425;  239.375;    0.000
686.503; 1863.425;  231.375;    0.000
686.612; 1876.425;  232.375;    0.000
686.722; 1887.425;  258.375;    0.000
686.832; 1869.425;  256.375;    0.000
686.942; 1827.425;  230.375;    0.000
687.052; 1933.425;  274.375;    0.000
687.161; 1886.425;  269.375;    0.000
687.271; 1811.425;  218.375;    0.000
687.381; 1786.425;  235.375;    0.000
687.491; 1881.425;  262.375;    0.000
687.600; 1898.425;  256.375;    0.000
687.710; 1793.425;  225.375;    0.000
687.820; 1823.425;  230.375;    0.000
687.929; 1829.425;  226.375;    0.000
688.039; 1854.425;  228.375;    0.000
688.148; 1833.425;  249.375;    0.000
688.258; 1794.425;  237.375;    0.000
688.367; 1915.425;  260.375;    0.000
688.477; 1846.425;  200.375;    0.000
688.586; 1817.425;  223.375;    0.000
688.696; 1810.425;  223.375;    0.000
688.805; 1857.425;  257.375;    0.000
688.915; 1855.425;  185.375;    0.000
689.024; 1833.425;  227.375;    0.000
689.134; 1810.425;  224.375;    0.000
689.243; 1805.425;  206.375;    0.000
689.352; 1784.425;  275.375;    0.000
689.462; 1789.425;  233.375;    0.000
689.571; 1852.425;  244.375;    0.000
689.680; 1803.425;  261.375;    0.000
689.790; 1728.425;  192.375;    0.000
689.899; 1852.425;  214.375;    0.000
690.008; 1770.425;  255.375;    0.000
690.117; 1752.425;  219.375;    0.000
690.227; 1809.425;  241.375;    0.000
690.336; 1804.425;  231.375;    0.000
690.445; 1768.425;  212.375;    0.000
690.554; 1721.425;  234.375;    0.000
690.663; 1788.425;  210.375;    0.000
690.772; 1734.425;  221.375;    0.000
690.881; 1784.425;  244.375;    0.000
690.990; 1728.425;  247.375;    0.000
691.099; 1790.425;  222.375;    0.000
691.209; 1768.425;  240.375;    0.000
691.318; 1777.425;  223.375;    0.000
691.427; 1804.425;  217.375;    0.000
691.536; 1740.425;  216.375;    0.000
691.644; 1777.425;  194.375;    0.000
691.753; 1702.425;  221.375;    0.000
691.862; 1800.425;  224.375;    0.000
691.971; 1834.425;  191.375;    0.000
692.080; 1828.425;  247.375;    0.000
692.189; 1770.425;  208.375;    0.000
692.298; 1731.425;  203.375;    0.000
692.406; 1778.425;  239.375;    0.000
692.515; 1839.425;  250.375;    0.000
692.624; 1786.425;  226.375;    0.000
692.733; 1813.425;  229.375;    0.000
692.842; 1791.425;  254.375;    0.000
692.950; 1851.425;  242.375;    0.000
693.059; 1743.425;  204.375;    0.000
693.168; 1777.425;  252.375;    0.000
693.276; 1794.425;  195.375;    0.000
693.385; 1767.425;  228.375;    0.000
693.494; 1803.425;  282.375;    0.000
693.602; 1771.425;  221.375;    0.000
693.711; 1858.425;  225.375;    0.000
693.819; 1745.425;  234.375;    0.000
693.928; 1747.425;  229.375;    0.000
694.036; 1799.425;  192.375;    0.000
694.145; 1813.425;  233.375;    0.000
694.253; 1775.425;  277.375;    0.000
694.362; 1748.425;  188.375;    0.000
694.470; 1761.425;  263.375;    0.000
694.579; 1769.425;  253.375;    0.000
694.687; 1826.425;  281.375;    0.000
694.795; 1781.425;  233.375;    0.000
694.904; 1746.425;  223.375;    0.000
695.012; 1786.425;  296.375;    0.000
695.120; 1800.425;  227.375;    0.000
695.229; 1747.425;  269.375;    0.000
695.337; 1730.425;  229.375;    0.000
695.445; 1785.425;  244.375;    0.000
695.553; 1721.425;  259.375;    0.000
695.662; 1754.425;  208.375;    0.000
695.770; 1791.425;  241.375;    0.000
695.878; 1821.425;  239.375;    0.000
695.986; 1722.425;  247.375;    0.000
696.094; 1714.425;  224.375;    0.000
696.202; 1721.425;  205.375;    0.000
696.310; 1763.425;  217.375;    0.000
696.419; 1734.425;  228.375;    0.000
696.527; 1787.425;  246.375;    0.000
696.635; 1807.425;  245.375;    0.000
696.743; 1784.425;  233.375;    0.000
696.851; 1783.425;  251.375;    0.000
696.959; 1793.425;  257.375;    0.000
697.067; 1785.425;  260.375;    0.000
697.174; 1763.425;  223.375;    0.000
697.282; 1728.425;  239.375;    0.000
697.390; 1835.425;  264.375;    0.000
697.498; 1698.425;  227.375;    0.000
697.606; 1750.425;  243.375;    0.000
697.714; 1815.425;  256.375;    0.000
697.822; 1798.425;  278.375;    0.000
697.929; 1725.425;  227.375;    0.000
698.037; 1707.425;  232.375;    0.000
698.145; 1809.425;  256.375;    0.000
698.253; 1679.425;  245.375;    0.000
698.360; 1747.425;  282.375;    0.000
698.468; 1706.425;  244.375;    0.000
698.576; 1763.425;  279.375;    0.000
698.683; 1782.425;  259.375;    0.000
698.791; 1779.425;  265.375;    0.000
698.899; 1817.425;  250.375;    0.000
699.006; 1791.425;  245.375;    0.000
699.114; 1785.425;  280.375;    0.000
699.221; 1823.425;  240.375;    0.000
699.329; 1769.425;  293.375;    0.000
699.436; 1742.425;  216.375;    0.000
699.544; 1755.425;  269.375;    0.000
699.651; 1738.425;  219.375;    0.000
699.759; 1717.425;  245.375;    0.000
699.866; 1726.425;  261.375;    0.000
699.974; 1701.425;  245.375;    0.000
700.081; 1739.425;  257.375;    0.000
700.188; 1775.425;  268.375;    0.000
700.296; 1712.425;  225.375;    0.000
700.403; 1767.425;  257.375;    0.000
700.510; 1756.425;  267.375;    0.000
700.618; 1713.425;  299.375;    0.000
700.725; 1727.425;  223.375;    0.000
700.832; 1688.425;  233.375;    0.000
700.940; 1735.425;  255.375;    0.000
701.047; 1690.425;  244.375;    0.000
701.154; 1718.425;  248.375;    0.000
701.261; 1765.425;  264.375;    0.000
701.368; 1726.425;  299.375;    0.000
701.475; 1717.425;  264.375;    0.000
701.582; 1697.425;  275.375;    0.000
701.690; 1701.425;  261.375;    0.000
701.797; 1784.425;  273.375;    0.000
701.904; 1827.425;  320.375;    0.000
702.011; 1768.425;  299.375;    0.000
702.118; 1816.425;  292.375;    0.000
702.225; 1786.425;  317.375;    0.000
702.332; 1744.425;  307.375;    0.000
702.439; 1753.425;  313.375;    0.000
702.546; 1770.425;  312.375;    0.000
702.652; 1734.425;  297.375;    0.000
702.759; 1763.425;  345.375;    0.000
702.866; 1808.425;  330.375;    0.000
702.973; 1802.425;  303.375;    0.000
703.080; 1747.425;  303.375;    0.000
703.187; 1755.425;  327.375;    0.000
703.294; 1761.425;  325.375;    0.000
703.400; 1610.425;  302.375;    0.000
703.507;  477.425;  344.375;    0.000
703.614;  329.425;  294.375;    0.000
703.720;  331.425;  322.375;    0.000
703.827;  320.425;  329.375;    0.000
703.934;  299.425;  318.375;    0.000
704.040;  316.425;  299.375;    0.000
704.147;  358.425;  352.375;    0.000
704.254;  333.425;  350.375;    0.000
704.360;  306.425;  347.375;    0.000
704.467;  335.425;  336.375;    0.000
704.573;  346.425;  344.375;    0.000
704.680;  339.425;  365.375;    0.000
704.786;  322.425;  332.375;    0.000
704.893;  327.425;  304.375;    0.000
704.999;  305.425;  299.375;    0.000
705.106;  325.425;  365.375;    0.000

