
Integration time [ms]:   1.000
Averaging Nr. [scans]: 1
Smoothing Nr. [pixels]: 0
Data measured with spectrometer [name]: VIS
Wave   ;Sample   ;Dark     ;Reference
[nm]   ;[counts] ;[counts] ;[counts] 

450.961;  216.825;  200.375;    0.000
451.100;  216.825;  241.375;    0.000
451.239;  231.825;  201.375;    0.000
451.377;  240.825;  262.375;    0.000
451.516;  195.825;  229.375;    0.000
451.655;  223.825;  211.375;    0.000
451.794;  243.825;  225.375;    0.000
451.932;  228.825;  247.375;    0.000
452.071;  223.825;  260.375;    0.000
452.210;  200.825;  235.375;    0.000
452.348;  236.825;  276.375;    0.000
452.487;  242.825;  259.375;    0.000
452.626;  223.825;  254.375;    0.000
452.764;  228.825;  233.375;    0.000
452.903;  241.825;  202.375;    0.000
453.042;  309.825;  211.375;    0.000
453.180; 3456.825;  240.375;    0.000
453.319; 3494.825;  238.375;    0.000
453.458; 3491.825;  215.375;    0.000
453.596; 3545.825;  252.375;    0.000
453.735; 3669.825;  240.375;    0.000
453.873; 3611.825;  257.375;    0.000
454.012; 3628.825;  228.375;    0.000
454.150; 3570.825;  270.375;    0.000
454.289; 3635.825;  233.375;    0.000
454.427; 3665.825;  243.375;    0.000
454.566; 3774.825;  257.375;    0.000
454.704; 3757.825;  243.375;    0.000
454.843; 3774.825;  190.375;    0.000
454.981; 3794.825;  271.375;    0.000
455.120; 3885.825;  210.375;    0.000
455.258; 3878.825;  235.375;    0.000
455.397; 3849.825;  214.375;    0.000
455.535; 3920.825;  214.375;    0.000
455.674; 3934.825;  184.375;    0.000
455.812; 4013.825;  228.375;    0.000
455.951; 4026.825;  204.375;    0.000
456.089; 4187.825;  220.375;    0.000
456.227; 4133.825;  196.375;    0.000
456.366; 4150.825;  261.375;    0.000
456.504; 4267.825;  249.375;    0.000
456.642; 4272.825;  245.375;    0.000
456.781; 4298.825;  183.375;    0.000
456.919; 4309.825;  203.375;    0.000
457.057; 4332.825;  177.375;    0.000
457.196; 4526.825;  191.375;    0.000
457.334; 4437.825;  233.375;    0.000
457.472; 4588.825;  214.375;    0.000
457.610; 4693.825;  230.375;    0.000
457.749; 4655.825;  247.375;    0.000
457.887; 4670.825;  220.375;    0.000
458.025; 4693.825;  195.375;    0.000
458.163; 4929.825;  224.375;    0.000
458.301; 4921.825;  228.375;    0.000
458.440; 4950.825;  200.375;    0.000
458.578; 4940.825;  233.375;    0.000
458.716; 5017.825;  182.375;    0.000
458.854; 5237.825;  251.375;    0.000
458.992; 4987.825;  187.375;    0.000
459.130; 5392.825;  229.375;    0.000
459.269; 5201.825;  237.375;    0.000
459.407; 5341.825;  228.375;    0.000
459.545; 5409.825;  216.375;    0.000
459.683; 5440.825;  204.375;    0.000
459.821; 5293.825;  191.375;    0.000
459.959; 5447.825;  227.375;    0.000
460.097; 5529.825;  221.375;    0.000
460.235; 5469.825;  241.375;    0.000
460.373; 5677.825;  231.375;    0.000
460.511; 5629.825;  214.375;    0.000
460.649; 5642.825;  172.375;    0.000
460.787; 5727.825;  275.375;    0.000
460.925; 5863.825;  175.375;    0.000
461.063; 5801.825;  252.375;    0.000
461.201; 5787.825;  210.375;    0.000
461.339; 5870.825;  237.375;    0.000
461.477; 5750.825;  210.375;    0.000
461.615; 5904.825;  236.375;    0.000
461.753; 5857.825;  215.375;    0.000
461.891; 5926.825;  222.375;    0.000
462.029; 6154.825;  227.375;    0.000
462.166; 6224.825;  202.375;    0.000
462.304; 6289.825;  191.375;    0.000
462.442; 6343.825;  210.375;    0.000
462.580; 6360.825;  184.375;    0.000
462.718; 6240.825;  220.375;    0.000
462.856; 6369.825;  226.375;    0.000
462.993; 6291.825;  254.375;    0.000
463.131; 6188.825;  200.375;    0.000
463.269; 6257.825;  215.375;    0.000
463.407; 6179.825;  213.375;    0.000
463.545; 6057.825;  242.375;    0.000
463.682; 6178.825;  212.375;    0.000
463.820; 6399.825;  185.375;    0.000
463.958; 6719.825;  212.375;    0.000
464.095; 6774.825;  181.375;    0.000
464.233; 6761.825;  192.375;    0.000
464.371; 6652.825;  247.375;    0.000
464.509; 6510.825;  151.375;    0.000
464.646; 6682.825;  207.375;    0.000
464.784; 6710.825;  199.375;    0.000
464.921; 6745.825;  253.375;    0.000
465.059; 6607.825;  214.375;    0.000
465.197; 6568.825;  200.375;    0.000
465.334; 6306.825;  180.375;    0.000
465.472; 6296.825;  204.375;    0.000
465.609; 6349.825;  203.375;    0.000
465.747; 6264.825;  214.375;    0.000
465.885; 6163.825;  233.375;    0.000
466.022; 6242.825;  215.375;    0.000
466.160; 6249.825;  201.375;    0.000
466.297; 6141.825;  196.375;    0.000
466.435; 6121.825;  230.375;    0.000
466.572; 6128.825;  227.375;    0.000
466.710; 6170.825;  218.375;    0.000
466.847; 6089.825;  245.375;    0.000
466.985; 5999.825;  223.375;    0.000
467.122; 6081.825;  168.375;    0.000
467.260; 6163.825;  196.375;    0.000
467.397; 6094.825;  198.375;    0.000
467.534; 6057.825;  219.375;    0.000
467.672; 6102.825;  214.375;    0.000
467.809; 6139.825;  185.375;    0.000
467.947; 6150.825;  247.375;    0.000
468.084; 5992.825;  196.375;    0.000
468.221; 6243.825;  238.375;    0.000
468.359; 6134.825;  236.375;    0.000
468.496; 6058.825;  235.375;    0.000
468.633; 5948.825;  218.375;    0.000
468.771; 6187.825;  223.375;    0.000
468.908; 5990.825;  208.375;    0.000
469.045; 6206.825;  249.375;    0.000
469.183; 6248.825;  222.375;    0.000
469.320; 6203.825;  216.375;    0.000
469.457; 6382.825;  224.375;    0.000
469.594; 6332.825;  259.375;    0.000
469.732; 6302.825;  223.375;    0.000
469.869; 6453.825;  234.375;    0.000
470.006; 6450.825;  225.375;    0.000
470.143; 6430.825;  243.375;    0.000
470.280; 6551.825;  208.375;    0.000
470.417; 6672.825;  232.375;    0.000
470.555; 6585.825;  218.375;    0.000
470.692; 6620.825;  223.375;    0.000
470.829; 6412.825;  238.375;    0.000
470.966; 6550.825;  205.375;    0.000
471.103; 6539.825;  259.375;    0.000
471.240; 6557.825;  214.375;    0.000
471.377; 6593.825;  226.375;    0.000
471.514; 6351.825;  250.375;    0.000
471.651; 6378.825;  221.375;    0.000
471.789; 6476.825;  242.375;    0.000
471.926; 6505.825;  190.375;    0.000
472.063; 6319.825;  234.375;    0.000
472.200; 6322.825;  252.375;    0.000
472.337; 6216.825;  241.375;    0.000
472.474; 6329.825;  244.375;    0.000
472.611; 6409.825;  268.375;    0.000
472.748; 6240.825;  222.375;    0.000
472.884; 6494.825;  271.375;    0.000
473.021; 6303.825;  195.375;    0.000
473.158; 6225.825;  205.375;    0.000
473.295; 6475.825;  223.375;    0.000
473.432; 6143.825;  216.375;    0.000
473.569; 6262.825;  196.375;    0.000
473.706; 6274.825;  190.375;    0.000
473.843; 6237.825;  211.375;    0.000
473.980; 6362.825;  254.375;    0.000
474.117; 6310.825;  185.375;    0.000
474.253; 6304.825;  229.375;    0.000
474.390; 6290.825;  238.375;    0.000
474.527; 6473.825;  220.375;    0.000
474.664; 6218.825;  242.375;    0.000
474.801; 6296.825;  229.375;    0.000
474.937; 6375.825;  229.375;    0.000
475.074; 6296.825;  210.375;    0.000
475.211; 6431.825;  219.375;    0.000
475.348; 6492.825;  226.375;    0.000
475.484; 6479.825;  207.375;    0.000
475.621; 6510.825;  233.375;    0.000
475.758; 6369.825;  230.375;    0.000
475.894; 6538.825;  234.375;    0.000
476.031; 6351.825;  202.375;    0.000
476.168; 6580.825;  222.375;    0.000
476.304; 6484.825;  237.375;    0.000
476.441; 6613.825;  238.375;    0.000
476.578; 6602.825;  216.375;    0.000
476.714; 6344.825;  212.375;    0.000
476.851; 6639.825;  210.375;    0.000
476.987; 6565.825;  239.375;    0.000
477.124; 6481.825;  250.375;    0.000
477.261; 6736.825;  227.375;    0.000
477.397; 6669.825;  189.375;    0.000
477.534; 6566.825;  204.375;    0.000
477.670; 6835.825;  190.375;    0.000
477.807; 6731.825;  198.375;    0.000
477.943; 6723.825;  216.375;    0.000
478.080; 6899.825;  213.375;    0.000
478.216; 6878.825;  239.375;    0.000
478.353; 6890.825;  218.375;    0.000
478.489; 7010.825;  184.375;    0.000
478.626; 6784.825;  223.375;    0.000
478.762; 7024.825;  213.375;    0.000
478.898; 6916.825;  216.375;    0.000
479.035; 7020.825;  250.375;    0.000
479.171; 6980.825;  201.375;    0.000
479.308; 7007.825;  242.375;    0.000
479.444; 7051.825;  205.375;    0.000
479.580; 7063.825;  203.375;    0.000
479.717; 7125.825;  260.375;    0.000
479.853; 6975.825;  225.375;    0.000
479.989; 7154.825;  226.375;    0.000
480.126; 7052.825;  211.375;    0.000
480.262; 7286.825;  220.375;    0.000
480.398; 7129.825;  207.375;    0.000
480.535; 7206.825;  179.375;    0.000
480.671; 7206.825;  200.375;    0.000
480.807; 7035.825;  190.375;    0.000
480.943; 7264.825;  165.375;    0.000
481.080; 7085.825;  210.375;    0.000
481.216; 7024.825;  232.375;    0.000
481.352; 7068.825;  235.375;    0.000
481.488; 7220.825;  208.375;    0.000
481.624; 7115.825;  245.375;    0.000
481.760; 7023.825;  210.375;    0.000
481.897; 7051.825;  189.375;    0.000
482.033; 6973.825;  256.375;    0.000
482.169; 7085.825;  257.375;    0.000
482.305; 7014.825;  199.375;    0.000
482.441; 7042.825;  182.375;    0.000
482.577; 7058.825;  223.375;    0.000
482.713; 7179.825;  243.375;    0.000
482.849; 6965.825;  197.375;    0.000
482.985; 6988.825;  240.375;    0.000
483.121; 7208.825;  210.375;    0.000
483.258; 7040.825;  248.375;    0.000
483.394; 7074.825;  224.375;    0.000
483.530; 7035.825;  209.375;    0.000
483.665; 7001.825;  225.375;    0.000
483.801; 7119.825;  216.375;    0.000
483.937; 7019.825;  211.375;    0.000
484.073; 7026.825;  259.375;    0.000
484.209; 7138.825;  191.375;    0.000
484.345; 7329.825;  239.375;    0.000
484.481; 7224.825;  231.375;    0.000
484.617; 7214.825;  216.375;    0.000
484.753; 7182.825;  180.375;    0.000
484.889; 7302.825;  252.375;    0.000
485.025; 7115.825;  244.375;    0.000
485.161; 7079.825;  242.375;    0.000
485.296; 7180.825;  235.375;    0.000
485.432; 7178.825;  247.375;    0.000
485.568; 7206.825;  203.375;    0.000
485.704; 7184.825;  229.375;    0.000
485.840; 7302.825;  230.375;    0.000
485.975; 7375.825;  266.375;    0.000
486.111; 7334.825;  220.375;    0.000
486.247; 7300.825;  264.375;    0.000
486.383; 7207.825;  213.375;    0.000
486.518; 7218.825;  222.375;    0.000
486.654; 7196.825;  244.375;    0.000
486.790; 7208.825;  273.375;    0.000
486.926; 7317.825;  203.375;    0.000
487.061; 7322.825;  227.375;    0.000
487.197; 7188.825;  210.375;    0.000
487.333; 7299.825;  209.375;    0.000
487.468; 7127.825;  197.375;    0.000
487.604; 7081.825;  230.375;    0.000
487.740; 7298.825;  254.375;    0.000
487.875; 7267.825;  286.375;    0.000
488.011; 7252.825;  225.375;    0.000
488.146; 7228.825;  251.375;    0.000
488.282; 7167.825;  242.375;    0.000
488.417; 7296.825;  230.375;    0.000
488.553; 7204.825;  260.375;    0.000
488.688; 7161.825;  207.375;    0.000
488.824; 7201.825;  204.375;    0.000
488.960; 7324.825;  248.375;    0.000
489.095; 7319.825;  204.375;    0.000
489.230; 7355.825;  227.375;    0.000
489.366; 7325.825;  226.375;    0.000
489.501; 7309.825;  199.375;    0.000
489.637; 7289.825;  233.375;    0.000
489.772; 7230.825;  249.375;    0.000
489.908; 7218.825;  200.375;    0.000
490.043; 7399.825;  246.375;    0.000
490.178; 7245.825;  222.375;    0.000
490.314; 7347.825;  219.375;    0.000
490.449; 7396.825;  227.375;    0.000
490.585; 7228.825;  209.375;    0.000
490.720; 7328.825;  238.375;    0.000
490.855; 7265.825;  222.375;    0.000
490.991; 7284.825;  202.375;    0.000
491.126; 7491.825;  272.375;    0.000
491.261; 7269.825;  261.375;    0.000
491.396; 7401.825;  190.375;    0.000
491.532; 7213.825;  202.375;    0.000
491.667; 7463.825;  208.375;    0.000
491.802; 7280.825;  203.375;    0.000
491.937; 7409.825;  253.375;    0.000
492.073; 7443.825;  242.375;    0.000
492.208; 7419.825;  230.375;    0.000
492.343; 7496.825;  183.375;    0.000
492.478; 7655.825;  246.375;    0.000
492.613; 7627.825;  223.375;    0.000
492.749; 7446.825;  230.375;    0.000
492.884; 7334.825;  190.375;    0.000
493.019; 7539.825;  234.375;    0.000
493.154; 7282.825;  218.375;    0.000
493.289; 7500.825;  222.375;    0.000
493.424; 7358.825;  196.375;    0.000
493.559; 7352.825;  202.375;    0.000
493.694; 7502.825;  180.375;    0.000
493.829; 7540.825;  224.375;    0.000
493.964; 7433.825;  218.375;    0.000
494.099; 7394.825;  275.375;    0.000
494.234; 7441.825;  226.375;    0.000
494.369; 7452.825;  225.375;    0.000
494.504; 7431.825;  219.375;    0.000
494.639; 7427.825;  296.375;    0.000
494.774; 7520.825;  228.375;    0.000
494.909; 7465.825;  222.375;    0.000
495.044; 7337.825;  215.375;    0.000
495.179; 7250.825;  200.375;    0.000
495.314; 7396.825;  235.375;    0.000
495.449; 7401.825;  249.375;    0.000
495.584; 7365.825;  228.375;    0.000
495.719; 7359.825;  212.375;    0.000
495.854; 7408.825;  201.375;    0.000
495.988; 7541.825;  248.375;    0.000
496.123; 7465.825;  209.375;    0.000
496.258; 7435.825;  249.375;    0.000
496.393; 7548.825;  223.375;    0.000
496.528; 7551.825;  209.375;    0.000
496.663; 7627.825;  207.375;    0.000
496.797; 7755.825;  229.375;    0.000
496.932; 7628.825;  225.375;    0.000
497.067; 7773.825;  218.375;    0.000
497.202; 7796.825;  163.375;    0.000
497.336; 7892.825;  246.375;    0.000
497.471; 8132.825;  229.375;    0.000
497.606; 8107.825;  251.375;    0.000
497.740; 8145.825;  220.375;    0.000
497.875; 8475.825;  216.375;    0.000
498.010; 8447.825;  226.375;    0.000
498.144; 8595.825;  237.375;    0.000
498.279; 8796.825;  196.375;    0.000
498.414; 8913.825;  219.375;    0.000
498.548; 8894.825;  205.375;    0.000
498.683; 9050.825;  206.375;    0.000
498.817; 9040.825;  225.375;    0.000
498.952; 9141.825;  221.375;    0.000
499.087; 9327.825;  220.375;    0.000
499.221; 9466.825;  233.375;    0.000
499.356; 9764.825;  230.375;    0.000
499.490; 9731.825;  229.375;    0.000
499.625; 9961.825;  231.375;    0.000
499.759;10406.825;  243.375;    0.000
499.894;10574.825;  241.375;    0.000
500.028;10767.825;  264.375;    0.000
500.162;10978.825;  287.375;    0.000
500.297;11089.825;  234.375;    0.000
500.431;10984.825;  230.375;    0.000
500.566;11030.825;  213.375;    0.000
500.700;10996.825;  243.375;    0.000
500.835;10910.825;  272.375;    0.000
500.969;10645.825;  188.375;    0.000
501.103;10511.825;  200.375;    0.000
501.238;10342.825;  257.375;    0.000
501.372; 9979.825;  224.375;    0.000
501.506; 9692.825;  225.375;    0.000
501.641; 9559.825;  271.375;    0.000
501.775; 9180.825;  199.375;    0.000
501.909; 8990.825;  249.375;    0.000
502.043; 9036.825;  211.375;    0.000
502.178; 8707.825;  269.375;    0.000
502.312; 8528.825;  198.375;    0.000
502.446; 8477.825;  256.375;    0.000
502.580; 8370.825;  195.375;    0.000
502.715; 8443.825;  224.375;    0.000
502.849; 8084.825;  245.375;    0.000
502.983; 8075.825;  250.375;    0.000
503.117; 7913.825;  193.375;    0.000
503.251; 8002.825;  242.375;    0.000
503.385; 7826.825;  227.375;    0.000
503.520; 7621.825;  235.375;    0.000
503.654; 7464.825;  220.375;    0.000
503.788; 7563.825;  267.375;    0.000
503.922; 7606.825;  220.375;    0.000
504.056; 7482.825;  238.375;    0.000
504.190; 7201.825;  212.375;    0.000
504.324; 7347.825;  265.375;    0.000
504.458; 7266.825;  228.375;    0.000
504.592; 7188.825;  231.375;    0.000
504.726; 7162.825;  218.375;    0.000
504.860; 7099.825;  253.375;    0.000
504.994; 7042.825;  217.375;    0.000
505.128; 6930.825;  243.375;    0.000
505.262; 6751.825;  194.375;    0.000
505.396; 6800.825;  210.375;    0.000
505.530; 6720.825;  211.375;    0.000
505.664; 6582.825;  219.375;    0.000
505.798; 6520.825;  240.375;    0.000
505.932; 6512.825;  240.375;    0.000
506.066; 6503.825;  252.375;    0.000
506.199; 6283.825;  242.375;    0.000
506.333; 6336.825;  244.375;    0.000
506.467; 6421.825;  223.375;    0.000
506.601; 6183.825;  183.375;    0.000
506.735; 6348.825;  249.375;    0.000
506.869; 6106.825;  270.375;    0.000
507.002; 6059.825;  207.375;    0.000
507.136; 6195.825;  242.375;    0.000
507.270; 6128.825;  232.375;    0.000
507.404; 5989.825;  195.375;    0.000
507.537; 6112.825;  218.375;    0.000
507.671; 6032.825;  246.375;    0.000
507.805; 6044.825;  244.375;    0.000
507.939; 5951.825;  251.375;    0.000
508.072; 5937.825;  212.375;    0.000
508.206; 5957.825;  198.375;    0.000
508.340; 5927.825;  234.375;    0.000
508.473; 5935.825;  217.375;    0.000
508.607; 5912.825;  224.375;    0.000
508.740; 5837.825;  207.375;    0.000
508.874; 5873.825;  230.375;    0.000
509.008; 5808.825;  246.375;    0.000
509.141; 5922.825;  239.375;    0.000
509.275; 5837.825;  229.375;    0.000
509.408; 5831.825;  234.375;    0.000
509.542; 5781.825;  212.375;    0.000
509.675; 5717.825;  256.375;    0.000
509.809; 5742.825;  232.375;    0.000
509.942; 5541.825;  237.375;    0.000
510.076; 5654.825;  226.375;    0.000
510.209; 5595.825;  251.375;    0.000
510.343; 5631.825;  229.375;    0.000
510.476; 5662.825;  285.375;    0.000
510.610; 5669.825;  211.375;    0.000
510.743; 5700.825;  258.375;    0.000
510.877; 5590.825;  244.375;    0.000
511.010; 5616.825;  235.375;    0.000
511.143; 5480.825;  251.375;    0.000
511.277; 5485.825;  228.375;    0.000
511.410; 5575.825;  216.375;    0.000
511.543; 5616.825;  231.375;    0.000
511.677; 5471.825;  244.375;    0.000
511.810; 5387.825;  186.375;    0.000
511.943; 5525.825;  211.375;    0.000
512.077; 5494.825;  201.375;    0.000
512.210; 5481.825;  194.375;    0.000
512.343; 5526.825;  233.375;    0.000
512.476; 5582.825;  234.375;    0.000
512.610; 5497.825;  224.375;    0.000
512.743; 5440.825;  255.375;    0.000
512.876; 5565.825;  264.375;    0.000
513.009; 5514.825;  283.375;    0.000
513.142; 5468.825;  246.375;    0.000
513.276; 5471.825;  217.375;    0.000
513.409; 5581.825;  222.375;    0.000
513.542; 5463.825;  237.375;    0.000
513.675; 5430.825;  238.375;    0.000
513.808; 5361.825;  220.375;    0.000
513.941; 5464.825;  233.375;    0.000
514.074; 5529.825;  248.375;    0.000
514.207; 5482.825;  233.375;    0.000
514.340; 5466.825;  190.375;    0.000
514.474; 5569.825;  221.375;    0.000
514.607; 5551.825;  213.375;    0.000
514.740; 5549.825;  251.375;    0.000
514.873; 5532.825;  257.375;    0.000
515.006; 5556.825;  268.375;    0.000
515.139; 5747.825;  257.375;    0.000
515.272; 5750.825;  227.375;    0.000
515.404; 5825.825;  238.375;    0.000
515.537; 5757.825;  275.375;    0.000
515.670; 5779.825;  239.375;    0.000
515.803; 5782.825;  223.375;    0.000
515.936; 5818.825;  202.375;    0.000
516.069; 5765.825;  188.375;    0.000
516.202; 6007.825;  240.375;    0.000
516.335; 6114.825;  252.375;    0.000
516.468; 6498.825;  254.375;    0.000
516.600; 8192.825;  254.375;    0.000
516.733;10577.825;  255.375;    0.000
516.866;10466.825;  265.375;    0.000
516.999; 9350.825;  251.375;    0.000
517.132;11594.825;  256.375;    0.000
517.264;17051.824;  202.375;    0.000
517.397;16501.824;  248.375;    0.000
517.530;12032.825;  221.375;    0.000
517.663; 9522.825;  244.375;    0.000
517.795; 8668.825;  245.375;    0.000
517.928; 8554.825;  236.375;    0.000
518.061; 8763.825;  219.375;    0.000
518.193;11879.825;  251.375;    0.000
518.326;19392.824;  271.375;    0.000
518.459;20979.824;  207.375;    0.000
518.591;15372.825;  217.375;    0.000
518.724;11206.825;  200.375;    0.000
518.857; 9534.825;  204.375;    0.000
518.989; 8663.825;  242.375;    0.000
519.122; 7880.825;  254.375;    0.000
519.254; 7485.825;  239.375;    0.000
519.387; 7114.825;  235.375;    0.000
519.519; 6754.825;  227.375;    0.000
519.652; 6654.825;  178.375;    0.000
519.784; 6565.825;  226.375;    0.000
519.917; 6323.825;  256.375;    0.000
520.049; 6130.825;  234.375;    0.000
520.182; 6056.825;  258.375;    0.000
520.314; 5986.825;  298.375;    0.000
520.447; 5883.825;  204.375;    0.000
520.579; 5784.825;  235.375;    0.000
520.712; 5756.825;  208.375;    0.000
520.844; 5719.825;  272.375;    0.000
520.976; 5504.825;  234.375;    0.000
521.109; 5650.825;  235.375;    0.000
521.241; 5447.825;  250.375;    0.000
521.373; 5305.825;  233.375;    0.000
521.506; 5366.825;  231.375;    0.000
521.638; 5331.825;  258.375;    0.000
521.770; 5336.825;  226.375;    0.000
521.903; 5286.825;  258.375;    0.000
522.035; 5203.825;  263.375;    0.000
522.167; 5174.825;  214.375;    0.000
522.300; 5152.825;  212.375;    0.000
522.432; 5147.825;  220.375;    0.000
522.564; 5038.825;  228.375;    0.000
522.696; 5166.825;  272.375;    0.000
522.828; 5040.825;  222.375;    0.000
522.961; 4969.825;  205.375;    0.000
523.093; 5000.825;  253.375;    0.000
523.225; 4984.825;  239.375;    0.000
523.357; 4892.825;  263.375;    0.000
523.489; 5037.825;  264.375;    0.000
523.621; 4891.825;  259.375;    0.000
523.753; 4801.825;  233.375;    0.000
523.885; 4853.825;  232.375;    0.000
524.018; 4835.825;  214.375;    0.000
524.150; 4889.825;  235.375;    0.000
524.282; 4764.825;  242.375;    0.000
524.414; 4785.825;  261.375;    0.000
524.546; 4801.825;  233.375;    0.000
524.678; 4748.825;  242.375;    0.000
524.810; 4753.825;  216.375;    0.000
524.942; 4677.825;  220.375;    0.000
525.074; 4739.825;  249.375;    0.000
525.206; 4787.825;  227.375;    0.000
525.338; 4673.825;  250.375;    0.000
525.469; 4601.825;  231.375;    0.000
525.601; 4691.825;  245.375;    0.000
525.733; 4578.825;  187.375;    0.000
525.865; 4662.825;  280.375;    0.000
525.997; 4555.825;  216.375;    0.000
526.129; 4693.825;  228.375;    0.000
526.261; 4572.825;  187.375;    0.000
526.393; 4532.825;  228.375;    0.000
526.524; 4534.825;  201.375;    0.000
526.656; 4368.825;  199.375;    0.000
526.788; 4513.825;  233.375;    0.000
526.920; 4545.825;  256.375;    0.000
527.052; 4481.825;  219.375;    0.000
527.183; 4460.825;  227.375;    0.000
527.315; 4483.825;  266.375;    0.000
527.447; 4425.825;  239.375;    0.000
527.578; 4517.825;  213.375;    0.000
527.710; 4401.825;  216.375;    0.000
527.842; 4461.825;  240.375;    0.000
527.973; 4510.825;  286.375;    0.000
528.105; 4379.825;  222.375;    0.000
528.237; 4441.825;  223.375;    0.000
528.368; 4367.825;  211.375;    0.000
528.500; 4381.825;  215.375;    0.000
528.632; 4534.825;  216.375;    0.000
528.763; 4378.825;  234.375;    0.000
528.895; 4293.825;  196.375;    0.000
529.026; 4402.825;  202.375;    0.000
529.158; 4307.825;  226.375;    0.000
529.289; 4410.825;  229.375;    0.000
529.421; 4414.825;  264.375;    0.000
529.552; 4417.825;  265.375;    0.000
529.684; 4384.825;  260.375;    0.000
529.815; 4418.825;  284.375;    0.000
529.947; 4440.825;  237.375;    0.000
530.078; 4404.825;  223.375;    0.000
530.210; 4351.825;  223.375;    0.000
530.341; 4377.825;  209.375;    0.000
530.472; 4380.825;  203.375;    0.000
530.604; 4335.825;  223.375;    0.000
530.735; 4313.825;  218.375;    0.000
530.867; 4426.825;  222.375;    0.000
530.998; 4347.825;  239.375;    0.000
531.129; 4321.825;  250.375;    0.000
531.260; 4272.825;  224.375;    0.000
531.392; 4407.825;  216.375;    0.000
531.523; 4370.825;  234.375;    0.000
531.654; 4488.825;  256.375;    0.000
531.786; 4401.825;  226.375;    0.000
531.917; 4445.825;  239.375;    0.000
532.048; 4456.825;  205.375;    0.000
532.179; 4482.825;  244.375;    0.000
532.311; 4425.825;  235.375;    0.000
532.442; 4495.825;  258.375;    0.000
532.573; 4495.825;  220.375;    0.000
532.704; 4393.825;  213.375;    0.000
532.835; 4388.825;  249.375;    0.000
532.966; 4373.825;  226.375;    0.000
533.097; 4324.825;  246.375;    0.000
533.229; 4356.825;  237.375;    0.000
533.360; 4409.825;  225.375;    0.000
533.491; 4357.825;  241.375;    0.000
533.622; 4465.825;  242.375;    0.000
533.753; 4407.825;  264.375;    0.000
533.884; 4357.825;  245.375;    0.000
534.015; 4289.825;  269.375;    0.000
534.146; 4351.825;  267.375;    0.000
534.277; 4477.825;  282.375;    0.000
534.408; 4386.825;  229.375;    0.000
534.539; 4365.825;  269.375;    0.000
534.670; 4499.825;  231.375;    0.000
534.801; 4302.825;  260.375;    0.000
534.932; 4397.825;  232.375;    0.000
535.063; 4334.825;  227.375;    0.000
535.194; 4325.825;  281.375;    0.000
535.324; 4282.825;  206.375;    0.000
535.455; 4312.825;  257.375;    0.000
535.586; 4261.825;  275.375;    0.000
535.717; 4310.825;  206.375;    0.000
535.848; 4243.825;  271.375;    0.000
535.979; 4232.825;  250.375;    0.000
536.109; 4385.825;  253.375;    0.000
536.240; 4257.825;  234.375;    0.000
536.371; 4208.825;  230.375;    0.000
536.502; 4368.825;  270.375;    0.000
536.632; 4215.825;  228.375;    0.000
536.763; 4237.825;  249.375;    0.000
536.894; 4161.825;  262.375;    0.000
537.025; 4209.825;  258.375;    0.000
537.155; 4213.825;  278.375;    0.000
537.286; 4238.825;  209.375;    0.000
537.417; 4299.825;  255.375;    0.000
537.547; 4147.825;  208.375;    0.000
537.678; 4193.825;  224.375;    0.000
537.808; 4273.825;  224.375;    0.000
537.939; 4148.825;  257.375;    0.000
538.070; 4214.825;  240.375;    0.000
538.200; 4318.825;  259.375;    0.000
538.331; 4175.825;  235.375;    0.000
538.461; 4093.825;  251.375;    0.000
538.592; 4157.825;  245.375;    0.000
538.722; 4238.825;  239.375;    0.000
538.853; 4072.825;  216.375;    0.000
538.983; 4202.825;  226.375;    0.000
539.114; 4263.825;  240.375;    0.000
539.244; 4217.825;  237.375;    0.000
539.375; 4212.825;  198.375;    0.000
539.505; 4099.825;  263.375;    0.000
539.636; 4220.825;  226.375;    0.000
539.766; 4192.825;  229.375;    0.000
539.896; 4247.825;  219.375;    0.000
540.027; 4093.825;  246.375;    0.000
540.157; 4182.825;  218.375;    0.000
540.287; 4167.825;  216.375;    0.000
540.418; 4199.825;  267.375;    0.000
540.548; 4206.825;  260.375;    0.000
540.678; 4207.825;  242.375;    0.000
540.809; 4274.825;  260.375;    0.000
540.939; 4186.825;  257.375;    0.000
541.069; 4270.825;  226.375;    0.000
541.200; 4218.825;  227.375;    0.000
541.330; 4158.825;  218.375;    0.000
541.460; 4282.825;  223.375;    0.000
541.590; 4176.825;  237.375;    0.000
541.720; 4136.825;  222.375;    0.000
541.851; 4186.825;  250.375;    0.000
541.981; 4224.825;  222.375;    0.000
542.111; 4312.825;  212.375;    0.000
542.241; 4251.825;  205.375;    0.000
542.371; 4277.825;  202.375;    0.000
542.501; 4392.825;  218.375;    0.000
542.631; 4341.825;  222.375;    0.000
542.761; 4421.825;  249.375;    0.000
542.891; 4408.825;  173.375;    0.000
543.021; 4443.825;  218.375;    0.000
543.151; 4397.825;  222.375;    0.000
543.281; 4431.825;  188.375;    0.000
543.411; 4389.825;  239.375;    0.000
543.542; 4273.825;  215.375;    0.000
543.671; 4332.825;  250.375;    0.000
543.801; 4245.825;  212.375;    0.000
543.931; 4364.825;  233.375;    0.000
544.061; 4509.825;  194.375;    0.000
544.191; 4217.825;  218.375;    0.000
544.321; 4325.825;  220.375;    0.000
544.451; 4299.825;  183.375;    0.000
544.581; 4343.825;  221.375;    0.000
544.711; 4469.825;  224.375;    0.000
544.841; 4433.825;  214.375;    0.000
544.970; 4553.825;  227.375;    0.000
545.100; 4460.825;  186.375;    0.000
545.230; 4592.825;  205.375;    0.000
545.360; 4545.825;  211.375;    0.000
545.490; 4447.825;  202.375;    0.000
545.619; 4617.825;  182.375;    0.000
545.749; 4385.825;  174.375;    0.000
545.879; 4367.825;  169.375;    0.000
546.009; 4421.825;  182.375;    0.000
546.138; 4330.825;  200.375;    0.000
546.268; 4247.825;  204.375;    0.000
546.398; 4281.825;  200.375;    0.000
546.527; 4350.825;  179.375;    0.000
546.657; 4221.825;  162.375;    0.000
546.786; 4364.825;  179.375;    0.000
546.916; 4316.825;  221.375;    0.000
547.046; 4421.825;  179.375;    0.000
547.175; 4248.825;  168.375;    0.000
547.305; 4387.825;  200.375;    0.000
547.434; 4363.825;  166.375;    0.000
547.564; 4233.825;  177.375;    0.000
547.693; 4267.825;  152.375;    0.000
547.823; 4215.825;  171.375;    0.000
547.953; 4276.825;  195.375;    0.000
548.082; 4276.825;  214.375;    0.000
548.211; 4233.825;  177.375;    0.000
548.341; 4266.825;  189.375;    0.000
548.470; 4376.825;  194.375;    0.000
548.600; 4385.825;  172.375;    0.000
548.729; 4301.825;  158.375;    0.000
548.859; 4197.825;  193.375;    0.000
548.988; 4286.825;  131.375;    0.000
549.117; 4321.825;  204.375;    0.000
549.247; 4281.825;  191.375;    0.000
549.376; 4313.825;  202.375;    0.000
549.505; 4291.825;  187.375;    0.000
549.635; 4268.825;  198.375;    0.000
549.764; 4375.825;  155.375;    0.000
549.893; 4385.825;  176.375;    0.000
550.023; 4349.825;  202.375;    0.000
550.152; 4318.825;  168.375;    0.000
550.281; 4299.825;  180.375;    0.000
550.410; 4320.825;  180.375;    0.000
550.539; 4381.825;  181.375;    0.000
550.669; 4453.825;  168.375;    0.000
550.798; 4372.825;  223.375;    0.000
550.927; 4454.825;  179.375;    0.000
551.056; 4351.825;  159.375;    0.000
551.185; 4331.825;  199.375;    0.000
551.314; 4309.825;  185.375;    0.000
551.443; 4413.825;  172.375;    0.000
551.573; 4418.825;  158.375;    0.000
551.702; 4360.825;  210.375;    0.000
551.831; 4386.825;  238.375;    0.000
551.960; 4385.825;  191.375;    0.000
552.089; 4477.825;  195.375;    0.000
552.218; 4418.825;  196.375;    0.000
552.347; 4603.825;  194.375;    0.000
552.476; 4468.825;  192.375;    0.000
552.605; 4647.825;  172.375;    0.000
552.734; 4767.825;  214.375;    0.000
552.863; 5020.825;  177.375;    0.000
552.992; 5064.825;  190.375;    0.000
553.121; 4875.825;  185.375;    0.000
553.249; 4732.825;  175.375;    0.000
553.378; 4746.825;  192.375;    0.000
553.507; 4679.825;  193.375;    0.000
553.636; 4657.825;  182.375;    0.000
553.765; 4550.825;  187.375;    0.000
553.894; 4603.825;  214.375;    0.000
554.023; 4546.825;  217.375;    0.000
554.151; 4474.825;  223.375;    0.000
554.280; 4411.825;  170.375;    0.000
554.409; 4424.825;  172.375;    0.000
554.538; 4428.825;  182.375;    0.000
554.666; 4482.825;  195.375;    0.000
554.795; 4442.825;  176.375;    0.000
554.924; 4384.825;  164.375;    0.000
555.052; 4409.825;  171.375;    0.000
555.181; 4435.825;  208.375;    0.000
555.310; 4416.825;  214.375;    0.000
555.439; 4364.825;  193.375;    0.000
555.567; 4333.825;  189.375;    0.000
555.696; 4373.825;  196.375;    0.000
555.824; 4322.825;  183.375;    0.000
555.953; 4401.825;  234.375;    0.000
556.082; 4313.825;  183.375;    0.000
556.210; 4367.825;  199.375;    0.000
556.339; 4261.825;  201.375;    0.000
556.467; 4256.825;  208.375;    0.000
556.596; 4277.825;  194.375;    0.000
556.724; 4301.825;  170.375;    0.000
556.853; 4322.825;  166.375;    0.000
556.981; 4261.825;  185.375;    0.000
557.110; 4293.825;  213.375;    0.000
557.238; 4315.825;  188.375;    0.000
557.367; 4323.825;  176.375;    0.000
557.495; 4336.825;  180.375;    0.000
557.623; 4183.825;  193.375;    0.000
557.752; 4281.825;  207.375;    0.000
557.880; 4150.825;  189.375;    0.000
558.008; 4288.825;  169.375;    0.000
558.137; 4265.825;  203.375;    0.000
558.265; 4252.825;  167.375;    0.000
558.393; 4331.825;  204.375;    0.000
558.522; 4148.825;  203.375;    0.000
558.650; 4319.825;  215.375;    0.000
558.778; 4321.825;  190.375;    0.000
558.906; 4297.825;  186.375;    0.000
559.035; 4244.825;  193.375;    0.000
559.163; 4273.825;  198.375;    0.000
559.291; 4284.825;  222.375;    0.000
559.419; 4219.825;  192.375;    0.000
559.548; 4233.825;  186.375;    0.000
559.676; 4291.825;  199.375;    0.000
559.804; 4349.825;  186.375;    0.000
559.932; 4461.825;  202.375;    0.000
560.060; 4384.825;  183.375;    0.000
560.188; 4427.825;  212.375;    0.000
560.316; 4404.825;  192.375;    0.000
560.444; 4373.825;  180.375;    0.000
560.572; 4467.825;  206.375;    0.000
560.700; 4543.825;  184.375;    0.000
560.828; 4530.825;  177.375;    0.000
560.956; 4497.825;  221.375;    0.000
561.085; 4459.825;  227.375;    0.000
561.212; 4414.825;  208.375;    0.000
561.340; 4404.825;  189.375;    0.000
561.468; 4546.825;  189.375;    0.000
561.596; 4467.825;  183.375;    0.000
561.724; 4528.825;  188.375;    0.000
561.852; 4566.825;  183.375;    0.000
561.980; 4385.825;  209.375;    0.000
562.108; 4456.825;  165.375;    0.000
562.236; 4502.825;  188.375;    0.000
562.364; 4633.825;  177.375;    0.000
562.492; 4470.825;  192.375;    0.000
562.619; 4571.825;  187.375;    0.000
562.747; 4629.825;  217.375;    0.000
562.875; 4630.825;  221.375;    0.000
563.003; 4659.825;  199.375;    0.000
563.130; 4576.825;  191.375;    0.000
563.258; 4624.825;  186.375;    0.000
563.386; 4677.825;  191.375;    0.000
563.514; 4858.825;  217.375;    0.000
563.641; 4674.825;  220.375;    0.000
563.769; 4855.825;  186.375;    0.000
563.897; 4933.825;  158.375;    0.000
564.024; 4825.825;  192.375;    0.000
564.152; 4988.825;  217.375;    0.000
564.280; 5092.825;  203.375;    0.000
564.407; 5068.825;  190.375;    0.000
564.535; 4925.825;  188.375;    0.000
564.662; 5085.825;  199.375;    0.000
564.790; 5171.825;  227.375;    0.000
564.917; 5049.825;  160.375;    0.000
565.045; 5093.825;  222.375;    0.000
565.173; 5113.825;  169.375;    0.000
565.300; 5231.825;  208.375;    0.000
565.428; 5120.825;  174.375;    0.000
565.555; 5257.825;  201.375;    0.000
565.682; 5201.825;  180.375;    0.000
565.810; 5333.825;  165.375;    0.000
565.937; 5428.825;  167.375;    0.000
566.065; 5563.825;  190.375;    0.000
566.192; 5639.825;  169.375;    0.000
566.320; 5759.825;  167.375;    0.000
566.447; 5807.825;  151.375;    0.000
566.574; 5839.825;  176.375;    0.000
566.702; 5858.825;  198.375;    0.000
566.829; 5998.825;  209.375;    0.000
566.956; 5926.825;  186.375;    0.000
567.083; 6020.825;  188.375;    0.000
567.211; 5972.825;  159.375;    0.000
567.338; 6056.825;  204.375;    0.000
567.465; 5964.825;  141.375;    0.000
567.593; 6058.825;  168.375;    0.000
567.720; 6157.825;  177.375;    0.000
567.847; 6169.825;  160.375;    0.000
567.974; 6243.825;  139.375;    0.000
568.101; 6279.825;  153.375;    0.000
568.228; 6852.825;  173.375;    0.000
568.356; 7001.825;  149.375;    0.000
568.483; 6807.825;  185.375;    0.000
568.610; 6684.825;  170.375;    0.000
568.737; 7468.825;  223.375;    0.000
568.864; 8179.825;  167.375;    0.000
568.991; 7755.825;  177.375;    0.000
569.118; 7026.825;  169.375;    0.000
569.245; 6477.825;  128.375;    0.000
569.372; 6121.825;  160.375;    0.000
569.499; 5968.825;  156.375;    0.000
569.626; 5724.825;  191.375;    0.000
569.753; 5572.825;  163.375;    0.000
569.880; 5519.825;  167.375;    0.000
570.007; 5343.825;  143.375;    0.000
570.134; 5323.825;  191.375;    0.000
570.261; 5237.825;  164.375;    0.000
570.388; 5303.825;  162.375;    0.000
570.515; 5144.825;  220.375;    0.000
570.642; 5160.825;  184.375;    0.000
570.768; 5208.825;  174.375;    0.000
570.895; 5023.825;  177.375;    0.000
571.022; 5052.825;  152.375;    0.000
571.149; 5043.825;  183.375;    0.000
571.276; 4933.825;  153.375;    0.000
571.402; 4941.825;  190.375;    0.000
571.529; 4796.825;  187.375;    0.000
571.656; 4861.825;  167.375;    0.000
571.783; 4862.825;  186.375;    0.000
571.909; 4763.825;  183.375;    0.000
572.036; 4811.825;  162.375;    0.000
572.163; 4723.825;  196.375;    0.000
572.289; 4739.825;  180.375;    0.000
572.416; 4656.825;  190.375;    0.000
572.543; 4824.825;  174.375;    0.000
572.669; 4566.825;  186.375;    0.000
572.796; 4594.825;  205.375;    0.000
572.922; 4534.825;  185.375;    0.000
573.049; 4583.825;  178.375;    0.000
573.176; 4541.825;  196.375;    0.000
573.302; 4502.825;  202.375;    0.000
573.429; 4596.825;  189.375;    0.000
573.555; 4562.825;  145.375;    0.000
573.682; 4518.825;  228.375;    0.000
573.808; 4581.825;  197.375;    0.000
573.935; 4490.825;  216.375;    0.000
574.061; 4515.825;  173.375;    0.000
574.188; 4440.825;  151.375;    0.000
574.314; 4478.825;  181.375;    0.000
574.440; 4493.825;  167.375;    0.000
574.567; 4366.825;  185.375;    0.000
574.693; 4422.825;  173.375;    0.000
574.820; 4463.825;  164.375;    0.000
574.946; 4444.825;  199.375;    0.000
575.072; 4477.825;  162.375;    0.000
575.198; 4506.825;  225.375;    0.000
575.325; 4370.825;  171.375;    0.000
575.451; 4340.825;  183.375;    0.000
575.577; 4411.825;  190.375;    0.000
575.704; 4487.825;  210.375;    0.000
575.830; 4404.825;  185.375;    0.000
575.956; 4402.825;  168.375;    0.000
576.082; 4453.825;  158.375;    0.000
576.208; 4310.825;  158.375;    0.000
576.335; 4406.825;  196.375;    0.000
576.461; 4389.825;  187.375;    0.000
576.587; 4276.825;  157.375;    0.000
576.713; 4401.825;  156.375;    0.000
576.839; 4380.825;  196.375;    0.000
576.965; 4372.825;  187.375;    0.000
577.091; 4349.825;  204.375;    0.000
577.217; 4467.825;  207.375;    0.000
577.343; 4419.825;  175.375;    0.000
577.469; 4453.825;  197.375;    0.000
577.596; 4339.825;  182.375;    0.000
577.722; 4287.825;  159.375;    0.000
577.848; 4298.825;  162.375;    0.000
577.974; 4384.825;  180.375;    0.000
578.099; 4251.825;  161.375;    0.000
578.225; 4344.825;  180.375;    0.000
578.351; 4440.825;  190.375;    0.000
578.477; 4380.825;  212.375;    0.000
578.603; 4313.825;  179.375;    0.000
578.729; 4464.825;  195.375;    0.000
578.855; 4295.825;  153.375;    0.000
578.981; 4395.825;  162.375;    0.000
579.107; 4461.825;  149.375;    0.000
579.232; 4405.825;  164.375;    0.000
579.358; 4347.825;  162.375;    0.000
579.484; 4358.825;  181.375;    0.000
579.610; 4408.825;  190.375;    0.000
579.735; 4405.825;  191.375;    0.000
579.861; 4413.825;  189.375;    0.000
579.987; 4442.825;  202.375;    0.000
580.113; 4458.825;  197.375;    0.000
580.238; 4349.825;  228.375;    0.000
580.364; 4449.825;  212.375;    0.000
580.490; 4473.825;  225.375;    0.000
580.615; 4438.825;  218.375;    0.000
580.741; 4342.825;  167.375;    0.000
580.867; 4441.825;  215.375;    0.000
580.992; 4555.825;  191.375;    0.000
581.118; 4509.825;  171.375;    0.000
581.243; 4486.825;  204.375;    0.000
581.369; 4504.825;  186.375;    0.000
581.494; 4485.825;  184.375;    0.000
581.620; 4562.825;  212.375;    0.000
581.745; 4499.825;  192.375;    0.000
581.871; 4520.825;  195.375;    0.000
581.996; 4623.825;  160.375;    0.000
582.122; 4637.825;  217.375;    0.000
582.247; 4578.825;  213.375;    0.000
582.373; 4488.825;  187.375;    0.000
582.498; 4651.825;  208.375;    0.000
582.624; 4698.825;  189.375;    0.000
582.749; 4603.825;  185.375;    0.000
582.874; 4582.825;  195.375;    0.000
583.000; 4745.825;  208.375;    0.000
583.125; 4730.825;  147.375;    0.000
583.250; 4790.825;  201.375;    0.000
583.376; 4930.825;  191.375;    0.000
583.501; 4854.825;  206.375;    0.000
583.626; 4833.825;  167.375;    0.000
583.751; 4896.825;  180.375;    0.000
583.877; 4994.825;  185.375;    0.000
584.002; 4998.825;  186.375;    0.000
584.127; 4966.825;  176.375;    0.000
584.252; 5069.825;  214.375;    0.000
584.377; 5021.825;  225.375;    0.000
584.503; 5002.825;  195.375;    0.000
584.628; 5164.825;  206.375;    0.000
584.753; 5224.825;  181.375;    0.000
584.878; 5203.825;  136.375;    0.000
585.003; 5223.825;  215.375;    0.000
585.128; 5434.825;  206.375;    0.000
585.253; 5515.825;  200.375;    0.000
585.378; 5461.825;  169.375;    0.000
585.503; 5554.825;  191.375;    0.000
585.628; 5660.825;  182.375;    0.000
585.753; 5726.825;  164.375;    0.000
585.878; 5748.825;  123.375;    0.000
586.003; 5865.825;  187.375;    0.000
586.128; 6154.825;  198.375;    0.000
586.253; 5993.825;  172.375;    0.000
586.378; 6206.825;  191.375;    0.000
586.503; 6359.825;  190.375;    0.000
586.628; 6653.825;  178.375;    0.000
586.753; 6790.825;  184.375;    0.000
586.878; 6975.825;  169.375;    0.000
587.003; 7306.825;  186.375;    0.000
587.127; 7402.825;  170.375;    0.000
587.252; 7721.825;  170.375;    0.000
587.377; 8212.825;  181.375;    0.000
587.502; 8548.825;  209.375;    0.000
587.627; 9096.825;  210.375;    0.000
587.751; 9686.825;  212.375;    0.000
587.876;10295.825;  198.375;    0.000
588.001;11273.825;  161.375;    0.000
588.125;12103.825;  191.375;    0.000
588.250;13781.825;  132.375;    0.000
588.375;15974.825;  183.375;    0.000
588.499;18754.824;  176.375;    0.000
588.624;23035.824;  173.375;    0.000
588.749;29608.824;  204.375;    0.000
588.873;36905.824;  179.375;    0.000
588.998;42164.824;  182.375;    0.000
589.122;43282.824;  165.375;    0.000
589.247;39164.824;  185.375;    0.000
589.372;36073.824;  199.375;    0.000
589.496;37821.824;  182.375;    0.000
589.621;40429.824;  158.375;    0.000
589.745;37890.824;  213.375;    0.000
589.870;30637.824;  175.375;    0.000
589.994;24299.824;  194.375;    0.000
590.118;20163.824;  218.375;    0.000
590.243;17315.824;  170.375;    0.000
590.367;15260.825;  189.375;    0.000
590.492;13555.825;  196.375;    0.000
590.616;12446.825;  182.375;    0.000
590.740;11452.825;  210.375;    0.000
590.865;10860.825;  242.375;    0.000
590.989;10099.825;  191.375;    0.000
591.114; 9386.825;  167.375;    0.000
591.238; 9028.825;  194.375;    0.000
591.362; 8707.825;  236.375;    0.000
591.486; 8459.825;  194.375;    0.000
591.611; 8174.825;  154.375;    0.000
591.735; 7834.825;  186.375;    0.000
591.859; 7587.825;  148.375;    0.000
591.983; 7496.825;  211.375;    0.000
592.107; 7316.825;  204.375;    0.000
592.232; 7006.825;  194.375;    0.000
592.356; 6892.825;  238.375;    0.000
592.480; 6834.825;  179.375;    0.000
592.604; 6689.825;  192.375;    0.000
592.728; 6499.825;  201.375;    0.000
592.852; 6516.825;  158.375;    0.000
592.976; 6279.825;  152.375;    0.000
593.100; 6210.825;  194.375;    0.000
593.224; 6221.825;  235.375;    0.000
593.349; 6160.825;  233.375;    0.000
593.473; 6001.825;  194.375;    0.000
593.597; 5998.825;  215.375;    0.000
593.721; 5992.825;  212.375;    0.000
593.844; 5763.825;  220.375;    0.000
593.968; 5845.825;  221.375;    0.000
594.092; 5649.825;  150.375;    0.000
594.216; 5696.825;  212.375;    0.000
594.340; 5651.825;  209.375;    0.000
594.464; 5504.825;  207.375;    0.000
594.588; 5533.825;  195.375;    0.000
594.712; 5439.825;  176.375;    0.000
594.836; 5339.825;  219.375;    0.000
594.959; 5204.825;  215.375;    0.000
595.083; 5269.825;  200.375;    0.000
595.207; 5191.825;  206.375;    0.000
595.331; 5182.825;  207.375;    0.000
595.455; 5042.825;  206.375;    0.000
595.578; 5147.825;  204.375;    0.000
595.702; 4983.825;  225.375;    0.000
595.826; 5036.825;  186.375;    0.000
595.949; 4836.825;  196.375;    0.000
596.073; 4754.825;  188.375;    0.000
596.197; 4758.825;  217.375;    0.000
596.320; 4878.825;  225.375;    0.000
596.444; 4845.825;  220.375;    0.000
596.568; 4643.825;  155.375;    0.000
596.691; 4758.825;  195.375;    0.000
596.815; 4676.825;  163.375;    0.000
596.938; 4698.825;  181.375;    0.000
597.062; 4575.825;  201.375;    0.000
597.186; 4556.825;  200.375;    0.000
597.309; 4572.825;  214.375;    0.000
597.433; 4573.825;  176.375;    0.000
597.556; 4506.825;  193.375;    0.000
597.680; 4436.825;  241.375;    0.000
597.803; 4387.825;  185.375;    0.000
597.926; 4377.825;  200.375;    0.000
598.050; 4435.825;  193.375;    0.000
598.173; 4314.825;  219.375;    0.000
598.297; 4313.825;  223.375;    0.000
598.420; 4356.825;  187.375;    0.000
598.543; 4311.825;  205.375;    0.000
598.667; 4258.825;  177.375;    0.000
598.790; 4276.825;  208.375;    0.000
598.913; 4235.825;  170.375;    0.000
599.037; 4275.825;  212.375;    0.000
599.160; 4142.825;  165.375;    0.000
599.283; 4340.825;  211.375;    0.000
599.406; 4185.825;  207.375;    0.000
599.530; 4304.825;  182.375;    0.000
599.653; 4144.825;  215.375;    0.000
599.776; 4200.825;  167.375;    0.000
599.899; 4209.825;  190.375;    0.000
600.022; 4255.825;  182.375;    0.000
600.145; 4159.825;  180.375;    0.000
600.269; 4159.825;  208.375;    0.000
600.392; 4241.825;  214.375;    0.000
600.515; 4151.825;  196.375;    0.000
600.638; 4130.825;  204.375;    0.000
600.761; 4142.825;  209.375;    0.000
600.884; 4124.825;  207.375;    0.000
601.007; 4041.825;  234.375;    0.000
601.130; 4030.825;  183.375;    0.000
601.253; 4012.825;  211.375;    0.000
601.376; 4090.825;  199.375;    0.000
601.499; 4093.825;  190.375;    0.000
601.622; 4137.825;  210.375;    0.000
601.745; 3952.825;  180.375;    0.000
601.868; 4063.825;  204.375;    0.000
601.991; 4034.825;  188.375;    0.000
602.113; 4047.825;  210.375;    0.000
602.236; 3971.825;  194.375;    0.000
602.359; 4081.825;  213.375;    0.000
602.482; 3944.825;  169.375;    0.000
602.605; 4012.825;  189.375;    0.000
602.728; 3942.825;  236.375;    0.000
602.850; 3962.825;  230.375;    0.000
602.973; 3931.825;  187.375;    0.000
603.096; 3991.825;  201.375;    0.000
603.219; 3913.825;  209.375;    0.000
603.341; 3980.825;  209.375;    0.000
603.464; 3958.825;  194.375;    0.000
603.587; 3946.825;  166.375;    0.000
603.709; 3906.825;  175.375;    0.000
603.832; 3933.825;  239.375;    0.000
603.955; 3953.825;  205.375;    0.000
604.077; 3886.825;  196.375;    0.000
604.200; 3882.825;  188.375;    0.000
604.323; 3928.825;  224.375;    0.000
604.445; 3887.825;  182.375;    0.000
604.568; 3791.825;  199.375;    0.000
604.690; 3902.825;  175.375;    0.000
604.813; 3874.825;  211.375;    0.000
604.935; 3801.825;  171.375;    0.000
605.058; 3818.825;  196.375;    0.000
605.180; 3758.825;  194.375;    0.000
605.303; 3846.825;  198.375;    0.000
605.425; 3910.825;  212.375;    0.000
605.547; 3895.825;  238.375;    0.000
605.670; 3814.825;  207.375;    0.000
605.792; 3824.825;  204.375;    0.000
605.915; 3818.825;  198.375;    0.000
606.037; 3866.825;  215.375;    0.000
606.159; 3828.825;  170.375;    0.000
606.282; 3830.825;  194.375;    0.000
606.404; 3847.825;  207.375;    0.000
606.526; 3730.825;  208.375;    0.000
606.648; 3778.825;  174.375;    0.000
606.771; 3857.825;  170.375;    0.000
606.893; 3734.825;  182.375;    0.000
607.015; 3664.825;  180.375;    0.000
607.137; 3788.825;  187.375;    0.000
607.260; 3820.825;  202.375;    0.000
607.382; 3827.825;  226.375;    0.000
607.504; 3744.825;  208.375;    0.000
607.626; 3703.825;  229.375;    0.000
607.748; 3725.825;  170.375;    0.000
607.870; 3729.825;  208.375;    0.000
607.992; 3798.825;  184.375;    0.000
608.114; 3753.825;  213.375;    0.000
608.237; 3752.825;  237.375;    0.000
608.359; 3673.825;  176.375;    0.000
608.481; 3707.825;  173.375;    0.000
608.603; 3680.825;  189.375;    0.000
608.725; 3721.825;  185.375;    0.000
608.847; 3721.825;  239.375;    0.000
608.969; 3789.825;  237.375;    0.000
609.090; 3680.825;  189.375;    0.000
609.212; 3807.825;  147.375;    0.000
609.334; 3685.825;  177.375;    0.000
609.456; 3795.825;  196.375;    0.000
609.578; 3689.825;  199.375;    0.000
609.700; 3603.825;  167.375;    0.000
609.822; 3652.825;  140.375;    0.000
609.944; 3715.825;  225.375;    0.000
610.065; 3722.825;  183.375;    0.000
610.187; 3581.825;  170.375;    0.000
610.309; 3614.825;  210.375;    0.000
610.431; 3611.825;  185.375;    0.000
610.552; 3592.825;  197.375;    0.000
610.674; 3604.825;  188.375;    0.000
610.796; 3601.825;  162.375;    0.000
610.918; 3636.825;  200.375;    0.000
611.039; 3486.825;  209.375;    0.000
611.161; 3691.825;  201.375;    0.000
611.282; 3697.825;  197.375;    0.000
611.404; 3817.825;  220.375;    0.000
611.526; 3655.825;  159.375;    0.000
611.647; 3612.825;  205.375;    0.000
611.769; 3540.825;  161.375;    0.000
611.890; 3627.825;  173.375;    0.000
612.012; 3749.825;  225.375;    0.000
612.133; 3654.825;  188.375;    0.000
612.255; 3671.825;  217.375;    0.000
612.377; 3695.825;  219.375;    0.000
612.498; 3582.825;  177.375;    0.000
612.619; 3727.825;  211.375;    0.000
612.741; 3572.825;  185.375;    0.000
612.862; 3648.825;  191.375;    0.000
612.984; 3580.825;  190.375;    0.000
613.105; 3620.825;  211.375;    0.000
613.226; 3600.825;  174.375;    0.000
613.348; 3623.825;  235.375;    0.000
613.469; 3583.825;  230.375;    0.000
613.590; 3501.825;  208.375;    0.000
613.712; 3611.825;  244.375;    0.000
613.833; 3587.825;  202.375;    0.000
613.954; 3592.825;  228.375;    0.000
614.076; 3642.825;  220.375;    0.000
614.197; 3581.825;  191.375;    0.000
614.318; 3596.825;  201.375;    0.000
614.439; 3520.825;  212.375;    0.000
614.560; 3553.825;  219.375;    0.000
614.682; 3576.825;  189.375;    0.000
614.803; 3563.825;  188.375;    0.000
614.924; 3553.825;  225.375;    0.000
615.045; 3643.825;  227.375;    0.000
615.166; 3617.825;  200.375;    0.000
615.287; 3737.825;  195.375;    0.000
615.408; 3990.825;  199.375;    0.000
615.529; 4107.825;  227.375;    0.000
615.650; 3930.825;  176.375;    0.000
615.771; 3829.825;  211.375;    0.000
615.892; 3825.825;  212.375;    0.000
616.013; 4306.825;  172.375;    0.000
616.134; 4506.825;  220.375;    0.000
616.255; 4332.825;  251.375;    0.000
616.376; 4025.825;  186.375;    0.000
616.497; 3849.825;  201.375;    0.000
616.618; 3720.825;  149.375;    0.000
616.739; 3816.825;  213.375;    0.000
616.860; 3727.825;  224.375;    0.000
616.981; 3629.825;  224.375;    0.000
617.102; 3691.825;  217.375;    0.000
617.222; 3613.825;  237.375;    0.000
617.343; 3701.825;  205.375;    0.000
617.464; 3698.825;  229.375;    0.000
617.585; 3581.825;  227.375;    0.000
617.705; 3658.825;  191.375;    0.000
617.826; 3543.825;  237.375;    0.000
617.947; 3581.825;  223.375;    0.000
618.068; 3556.825;  189.375;    0.000
618.188; 3547.825;  194.375;    0.000
618.309; 3542.825;  206.375;    0.000
618.430; 3594.825;  229.375;    0.000
618.550; 3559.825;  250.375;    0.000
618.671; 3493.825;  201.375;    0.000
618.791; 3574.825;  226.375;    0.000
618.912; 3552.825;  246.375;    0.000
619.033; 3558.825;  243.375;    0.000
619.153; 3598.825;  208.375;    0.000
619.274; 3621.825;  223.375;    0.000
619.394; 3584.825;  226.375;    0.000
619.515; 3467.825;  188.375;    0.000
619.635; 3568.825;  216.375;    0.000
619.756; 3530.825;  229.375;    0.000
619.876; 3459.825;  216.375;    0.000
619.996; 3505.825;  244.375;    0.000
620.117; 3476.825;  225.375;    0.000
620.237; 3497.825;  207.375;    0.000
620.358; 3422.825;  239.375;    0.000
620.478; 3400.825;  237.375;    0.000
620.598; 3593.825;  237.375;    0.000
620.719; 3443.825;  223.375;    0.000
620.839; 3509.825;  254.375;    0.000
620.959; 3430.825;  244.375;    0.000
621.079; 3471.825;  193.375;    0.000
621.200; 3429.825;  233.375;    0.000
621.320; 3510.825;  270.375;    0.000
621.440; 3505.825;  206.375;    0.000
621.560; 3482.825;  241.375;    0.000
621.681; 3406.825;  231.375;    0.000
621.801; 3425.825;  235.375;    0.000
621.921; 3440.825;  240.375;    0.000
622.041; 3435.825;  244.375;    0.000
622.161; 3420.825;  225.375;    0.000
622.281; 3476.825;  222.375;    0.000
622.401; 3423.825;  238.375;    0.000
622.521; 3381.825;  233.375;    0.000
622.641; 3396.825;  241.375;    0.000
622.761; 3391.825;  233.375;    0.000
622.882; 3435.825;  230.375;    0.000
623.002; 3406.825;  206.375;    0.000
623.121; 3461.825;  217.375;    0.000
623.241; 3389.825;  263.375;    0.000
623.361; 3340.825;  245.375;    0.000
623.481; 3308.825;  194.375;    0.000
623.601; 3350.825;  228.375;    0.000
623.721; 3309.825;  219.375;    0.000
623.841; 3333.825;  234.375;    0.000
623.961; 3405.825;  235.375;    0.000
624.081; 3319.825;  166.375;    0.000
624.201; 3338.825;  229.375;    0.000
624.320; 3337.825;  224.375;    0.000
624.440; 3373.825;  200.375;    0.000
624.560; 3391.825;  220.375;    0.000
624.680; 3260.825;  214.375;    0.000
624.799; 3228.825;  179.375;    0.000
624.919; 3361.825;  199.375;    0.000
625.039; 3285.825;  211.375;    0.000
625.159; 3324.825;  213.375;    0.000
625.278; 3305.825;  178.375;    0.000
625.398; 3277.825;  206.375;    0.000
625.518; 3315.825;  182.375;    0.000
625.637; 3267.825;  206.375;    0.000
625.757; 3295.825;  197.375;    0.000
625.876; 3331.825;  204.375;    0.000
625.996; 3399.825;  222.375;    0.000
626.115; 3256.825;  222.375;    0.000
626.235; 3246.825;  222.375;    0.000
626.354; 3316.825;  211.375;    0.000
626.474; 3232.825;  217.375;    0.000
626.594; 3238.825;  190.375;    0.000
626.713; 3259.825;  200.375;    0.000
626.832; 3330.825;  234.375;    0.000
626.952; 3273.825;  214.375;    0.000
627.071; 3247.825;  243.375;    0.000
627.191; 3220.825;  192.375;    0.000
627.310; 3272.825;  211.375;    0.000
627.429; 3240.825;  218.375;    0.000
627.549; 3223.825;  214.375;    0.000
627.668; 3240.825;  208.375;    0.000
627.787; 3285.825;  199.375;    0.000
627.907; 3265.825;  208.375;    0.000
628.026; 3281.825;  216.375;    0.000
628.145; 3258.825;  170.375;    0.000
628.264; 3235.825;  217.375;    0.000
628.384; 3287.825;  190.375;    0.000
628.503; 3301.825;  203.375;    0.000
628.622; 3273.825;  197.375;    0.000
628.741; 3258.825;  186.375;    0.000
628.860; 3380.825;  191.375;    0.000
628.980; 3206.825;  196.375;    0.000
629.099; 3277.825;  190.375;    0.000
629.218; 3197.825;  165.375;    0.000
629.337; 3222.825;  190.375;    0.000
629.456; 3251.825;  222.375;    0.000
629.575; 3266.825;  197.375;    0.000
629.694; 3193.825;  210.375;    0.000
629.813; 3315.825;  187.375;    0.000
629.932; 3232.825;  224.375;    0.000
630.051; 3210.825;  216.375;    0.000
630.170; 3270.825;  203.375;    0.000
630.289; 3121.825;  178.375;    0.000
630.408; 3224.825;  192.375;    0.000
630.527; 3367.825;  223.375;    0.000
630.646; 3204.825;  177.375;    0.000
630.764; 3178.825;  224.375;    0.000
630.883; 3259.825;  220.375;    0.000
631.002; 3207.825;  187.375;    0.000
631.121; 3262.825;  208.375;    0.000
631.240; 3179.825;  217.375;    0.000
631.359; 3204.825;  241.375;    0.000
631.477; 3216.825;  189.375;    0.000
631.596; 3286.825;  244.375;    0.000
631.715; 3238.825;  241.375;    0.000
631.834; 3172.825;  219.375;    0.000
631.952; 3237.825;  231.375;    0.000
632.071; 3183.825;  197.375;    0.000
632.190; 3182.825;  193.375;    0.000
632.308; 3250.825;  185.375;    0.000
632.427; 3225.825;  188.375;    0.000
632.546; 3231.825;  208.375;    0.000
632.664; 3166.825;  191.375;    0.000
632.783; 3220.825;  201.375;    0.000
632.901; 3092.825;  239.375;    0.000
633.020; 3083.825;  197.375;    0.000
633.138; 3196.825;  189.375;    0.000
633.257; 3208.825;  210.375;    0.000
633.375; 3159.825;  213.375;    0.000
633.494; 3137.825;  206.375;    0.000
633.612; 3190.825;  231.375;    0.000
633.731; 3161.825;  213.375;    0.000
633.849; 3165.825;  244.375;    0.000
633.968; 3122.825;  251.375;    0.000
634.086; 3115.825;  224.375;    0.000
634.204; 3120.825;  212.375;    0.000
634.323; 3183.825;  213.375;    0.000
634.441; 3157.825;  219.375;    0.000
634.559; 3194.825;  198.375;    0.000
634.678; 3048.825;  201.375;    0.000
634.796; 3187.825;  179.375;    0.000
634.914; 3150.825;  255.375;    0.000
635.032; 3139.825;  264.375;    0.000
635.151; 3088.825;  228.375;    0.000
635.269; 3105.825;  223.375;    0.000
635.387; 3092.825;  228.375;    0.000
635.505; 3038.825;  214.375;    0.000
635.623; 3136.825;  279.375;    0.000
635.742; 3125.825;  237.375;    0.000
635.860; 3117.825;  244.375;    0.000
635.978; 3049.825;  213.375;    0.000
636.096; 3072.825;  230.375;    0.000
636.214; 3131.825;  252.375;    0.000
636.332; 3031.825;  221.375;    0.000
636.450; 3109.825;  227.375;    0.000
636.568; 3077.825;  193.375;    0.000
636.686; 3107.825;  208.375;    0.000
636.804; 3076.825;  213.375;    0.000
636.922; 3116.825;  199.375;    0.000
637.040; 3071.825;  202.375;    0.000
637.158; 3135.825;  239.375;    0.000
637.276; 3022.825;  225.375;    0.000
637.394; 3059.825;  217.375;    0.000
637.512; 3137.825;  192.375;    0.000
637.629; 3126.825;  216.375;    0.000
637.747; 3078.825;  198.375;    0.000
637.865; 3182.825;  265.375;    0.000
637.983; 3118.825;  245.375;    0.000
638.101; 2971.825;  199.375;    0.000
638.218; 3084.825;  197.375;    0.000
638.336; 3036.825;  212.375;    0.000
638.454; 3062.825;  227.375;    0.000
638.572; 3052.825;  215.375;    0.000
638.689; 3140.825;  214.375;    0.000
638.807; 3087.825;  233.375;    0.000
638.925; 3087.825;  217.375;    0.000
639.042; 3116.825;  180.375;    0.000
639.160; 3131.825;  220.375;    0.000
639.278; 3013.825;  180.375;    0.000
639.395; 3128.825;  243.375;    0.000
639.513; 3112.825;  207.375;    0.000
639.630; 3149.825;  183.375;    0.000
639.748; 3022.825;  231.375;    0.000
639.865; 3095.825;  215.375;    0.000
639.983; 3061.825;  182.375;    0.000
640.100; 3103.825;  190.375;    0.000
640.218; 2949.825;  224.375;    0.000
640.335; 3048.825;  214.375;    0.000
640.453; 3146.825;  212.375;    0.000
640.570; 3061.825;  224.375;    0.000
640.688; 3092.825;  220.375;    0.000
640.805; 3063.825;  189.375;    0.000
640.922; 3123.825;  256.375;    0.000
641.040; 3064.825;  209.375;    0.000
641.157; 2993.825;  195.375;    0.000
641.274; 3053.825;  195.375;    0.000
641.391; 3104.825;  231.375;    0.000
641.509; 3070.825;  207.375;    0.000
641.626; 3065.825;  227.375;    0.000
641.743; 3053.825;  188.375;    0.000
641.860; 3011.825;  208.375;    0.000
641.978; 3101.825;  222.375;    0.000
642.095; 2990.825;  194.375;    0.000
642.212; 2993.825;  202.375;    0.000
642.329; 3099.825;  241.375;    0.000
642.446; 2994.825;  261.375;    0.000
642.563; 3021.825;  236.375;    0.000
642.681; 3048.825;  228.375;    0.000
642.798; 3091.825;  242.375;    0.000
642.915; 3028.825;  197.375;    0.000
643.032; 3084.825;  239.375;    0.000
643.149; 3153.825;  241.375;    0.000
643.266; 3061.825;  199.375;    0.000
643.383; 3060.825;  200.375;    0.000
643.500; 3123.825;  221.375;    0.000
643.617; 3149.825;  196.375;    0.000
643.734; 3083.825;  207.375;    0.000
643.850; 3027.825;  222.375;    0.000
643.967; 3077.825;  235.375;    0.000
644.084; 3102.825;  233.375;    0.000
644.201; 3101.825;  229.375;    0.000
644.318; 3052.825;  210.375;    0.000
644.435; 3068.825;  234.375;    0.000
644.552; 3101.825;  220.375;    0.000
644.668; 3154.825;  231.375;    0.000
644.785; 3091.825;  231.375;    0.000
644.902; 3055.825;  238.375;    0.000
645.019; 3029.825;  226.375;    0.000
645.135; 3125.825;  179.375;    0.000
645.252; 3162.825;  224.375;    0.000
645.369; 3088.825;  206.375;    0.000
645.485; 3100.825;  200.375;    0.000
645.602; 3129.825;  210.375;    0.000
645.719; 3243.825;  206.375;    0.000
645.835; 3276.825;  247.375;    0.000
645.952; 3121.825;  222.375;    0.000
646.068; 3103.825;  205.375;    0.000
646.185; 3257.825;  230.375;    0.000
646.302; 3230.825;  254.375;    0.000
646.418; 3213.825;  230.375;    0.000
646.535; 3129.825;  214.375;    0.000
646.651; 3252.825;  179.375;    0.000
646.768; 3195.825;  190.375;    0.000
646.884; 3192.825;  208.375;    0.000
647.000; 3167.825;  262.375;    0.000
647.117; 3205.825;  212.375;    0.000
647.233; 3219.825;  228.375;    0.000
647.350; 3334.825;  208.375;    0.000
647.466; 3243.825;  211.375;    0.000
647.582; 3306.825;  196.375;    0.000
647.699; 3287.825;  217.375;    0.000
647.815; 3248.825;  203.375;    0.000
647.931; 3244.825;  201.375;    0.000
648.047; 3320.825;  182.375;    0.000
648.164; 3370.825;  219.375;    0.000
648.280; 3322.825;  213.375;    0.000
648.396; 3389.825;  202.375;    0.000
648.512; 3393.825;  233.375;    0.000
648.629; 3385.825;  206.375;    0.000
648.745; 3392.825;  188.375;    0.000
648.861; 3318.825;  209.375;    0.000
648.977; 3327.825;  218.375;    0.000
649.093; 3385.825;  225.375;    0.000
649.209; 3315.825;  240.375;    0.000
649.325; 3431.825;  253.375;    0.000
649.441; 3424.825;  263.375;    0.000
649.557; 3438.825;  256.375;    0.000
649.673; 3431.825;  211.375;    0.000
649.789; 3450.825;  237.375;    0.000
649.905; 3384.825;  183.375;    0.000
650.021; 3527.825;  238.375;    0.000
650.137; 3380.825;  241.375;    0.000
650.253; 3544.825;  228.375;    0.000
650.369; 3490.825;  221.375;    0.000
650.485; 3411.825;  240.375;    0.000
650.601; 3518.825;  254.375;    0.000
650.717; 3495.825;  201.375;    0.000
650.833; 3479.825;  257.375;    0.000
650.948; 3564.825;  213.375;    0.000
651.064; 3546.825;  223.375;    0.000
651.180; 3578.825;  230.375;    0.000
651.296; 3608.825;  235.375;    0.000
651.411; 3586.825;  221.375;    0.000
651.527; 3471.825;  233.375;    0.000
651.643; 3704.825;  236.375;    0.000
651.759; 3664.825;  268.375;    0.000
651.874; 3637.825;  214.375;    0.000
651.990; 3724.825;  251.375;    0.000
652.105; 3740.825;  217.375;    0.000
652.221; 3793.825;  243.375;    0.000
652.337; 3795.825;  231.375;    0.000
652.452; 3807.825;  238.375;    0.000
652.568; 3849.825;  188.375;    0.000
652.683; 3859.825;  197.375;    0.000
652.799; 3801.825;  194.375;    0.000
652.914; 3872.825;  222.375;    0.000
653.030; 3922.825;  200.375;    0.000
653.145; 3899.825;  235.375;    0.000
653.261; 4036.825;  261.375;    0.000
653.376; 4001.825;  228.375;    0.000
653.492; 3999.825;  222.375;    0.000
653.607; 4088.825;  227.375;    0.000
653.722; 4216.825;  250.375;    0.000
653.838; 4245.825;  255.375;    0.000
653.953; 4257.825;  235.375;    0.000
654.068; 4440.825;  266.375;    0.000
654.184; 4469.825;  210.375;    0.000
654.299; 4543.825;  240.375;    0.000
654.414; 4455.825;  222.375;    0.000
654.530; 4601.825;  222.375;    0.000
654.645; 4689.825;  256.375;    0.000
654.760; 4689.825;  244.375;    0.000
654.875; 4926.825;  229.375;    0.000
654.990; 5006.825;  226.375;    0.000
655.106; 5169.825;  254.375;    0.000
655.221; 5225.825;  251.375;    0.000
655.336; 5335.825;  245.375;    0.000
655.451; 5408.825;  199.375;    0.000
655.566; 5600.825;  228.375;    0.000
655.681; 5691.825;  208.375;    0.000
655.796; 5893.825;  218.375;    0.000
655.911; 6170.825;  233.375;    0.000
656.026; 6305.825;  232.375;    0.000
656.141; 6601.825;  223.375;    0.000
656.256; 6640.825;  247.375;    0.000
656.371; 6811.825;  220.375;    0.000
656.486; 6860.825;  225.375;    0.000
656.601; 6769.825;  257.375;    0.000
656.716; 6405.825;  248.375;    0.000
656.831; 6447.825;  262.375;    0.000
656.946; 6342.825;  249.375;    0.000
657.060; 6185.825;  245.375;    0.000
657.175; 6119.825;  245.375;    0.000
657.290; 5863.825;  219.375;    0.000
657.405; 5906.825;  286.375;    0.000
657.520; 5714.825;  259.375;    0.000
657.634; 5613.825;  239.375;    0.000
657.749; 5454.825;  227.375;    0.000
657.864; 5520.825;  210.375;    0.000
657.979; 5312.825;  236.375;    0.000
658.093; 5244.825;  210.375;    0.000
658.208; 5085.825;  248.375;    0.000
658.323; 4984.825;  216.375;    0.000
658.437; 4939.825;  248.375;    0.000
658.552; 4895.825;  249.375;    0.000
658.666; 4849.825;  256.375;    0.000
658.781; 4751.825;  247.375;    0.000
658.895; 4659.825;  209.375;    0.000
659.010; 4592.825;  219.375;    0.000
659.125; 4532.825;  215.375;    0.000
659.239; 4367.825;  205.375;    0.000
659.353; 4338.825;  246.375;    0.000
659.468; 4426.825;  245.375;    0.000
659.582; 4317.825;  244.375;    0.000
659.697; 4209.825;  242.375;    0.000
659.811; 4160.825;  239.375;    0.000
659.926; 4162.825;  226.375;    0.000
660.040; 4160.825;  255.375;    0.000
660.154; 4091.825;  225.375;    0.000
660.269; 3993.825;  200.375;    0.000
660.383; 3999.825;  192.375;    0.000
660.497; 4012.825;  218.375;    0.000
660.612; 3891.825;  236.375;    0.000
660.726; 3828.825;  263.375;    0.000
660.840; 3917.825;  205.375;    0.000
660.954; 3870.825;  219.375;    0.000
661.068; 3831.825;  240.375;    0.000
661.183; 3836.825;  221.375;    0.000
661.297; 3761.825;  194.375;    0.000
661.411; 3629.825;  253.375;    0.000
661.525; 3704.825;  246.375;    0.000
661.639; 3674.825;  217.375;    0.000
661.753; 3569.825;  241.375;    0.000
661.867; 3591.825;  276.375;    0.000
661.981; 3555.825;  203.375;    0.000
662.095; 3555.825;  224.375;    0.000
662.209; 3474.825;  217.375;    0.000
662.323; 3503.825;  251.375;    0.000
662.437; 3394.825;  243.375;    0.000
662.551; 3400.825;  244.375;    0.000
662.665; 3414.825;  247.375;    0.000
662.779; 3274.825;  251.375;    0.000
662.893; 3362.825;  254.375;    0.000
663.007; 3362.825;  222.375;    0.000
663.121; 3327.825;  253.375;    0.000
663.235; 3202.825;  270.375;    0.000
663.349; 3320.825;  242.375;    0.000
663.462; 3144.825;  230.375;    0.000
663.576; 3202.825;  230.375;    0.000
663.690; 3164.825;  249.375;    0.000
663.804; 3126.825;  200.375;    0.000
663.917; 3151.825;  204.375;    0.000
664.031; 3089.825;  206.375;    0.000
664.145; 3046.825;  202.375;    0.000
664.258; 3041.825;  221.375;    0.000
664.372; 3054.825;  215.375;    0.000
664.486; 2972.825;  179.375;    0.000
664.599; 3047.825;  208.375;    0.000
664.713; 3092.825;  268.375;    0.000
664.827; 3017.825;  225.375;    0.000
664.940; 2948.825;  222.375;    0.000
665.054; 2919.825;  208.375;    0.000
665.167; 2908.825;  253.375;    0.000
665.281; 2981.825;  237.375;    0.000
665.394; 2967.825;  227.375;    0.000
665.508; 2913.825;  192.375;    0.000
665.621; 2900.825;  175.375;    0.000
665.735; 2965.825;  249.375;    0.000
665.848; 2879.825;  197.375;    0.000
665.961; 2854.825;  206.375;    0.000
666.075; 2897.825;  245.375;    0.000
666.188; 2985.825;  230.375;    0.000
666.301; 2827.825;  219.375;    0.000
666.415; 2840.825;  231.375;    0.000
666.528; 2816.825;  258.375;    0.000
666.641; 2865.825;  243.375;    0.000
666.755; 2771.825;  208.375;    0.000
666.868; 2762.825;  228.375;    0.000
666.981; 2819.825;  244.375;    0.000
667.094; 2819.825;  244.375;    0.000
667.207; 2795.825;  226.375;    0.000
667.321; 2744.825;  175.375;    0.000
667.434; 2646.825;  211.375;    0.000
667.547; 2786.825;  249.375;    0.000
667.660; 2688.825;  225.375;    0.000
667.773; 2648.825;  242.375;    0.000
667.886; 2661.825;  246.375;    0.000
667.999; 2764.825;  244.375;    0.000
668.112; 2748.825;  227.375;    0.000
668.225; 2671.825;  231.375;    0.000
668.338; 2651.825;  256.375;    0.000
668.451; 2659.825;  216.375;    0.000
668.564; 2661.825;  261.375;    0.000
668.677; 2607.825;  230.375;    0.000
668.790; 2660.825;  192.375;    0.000
668.903; 2648.825;  243.375;    0.000
669.016; 2568.825;  201.375;    0.000
669.129; 2575.825;  249.375;    0.000
669.242; 2570.825;  190.375;    0.000
669.354; 2643.825;  219.375;    0.000
669.467; 2635.825;  242.375;    0.000
669.580; 2637.825;  237.375;    0.000
669.693; 2604.825;  243.375;    0.000
669.806; 2582.825;  234.375;    0.000
669.918; 2544.825;  206.375;    0.000
670.031; 2636.825;  258.375;    0.000
670.144; 2561.825;  231.375;    0.000
670.256; 2583.825;  244.375;    0.000
670.369; 2558.825;  262.375;    0.000
670.482; 2521.825;  264.375;    0.000
670.594; 2513.825;  256.375;    0.000
670.707; 2483.825;  224.375;    0.000
670.820; 2526.825;  261.375;    0.000
670.932; 2502.825;  226.375;    0.000
671.045; 2539.825;  243.375;    0.000
671.157; 2557.825;  235.375;    0.000
671.270; 2586.825;  217.375;    0.000
671.382; 2496.825;  267.375;    0.000
671.495; 2598.825;  258.375;    0.000
671.607; 2534.825;  236.375;    0.000
671.720; 2459.825;  200.375;    0.000
671.832; 2438.825;  219.375;    0.000
671.944; 2437.825;  234.375;    0.000
672.057; 2430.825;  226.375;    0.000
672.169; 2478.825;  225.375;    0.000
672.281; 2472.825;  253.375;    0.000
672.394; 2496.825;  238.375;    0.000
672.506; 2481.825;  244.375;    0.000
672.618; 2442.825;  272.375;    0.000
672.731; 2454.825;  247.375;    0.000
672.843; 2415.825;  261.375;    0.000
672.955; 2457.825;  262.375;    0.000
673.067; 2475.825;  253.375;    0.000
673.180; 2392.825;  239.375;    0.000
673.292; 2438.825;  240.375;    0.000
673.404; 2438.825;  243.375;    0.000
673.516; 2485.825;  258.375;    0.000
673.628; 2446.825;  263.375;    0.000
673.740; 2393.825;  250.375;    0.000
673.852; 2410.825;  285.375;    0.000
673.964; 2462.825;  264.375;    0.000
674.076; 2361.825;  260.375;    0.000
674.188; 2362.825;  226.375;    0.000
674.300; 2465.825;  272.375;    0.000
674.412; 2302.825;  259.375;    0.000
674.524; 2352.825;  283.375;    0.000
674.636; 2389.825;  259.375;    0.000
674.748; 2396.825;  238.375;    0.000
674.860; 2367.825;  277.375;    0.000
674.972; 2394.825;  272.375;    0.000
675.084; 2303.825;  244.375;    0.000
675.196; 2471.825;  272.375;    0.000
675.307; 2343.825;  244.375;    0.000
675.419; 2338.825;  219.375;    0.000
675.531; 2368.825;  275.375;    0.000
675.643; 2390.825;  215.375;    0.000
675.755; 2342.825;  243.375;    0.000
675.866; 2392.825;  223.375;    0.000
675.978; 2272.825;  216.375;    0.000
676.090; 2337.825;  242.375;    0.000
676.201; 2294.825;  276.375;    0.000
676.313; 2338.825;  226.375;    0.000
676.425; 2389.825;  234.375;    0.000
676.536; 2293.825;  231.375;    0.000
676.648; 2289.825;  254.375;    0.000
676.759; 2334.825;  273.375;    0.000
676.871; 2306.825;  250.375;    0.000
676.983; 2287.825;  256.375;    0.000
677.094; 2313.825;  210.375;    0.000
677.206; 2271.825;  248.375;    0.000
677.317; 2330.825;  263.375;    0.000
677.429; 2286.825;  238.375;    0.000
677.540; 2250.825;  247.375;    0.000
677.651; 2241.825;  224.375;    0.000
677.763; 2232.825;  217.375;    0.000
677.874; 2340.825;  234.375;    0.000
677.986; 2234.825;  238.375;    0.000
678.097; 2220.825;  226.375;    0.000
678.208; 2293.825;  253.375;    0.000
678.320; 2205.825;  217.375;    0.000
678.431; 2195.825;  238.375;    0.000
678.542; 2194.825;  236.375;    0.000
678.653; 2207.825;  218.375;    0.000
678.765; 2155.825;  275.375;    0.000
678.876; 2177.825;  213.375;    0.000
678.987; 2154.825;  182.375;    0.000
679.098; 2202.825;  221.375;    0.000
679.209; 2234.825;  238.375;    0.000
679.320; 2170.825;  212.375;    0.000
679.432; 2247.825;  231.375;    0.000
679.543; 2146.825;  198.375;    0.000
679.654; 2200.825;  191.375;    0.000
679.765; 2156.825;  214.375;    0.000
679.876; 2162.825;  221.375;    0.000
679.987; 2176.825;  162.375;    0.000
680.098; 2230.825;  230.375;    0.000
680.209; 2131.825;  206.375;    0.000
680.320; 2115.825;  196.375;    0.000
680.431; 2162.825;  191.375;    0.000
680.542; 2149.825;  214.375;    0.000
680.653; 2152.825;  238.375;    0.000
680.763; 2094.825;  182.375;    0.000
680.874; 2158.825;  213.375;    0.000
680.985; 2106.825;  224.375;    0.000
681.096; 2147.825;  222.375;    0.000
681.207; 2097.825;  220.375;    0.000
681.318; 2098.825;  216.375;    0.000
681.428; 2156.825;  229.375;    0.000
681.539; 2064.825;  183.375;    0.000
681.650; 2150.825;  202.375;    0.000
681.760; 2133.825;  223.375;    0.000
681.871; 2168.825;  211.375;    0.000
681.982; 2109.825;  189.375;    0.000
682.093; 2175.825;  222.375;    0.000
682.203; 2138.825;  220.375;    0.000
682.314; 2173.825;  214.375;    0.000
682.424; 2101.825;  208.375;    0.000
682.535; 2147.825;  213.375;    0.000
682.646; 2152.825;  302.375;    0.000
682.756; 2198.825;  255.375;    0.000
682.867; 2173.825;  244.375;    0.000
682.977; 2131.825;  221.375;    0.000
683.088; 2018.825;  259.375;    0.000
683.198; 2073.825;  212.375;    0.000
683.308; 2074.825;  202.375;    0.000
683.419; 2131.825;  255.375;    0.000
683.529; 2028.825;  217.375;    0.000
683.640; 2158.825;  240.375;    0.000
683.750; 2125.825;  181.375;    0.000
683.860; 2122.825;  246.375;    0.000
683.971; 2164.825;  254.375;    0.000
684.081; 2049.825;  235.375;    0.000
684.191; 2168.825;  251.375;    0.000
684.301; 2101.825;  233.375;    0.000
684.412; 2110.825;  202.375;    0.000
684.522; 2111.825;  232.375;    0.000
684.632; 2123.825;  202.375;    0.000
684.742; 2117.825;  254.375;    0.000
684.852; 2087.825;  219.375;    0.000
684.963; 2084.825;  256.375;    0.000
685.073; 2084.825;  253.375;    0.000
685.183; 2066.825;  254.375;    0.000
685.293; 2063.825;  232.375;    0.000
685.403; 2074.825;  242.375;    0.000
685.513; 2085.825;  261.375;    0.000
685.623; 2077.825;  245.375;    0.000
685.733; 2088.825;  254.375;    0.000
685.843; 2080.825;  249.375;    0.000
685.953; 2080.825;  252.375;    0.000
686.063; 2001.825;  227.375;    0.000
686.173; 2031.825;  223.375;    0.000
686.283; 2091.825;  234.375;    0.000
686.393; 2015.825;  239.375;    0.000
686.503; 2113.825;  231.375;    0.000
686.612; 2079.825;  232.375;    0.000
686.722; 2108.825;  258.375;    0.000
686.832; 2042.825;  256.375;    0.000
686.942; 2162.825;  230.375;    0.000
687.052; 2107.825;  274.375;    0.000
687.161; 2154.825;  269.375;    0.000
687.271; 2101.825;  218.375;    0.000
687.381; 2058.825;  235.375;    0.000
687.491; 2076.825;  262.375;    0.000
687.600; 2008.825;  256.375;    0.000
687.710; 2118.825;  225.375;    0.000
687.820; 2111.825;  230.375;    0.000
687.929; 2050.825;  226.375;    0.000
688.039; 2063.825;  228.375;    0.000
688.148; 2039.825;  249.375;    0.000
688.258; 2004.825;  237.375;    0.000
688.367; 2088.825;  260.375;    0.000
688.477; 2024.825;  200.375;    0.000
688.586; 2074.825;  223.375;    0.000
688.696; 2050.825;  223.375;    0.000
688.805; 2071.825;  257.375;    0.000
688.915; 1999.825;  185.375;    0.000
689.024; 2061.825;  227.375;    0.000
689.134; 1986.825;  224.375;    0.000
689.243; 1978.825;  206.375;    0.000
689.352; 2056.825;  275.375;    0.000
689.462; 2070.825;  233.375;    0.000
689.571; 2029.825;  244.375;    0.000
689.680; 2082.825;  261.375;    0.000
689.790; 1932.825;  192.375;    0.000
689.899; 2043.825;  214.375;    0.000
690.008; 2056.825;  255.375;    0.000
690.117; 2065.825;  219.375;    0.000
690.227; 2002.825;  241.375;    0.000
690.336; 2007.825;  231.375;    0.000
690.445; 2000.825;  212.375;    0.000
690.554; 2057.825;  234.375;    0.000
690.663; 1967.825;  210.375;    0.000
690.772; 2006.825;  221.375;    0.000
690.881; 1990.825;  244.375;    0.000
690.990; 1995.825;  247.375;    0.000
691.099; 1967.825;  222.375;    0.000
691.209; 1990.825;  240.375;    0.000
691.318; 2032.825;  223.375;    0.000
691.427; 1950.825;  217.375;    0.000
691.536; 2040.825;  216.375;    0.000
691.644; 2000.825;  194.375;    0.000
691.753; 1944.825;  221.375;    0.000
691.862; 2037.825;  224.375;    0.000
691.971; 2030.825;  191.375;    0.000
692.080; 2051.825;  247.375;    0.000
692.189; 2043.825;  208.375;    0.000
692.298; 1955.825;  203.375;    0.000
692.406; 2007.825;  239.375;    0.000
692.515; 2024.825;  250.375;    0.000
692.624; 2012.825;  226.375;    0.000
692.733; 2078.825;  229.375;    0.000
692.842; 1980.825;  254.375;    0.000
692.950; 1978.825;  242.375;    0.000
693.059; 1973.825;  204.375;    0.000
693.168; 1999.825;  252.375;    0.000
693.276; 2042.825;  195.375;    0.000
693.385; 2009.825;  228.375;    0.000
693.494; 2008.825;  282.375;    0.000
693.602; 2037.825;  221.375;    0.000
693.711; 1918.825;  225.375;    0.000
693.819; 1984.825;  234.375;    0.000
693.928; 2075.825;  229.375;    0.000
694.036; 1977.825;  192.375;    0.000
694.145; 2011.825;  233.375;    0.000
694.253; 1968.825;  277.375;    0.000
694.362; 1947.825;  188.375;    0.000
694.470; 1966.825;  263.375;    0.000
694.579; 1979.825;  253.375;    0.000
694.687; 2044.825;  281.375;    0.000
694.795; 1993.825;  233.375;    0.000
694.904; 1926.825;  223.375;    0.000
695.012; 2042.825;  296.375;    0.000
695.120; 2000.825;  227.375;    0.000
695.229; 1993.825;  269.375;    0.000
695.337; 2027.825;  229.375;    0.000
695.445; 2034.825;  244.375;    0.000
695.553; 1962.825;  259.375;    0.000
695.662; 1969.825;  208.375;    0.000
695.770; 1945.825;  241.375;    0.000
695.878; 1966.825;  239.375;    0.000
695.986; 2010.825;  247.375;    0.000
696.094; 1902.825;  224.375;    0.000
696.202; 1933.825;  205.375;    0.000
696.310; 2015.825;  217.375;    0.000
696.419; 1978.825;  228.375;    0.000
696.527; 1954.825;  246.375;    0.000
696.635; 1942.825;  245.375;    0.000
696.743; 1987.825;  233.375;    0.000
696.851; 2012.825;  251.375;    0.000
696.959; 2006.825;  257.375;    0.000
697.067; 1938.825;  260.375;    0.000
697.174; 1974.825;  223.375;    0.000
697.282; 1972.825;  239.375;    0.000
697.390; 2011.825;  264.375;    0.000
697.498; 1916.825;  227.375;    0.000
697.606; 1894.825;  243.375;    0.000
697.714; 1984.825;  256.375;    0.000
697.822; 1955.825;  278.375;    0.000
697.929; 1942.825;  227.375;    0.000
698.037; 1895.825;  232.375;    0.000
698.145; 1962.825;  256.375;    0.000
698.253; 1901.825;  245.375;    0.000
698.360; 1886.825;  282.375;    0.000
698.468; 1970.825;  244.375;    0.000
698.576; 1982.825;  279.375;    0.000
698.683; 1944.825;  259.375;    0.000
698.791; 1977.825;  265.375;    0.000
698.899; 2002.825;  250.375;    0.000
699.006; 2036.825;  245.375;    0.000
699.114; 1892.825;  280.375;    0.000
699.221; 2003.825;  240.375;    0.000
699.329; 1921.825;  293.375;    0.000
699.436; 1976.825;  216.375;    0.000
699.544; 1927.825;  269.375;    0.000
699.651; 1911.825;  219.375;    0.000
699.759; 1860.825;  245.375;    0.000
699.866; 1983.825;  261.375;    0.000
699.974; 1879.825;  245.375;    0.000
700.081; 1906.825;  257.375;    0.000
700.188; 2002.825;  268.375;    0.000
700.296; 1893.825;  225.375;    0.000
700.403; 1970.825;  257.375;    0.000
700.510; 1916.825;  267.375;    0.000
700.618; 1986.825;  299.375;    0.000
700.725; 1864.825;  223.375;    0.000
700.832; 1881.825;  233.375;    0.000
700.940; 1954.825;  255.375;    0.000
701.047; 1927.825;  244.375;    0.000
701.154; 1930.825;  248.375;    0.000
701.261; 1897.825;  264.375;    0.000
701.368; 1965.825;  299.375;    0.000
701.475; 1924.825;  264.375;    0.000
701.582; 1944.825;  275.375;    0.000
701.690; 1908.825;  261.375;    0.000
701.797; 2013.825;  273.375;    0.000
701.904; 1985.825;  320.375;    0.000
702.011; 2047.825;  299.375;    0.000
702.118; 2013.825;  292.375;    0.000
702.225; 2029.825;  317.375;    0.000
702.332; 1937.825;  307.375;    0.000
702.439; 1999.825;  313.375;    0.000
702.546; 2012.825;  312.375;    0.000
702.652; 1967.825;  297.375;    0.000
702.759; 2041.825;  345.375;    0.000
702.866; 1983.825;  330.375;    0.000
702.973; 1946.825;  303.375;    0.000
703.080; 1935.825;  303.375;    0.000
703.187; 2008.825;  327.375;    0.000
703.294; 2005.825;  325.375;    0.000
703.400; 1794.825;  302.375;    0.000
703.507;  442.825;  344.375;    0.000
703.614;  318.825;  294.375;    0.000
703.720;  339.825;  322.375;    0.000
703.827;  319.825;  329.375;    0.000
703.934;  328.825;  318.375;    0.000
704.040;  288.825;  299.375;    0.000
704.147;  328.825;  352.375;    0.000
704.254;  316.825;  350.375;    0.000
704.360;  326.825;  347.375;    0.000
704.467;  349.825;  336.375;    0.000
704.573;  353.825;  344.375;    0.000
704.680;  351.825;  365.375;    0.000
704.786;  331.825;  332.375;    0.000
704.893;  296.825;  304.375;    0.000
704.999;  319.825;  299.375;    0.000
705.106;  343.825;  365.375;    0.000

