
Integration time [ms]:   0.300
Averaging Nr. [scans]: 1
Smoothing Nr. [pixels]: 0
Data measured with spectrometer [name]: UV1
Wave   ;Sample   ;Dark     ;Reference
[nm]   ;[counts] ;[counts] ;[counts] 

236.381;  157.725;  149.925;    0.000
236.451;  202.725;  206.925;    0.000
236.520;  165.725;  212.925;    0.000
236.590;  214.725;  189.925;    0.000
236.660;  169.725;  184.925;    0.000
236.730;  181.725;  186.925;    0.000
236.799;  194.725;  191.925;    0.000
236.869;  211.725;  184.925;    0.000
236.939;  164.725;  176.925;    0.000
237.009;  191.725;  184.925;    0.000
237.078;  187.725;  189.925;    0.000
237.148;  176.725;  217.925;    0.000
237.218;  152.725;  192.925;    0.000
237.287;  187.725;  182.925;    0.000
237.357;  168.725;  196.925;    0.000
237.427;  182.725;  144.925;    0.000
237.496;  767.725;  224.925;    0.000
237.566;  749.725;  210.925;    0.000
237.636;  732.725;  165.925;    0.000
237.705;  725.725;  214.925;    0.000
237.775;  730.725;  194.925;    0.000
237.845;  782.725;  214.925;    0.000
237.914;  745.725;  191.925;    0.000
237.984;  733.725;  218.925;    0.000
238.054;  761.725;  187.925;    0.000
238.123;  746.725;  179.925;    0.000
238.193;  710.725;  177.925;    0.000
238.263;  725.725;  225.925;    0.000
238.332;  741.725;  197.925;    0.000
238.402;  735.725;  183.925;    0.000
238.471;  684.725;  181.925;    0.000
238.541;  732.725;  200.925;    0.000
238.611;  721.725;  170.925;    0.000
238.680;  757.725;  170.925;    0.000
238.750;  702.725;  175.925;    0.000
238.819;  737.725;  180.925;    0.000
238.889;  705.725;  190.925;    0.000
238.958;  711.725;  207.925;    0.000
239.028;  725.725;  201.925;    0.000
239.097;  744.725;  181.925;    0.000
239.167;  775.725;  222.925;    0.000
239.237;  763.725;  221.925;    0.000
239.306;  754.725;  147.925;    0.000
239.376;  735.725;  188.925;    0.000
239.445;  749.725;  198.925;    0.000
239.515;  726.725;  191.925;    0.000
239.584;  710.725;  178.925;    0.000
239.654;  714.725;  147.925;    0.000
239.723;  754.725;  212.925;    0.000
239.793;  745.725;  185.925;    0.000
239.862;  714.725;  157.925;    0.000
239.932;  764.725;  181.925;    0.000
240.001;  748.725;  163.925;    0.000
240.070;  744.725;  194.925;    0.000
240.140;  751.725;  202.925;    0.000
240.209;  700.725;  180.925;    0.000
240.279;  735.725;  188.925;    0.000
240.348;  729.725;  189.925;    0.000
240.418;  689.725;  143.925;    0.000
240.487;  736.725;  195.925;    0.000
240.556;  737.725;  170.925;    0.000
240.626;  756.725;  172.925;    0.000
240.695;  677.725;  202.925;    0.000
240.765;  723.725;  191.925;    0.000
240.834;  679.725;  177.925;    0.000
240.903;  709.725;  189.925;    0.000
240.973;  755.725;  196.925;    0.000
241.042;  673.725;  183.925;    0.000
241.112;  700.725;  189.925;    0.000
241.181;  690.725;  186.925;    0.000
241.250;  685.725;  168.925;    0.000
241.320;  742.725;  200.925;    0.000
241.389;  701.725;  185.925;    0.000
241.458;  723.725;  194.925;    0.000
241.528;  712.725;  165.925;    0.000
241.597;  739.725;  200.925;    0.000
241.666;  666.725;  184.925;    0.000
241.736;  729.725;  176.925;    0.000
241.805;  690.725;  165.925;    0.000
241.874;  667.725;  200.925;    0.000
241.943;  680.725;  184.925;    0.000
242.013;  762.725;  212.925;    0.000
242.082;  701.725;  200.925;    0.000
242.151;  668.725;  196.925;    0.000
242.221;  700.725;  182.925;    0.000
242.290;  683.725;  222.925;    0.000
242.359;  634.725;  142.925;    0.000
242.428;  673.725;  180.925;    0.000
242.498;  709.725;  180.925;    0.000
242.567;  727.725;  181.925;    0.000
242.636;  636.725;  203.925;    0.000
242.705;  736.725;  209.925;    0.000
242.774;  661.725;  172.925;    0.000
242.844;  675.725;  218.925;    0.000
242.913;  666.725;  188.925;    0.000
242.982;  683.725;  193.925;    0.000
243.051;  639.725;  202.925;    0.000
243.120;  679.725;  174.925;    0.000
243.190;  732.725;  165.925;    0.000
243.259;  720.725;  206.925;    0.000
243.328;  656.725;  166.925;    0.000
243.397;  680.725;  167.925;    0.000
243.466;  632.725;  163.925;    0.000
243.535;  649.725;  162.925;    0.000
243.605;  747.725;  159.925;    0.000
243.674;  741.725;  171.925;    0.000
243.743;  715.725;  189.925;    0.000
243.812;  679.725;  169.925;    0.000
243.881;  687.725;  145.925;    0.000
243.950;  656.725;  197.925;    0.000
244.019;  671.725;  189.925;    0.000
244.088;  672.725;  200.925;    0.000
244.158;  700.725;  208.925;    0.000
244.227;  704.725;  154.925;    0.000
244.296;  707.725;  142.925;    0.000
244.365;  674.725;  198.925;    0.000
244.434;  663.725;  162.925;    0.000
244.503;  683.725;  186.925;    0.000
244.572;  685.725;  143.925;    0.000
244.641;  640.725;  145.925;    0.000
244.710;  666.725;  159.925;    0.000
244.779;  698.725;  175.925;    0.000
244.848;  642.725;  163.925;    0.000
244.917;  693.725;  157.925;    0.000
244.986;  637.725;  166.925;    0.000
245.055;  676.725;  211.925;    0.000
245.124;  662.725;  155.925;    0.000
245.193;  656.725;  187.925;    0.000
245.262;  607.725;  152.925;    0.000
245.331;  621.725;  177.925;    0.000
245.400;  607.725;  157.925;    0.000
245.469;  598.725;  195.925;    0.000
245.538;  669.725;  199.925;    0.000
245.607;  634.725;  194.925;    0.000
245.676;  573.725;  170.925;    0.000
245.745;  654.725;  208.925;    0.000
245.814;  634.725;  185.925;    0.000
245.883;  631.725;  165.925;    0.000
245.952;  606.725;  151.925;    0.000
246.021;  605.725;  171.925;    0.000
246.090;  610.725;  174.925;    0.000
246.159;  590.725;  192.925;    0.000
246.227;  628.725;  178.925;    0.000
246.296;  602.725;  159.925;    0.000
246.365;  583.725;  189.925;    0.000
246.434;  614.725;  205.925;    0.000
246.503;  590.725;  174.925;    0.000
246.572;  619.725;  203.925;    0.000
246.641;  634.725;  169.925;    0.000
246.710;  660.725;  186.925;    0.000
246.779;  602.725;  196.925;    0.000
246.847;  614.725;  209.925;    0.000
246.916;  558.725;  177.925;    0.000
246.985;  608.725;  188.925;    0.000
247.054;  573.725;  189.925;    0.000
247.123;  568.725;  196.925;    0.000
247.192;  598.725;  210.925;    0.000
247.260;  614.725;  164.925;    0.000
247.329;  593.725;  204.925;    0.000
247.398;  567.725;  204.925;    0.000
247.467;  541.725;  160.925;    0.000
247.536;  586.725;  193.925;    0.000
247.604;  628.725;  208.925;    0.000
247.673;  617.725;  168.925;    0.000
247.742;  572.725;  182.925;    0.000
247.811;  589.725;  186.925;    0.000
247.879;  556.725;  166.925;    0.000
247.948;  595.725;  192.925;    0.000
248.017;  601.725;  178.925;    0.000
248.086;  637.725;  193.925;    0.000
248.154;  625.725;  191.925;    0.000
248.223;  603.725;  207.925;    0.000
248.292;  568.725;  168.925;    0.000
248.361;  589.725;  211.925;    0.000
248.429;  559.725;  196.925;    0.000
248.498;  575.725;  163.925;    0.000
248.567;  626.725;  159.925;    0.000
248.635;  615.725;  194.925;    0.000
248.704;  559.725;  205.925;    0.000
248.773;  530.725;  190.925;    0.000
248.841;  612.725;  179.925;    0.000
248.910;  596.725;  193.925;    0.000
248.979;  594.725;  167.925;    0.000
249.047;  542.725;  166.925;    0.000
249.116;  526.725;  191.925;    0.000
249.185;  657.725;  203.925;    0.000
249.253;  599.725;  140.925;    0.000
249.322;  596.725;  173.925;    0.000
249.390;  552.725;  165.925;    0.000
249.459;  586.725;  173.925;    0.000
249.528;  569.725;  203.925;    0.000
249.596;  604.725;  204.925;    0.000
249.665;  539.725;  176.925;    0.000
249.733;  591.725;  178.925;    0.000
249.802;  620.725;  190.925;    0.000
249.871;  601.725;  171.925;    0.000
249.939;  573.725;  160.925;    0.000
250.008;  586.725;  220.925;    0.000
250.076;  590.725;  211.925;    0.000
250.145;  601.725;  145.925;    0.000
250.213;  557.725;  177.925;    0.000
250.282;  545.725;  186.925;    0.000
250.350;  558.725;  170.925;    0.000
250.419;  562.725;  195.925;    0.000
250.487;  605.725;  194.925;    0.000
250.556;  571.725;  178.925;    0.000
250.624;  575.725;  193.925;    0.000
250.693;  562.725;  167.925;    0.000
250.761;  592.725;  253.925;    0.000
250.830;  583.725;  241.925;    0.000
250.898;  548.725;  161.925;    0.000
250.967;  552.725;  178.925;    0.000
251.035;  564.725;  189.925;    0.000
251.104;  577.725;  166.925;    0.000
251.172;  532.725;  178.925;    0.000
251.241;  535.725;  174.925;    0.000
251.309;  537.725;  197.925;    0.000
251.378;  547.725;  172.925;    0.000
251.446;  543.725;  157.925;    0.000
251.514;  531.725;  197.925;    0.000
251.583;  578.725;  191.925;    0.000
251.651;  577.725;  154.925;    0.000
251.720;  550.725;  198.925;    0.000
251.788;  610.725;  226.925;    0.000
251.856;  490.725;  164.925;    0.000
251.925;  510.725;  181.925;    0.000
251.993;  565.725;  203.925;    0.000
252.062;  540.725;  211.925;    0.000
252.130;  544.725;  185.925;    0.000
252.198;  554.725;  190.925;    0.000
252.267;  526.725;  176.925;    0.000
252.335;  513.725;  179.925;    0.000
252.403;  519.725;  173.925;    0.000
252.472;  497.725;  172.925;    0.000
252.540;  506.725;  187.925;    0.000
252.608;  544.725;  204.925;    0.000
252.677;  493.725;  179.925;    0.000
252.745;  486.725;  192.925;    0.000
252.813;  493.725;  168.925;    0.000
252.881;  482.725;  157.925;    0.000
252.950;  521.725;  188.925;    0.000
253.018;  487.725;  191.925;    0.000
253.086;  456.725;  164.925;    0.000
253.155;  527.725;  172.925;    0.000
253.223;  468.725;  168.925;    0.000
253.291;  461.725;  190.925;    0.000
253.359;  494.725;  205.925;    0.000
253.428;  485.725;  228.925;    0.000
253.496;  486.725;  170.925;    0.000
253.564;  407.725;  164.925;    0.000
253.632;  439.725;  159.925;    0.000
253.700;  430.725;  166.925;    0.000
253.769;  439.725;  172.925;    0.000
253.837;  488.725;  157.925;    0.000
253.905;  408.725;  168.925;    0.000
253.973;  422.725;  179.925;    0.000
254.041;  474.725;  187.925;    0.000
254.110;  462.725;  186.925;    0.000
254.178;  421.725;  156.925;    0.000
254.246;  425.725;  132.925;    0.000
254.314;  412.725;  191.925;    0.000
254.382;  418.725;  189.925;    0.000
254.450;  430.725;  163.925;    0.000
254.518;  431.725;  172.925;    0.000
254.587;  395.725;  162.925;    0.000
254.655;  463.725;  191.925;    0.000
254.723;  458.725;  184.925;    0.000
254.791;  428.725;  169.925;    0.000
254.859;  460.725;  186.925;    0.000
254.927;  444.725;  207.925;    0.000
254.995;  402.725;  143.925;    0.000
255.063;  448.725;  198.925;    0.000
255.131;  439.725;  168.925;    0.000
255.199;  433.725;  183.925;    0.000
255.267;  465.725;  159.925;    0.000
255.336;  454.725;  197.925;    0.000
255.404;  363.725;  177.925;    0.000
255.472;  468.725;  204.925;    0.000
255.540;  467.725;  169.925;    0.000
255.608;  435.725;  141.925;    0.000
255.676;  442.725;  176.925;    0.000
255.744;  450.725;  184.925;    0.000
255.812;  419.725;  158.925;    0.000
255.880;  474.725;  202.925;    0.000
255.948;  430.725;  184.925;    0.000
256.016;  486.725;  192.925;    0.000
256.084;  528.725;  204.925;    0.000
256.152;  440.725;  191.925;    0.000
256.220;  480.725;  187.925;    0.000
256.288;  482.725;  176.925;    0.000
256.356;  434.725;  146.925;    0.000
256.424;  407.725;  164.925;    0.000
256.491;  427.725;  161.925;    0.000
256.559;  541.725;  167.925;    0.000
256.627;  482.725;  180.925;    0.000
256.695;  474.725;  159.925;    0.000
256.763;  524.725;  166.925;    0.000
256.831;  520.725;  166.925;    0.000
256.899;  479.725;  161.925;    0.000
256.967;  420.725;  116.925;    0.000
257.035;  532.725;  195.925;    0.000
257.103;  541.725;  227.925;    0.000
257.171;  475.725;  147.925;    0.000
257.238;  516.725;  158.925;    0.000
257.306;  497.725;  188.925;    0.000
257.374;  529.725;  153.925;    0.000
257.442;  493.725;  159.925;    0.000
257.510;  568.725;  201.925;    0.000
257.578;  515.725;  137.925;    0.000
257.646;  563.725;  172.925;    0.000
257.713;  511.725;  164.925;    0.000
257.781;  543.725;  163.925;    0.000
257.849;  567.725;  174.925;    0.000
257.917;  598.725;  164.925;    0.000
257.985;  552.725;  126.925;    0.000
258.052;  602.725;  158.925;    0.000
258.120;  596.725;  151.925;    0.000
258.188;  584.725;  169.925;    0.000
258.256;  624.725;  110.925;    0.000
258.324;  639.725;  193.925;    0.000
258.391;  560.725;  157.925;    0.000
258.459;  585.725;  193.925;    0.000
258.527;  577.725;  150.925;    0.000
258.595;  619.725;  173.925;    0.000
258.662;  586.725;  168.925;    0.000
258.730;  629.725;  190.925;    0.000
258.798;  601.725;  164.925;    0.000
258.865;  655.725;  165.925;    0.000
258.933;  700.725;  162.925;    0.000
259.001;  668.725;  174.925;    0.000
259.069;  659.725;  139.925;    0.000
259.136;  647.725;  160.925;    0.000
259.204;  626.725;  174.925;    0.000
259.272;  773.725;  161.925;    0.000
259.339;  721.725;  157.925;    0.000
259.407;  748.725;  159.925;    0.000
259.475;  654.725;  134.925;    0.000
259.542;  688.725;  179.925;    0.000
259.610;  743.725;  172.925;    0.000
259.677;  713.725;  152.925;    0.000
259.745;  723.725;  131.925;    0.000
259.813;  778.725;  185.925;    0.000
259.880;  721.725;  183.925;    0.000
259.948;  776.725;  168.925;    0.000
260.016;  719.725;  160.925;    0.000
260.083;  770.725;  163.925;    0.000
260.151;  746.725;  162.925;    0.000
260.218;  841.725;  171.925;    0.000
260.286;  787.725;  154.925;    0.000
260.353;  812.725;  182.925;    0.000
260.421;  840.725;  187.925;    0.000
260.489;  800.725;  185.925;    0.000
260.556;  833.725;  165.925;    0.000
260.624;  858.725;  185.925;    0.000
260.691;  823.725;  175.925;    0.000
260.759;  811.725;  201.925;    0.000
260.826;  807.725;  150.925;    0.000
260.894;  879.725;  142.925;    0.000
260.961;  862.725;  156.925;    0.000
261.029;  860.725;  161.925;    0.000
261.096;  910.725;  172.925;    0.000
261.164;  842.725;  149.925;    0.000
261.231;  962.725;  191.925;    0.000
261.299;  904.725;  182.925;    0.000
261.366;  881.725;  156.925;    0.000
261.434;  910.725;  188.925;    0.000
261.501;  892.725;  170.925;    0.000
261.568;  954.725;  167.925;    0.000
261.636;  923.725;  169.925;    0.000
261.703;  983.725;  200.925;    0.000
261.771; 1000.725;  170.925;    0.000
261.838;  955.725;  175.925;    0.000
261.906;  968.725;  135.925;    0.000
261.973;  938.725;  184.925;    0.000
262.040; 1044.725;  176.925;    0.000
262.108;  987.725;  201.925;    0.000
262.175;  974.725;  141.925;    0.000
262.243; 1031.725;  175.925;    0.000
262.310;  988.725;  112.925;    0.000
262.377; 1065.725;  158.925;    0.000
262.445; 1152.725;  162.925;    0.000
262.512; 1066.725;  184.925;    0.000
262.579; 1020.725;  185.925;    0.000
262.647; 1033.725;  158.925;    0.000
262.714; 1075.725;  197.925;    0.000
262.781; 1111.725;  133.925;    0.000
262.849; 1042.725;  146.925;    0.000
262.916; 1065.725;  204.925;    0.000
262.983; 1105.725;  191.925;    0.000
263.051; 1090.725;  140.925;    0.000
263.118; 1080.725;  154.925;    0.000
263.185; 1114.725;  169.925;    0.000
263.252; 1143.725;  150.925;    0.000
263.320; 1181.725;  145.925;    0.000
263.387; 1158.725;  144.925;    0.000
263.454; 1203.725;  193.925;    0.000
263.522; 1154.725;  160.925;    0.000
263.589; 1150.725;  153.925;    0.000
263.656; 1157.725;  178.925;    0.000
263.723; 1142.725;  136.925;    0.000
263.790; 1166.725;  162.925;    0.000
263.858; 1206.725;  164.925;    0.000
263.925; 1238.725;  146.925;    0.000
263.992; 1215.725;  191.925;    0.000
264.059; 1200.725;  180.925;    0.000
264.126; 1260.725;  183.925;    0.000
264.194; 1236.725;  174.925;    0.000
264.261; 1346.725;  187.925;    0.000
264.328; 1234.725;  179.925;    0.000
264.395; 1283.725;  166.925;    0.000
264.462; 1235.725;  197.925;    0.000
264.529; 1249.725;  209.925;    0.000
264.597; 1240.725;  173.925;    0.000
264.664; 1230.725;  193.925;    0.000
264.731; 1224.725;  165.925;    0.000
264.798; 1256.725;  148.925;    0.000
264.865; 1309.725;  186.925;    0.000
264.932; 1341.725;  152.925;    0.000
264.999; 1274.725;  166.925;    0.000
265.066; 1325.725;  186.925;    0.000
265.133; 1315.725;  172.925;    0.000
265.201; 1369.725;  159.925;    0.000
265.268; 1337.725;  164.925;    0.000
265.335; 1282.725;  161.925;    0.000
265.402; 1353.725;  157.925;    0.000
265.469; 1308.725;  134.925;    0.000
265.536; 1347.725;  191.925;    0.000
265.603; 1375.725;  170.925;    0.000
265.670; 1374.725;  162.925;    0.000
265.737; 1423.725;  172.925;    0.000
265.804; 1351.725;  151.925;    0.000
265.871; 1438.725;  191.925;    0.000
265.938; 1440.725;  173.925;    0.000
266.005; 1434.725;  201.925;    0.000
266.072; 1430.725;  156.925;    0.000
266.139; 1432.725;  191.925;    0.000
266.206; 1424.725;  151.925;    0.000
266.273; 1413.725;  194.925;    0.000
266.340; 1430.725;  120.925;    0.000
266.407; 1400.725;  130.925;    0.000
266.474; 1423.725;  137.925;    0.000
266.541; 1485.725;  139.925;    0.000
266.608; 1463.725;  139.925;    0.000
266.675; 1518.725;  198.925;    0.000
266.742; 1493.725;  165.925;    0.000
266.808; 1548.725;  174.925;    0.000
266.875; 1453.725;  169.925;    0.000
266.942; 1456.725;  137.925;    0.000
267.009; 1544.725;  181.925;    0.000
267.076; 1487.725;  204.925;    0.000
267.143; 1543.725;  179.925;    0.000
267.210; 1501.725;  160.925;    0.000
267.277; 1501.725;  154.925;    0.000
267.344; 1513.725;  178.925;    0.000
267.410; 1470.725;  190.925;    0.000
267.477; 1520.725;  193.925;    0.000
267.544; 1513.725;  168.925;    0.000
267.611; 1497.725;  177.925;    0.000
267.678; 1519.725;  205.925;    0.000
267.745; 1534.725;  205.925;    0.000
267.811; 1499.725;  164.925;    0.000
267.878; 1549.725;  166.925;    0.000
267.945; 1499.725;  160.925;    0.000
268.012; 1518.725;  172.925;    0.000
268.079; 1534.725;  186.925;    0.000
268.145; 1532.725;  188.925;    0.000
268.212; 1525.725;  181.925;    0.000
268.279; 1546.725;  158.925;    0.000
268.346; 1482.725;  192.925;    0.000
268.412; 1612.725;  159.925;    0.000
268.479; 1485.725;  176.925;    0.000
268.546; 1555.725;  170.925;    0.000
268.613; 1538.725;  133.925;    0.000
268.679; 1556.725;  170.925;    0.000
268.746; 1523.725;  185.925;    0.000
268.813; 1571.725;  170.925;    0.000
268.879; 1522.725;  149.925;    0.000
268.946; 1616.725;  176.925;    0.000
269.013; 1557.725;  153.925;    0.000
269.079; 1514.725;  156.925;    0.000
269.146; 1614.725;  143.925;    0.000
269.213; 1594.725;  170.925;    0.000
269.280; 1527.725;  202.925;    0.000
269.346; 1555.725;  180.925;    0.000
269.413; 1552.725;  162.925;    0.000
269.479; 1544.725;  175.925;    0.000
269.546; 1554.725;  151.925;    0.000
269.613; 1522.725;  159.925;    0.000
269.679; 1602.725;  190.925;    0.000
269.746; 1465.725;  159.925;    0.000
269.813; 1523.725;  151.925;    0.000
269.879; 1476.725;  169.925;    0.000
269.946; 1578.725;  169.925;    0.000
270.012; 1476.725;  185.925;    0.000
270.079; 1487.725;  133.925;    0.000
270.145; 1536.725;  161.925;    0.000
270.212; 1577.725;  156.925;    0.000
270.279; 1492.725;  176.925;    0.000
270.345; 1571.725;  140.925;    0.000
270.412; 1554.725;  162.925;    0.000
270.478; 1543.725;  148.925;    0.000
270.545; 1501.725;  146.925;    0.000
270.611; 1499.725;  168.925;    0.000
270.678; 1438.725;  164.925;    0.000
270.744; 1480.725;  117.925;    0.000
270.811; 1524.725;  196.925;    0.000
270.877; 1455.725;  151.925;    0.000
270.944; 1514.725;  174.925;    0.000
271.010; 1500.725;  180.925;    0.000
271.077; 1563.725;  162.925;    0.000
271.143; 1547.725;  178.925;    0.000
271.210; 1502.725;  159.925;    0.000
271.276; 1460.725;  143.925;    0.000
271.342; 1543.725;  196.925;    0.000
271.409; 1630.725;  161.925;    0.000
271.475; 1510.725;  153.925;    0.000
271.542; 1502.725;  147.925;    0.000
271.608; 1527.725;  175.925;    0.000
271.675; 1488.725;  134.925;    0.000
271.741; 1474.725;  182.925;    0.000
271.807; 1570.725;  174.925;    0.000
271.874; 1510.725;  169.925;    0.000
271.940; 1630.725;  179.925;    0.000
272.007; 1535.725;  173.925;    0.000
272.073; 1424.725;  133.925;    0.000
272.139; 1496.725;  191.925;    0.000
272.206; 1548.725;  168.925;    0.000
272.272; 1530.725;  179.925;    0.000
272.338; 1552.725;  224.925;    0.000
272.405; 1559.725;  156.925;    0.000
272.471; 1573.725;  175.925;    0.000
272.537; 1533.725;  190.925;    0.000
272.604; 1572.725;  199.925;    0.000
272.670; 1547.725;  156.925;    0.000
272.736; 1546.725;  198.925;    0.000
272.802; 1533.725;  169.925;    0.000
272.869; 1517.725;  141.925;    0.000
272.935; 1563.725;  145.925;    0.000
273.001; 1584.725;  156.925;    0.000
273.068; 1600.725;  157.925;    0.000
273.134; 1527.725;  184.925;    0.000
273.200; 1561.725;  158.925;    0.000
273.266; 1536.725;  150.925;    0.000
273.333; 1615.725;  176.925;    0.000
273.399; 1485.725;  118.925;    0.000
273.465; 1568.725;  184.925;    0.000
273.531; 1591.725;  179.925;    0.000
273.597; 1611.725;  167.925;    0.000
273.664; 1682.725;  186.925;    0.000
273.730; 1655.725;  137.925;    0.000
273.796; 1597.725;  148.925;    0.000
273.862; 1642.725;  183.925;    0.000
273.928; 1650.725;  179.925;    0.000
273.995; 1588.725;  189.925;    0.000
274.061; 1606.725;  188.925;    0.000
274.127; 1639.725;  132.925;    0.000
274.193; 1594.725;  135.925;    0.000
274.259; 1604.725;  177.925;    0.000
274.325; 1643.725;  178.925;    0.000
274.391; 1684.725;  140.925;    0.000
274.457; 1728.725;  158.925;    0.000
274.524; 1676.725;  175.925;    0.000
274.590; 1701.725;  182.925;    0.000
274.656; 1716.725;  165.925;    0.000
274.722; 1689.725;  152.925;    0.000
274.788; 1773.725;  159.925;    0.000
274.854; 1713.725;  143.925;    0.000
274.920; 1713.725;  117.925;    0.000
274.986; 1757.725;  140.925;    0.000
275.052; 1779.725;  174.925;    0.000
275.118; 1719.725;  129.925;    0.000
275.184; 1817.725;  173.925;    0.000
275.250; 1795.725;  196.925;    0.000
275.316; 1765.725;  142.925;    0.000
275.382; 1732.725;  149.925;    0.000
275.448; 1868.725;  178.925;    0.000
275.514; 1909.725;  136.925;    0.000
275.580; 1836.725;  140.925;    0.000
275.646; 1895.725;  133.925;    0.000
275.712; 1919.725;  162.925;    0.000
275.778; 1961.725;  129.925;    0.000
275.844; 1835.725;  156.925;    0.000
275.910; 1933.725;  172.925;    0.000
275.976; 2042.725;  158.925;    0.000
276.042; 1916.725;  141.925;    0.000
276.108; 2053.725;  212.925;    0.000
276.174; 2088.725;  148.925;    0.000
276.240; 2005.725;  134.925;    0.000
276.306; 2132.725;  149.925;    0.000
276.372; 2121.725;  126.925;    0.000
276.437; 2205.725;  168.925;    0.000
276.503; 2167.725;  158.925;    0.000
276.569; 2239.725;  191.925;    0.000
276.635; 2333.725;  130.925;    0.000
276.701; 2345.725;  161.925;    0.000
276.767; 2275.725;  148.925;    0.000
276.833; 2428.725;  147.925;    0.000
276.899; 2454.725;  149.925;    0.000
276.964; 2601.725;  181.925;    0.000
277.030; 2701.725;  186.925;    0.000
277.096; 2650.725;  132.925;    0.000
277.162; 2799.725;  181.925;    0.000
277.228; 2776.725;  166.925;    0.000
277.293; 2917.725;  154.925;    0.000
277.359; 3099.725;  181.925;    0.000
277.425; 3170.725;  184.925;    0.000
277.491; 3382.725;  150.925;    0.000
277.557; 3981.725;  159.925;    0.000
277.622; 5087.725;  129.925;    0.000
277.688; 5064.725;  184.925;    0.000
277.754; 5156.725;  182.925;    0.000
277.820; 5712.725;  149.925;    0.000
277.885; 6689.725;  185.925;    0.000
277.951; 7950.725;  164.925;    0.000
278.017; 7139.725;  162.925;    0.000
278.083; 6337.725;  189.925;    0.000
278.148; 6211.725;  184.925;    0.000
278.214; 6245.725;  188.925;    0.000
278.280; 6516.725;  206.925;    0.000
278.345; 6170.725;  187.925;    0.000
278.411; 5999.725;  174.925;    0.000
278.477; 6104.725;  190.925;    0.000
278.542; 6301.725;  154.925;    0.000
278.608; 7091.725;  191.925;    0.000
278.674; 7668.725;  243.925;    0.000
278.739; 8494.725;  141.925;    0.000
278.805; 9345.725;  171.925;    0.000
278.871;11175.725;  181.925;    0.000
278.936;13366.725;  191.925;    0.000
279.002;18003.725;  201.925;    0.000
279.067;22320.725;  174.925;    0.000
279.133;22803.725;  165.925;    0.000
279.199;21780.725;  122.925;    0.000
279.264;22814.725;  159.925;    0.000
279.330;25296.725;  170.925;    0.000
279.395;30183.725;  173.925;    0.000
279.461;33014.727;  200.925;    0.000
279.527;33905.727;  199.925;    0.000
279.592;35196.727;  203.925;    0.000
279.658;33587.727;  209.925;    0.000
279.723;32652.725;  188.925;    0.000
279.789;33784.727;  180.925;    0.000
279.854;31127.725;  137.925;    0.000
279.920;27569.725;  223.925;    0.000
279.985;25654.725;  186.925;    0.000
280.051;26161.725;  198.925;    0.000
280.116;29061.725;  178.925;    0.000
280.182;32770.727;  176.925;    0.000
280.247;34651.727;  195.925;    0.000
280.313;32590.725;  165.925;    0.000
280.378;27149.725;  153.925;    0.000
280.444;21903.725;  181.925;    0.000
280.509;17886.725;  188.925;    0.000
280.574;15352.725;  149.925;    0.000
280.640;13378.725;  164.925;    0.000
280.705;11999.725;  166.925;    0.000
280.771;10954.725;  188.925;    0.000
280.836;10038.725;  188.925;    0.000
280.902; 9317.725;  168.925;    0.000
280.967; 8684.725;  202.925;    0.000
281.032; 8018.725;  197.925;    0.000
281.098; 7468.725;  138.925;    0.000
281.163; 7124.725;  160.925;    0.000
281.229; 6809.725;  212.925;    0.000
281.294; 6501.725;  227.925;    0.000
281.359; 6124.725;  200.925;    0.000
281.425; 5971.725;  189.925;    0.000
281.490; 5671.725;  176.925;    0.000
281.555; 5613.725;  182.925;    0.000
281.621; 5201.725;  169.925;    0.000
281.686; 5027.725;  182.925;    0.000
281.751; 4930.725;  208.925;    0.000
281.816; 4794.725;  166.925;    0.000
281.882; 4525.725;  181.925;    0.000
281.947; 4513.725;  178.925;    0.000
282.012; 4264.725;  167.925;    0.000
282.078; 4180.725;  170.925;    0.000
282.143; 4164.725;  157.925;    0.000
282.208; 4139.725;  158.925;    0.000
282.273; 4017.725;  187.925;    0.000
282.339; 3911.725;  185.925;    0.000
282.404; 3783.725;  201.925;    0.000
282.469; 3717.725;  202.925;    0.000
282.534; 3692.725;  185.925;    0.000
282.600; 3717.725;  125.925;    0.000
282.665; 3650.725;  162.925;    0.000
282.730; 3516.725;  174.925;    0.000
282.795; 3533.725;  179.925;    0.000
282.860; 3411.725;  190.925;    0.000
282.926; 3423.725;  200.925;    0.000
282.991; 3308.725;  161.925;    0.000
283.056; 3363.725;  175.925;    0.000
283.121; 3273.725;  181.925;    0.000
283.186; 3094.725;  221.925;    0.000
283.251; 3154.725;  168.925;    0.000
283.316; 3135.725;  156.925;    0.000
283.382; 3054.725;  197.925;    0.000
283.447; 3143.725;  210.925;    0.000
283.512; 3044.725;  164.925;    0.000
283.577; 3056.725;  212.925;    0.000
283.642; 3034.725;  186.925;    0.000
283.707; 2976.725;  182.925;    0.000
283.772; 3042.725;  127.925;    0.000
283.837; 2917.725;  160.925;    0.000
283.902; 3017.725;  162.925;    0.000
283.967; 2894.725;  151.925;    0.000
284.032; 2815.725;  175.925;    0.000
284.097; 2978.725;  235.925;    0.000
284.163; 2849.725;  136.925;    0.000
284.228; 2965.725;  209.925;    0.000
284.293; 2908.725;  163.925;    0.000
284.358; 2966.725;  169.925;    0.000
284.423; 2932.725;  145.925;    0.000
284.488; 2925.725;  134.925;    0.000
284.553; 3047.725;  158.925;    0.000
284.618; 3023.725;  163.925;    0.000
284.683; 3144.725;  168.925;    0.000
284.748; 3415.725;  170.925;    0.000
284.812; 3541.725;  151.925;    0.000
284.877; 3872.725;  169.925;    0.000
284.942; 4326.725;  179.925;    0.000
285.007; 5283.725;  202.925;    0.000
285.072; 7052.725;  171.925;    0.000
285.137;10061.725;  173.925;    0.000
285.202;13171.725;  196.925;    0.000
285.267;12182.725;  193.925;    0.000
285.332; 8924.725;  151.925;    0.000
285.397; 6813.725;  183.925;    0.000
285.462; 5455.725;  168.925;    0.000
285.527; 4730.725;  166.925;    0.000
285.591; 4226.725;  124.925;    0.000
285.656; 3795.725;  145.925;    0.000
285.721; 3451.725;  155.925;    0.000
285.786; 3410.725;  170.925;    0.000
285.851; 3240.725;  175.925;    0.000
285.916; 3176.725;  186.925;    0.000
285.981; 3040.725;  204.925;    0.000
286.045; 3002.725;  237.925;    0.000
286.110; 2864.725;  197.925;    0.000
286.175; 2901.725;  143.925;    0.000
286.240; 2855.725;  167.925;    0.000
286.305; 2813.725;  202.925;    0.000
286.369; 2756.725;  214.925;    0.000
286.434; 2783.725;  206.925;    0.000
286.499; 2713.725;  177.925;    0.000
286.564; 2658.725;  201.925;    0.000
286.628; 2617.725;  153.925;    0.000
286.693; 2587.725;  161.925;    0.000
286.758; 2608.725;  181.925;    0.000
286.823; 2571.725;  176.925;    0.000
286.887; 2596.725;  158.925;    0.000
286.952; 2583.725;  198.925;    0.000
287.017; 2490.725;  196.925;    0.000
287.082; 2497.725;  154.925;    0.000
287.146; 2588.725;  178.925;    0.000
287.211; 2545.725;  165.925;    0.000
287.276; 2570.725;  165.925;    0.000
287.340; 2450.725;  178.925;    0.000
287.405; 2547.725;  177.925;    0.000
287.470; 2403.725;  141.925;    0.000
287.534; 2537.725;  224.925;    0.000
287.599; 2492.725;  184.925;    0.000
287.663; 2448.725;  177.925;    0.000
287.728; 2444.725;  144.925;    0.000
287.793; 2420.725;  210.925;    0.000
287.857; 2513.725;  198.925;    0.000
287.922; 2485.725;  168.925;    0.000
287.987; 2455.725;  168.925;    0.000
288.051; 2447.725;  200.925;    0.000
288.116; 2527.725;  199.925;    0.000
288.180; 2463.725;  211.925;    0.000
288.245; 2463.725;  182.925;    0.000
288.309; 2458.725;  180.925;    0.000
288.374; 2502.725;  196.925;    0.000
288.439; 2488.725;  187.925;    0.000
288.503; 2292.725;  159.925;    0.000
288.568; 2490.725;  207.925;    0.000
288.632; 2426.725;  210.925;    0.000
288.697; 2422.725;  196.925;    0.000
288.761; 2371.725;  175.925;    0.000
288.826; 2411.725;  159.925;    0.000
288.890; 2432.725;  183.925;    0.000
288.955; 2294.725;  149.925;    0.000
289.019; 2394.725;  194.925;    0.000
289.084; 2366.725;  171.925;    0.000
289.148; 2348.725;  191.925;    0.000
289.212; 2425.725;  217.925;    0.000
289.277; 2380.725;  196.925;    0.000
289.341; 2544.725;  211.925;    0.000
289.406; 2386.725;  165.925;    0.000
289.470; 2339.725;  197.925;    0.000
289.535; 2343.725;  208.925;    0.000
289.599; 2261.725;  192.925;    0.000
289.663; 2393.725;  169.925;    0.000
289.728; 2456.725;  168.925;    0.000
289.792; 2368.725;  192.925;    0.000
289.857; 2430.725;  202.925;    0.000
289.921; 2331.725;  176.925;    0.000
289.985; 2429.725;  164.925;    0.000
290.050; 2359.725;  166.925;    0.000
290.114; 2399.725;  192.925;    0.000
290.178; 2332.725;  155.925;    0.000
290.243; 2296.725;  158.925;    0.000
290.307; 2339.725;  192.925;    0.000
290.371; 2388.725;  161.925;    0.000
290.436; 2376.725;  182.925;    0.000
290.500; 2355.725;  147.925;    0.000
290.564; 2303.725;  209.925;    0.000
290.629; 2346.725;  172.925;    0.000
290.693; 2403.725;  192.925;    0.000
290.757; 2409.725;  147.925;    0.000
290.821; 2450.725;  139.925;    0.000
290.886; 2358.725;  186.925;    0.000
290.950; 2414.725;  196.925;    0.000
291.014; 2366.725;  166.925;    0.000
291.078; 2451.725;  143.925;    0.000
291.143; 2442.725;  171.925;    0.000
291.207; 2524.725;  187.925;    0.000
291.271; 2506.725;  208.925;    0.000
291.335; 2546.725;  195.925;    0.000
291.399; 2524.725;  139.925;    0.000
291.464; 2696.725;  139.925;    0.000
291.528; 2729.725;  183.925;    0.000
291.592; 2676.725;  152.925;    0.000
291.656; 2702.725;  155.925;    0.000
291.720; 2585.725;  191.925;    0.000
291.784; 2565.725;  185.925;    0.000
291.849; 2605.725;  175.925;    0.000
291.913; 2649.725;  152.925;    0.000
291.977; 2546.725;  203.925;    0.000
292.041; 2703.725;  181.925;    0.000
292.105; 2577.725;  168.925;    0.000
292.169; 2551.725;  133.925;    0.000
292.233; 2661.725;  156.925;    0.000
292.297; 2764.725;  173.925;    0.000
292.361; 2722.725;  124.925;    0.000
292.425; 2749.725;  138.925;    0.000
292.490; 2912.725;  110.925;    0.000
292.554; 2925.725;  180.925;    0.000
292.618; 3171.725;  178.925;    0.000
292.682; 3444.725;  156.925;    0.000
292.746; 3753.725;  151.925;    0.000
292.810; 4557.725;  183.925;    0.000
292.874; 5555.725;  156.925;    0.000
292.938; 5890.725;  195.925;    0.000
293.002; 5485.725;  200.925;    0.000
293.066; 5047.725;  171.925;    0.000
293.130; 4897.725;  163.925;    0.000
293.194; 4712.725;  174.925;    0.000
293.258; 4478.725;  167.925;    0.000
293.322; 4529.725;  212.925;    0.000
293.386; 4482.725;  189.925;    0.000
293.450; 4739.725;  169.925;    0.000
293.514; 5293.725;  175.925;    0.000
293.577; 6400.725;  169.925;    0.000
293.641; 8059.725;  186.925;    0.000
293.705; 8776.725;  222.925;    0.000
293.769; 8076.725;  150.925;    0.000
293.833; 7393.725;  165.925;    0.000
293.897; 6769.725;  152.925;    0.000
293.961; 6238.725;  179.925;    0.000
294.025; 5667.725;  159.925;    0.000
294.089; 5417.725;  181.925;    0.000
294.152; 5025.725;  188.925;    0.000
294.216; 4467.725;  170.925;    0.000
294.280; 4398.725;  167.925;    0.000
294.344; 4158.725;  151.925;    0.000
294.408; 3977.725;  180.925;    0.000
294.472; 3745.725;  144.925;    0.000
294.536; 3758.725;  171.925;    0.000
294.599; 3548.725;  157.925;    0.000
294.663; 3404.725;  139.925;    0.000
294.727; 3365.725;  208.925;    0.000
294.791; 3303.725;  152.925;    0.000
294.855; 3240.725;  181.925;    0.000
294.918; 3097.725;  136.925;    0.000
294.982; 3127.725;  155.925;    0.000
295.046; 3029.725;  200.925;    0.000
295.110; 2872.725;  190.925;    0.000
295.173; 2801.725;  156.925;    0.000
295.237; 2891.725;  160.925;    0.000
295.301; 2748.725;  145.925;    0.000
295.364; 2743.725;  166.925;    0.000
295.428; 2755.725;  125.925;    0.000
295.492; 2709.725;  154.925;    0.000
295.556; 2702.725;  172.925;    0.000
295.619; 2665.725;  210.925;    0.000
295.683; 2530.725;  181.925;    0.000
295.747; 2570.725;  176.925;    0.000
295.810; 2579.725;  181.925;    0.000
295.874; 2526.725;  160.925;    0.000
295.938; 2465.725;  119.925;    0.000
296.001; 2520.725;  206.925;    0.000
296.065; 2428.725;  136.925;    0.000
296.128; 2366.725;  156.925;    0.000
296.192; 2462.725;  174.925;    0.000
296.256; 2421.725;  145.925;    0.000
296.319; 2373.725;  167.925;    0.000
296.383; 2405.725;  168.925;    0.000
296.447; 2432.725;  190.925;    0.000
296.510; 2408.725;  165.925;    0.000
296.574; 2347.725;  184.925;    0.000
296.637; 2303.725;  155.925;    0.000
296.701; 2385.725;  168.925;    0.000
296.764; 2327.725;  161.925;    0.000
296.828; 2301.725;  218.925;    0.000
296.891; 2272.725;  176.925;    0.000
296.955; 2280.725;  169.925;    0.000
297.018; 2307.725;  168.925;    0.000
297.082; 2278.725;  176.925;    0.000
297.145; 2189.725;  171.925;    0.000
297.209; 2203.725;  196.925;    0.000
297.272; 2201.725;  170.925;    0.000
297.336; 2178.725;  156.925;    0.000
297.399; 2094.725;  168.925;    0.000
297.463; 2223.725;  203.925;    0.000
297.526; 2258.725;  164.925;    0.000
297.590; 2199.725;  175.925;    0.000
297.653; 2208.725;  170.925;    0.000
297.717; 2130.725;  156.925;    0.000
297.780; 2258.725;  149.925;    0.000
297.843; 2156.725;  156.925;    0.000
297.907; 2260.725;  129.925;    0.000
297.970; 2267.725;  163.925;    0.000
298.034; 2162.725;  162.925;    0.000
298.097; 2120.725;  182.925;    0.000
298.160; 2213.725;  194.925;    0.000
298.224; 2075.725;  178.925;    0.000
298.287; 2048.725;  147.925;    0.000
298.350; 2098.725;  187.925;    0.000
298.414; 2123.725;  193.925;    0.000
298.477; 2123.725;  127.925;    0.000
298.540; 2112.725;  181.925;    0.000
298.604; 2021.725;  163.925;    0.000
298.667; 2062.725;  177.925;    0.000
298.730; 2142.725;  192.925;    0.000
298.794; 2100.725;  183.925;    0.000
298.857; 2107.725;  194.925;    0.000
298.920; 2041.725;  147.925;    0.000
298.984; 2056.725;  184.925;    0.000
299.047; 2026.725;  218.925;    0.000
299.110; 2029.725;  171.925;    0.000
299.173; 2072.725;  177.925;    0.000
299.237; 2061.725;  181.925;    0.000
299.300; 2091.725;  170.925;    0.000
299.363; 1964.725;  185.925;    0.000
299.426; 1983.725;  193.925;    0.000
299.489; 1949.725;  184.925;    0.000
299.553; 2027.725;  194.925;    0.000
299.616; 2020.725;  171.925;    0.000
299.679; 1973.725;  182.925;    0.000
299.742; 1930.725;  138.925;    0.000
299.805; 2093.725;  172.925;    0.000
299.868; 1994.725;  191.925;    0.000
299.932; 1947.725;  193.925;    0.000
299.995; 1979.725;  201.925;    0.000
300.058; 2020.725;  177.925;    0.000
300.121; 1995.725;  178.925;    0.000
300.184; 1964.725;  171.925;    0.000
300.247; 1900.725;  184.925;    0.000
300.310; 1894.725;  200.925;    0.000
300.374; 1933.725;  172.925;    0.000
300.437; 1924.725;  187.925;    0.000
300.500; 2049.725;  211.925;    0.000
300.563; 1981.725;  190.925;    0.000
300.626; 1930.725;  196.925;    0.000
300.689; 1895.725;  162.925;    0.000
300.752; 1865.725;  163.925;    0.000
300.815; 1919.725;  207.925;    0.000
300.878; 1919.725;  221.925;    0.000
300.941; 1898.725;  176.925;    0.000
301.004; 1910.725;  193.925;    0.000
301.067; 1877.725;  165.925;    0.000
301.130; 1844.725;  179.925;    0.000
301.193; 1828.725;  196.925;    0.000
301.256; 1898.725;  210.925;    0.000
301.319; 1948.725;  196.925;    0.000
301.382; 1899.725;  162.925;    0.000
301.445; 1903.725;  233.925;    0.000
301.508; 1885.725;  176.925;    0.000
301.571; 1902.725;  185.925;    0.000
301.634; 1941.725;  202.925;    0.000
301.697; 1844.725;  189.925;    0.000
301.760; 1828.725;  224.925;    0.000
301.823; 1881.725;  212.925;    0.000
301.885; 1974.725;  196.925;    0.000
301.948; 1881.725;  169.925;    0.000
302.011; 1871.725;  160.925;    0.000
302.074; 1955.725;  202.925;    0.000
302.137; 1829.725;  130.925;    0.000
302.200; 1928.725;  188.925;    0.000
302.263; 1853.725;  196.925;    0.000
302.326; 1830.725;  172.925;    0.000
302.388; 1824.725;  197.925;    0.000
302.451; 1899.725;  203.925;    0.000
302.514; 1911.725;  164.925;    0.000
302.577; 1911.725;  170.925;    0.000
302.640; 1838.725;  156.925;    0.000
302.703; 1869.725;  188.925;    0.000
302.765; 1866.725;  213.925;    0.000
302.828; 1944.725;  212.925;    0.000
302.891; 1928.725;  203.925;    0.000
302.954; 1872.725;  148.925;    0.000
303.016; 1767.725;  168.925;    0.000
303.079; 1864.725;  206.925;    0.000
303.142; 1811.725;  210.925;    0.000
303.205; 1913.725;  189.925;    0.000
303.267; 1875.725;  174.925;    0.000
303.330; 1940.725;  198.925;    0.000
303.393; 1883.725;  207.925;    0.000
303.456; 1848.725;  177.925;    0.000
303.518; 1845.725;  192.925;    0.000
303.581; 1822.725;  171.925;    0.000
303.644; 1795.725;  193.925;    0.000
303.706; 1818.725;  185.925;    0.000
303.769; 1845.725;  198.925;    0.000
303.832; 1923.725;  192.925;    0.000
303.894; 1864.725;  199.925;    0.000
303.957; 1862.725;  160.925;    0.000
304.020; 1860.725;  184.925;    0.000
304.082; 1835.725;  191.925;    0.000
304.145; 1924.725;  216.925;    0.000
304.207; 1835.725;  175.925;    0.000
304.270; 1856.725;  192.925;    0.000
304.333; 1859.725;  218.925;    0.000
304.395; 1842.725;  195.925;    0.000
304.458; 1881.725;  206.925;    0.000
304.520; 1766.725;  229.925;    0.000
304.583; 1871.725;  202.925;    0.000
304.646; 1858.725;  159.925;    0.000
304.708; 1830.725;  167.925;    0.000
304.771; 1851.725;  141.925;    0.000
304.833; 1902.725;  184.925;    0.000
304.896; 1896.725;  197.925;    0.000
304.958; 1836.725;  179.925;    0.000
305.021; 1810.725;  175.925;    0.000
305.083; 1830.725;  182.925;    0.000
305.146; 1802.725;  182.925;    0.000
305.208; 1817.725;  174.925;    0.000
305.271; 1827.725;  157.925;    0.000
305.333; 1946.725;  185.925;    0.000
305.396; 1922.725;  199.925;    0.000
305.458; 1898.725;  203.925;    0.000
305.520; 1871.725;  195.925;    0.000
305.583; 1886.725;  152.925;    0.000
305.645; 1770.725;  200.925;    0.000
305.708; 1834.725;  149.925;    0.000
305.770; 1836.725;  211.925;    0.000
305.833; 1920.725;  189.925;    0.000
305.895; 1900.725;  200.925;    0.000
305.957; 1792.725;  166.925;    0.000
306.020; 1762.725;  186.925;    0.000
306.082; 1857.725;  197.925;    0.000
306.144; 1869.725;  200.925;    0.000
306.207; 1893.725;  180.925;    0.000
306.269; 1871.725;  209.925;    0.000
306.331; 1822.725;  205.925;    0.000
306.394; 1793.725;  176.925;    0.000
306.456; 1783.725;  184.925;    0.000
306.518; 1815.725;  210.925;    0.000
306.581; 1866.725;  162.925;    0.000
306.643; 1900.725;  196.925;    0.000
306.705; 1849.725;  204.925;    0.000
306.768; 1794.725;  158.925;    0.000
306.830; 1892.725;  205.925;    0.000
306.892; 2008.725;  189.925;    0.000
306.954; 1849.725;  188.925;    0.000
307.017; 1825.725;  180.925;    0.000
307.079; 1892.725;  197.925;    0.000
307.141; 1835.725;  184.925;    0.000
307.203; 1903.725;  182.925;    0.000
307.266; 1823.725;  166.925;    0.000
307.328; 1933.725;  186.925;    0.000
307.390; 1955.725;  176.925;    0.000
307.452; 1896.725;  194.925;    0.000
307.514; 1928.725;  225.925;    0.000
307.577; 1966.725;  209.925;    0.000
307.639; 1923.725;  203.925;    0.000
307.701; 1982.725;  214.925;    0.000
307.763; 1969.725;  203.925;    0.000
307.825; 1913.725;  202.925;    0.000
307.887; 1940.725;  244.925;    0.000
307.949; 1866.725;  173.925;    0.000
308.012; 1914.725;  219.925;    0.000
308.074; 1999.725;  157.925;    0.000
308.136; 1909.725;  215.925;    0.000
308.198; 1965.725;  186.925;    0.000
308.260; 1972.725;  186.925;    0.000
308.322; 1962.725;  201.925;    0.000
308.384; 2016.725;  218.925;    0.000
308.446; 1917.725;  159.925;    0.000
308.508; 2055.725;  191.925;    0.000
308.570; 1967.725;  185.925;    0.000
308.632; 1982.725;  208.925;    0.000
308.694; 2027.725;  161.925;    0.000
308.756; 2105.725;  169.925;    0.000
308.818; 1998.725;  187.925;    0.000
308.880; 1936.725;  192.925;    0.000
308.942; 2044.725;  194.925;    0.000
309.004; 2082.725;  206.925;    0.000
309.066; 2107.725;  204.925;    0.000
309.128; 2110.725;  181.925;    0.000
309.190; 2143.725;  166.925;    0.000
309.252; 2163.725;  213.925;    0.000
309.314; 2314.725;  249.925;    0.000
309.376; 2302.725;  238.925;    0.000
309.438; 2218.725;  206.925;    0.000
309.500; 2214.725;  185.925;    0.000
309.562; 2190.725;  214.925;    0.000
309.624; 2306.725;  216.925;    0.000
309.686; 2374.725;  197.925;    0.000
309.747; 2324.725;  171.925;    0.000
309.809; 2272.725;  198.925;    0.000
309.871; 2144.725;  185.925;    0.000
309.933; 2150.725;  172.925;    0.000
309.995; 2158.725;  168.925;    0.000
310.057; 2169.725;  177.925;    0.000
310.119; 2195.725;  207.925;    0.000
310.180; 2137.725;  180.925;    0.000
310.242; 2114.725;  202.925;    0.000
310.304; 2100.725;  200.925;    0.000
310.366; 2193.725;  222.925;    0.000
310.428; 2014.725;  179.925;    0.000
310.489; 2083.725;  196.925;    0.000
310.551; 2080.725;  203.925;    0.000
310.613; 2077.725;  198.925;    0.000
310.675; 2121.725;  203.925;    0.000
310.737; 2092.725;  195.925;    0.000
310.798; 2020.725;  204.925;    0.000
310.860; 2017.725;  195.925;    0.000
310.922; 2073.725;  195.925;    0.000
310.983; 2017.725;  225.925;    0.000
311.045; 2061.725;  203.925;    0.000
311.107; 2083.725;  194.925;    0.000
311.169; 2011.725;  185.925;    0.000
311.230; 2055.725;  175.925;    0.000
311.292; 2027.725;  220.925;    0.000
311.354; 2135.725;  189.925;    0.000
311.415; 2048.725;  187.925;    0.000
311.477; 2108.725;  180.925;    0.000
311.539; 2014.725;  175.925;    0.000
311.600; 1990.725;  192.925;    0.000
311.662; 2074.725;  212.925;    0.000
311.724; 2033.725;  217.925;    0.000
311.785; 2041.725;  218.925;    0.000
311.847; 2054.725;  219.925;    0.000
311.908; 2060.725;  202.925;    0.000
311.970; 2018.725;  186.925;    0.000
312.032; 2027.725;  212.925;    0.000
312.093; 2037.725;  203.925;    0.000
312.155; 2056.725;  165.925;    0.000
312.216; 2061.725;  183.925;    0.000
312.278; 2084.725;  167.925;    0.000
312.339; 1988.725;  190.925;    0.000
312.401; 2025.725;  219.925;    0.000
312.462; 2043.725;  190.925;    0.000
312.524; 2063.725;  203.925;    0.000
312.585; 2031.725;  191.925;    0.000
312.647; 2045.725;  197.925;    0.000
312.708; 2085.725;  203.925;    0.000
312.770; 2046.725;  203.925;    0.000
312.831; 2078.725;  155.925;    0.000
312.893; 2092.725;  189.925;    0.000
312.954; 2003.725;  212.925;    0.000
313.016; 2051.725;  179.925;    0.000
313.077; 2130.725;  209.925;    0.000
313.139; 2050.725;  185.925;    0.000
313.200; 2061.725;  180.925;    0.000
313.261; 2040.725;  220.925;    0.000
313.323; 2214.725;  171.925;    0.000
313.384; 2048.725;  180.925;    0.000
313.446; 2124.725;  202.925;    0.000
313.507; 2107.725;  172.925;    0.000
313.568; 2151.725;  192.925;    0.000
313.630; 2040.725;  191.925;    0.000
313.691; 2053.725;  176.925;    0.000
313.752; 2129.725;  175.925;    0.000
313.814; 2114.725;  202.925;    0.000
313.875; 2038.725;  186.925;    0.000
313.936; 2107.725;  199.925;    0.000
313.998; 2067.725;  164.925;    0.000
314.059; 1991.725;  159.925;    0.000
314.120; 2084.725;  175.925;    0.000
314.182; 2138.725;  181.925;    0.000
314.243; 2080.725;  157.925;    0.000
314.304; 2120.725;  168.925;    0.000
314.365; 2100.725;  203.925;    0.000
314.427; 2067.725;  151.925;    0.000
314.488; 2092.725;  174.925;    0.000
314.549; 2091.725;  184.925;    0.000
314.610; 2015.725;  198.925;    0.000
314.672; 2057.725;  193.925;    0.000
314.733; 2064.725;  171.925;    0.000
314.794; 2085.725;  141.925;    0.000
314.855; 2084.725;  184.925;    0.000
314.917; 2070.725;  175.925;    0.000
314.978; 2045.725;  190.925;    0.000
315.039; 2119.725;  183.925;    0.000
315.100; 2107.725;  204.925;    0.000
315.161; 2063.725;  202.925;    0.000
315.222; 2086.725;  177.925;    0.000
315.283; 2043.725;  191.925;    0.000
315.345; 2024.725;  185.925;    0.000
315.406; 2076.725;  194.925;    0.000
315.467; 2078.725;  167.925;    0.000
315.528; 2080.725;  174.925;    0.000
315.589; 2122.725;  197.925;    0.000
315.650; 2029.725;  192.925;    0.000
315.711; 2147.725;  181.925;    0.000
315.772; 2062.725;  157.925;    0.000
315.833; 2077.725;  189.925;    0.000
315.894; 2066.725;  184.925;    0.000
315.955; 2049.725;  202.925;    0.000
316.016; 2080.725;  220.925;    0.000
316.078; 2066.725;  180.925;    0.000
316.139; 2083.725;  240.925;    0.000
316.200; 2044.725;  190.925;    0.000
316.261; 2091.725;  179.925;    0.000
316.322; 2001.725;  176.925;    0.000
316.383; 2094.725;  188.925;    0.000
316.444; 2104.725;  228.925;    0.000
316.504; 2039.725;  199.925;    0.000
316.565; 2188.725;  221.925;    0.000
316.626; 2085.725;  204.925;    0.000
316.687; 2066.725;  192.925;    0.000
316.748; 2079.725;  220.925;    0.000
316.809; 2080.725;  175.925;    0.000
316.870; 2085.725;  164.925;    0.000
316.931; 2011.725;  208.925;    0.000
316.992; 2070.725;  224.925;    0.000
317.053; 2134.725;  204.925;    0.000
317.114; 2073.725;  199.925;    0.000
317.175; 2081.725;  230.925;    0.000
317.235; 2076.725;  186.925;    0.000
317.296; 2034.725;  224.925;    0.000
317.357; 2124.725;  154.925;    0.000
317.418; 2005.725;  219.925;    0.000
317.479; 2127.725;  229.925;    0.000
317.540; 2125.725;  201.925;    0.000
317.601; 2036.725;  180.925;    0.000
317.661; 2051.725;  179.925;    0.000
317.722; 2071.725;  193.925;    0.000
317.783; 2010.725;  164.925;    0.000
317.844; 2039.725;  232.925;    0.000
317.904; 2003.725;  222.925;    0.000
317.965; 2112.725;  199.925;    0.000
318.026; 2004.725;  200.925;    0.000
318.087; 2098.725;  182.925;    0.000
318.148; 2096.725;  216.925;    0.000
318.208; 2158.725;  239.925;    0.000
318.269; 2081.725;  163.925;    0.000
318.330; 2059.725;  204.925;    0.000
318.390; 2010.725;  191.925;    0.000
318.451; 2035.725;  200.925;    0.000
318.512; 2002.725;  181.925;    0.000
318.572; 2063.725;  233.925;    0.000
318.633; 2098.725;  220.925;    0.000
318.694; 2004.725;  179.925;    0.000
318.754; 2024.725;  214.925;    0.000
318.815; 1960.725;  214.925;    0.000
318.876; 2024.725;  220.925;    0.000
318.936; 2036.725;  212.925;    0.000
318.997; 1933.725;  201.925;    0.000
319.058; 2051.725;  215.925;    0.000
319.118; 2055.725;  251.925;    0.000
319.179; 2125.725;  240.925;    0.000
319.239; 2069.725;  240.925;    0.000
319.300; 2047.725;  232.925;    0.000
319.361; 1974.725;  211.925;    0.000
319.421; 1964.725;  219.925;    0.000
319.482; 2001.725;  228.925;    0.000
319.542; 2039.725;  216.925;    0.000
319.603; 1922.725;  190.925;    0.000
319.663; 2038.725;  227.925;    0.000
319.724; 2069.725;  191.925;    0.000
319.784; 2015.725;  196.925;    0.000
319.845; 2012.725;  190.925;    0.000
319.905; 2000.725;  221.925;    0.000
319.966; 2056.725;  219.925;    0.000
320.026; 2051.725;  233.925;    0.000
320.087; 2002.725;  204.925;    0.000
320.147; 2095.725;  189.925;    0.000
320.208; 2045.725;  200.925;    0.000
320.268; 2085.725;  217.925;    0.000
320.329; 2044.725;  216.925;    0.000
320.389; 2010.725;  228.925;    0.000
320.449; 2078.725;  236.925;    0.000
320.510; 2021.725;  234.925;    0.000
320.570; 2023.725;  176.925;    0.000
320.631; 1921.725;  228.925;    0.000
320.691; 2078.725;  228.925;    0.000
320.751; 2028.725;  188.925;    0.000
320.812; 2015.725;  223.925;    0.000
320.872; 2076.725;  268.925;    0.000
320.932; 2099.725;  226.925;    0.000
320.993; 2002.725;  216.925;    0.000
321.053; 2143.725;  236.925;    0.000
321.113; 2092.725;  197.925;    0.000
321.174; 1927.725;  218.925;    0.000
321.234; 2056.725;  229.925;    0.000
321.294; 2034.725;  208.925;    0.000
321.355; 2034.725;  248.925;    0.000
321.415; 2063.725;  218.925;    0.000
321.475; 1934.725;  173.925;    0.000
321.535; 1967.725;  234.925;    0.000
321.596; 1958.725;  202.925;    0.000
321.656; 2038.725;  246.925;    0.000
321.716; 2066.725;  235.925;    0.000
321.776; 2006.725;  210.925;    0.000
321.837; 2076.725;  217.925;    0.000
321.897; 2036.725;  215.925;    0.000
321.957; 2038.725;  239.925;    0.000
322.017; 1946.725;  173.925;    0.000
322.077; 2102.725;  263.925;    0.000
322.138; 2003.725;  232.925;    0.000
322.198; 2043.725;  211.925;    0.000
322.258; 1994.725;  213.925;    0.000
322.318; 2008.725;  168.925;    0.000
322.378; 2070.725;  251.925;    0.000
322.438; 1926.725;  212.925;    0.000
322.499; 2000.725;  265.925;    0.000
322.559; 2062.725;  210.925;    0.000
322.619; 2091.725;  242.925;    0.000
322.679; 1980.725;  229.925;    0.000
322.739; 1946.725;  216.925;    0.000
322.799; 2069.725;  238.925;    0.000
322.859; 2016.725;  249.925;    0.000
322.919; 1988.725;  211.925;    0.000
322.979; 2017.725;  244.925;    0.000
323.039; 2072.725;  226.925;    0.000
323.099; 2065.725;  223.925;    0.000
323.159; 2027.725;  232.925;    0.000
323.219; 2011.725;  203.925;    0.000
323.279; 1973.725;  218.925;    0.000
323.339; 2043.725;  231.925;    0.000
323.399; 2003.725;  255.925;    0.000
323.459; 1980.725;  244.925;    0.000
323.519; 2048.725;  213.925;    0.000
323.579; 2013.725;  193.925;    0.000
323.639; 2022.725;  191.925;    0.000
323.699; 2036.725;  199.925;    0.000
323.759; 2077.725;  246.925;    0.000
323.819; 2113.725;  206.925;    0.000
323.879; 2093.725;  238.925;    0.000
323.939; 1972.725;  229.925;    0.000
323.999; 2021.725;  219.925;    0.000
324.059; 1949.725;  177.925;    0.000
324.119; 1959.725;  235.925;    0.000
324.178; 1973.725;  211.925;    0.000
324.238; 2043.725;  168.925;    0.000
324.298; 1905.725;  205.925;    0.000
324.358; 2025.725;  224.925;    0.000
324.418; 1968.725;  235.925;    0.000
324.478; 2011.725;  187.925;    0.000
324.538; 2082.725;  230.925;    0.000
324.597; 1977.725;  206.925;    0.000
324.657; 1897.725;  180.925;    0.000
324.717; 1977.725;  175.925;    0.000
324.777; 1940.725;  169.925;    0.000
324.837; 2002.725;  165.925;    0.000
324.896; 1983.725;  205.925;    0.000
324.956; 1979.725;  216.925;    0.000
325.016; 2017.725;  197.925;    0.000
325.076; 1997.725;  220.925;    0.000
325.135; 2014.725;  242.925;    0.000
325.195; 1984.725;  186.925;    0.000
325.255; 2008.725;  160.925;    0.000
325.315; 1993.725;  198.925;    0.000
325.374; 2033.725;  208.925;    0.000
325.434; 1958.725;  209.925;    0.000
325.494; 2005.725;  191.925;    0.000
325.553; 1931.725;  190.925;    0.000
325.613; 2019.725;  229.925;    0.000
325.673; 1989.725;  172.925;    0.000
325.732; 2030.725;  160.925;    0.000
325.792; 1927.725;  177.925;    0.000
325.852; 1934.725;  201.925;    0.000
325.911; 1976.725;  226.925;    0.000
325.971; 1963.725;  224.925;    0.000
326.031; 1974.725;  202.925;    0.000
326.090; 2040.725;  232.925;    0.000
326.150; 1974.725;  230.925;    0.000
326.209; 2047.725;  201.925;    0.000
326.269; 1934.725;  202.925;    0.000
326.328; 1982.725;  203.925;    0.000
326.388; 1931.725;  194.925;    0.000
326.448; 1988.725;  233.925;    0.000
326.507; 2060.725;  192.925;    0.000
326.567; 1980.725;  163.925;    0.000
326.626; 1950.725;  227.925;    0.000
326.686; 1944.725;  177.925;    0.000
326.745; 1911.725;  210.925;    0.000
326.805; 1901.725;  198.925;    0.000
326.864; 1907.725;  185.925;    0.000
326.924; 1936.725;  255.925;    0.000
326.983; 1905.725;  208.925;    0.000
327.043; 1912.725;  241.925;    0.000
327.102; 1893.725;  183.925;    0.000
327.161; 1942.725;  210.925;    0.000
327.221; 1935.725;  213.925;    0.000
327.280; 1909.725;  194.925;    0.000
327.340; 1977.725;  212.925;    0.000
327.399; 1945.725;  209.925;    0.000
327.459; 1956.725;  229.925;    0.000
327.518; 1916.725;  196.925;    0.000
327.577; 1979.725;  197.925;    0.000
327.637; 1901.725;  210.925;    0.000
327.696; 1941.725;  196.925;    0.000
327.755; 1931.725;  216.925;    0.000
327.815; 1891.725;  240.925;    0.000
327.874; 1970.725;  250.925;    0.000
327.933; 1907.725;  229.925;    0.000
327.993; 1909.725;  202.925;    0.000
328.052; 2002.725;  178.925;    0.000
328.111; 1930.725;  230.925;    0.000
328.171; 1918.725;  207.925;    0.000
328.230; 1922.725;  170.925;    0.000
328.289; 1909.725;  205.925;    0.000
328.349; 1866.725;  235.925;    0.000
328.408; 1936.725;  231.925;    0.000
328.467; 1866.725;  217.925;    0.000
328.526; 1914.725;  239.925;    0.000
328.586; 1953.725;  214.925;    0.000
328.645; 1930.725;  205.925;    0.000
328.704; 1783.725;  211.925;    0.000
328.763; 1856.725;  208.925;    0.000
328.822; 1876.725;  251.925;    0.000
328.882; 1919.725;  211.925;    0.000
328.941; 1924.725;  232.925;    0.000
329.000; 1904.725;  235.925;    0.000
329.059; 1825.725;  222.925;    0.000
329.118; 1823.725;  265.925;    0.000
329.177; 1866.725;  237.925;    0.000
329.237; 1861.725;  258.925;    0.000
329.296; 1883.725;  225.925;    0.000
329.355; 1989.725;  227.925;    0.000
329.414; 1872.725;  212.925;    0.000
329.473; 1906.725;  250.925;    0.000
329.532; 1909.725;  263.925;    0.000
329.591; 1866.725;  212.925;    0.000
329.650; 1857.725;  219.925;    0.000
329.709; 1795.725;  218.925;    0.000
329.768; 1978.725;  195.925;    0.000
329.827; 1945.725;  223.925;    0.000
329.886; 1920.725;  230.925;    0.000
329.945; 1885.725;  211.925;    0.000
330.004; 1956.725;  247.925;    0.000
330.063; 1848.725;  193.925;    0.000
330.122; 1883.725;  229.925;    0.000
330.181; 1937.725;  223.925;    0.000
330.240; 1865.725;  199.925;    0.000
330.299; 1797.725;  211.925;    0.000
330.358; 1859.725;  198.925;    0.000
330.417; 1858.725;  190.925;    0.000
330.476; 1887.725;  237.925;    0.000
330.535; 1969.725;  239.925;    0.000
330.594; 1881.725;  207.925;    0.000
330.653; 1802.725;  193.925;    0.000
330.712; 1880.725;  225.925;    0.000
330.771; 1792.725;  236.925;    0.000
330.830; 1837.725;  219.925;    0.000
330.889; 1883.725;  211.925;    0.000
330.948; 1890.725;  194.925;    0.000
331.006; 1839.725;  190.925;    0.000
331.065; 1833.725;  192.925;    0.000
331.124; 1841.725;  195.925;    0.000
331.183; 1882.725;  191.925;    0.000
331.242; 1890.725;  203.925;    0.000
331.301; 1812.725;  183.925;    0.000
331.359; 1869.725;  196.925;    0.000
331.418; 1859.725;  209.925;    0.000
331.477; 1796.725;  255.925;    0.000
331.536; 1856.725;  237.925;    0.000
331.595; 1899.725;  217.925;    0.000
331.653; 1859.725;  198.925;    0.000
331.712; 1870.725;  194.925;    0.000
331.771; 1867.725;  229.925;    0.000
331.830; 1795.725;  254.925;    0.000
331.888; 1834.725;  218.925;    0.000
331.947; 1788.725;  211.925;    0.000
332.006; 1888.725;  261.925;    0.000
332.065; 1832.725;  204.925;    0.000
332.123; 1810.725;  225.925;    0.000
332.182; 1846.725;  193.925;    0.000
332.241; 1895.725;  201.925;    0.000
332.299; 1771.725;  182.925;    0.000
332.358; 1839.725;  244.925;    0.000
332.417; 1818.725;  218.925;    0.000
332.475; 1828.725;  218.925;    0.000
332.534; 1782.725;  228.925;    0.000
332.592; 1804.725;  199.925;    0.000
332.651; 1878.725;  204.925;    0.000
332.710; 1816.725;  217.925;    0.000
332.768; 1845.725;  195.925;    0.000
332.827; 1896.725;  182.925;    0.000
332.885; 1901.725;  247.925;    0.000
332.944; 1826.725;  170.925;    0.000
333.003; 1867.725;  200.925;    0.000
333.061; 1889.725;  243.925;    0.000
333.120; 1873.725;  235.925;    0.000
333.178; 1945.725;  195.925;    0.000
333.237; 2022.725;  217.925;    0.000
333.295; 2018.725;  252.925;    0.000
333.354; 1967.725;  201.925;    0.000
333.412; 1971.725;  181.925;    0.000
333.471; 1979.725;  239.925;    0.000
333.529; 2042.725;  214.925;    0.000
333.588; 2012.725;  232.925;    0.000
333.646; 2056.725;  202.925;    0.000
333.705; 2164.725;  232.925;    0.000
333.763; 2014.725;  215.925;    0.000
333.822; 2044.725;  187.925;    0.000
333.880; 1995.725;  186.925;    0.000
333.938; 2019.725;  185.925;    0.000
333.997; 1979.725;  234.925;    0.000
334.055; 2004.725;  255.925;    0.000
334.114; 2007.725;  225.925;    0.000
334.172; 1844.725;  209.925;    0.000
334.230; 1950.725;  194.925;    0.000
334.289; 1934.725;  213.925;    0.000
334.347; 2001.725;  235.925;    0.000
334.405; 2014.725;  242.925;    0.000
334.464; 1911.725;  208.925;    0.000
334.522; 1890.725;  197.925;    0.000
334.580; 1938.725;  204.925;    0.000
334.639; 1935.725;  217.925;    0.000
334.697; 1980.725;  183.925;    0.000
334.755; 1980.725;  196.925;    0.000
334.814; 1956.725;  216.925;    0.000
334.872; 1922.725;  190.925;    0.000
334.930; 1954.725;  162.925;    0.000
334.988; 1927.725;  261.925;    0.000
335.047; 1919.725;  220.925;    0.000
335.105; 1929.725;  190.925;    0.000
335.163; 1886.725;  201.925;    0.000
335.221; 1952.725;  213.925;    0.000
335.280; 1858.725;  202.925;    0.000
335.338; 2030.725;  210.925;    0.000
335.396; 1997.725;  255.925;    0.000
335.454; 1970.725;  216.925;    0.000
335.512; 1935.725;  242.925;    0.000
335.570; 1972.725;  227.925;    0.000
335.629; 2012.725;  225.925;    0.000
335.687; 2053.725;  227.925;    0.000
335.745; 2060.725;  194.925;    0.000
335.803; 2018.725;  221.925;    0.000
335.861; 2005.725;  217.925;    0.000
335.919; 1993.725;  214.925;    0.000
335.977; 2059.725;  209.925;    0.000
336.035; 1979.725;  215.925;    0.000
336.094; 1942.725;  198.925;    0.000
336.152; 1947.725;  222.925;    0.000
336.210; 1923.725;  225.925;    0.000
336.268; 1930.725;  234.925;    0.000
336.326; 1988.725;  209.925;    0.000
336.384; 1914.725;  271.925;    0.000
336.442; 1948.725;  207.925;    0.000
336.500; 2002.725;  226.925;    0.000
336.558; 1978.725;  219.925;    0.000
336.616; 2009.725;  260.925;    0.000
336.674; 1900.725;  205.925;    0.000
336.732; 1913.725;  225.925;    0.000
336.790; 1856.725;  191.925;    0.000
336.848; 1964.725;  219.925;    0.000
336.906; 1967.725;  230.925;    0.000
336.964; 1911.725;  226.925;    0.000
337.022; 1957.725;  266.925;    0.000
337.080; 1959.725;  231.925;    0.000
337.138; 1893.725;  249.925;    0.000
337.195; 1904.725;  207.925;    0.000
337.253; 1984.725;  207.925;    0.000
337.311; 1899.725;  225.925;    0.000
337.369; 1902.725;  211.925;    0.000
337.427; 1921.725;  196.925;    0.000
337.485; 1861.725;  269.925;    0.000
337.543; 1841.725;  227.925;    0.000
337.601; 1790.725;  260.925;    0.000
337.658; 1972.725;  237.925;    0.000
337.716; 1903.725;  222.925;    0.000
337.774; 1859.725;  256.925;    0.000
337.832; 1837.725;  223.925;    0.000
337.890; 1824.725;  188.925;    0.000
337.947; 1899.725;  212.925;    0.000
338.005; 1894.725;  217.925;    0.000
338.063; 1808.725;  200.925;    0.000
338.121; 1817.725;  217.925;    0.000
338.178; 1951.725;  236.925;    0.000
338.236; 1886.725;  218.925;    0.000
338.294; 1852.725;  238.925;    0.000
338.352; 1861.725;  266.925;    0.000
338.409; 1871.725;  240.925;    0.000
338.467; 1780.725;  210.925;    0.000
338.525; 1886.725;  255.925;    0.000
338.583; 1819.725;  239.925;    0.000
338.640; 1759.725;  243.925;    0.000
338.698; 1816.725;  204.925;    0.000
338.756; 1859.725;  219.925;    0.000
338.813; 1794.725;  227.925;    0.000
338.871; 1866.725;  227.925;    0.000
338.928; 1856.725;  211.925;    0.000
338.986; 1843.725;  254.925;    0.000
339.044; 1864.725;  207.925;    0.000
339.101; 1804.725;  229.925;    0.000
339.159; 1770.725;  237.925;    0.000
339.216; 1873.725;  231.925;    0.000
339.274; 1834.725;  301.925;    0.000
339.332; 1877.725;  259.925;    0.000
339.389; 1859.725;  258.925;    0.000
339.447; 1852.725;  226.925;    0.000
339.504; 1899.725;  229.925;    0.000
339.562; 1872.725;  244.925;    0.000
339.619; 1891.725;  265.925;    0.000
339.677; 1924.725;  253.925;    0.000
339.734; 1829.725;  191.925;    0.000
339.792; 1926.725;  238.925;    0.000
339.849; 1873.725;  236.925;    0.000
339.907; 1874.725;  254.925;    0.000
339.964; 1763.725;  196.925;    0.000
340.022; 1881.725;  247.925;    0.000
340.079; 1876.725;  275.925;    0.000
340.137; 1875.725;  248.925;    0.000
340.194; 1854.725;  263.925;    0.000
340.252; 1836.725;  266.925;    0.000
340.309; 1855.725;  211.925;    0.000
340.366; 1809.725;  237.925;    0.000
340.424; 1832.725;  260.925;    0.000
340.481; 1968.725;  255.925;    0.000
340.538; 1851.725;  235.925;    0.000
340.596; 1874.725;  225.925;    0.000
340.653; 1871.725;  230.925;    0.000
340.711; 1991.725;  272.925;    0.000
340.768; 1947.725;  253.925;    0.000
340.825; 1946.725;  201.925;    0.000
340.883; 1906.725;  232.925;    0.000
340.940; 1894.725;  247.925;    0.000
340.997; 1896.725;  244.925;    0.000
341.054; 1892.725;  244.925;    0.000
341.112; 1868.725;  258.925;    0.000
341.169; 1946.725;  238.925;    0.000
341.226; 1872.725;  213.925;    0.000
341.284; 1961.725;  240.925;    0.000
341.341; 1903.725;  194.925;    0.000
341.398; 1925.725;  191.925;    0.000
341.455; 1914.725;  227.925;    0.000
341.512; 1905.725;  238.925;    0.000
341.570; 1905.725;  236.925;    0.000
341.627; 1918.725;  241.925;    0.000
341.684; 1837.725;  225.925;    0.000
341.741; 1962.725;  299.925;    0.000
341.798; 1895.725;  265.925;    0.000
341.856; 1891.725;  230.925;    0.000
341.913; 1914.725;  234.925;    0.000
341.970; 1877.725;  260.925;    0.000
342.027; 1872.725;  255.925;    0.000
342.084; 1876.725;  260.925;    0.000
342.141; 1872.725;  263.925;    0.000
342.198; 1880.725;  245.925;    0.000
342.255; 1847.725;  210.925;    0.000
342.313; 1895.725;  251.925;    0.000
342.370; 1839.725;  234.925;    0.000
342.427; 1835.725;  249.925;    0.000
342.484; 1853.725;  254.925;    0.000
342.541; 1912.725;  229.925;    0.000
342.598; 1856.725;  255.925;    0.000
342.655; 1844.725;  225.925;    0.000
342.712; 1898.725;  224.925;    0.000
342.769; 1867.725;  215.925;    0.000
342.826; 1849.725;  240.925;    0.000
342.883; 1841.725;  233.925;    0.000
342.940; 1881.725;  212.925;    0.000
342.997; 1850.725;  236.925;    0.000
343.054; 1764.725;  255.925;    0.000
343.111; 1787.725;  228.925;    0.000
343.168; 1841.725;  230.925;    0.000
343.225; 1867.725;  258.925;    0.000
343.282; 1954.725;  202.925;    0.000
343.339; 1943.725;  253.925;    0.000
343.395; 1896.725;  232.925;    0.000
343.452; 1901.725;  253.925;    0.000
343.509; 2002.725;  213.925;    0.000
343.566; 1926.725;  259.925;    0.000
343.623; 1918.725;  244.925;    0.000
343.680; 1949.725;  232.925;    0.000
343.737; 1939.725;  222.925;    0.000
343.794; 2074.725;  204.925;    0.000
343.850; 2058.725;  249.925;    0.000
343.907; 2024.725;  212.925;    0.000
343.964; 2035.725;  226.925;    0.000
344.021; 1994.725;  251.925;    0.000
344.078; 2048.725;  246.925;    0.000
344.134; 2026.725;  218.925;    0.000
344.191; 2019.725;  244.925;    0.000
344.248; 2038.725;  211.925;    0.000
344.305; 1952.725;  221.925;    0.000
344.361; 2003.725;  247.925;    0.000
344.418; 2026.725;  265.925;    0.000
344.475; 2022.725;  254.925;    0.000
344.532; 2000.725;  233.925;    0.000
344.588; 2019.725;  236.925;    0.000
344.645; 1938.725;  249.925;    0.000
344.702; 1926.725;  220.925;    0.000
344.758; 1956.725;  255.925;    0.000
344.815; 1931.725;  236.925;    0.000
344.872; 1922.725;  218.925;    0.000
344.928; 2026.725;  230.925;    0.000
344.985; 2000.725;  222.925;    0.000
345.042; 2021.725;  199.925;    0.000
345.098; 1994.725;  226.925;    0.000
345.155; 1934.725;  245.925;    0.000
345.212; 2024.725;  225.925;    0.000
345.268; 1977.725;  237.925;    0.000
345.325; 2025.725;  213.925;    0.000
345.381; 1976.725;  267.925;    0.000
345.438; 1968.725;  240.925;    0.000
345.495; 1923.725;  254.925;    0.000
345.551; 2035.725;  248.925;    0.000
345.608; 1941.725;  196.925;    0.000
345.664; 1985.725;  245.925;    0.000
345.721; 1915.725;  252.925;    0.000
345.777; 1846.725;  245.925;    0.000
345.834; 1824.725;  210.925;    0.000
345.890; 1913.725;  244.925;    0.000
345.947; 1963.725;  238.925;    0.000
346.003; 1958.725;  224.925;    0.000
346.060; 2000.725;  206.925;    0.000
346.116; 2053.725;  237.925;    0.000
346.173; 1967.725;  242.925;    0.000
346.229; 1978.725;  269.925;    0.000
346.285; 1978.725;  262.925;    0.000
346.342; 1965.725;  263.925;    0.000
346.398; 1995.725;  224.925;    0.000
346.455; 2088.725;  237.925;    0.000
346.511; 2154.725;  216.925;    0.000
346.567; 2042.725;  211.925;    0.000
346.624; 1985.725;  225.925;    0.000
346.680; 2056.725;  242.925;    0.000
346.737; 2019.725;  244.925;    0.000
346.793; 2030.725;  260.925;    0.000
346.849; 2060.725;  251.925;    0.000
346.906; 1999.725;  260.925;    0.000
346.962; 2161.725;  267.925;    0.000
347.018; 2074.725;  246.925;    0.000
347.074; 2020.725;  272.925;    0.000
347.131; 2015.725;  211.925;    0.000
347.187; 2040.725;  240.925;    0.000
347.243; 2031.725;  233.925;    0.000
347.300; 2024.725;  225.925;    0.000
347.356; 2099.725;  236.925;    0.000
347.412; 1944.725;  237.925;    0.000
347.468; 2055.725;  284.925;    0.000
347.524; 2006.725;  252.925;    0.000
347.581; 1951.725;  278.925;    0.000
347.637; 2008.725;  262.925;    0.000
347.693; 2035.725;  268.925;    0.000
347.749; 1990.725;  260.925;    0.000
347.805; 1988.725;  224.925;    0.000
347.862; 2008.725;  243.925;    0.000
347.918; 1971.725;  257.925;    0.000
347.974; 2076.725;  248.925;    0.000
348.030; 2078.725;  242.925;    0.000
348.086; 1981.725;  234.925;    0.000
348.142; 2081.725;  239.925;    0.000
348.198; 2014.725;  260.925;    0.000
348.254; 2087.725;  262.925;    0.000
348.311; 1982.725;  263.925;    0.000
348.367; 2015.725;  235.925;    0.000
348.423; 2071.725;  205.925;    0.000
348.479; 1934.725;  234.925;    0.000
348.535; 2006.725;  257.925;    0.000
348.591; 2070.725;  267.925;    0.000
348.647; 1978.725;  243.925;    0.000
348.703; 2054.725;  278.925;    0.000
348.759; 1964.725;  259.925;    0.000
348.815; 2098.725;  288.925;    0.000
348.871; 2010.725;  269.925;    0.000
348.927; 2016.725;  239.925;    0.000
348.983; 1984.725;  289.925;    0.000
349.039; 2077.725;  221.925;    0.000
349.095; 1978.725;  252.925;    0.000
349.151; 1996.725;  226.925;    0.000
349.207; 1997.725;  263.925;    0.000
349.263; 2031.725;  194.925;    0.000
349.319; 2051.725;  212.925;    0.000
349.374; 1988.725;  236.925;    0.000
349.430; 2025.725;  229.925;    0.000
349.486; 1995.725;  247.925;    0.000
349.542; 2026.725;  263.925;    0.000
349.598; 2024.725;  248.925;    0.000
349.654; 2033.725;  252.925;    0.000
349.710; 2013.725;  230.925;    0.000
349.766; 2032.725;  201.925;    0.000
349.821; 2084.725;  229.925;    0.000
349.877; 2033.725;  282.925;    0.000
349.933; 2109.725;  240.925;    0.000
349.989; 2011.725;  251.925;    0.000
350.045; 2113.725;  240.925;    0.000
350.100; 2077.725;  256.925;    0.000
350.156; 2017.725;  243.925;    0.000
350.212; 1975.725;  250.925;    0.000
350.268; 2082.725;  251.925;    0.000
350.323; 2047.725;  208.925;    0.000
350.379; 2029.725;  244.925;    0.000
350.435; 2033.725;  237.925;    0.000
350.491; 2016.725;  201.925;    0.000
350.546; 1994.725;  225.925;    0.000
350.602; 1964.725;  260.925;    0.000
350.658; 2047.725;  224.925;    0.000
350.713; 1989.725;  264.925;    0.000
350.769; 2011.725;  196.925;    0.000
350.825; 2024.725;  202.925;    0.000
350.880; 1975.725;  232.925;    0.000
350.936; 2054.725;  242.925;    0.000
350.992; 2065.725;  238.925;    0.000
351.047; 2052.725;  242.925;    0.000
351.103; 2121.725;  199.925;    0.000
351.158; 2116.725;  242.925;    0.000
351.214; 2054.725;  225.925;    0.000
351.270; 2037.725;  197.925;    0.000
351.325; 2065.725;  231.925;    0.000
351.381; 2043.725;  215.925;    0.000
351.436; 2127.725;  233.925;    0.000
351.492; 2130.725;  216.925;    0.000
351.547; 2123.725;  244.925;    0.000
351.603; 2103.725;  249.925;    0.000
351.658; 2034.725;  249.925;    0.000
351.714; 2094.725;  222.925;    0.000
351.769; 2122.725;  222.925;    0.000
351.825; 2096.725;  226.925;    0.000
351.880; 2074.725;  238.925;    0.000
351.936; 2110.725;  230.925;    0.000
351.991; 2026.725;  243.925;    0.000
352.047; 2094.725;  201.925;    0.000
352.102; 2043.725;  243.925;    0.000
352.158; 2132.725;  193.925;    0.000
352.213; 2032.725;  219.925;    0.000
352.268; 1958.725;  205.925;    0.000
352.324; 2078.725;  246.925;    0.000
352.379; 2076.725;  247.925;    0.000
352.434; 2019.725;  252.925;    0.000
352.490; 2073.725;  205.925;    0.000
352.545; 2036.725;  262.925;    0.000
352.601; 2104.725;  229.925;    0.000
352.656; 2091.725;  207.925;    0.000
352.711; 1986.725;  228.925;    0.000
352.767; 2029.725;  216.925;    0.000
352.822; 2029.725;  219.925;    0.000
352.877; 1985.725;  234.925;    0.000
352.932; 2048.725;  249.925;    0.000
352.988; 2064.725;  196.925;    0.000
353.043; 1999.725;  228.925;    0.000
353.098; 2189.725;  231.925;    0.000
353.153; 2049.725;  235.925;    0.000
353.209; 2039.725;  250.925;    0.000
353.264; 2001.725;  212.925;    0.000
353.319; 2108.725;  234.925;    0.000
353.374; 2051.725;  245.925;    0.000
353.430; 2047.725;  261.925;    0.000
353.485; 1984.725;  249.925;    0.000
353.540; 1995.725;  260.925;    0.000
353.595; 1973.725;  219.925;    0.000
353.650; 2080.725;  242.925;    0.000
353.705; 1994.725;  244.925;    0.000
353.761; 1965.725;  242.925;    0.000
353.816; 2062.725;  214.925;    0.000
353.871; 2047.725;  237.925;    0.000
353.926; 2063.725;  233.925;    0.000
353.981; 2128.725;  250.925;    0.000
354.036; 2075.725;  239.925;    0.000
354.091; 2118.725;  289.925;    0.000
354.146; 2096.725;  282.925;    0.000
354.201; 2036.725;  244.925;    0.000
354.256; 2107.725;  257.925;    0.000
354.311; 2116.725;  305.925;    0.000
354.367; 2048.725;  220.925;    0.000
354.422; 2057.725;  261.925;    0.000
354.477; 2069.725;  212.925;    0.000
354.532; 2056.725;  254.925;    0.000
354.587; 2121.725;  252.925;    0.000
354.642; 2059.725;  210.925;    0.000
354.697; 2077.725;  232.925;    0.000
354.751; 2065.725;  254.925;    0.000
354.806; 1983.725;  233.925;    0.000
354.861; 2061.725;  244.925;    0.000
354.916; 2072.725;  235.925;    0.000
354.971; 2045.725;  258.925;    0.000
355.026; 2127.725;  251.925;    0.000
355.081; 2108.725;  254.925;    0.000
355.136; 2063.725;  212.925;    0.000
355.191; 2127.725;  211.925;    0.000
355.246; 2145.725;  237.925;    0.000
355.301; 2008.725;  255.925;    0.000
355.355; 2009.725;  231.925;    0.000
355.410; 2090.725;  224.925;    0.000
355.465; 2088.725;  235.925;    0.000
355.520; 2025.725;  244.925;    0.000
355.575; 2089.725;  267.925;    0.000
355.630; 2107.725;  255.925;    0.000
355.684; 2084.725;  254.925;    0.000
355.739; 2017.725;  217.925;    0.000
355.794; 2089.725;  206.925;    0.000
355.849; 2059.725;  221.925;    0.000
355.904; 2080.725;  257.925;    0.000
355.958; 2081.725;  221.925;    0.000
356.013; 2105.725;  192.925;    0.000
356.068; 2089.725;  267.925;    0.000
356.123; 2152.725;  218.925;    0.000
356.177; 2083.725;  236.925;    0.000
356.232; 2143.725;  236.925;    0.000
356.287; 2097.725;  246.925;    0.000
356.341; 2111.725;  241.925;    0.000
356.396; 1965.725;  219.925;    0.000
356.451; 2116.725;  244.925;    0.000
356.505; 2046.725;  248.925;    0.000
356.560; 2091.725;  267.925;    0.000
356.615; 2070.725;  258.925;    0.000
356.669; 2093.725;  291.925;    0.000
356.724; 2045.725;  272.925;    0.000
356.778; 2090.725;  244.925;    0.000
356.833; 1990.725;  223.925;    0.000
356.888; 2024.725;  245.925;    0.000
356.942; 2065.725;  221.925;    0.000
356.997; 2103.725;  254.925;    0.000
357.051; 2090.725;  244.925;    0.000
357.106; 1972.725;  227.925;    0.000
357.160; 2061.725;  176.925;    0.000
357.215; 2043.725;  234.925;    0.000
357.269; 2052.725;  233.925;    0.000
357.324; 2056.725;  232.925;    0.000
357.378; 2007.725;  211.925;    0.000
357.433; 2047.725;  252.925;    0.000
357.487; 2096.725;  227.925;    0.000
357.542; 2029.725;  246.925;    0.000
357.596; 2031.725;  260.925;    0.000
357.651; 2080.725;  301.925;    0.000
357.705; 2044.725;  230.925;    0.000
357.760; 2119.725;  211.925;    0.000
357.814; 2047.725;  265.925;    0.000
357.868; 2026.725;  220.925;    0.000
357.923; 2027.725;  220.925;    0.000
357.977; 1993.725;  245.925;    0.000
358.032; 2062.725;  247.925;    0.000
358.086; 2060.725;  242.925;    0.000
358.140; 2022.725;  270.925;    0.000
358.195; 2136.725;  242.925;    0.000
358.249; 2015.725;  238.925;    0.000
358.303; 2120.725;  285.925;    0.000
358.358; 2019.725;  265.925;    0.000
358.412; 2124.725;  265.925;    0.000
358.466; 2089.725;  257.925;    0.000
358.521; 2064.725;  251.925;    0.000
358.575; 2053.725;  254.925;    0.000
358.629; 2034.725;  278.925;    0.000
358.683; 2029.725;  288.925;    0.000
358.738; 2091.725;  302.925;    0.000
358.792; 2001.725;  239.925;    0.000
358.846; 2077.725;  293.925;    0.000
358.900; 2060.725;  271.925;    0.000
358.954; 2057.725;  300.925;    0.000
359.009; 2038.725;  279.925;    0.000
359.063; 2023.725;  249.925;    0.000
359.117; 2061.725;  264.925;    0.000
359.171; 2059.725;  279.925;    0.000
359.225; 2117.725;  276.925;    0.000
359.280; 1990.725;  237.925;    0.000
359.334; 2134.725;  280.925;    0.000
359.388; 2103.725;  282.925;    0.000
359.442; 2042.725;  243.925;    0.000
359.496; 1979.725;  204.925;    0.000
359.550; 2030.725;  308.925;    0.000
359.604; 1990.725;  264.925;    0.000
359.658; 1996.725;  247.925;    0.000
359.712; 2058.725;  273.925;    0.000
359.766; 2152.725;  212.925;    0.000
359.820; 2070.725;  228.925;    0.000
359.875; 2076.725;  248.925;    0.000
359.929; 2015.725;  271.925;    0.000
359.983; 2034.725;  274.925;    0.000
360.037; 2049.725;  262.925;    0.000
360.091; 2090.725;  302.925;    0.000
360.145; 1985.725;  244.925;    0.000
360.199; 2066.725;  253.925;    0.000
360.253; 1998.725;  285.925;    0.000
360.306; 2037.725;  287.925;    0.000
360.360; 2068.725;  267.925;    0.000
360.414; 1979.725;  250.925;    0.000
360.468; 2030.725;  270.925;    0.000
360.522; 2048.725;  276.925;    0.000
360.576; 2027.725;  269.925;    0.000
360.630; 2129.725;  281.925;    0.000
360.684; 2032.725;  291.925;    0.000
360.738; 2012.725;  325.925;    0.000
360.792; 2101.725;  320.925;    0.000
360.846; 1986.725;  276.925;    0.000
360.899; 2057.725;  314.925;    0.000
360.953; 2159.725;  275.925;    0.000
361.007; 2035.725;  292.925;    0.000
361.061; 1979.725;  278.925;    0.000
361.115; 2150.725;  264.925;    0.000
361.168; 2057.725;  317.925;    0.000
361.222; 2104.725;  277.925;    0.000
361.276; 2028.725;  274.925;    0.000
361.330; 2046.725;  269.925;    0.000
361.384; 1946.725;  280.925;    0.000
361.437; 2089.725;  304.925;    0.000
361.491; 1937.725;  256.925;    0.000
361.545; 1987.725;  293.925;    0.000
361.599; 1980.725;  284.925;    0.000
361.652; 2086.725;  274.925;    0.000
361.706; 1993.725;  284.925;    0.000
361.760; 2021.725;  260.925;    0.000
361.813; 1942.725;  272.925;    0.000
361.867; 2065.725;  300.925;    0.000
361.921; 2050.725;  275.925;    0.000
361.974; 2017.725;  258.925;    0.000
362.028; 1983.725;  248.925;    0.000
362.082; 2032.725;  252.925;    0.000
362.135; 1943.725;  240.925;    0.000
362.189; 2000.725;  259.925;    0.000
362.242; 2007.725;  267.925;    0.000
362.296; 2052.725;  280.925;    0.000
362.350; 2023.725;  282.925;    0.000
362.403; 2102.725;  288.925;    0.000
362.457; 1971.725;  253.925;    0.000
362.510; 2038.725;  323.925;    0.000
362.564; 1987.725;  286.925;    0.000
362.617; 2040.725;  317.925;    0.000
362.671; 2054.725;  286.925;    0.000
362.724; 1948.725;  274.925;    0.000
362.778; 2024.725;  295.925;    0.000
362.831; 2026.725;  289.925;    0.000
362.885; 2051.725;  318.925;    0.000
362.938; 1968.725;  271.925;    0.000
362.992;  329.725;  285.925;    0.000
363.045;  261.725;  291.925;    0.000
363.099;  278.725;  276.925;    0.000
363.152;  298.725;  309.925;    0.000
363.205;  271.725;  263.925;    0.000
363.259;  271.725;  288.925;    0.000
363.312;  315.725;  333.925;    0.000
363.366;  282.725;  328.925;    0.000
363.419;  290.725;  328.925;    0.000
363.472;  306.725;  295.925;    0.000
363.526;  286.725;  334.925;    0.000
363.579;  248.725;  312.925;    0.000
363.632;  286.725;  274.925;    0.000
363.686;  252.725;  282.925;    0.000
363.739;  256.725;  289.925;    0.000
363.792;  282.725;  287.925;    0.000

