
Integration time [ms]:   0.300
Averaging Nr. [scans]: 1
Smoothing Nr. [pixels]: 0
Data measured with spectrometer [name]: UV2
Wave   ;Sample   ;Dark     ;Reference
[nm]   ;[counts] ;[counts] ;[counts] 

353.533;  220.650;  235.675;    0.000
353.597;  230.650;  239.675;    0.000
353.660;  212.650;  203.675;    0.000
353.723;  242.650;  225.675;    0.000
353.786;  193.650;  178.675;    0.000
353.850;  239.650;  199.675;    0.000
353.913;  170.650;  179.675;    0.000
353.976;  217.650;  209.675;    0.000
354.039;  170.650;  188.675;    0.000
354.102;  181.650;  219.675;    0.000
354.166;  212.650;  237.675;    0.000
354.229;  224.650;  179.675;    0.000
354.292;  229.650;  210.675;    0.000
354.355;  226.650;  214.675;    0.000
354.418;  147.650;  173.675;    0.000
354.481;  191.650;  170.675;    0.000
354.545;  605.650;  229.675;    0.000
354.608;  635.650;  233.675;    0.000
354.671;  598.650;  183.675;    0.000
354.734;  666.650;  208.675;    0.000
354.797;  656.650;  263.675;    0.000
354.860;  659.650;  208.675;    0.000
354.923;  686.650;  202.675;    0.000
354.986;  672.650;  207.675;    0.000
355.050;  764.650;  180.675;    0.000
355.113;  671.650;  189.675;    0.000
355.176;  742.650;  214.675;    0.000
355.239;  722.650;  199.675;    0.000
355.302;  745.650;  229.675;    0.000
355.365;  749.650;  220.675;    0.000
355.428;  740.650;  196.675;    0.000
355.491;  746.650;  243.675;    0.000
355.554;  728.650;  191.675;    0.000
355.617;  827.650;  200.675;    0.000
355.680;  761.650;  190.675;    0.000
355.743;  823.650;  236.675;    0.000
355.806;  798.650;  193.675;    0.000
355.869;  807.650;  223.675;    0.000
355.932;  794.650;  208.675;    0.000
355.995;  789.650;  231.675;    0.000
356.058;  832.650;  202.675;    0.000
356.121;  862.650;  198.675;    0.000
356.184;  850.650;  209.675;    0.000
356.247;  864.650;  224.675;    0.000
356.310;  793.650;  149.675;    0.000
356.373;  837.650;  211.675;    0.000
356.436;  834.650;  195.675;    0.000
356.498;  844.650;  176.675;    0.000
356.561;  871.650;  186.675;    0.000
356.624;  879.650;  184.675;    0.000
356.687;  855.650;  179.675;    0.000
356.750;  898.650;  213.675;    0.000
356.813;  831.650;  172.675;    0.000
356.876;  882.650;  189.675;    0.000
356.939;  804.650;  204.675;    0.000
357.001;  870.650;  195.675;    0.000
357.064;  814.650;  202.675;    0.000
357.127;  858.650;  176.675;    0.000
357.190;  880.650;  186.675;    0.000
357.253;  891.650;  178.675;    0.000
357.316;  912.650;  187.675;    0.000
357.378;  922.650;  181.675;    0.000
357.441;  882.650;  142.675;    0.000
357.504;  921.650;  161.675;    0.000
357.567;  846.650;  113.675;    0.000
357.629;  881.650;  193.675;    0.000
357.692;  862.650;  144.675;    0.000
357.755;  906.650;  177.675;    0.000
357.818;  879.650;  144.675;    0.000
357.880;  908.650;  182.675;    0.000
357.943;  855.650;  166.675;    0.000
358.006;  884.650;  184.675;    0.000
358.069;  918.650;  200.675;    0.000
358.131;  968.650;  148.675;    0.000
358.194;  833.650;  155.675;    0.000
358.257;  892.650;  173.675;    0.000
358.319;  891.650;  178.675;    0.000
358.382;  960.650;  184.675;    0.000
358.445;  917.650;  156.675;    0.000
358.507;  923.650;  199.675;    0.000
358.570;  935.650;  182.675;    0.000
358.633;  900.650;  167.675;    0.000
358.695;  875.650;  124.675;    0.000
358.758;  951.650;  164.675;    0.000
358.821;  928.650;  147.675;    0.000
358.883;  928.650;  153.675;    0.000
358.946;  949.650;  171.675;    0.000
359.008;  970.650;  196.675;    0.000
359.071;  970.650;  178.675;    0.000
359.134;  969.650;  123.675;    0.000
359.196;  927.650;  166.675;    0.000
359.259;  963.650;  173.675;    0.000
359.321;  956.650;  164.675;    0.000
359.384;  910.650;  155.675;    0.000
359.446;  931.650;  157.675;    0.000
359.509;  978.650;  153.675;    0.000
359.571;  936.650;  184.675;    0.000
359.634;  955.650;  138.675;    0.000
359.696;  954.650;  169.675;    0.000
359.759;  956.650;  152.675;    0.000
359.821;  968.650;  150.675;    0.000
359.884; 1021.650;  166.675;    0.000
359.946;  982.650;  165.675;    0.000
360.009; 1028.650;  176.675;    0.000
360.071;  949.650;  148.675;    0.000
360.134; 1001.650;  193.675;    0.000
360.196;  989.650;  151.675;    0.000
360.259;  942.650;  182.675;    0.000
360.321; 1047.650;  168.675;    0.000
360.384;  915.650;  176.675;    0.000
360.446;  927.650;  156.675;    0.000
360.508;  969.650;  183.675;    0.000
360.571; 1052.650;  193.675;    0.000
360.633; 1032.650;  184.675;    0.000
360.696;  952.650;  136.675;    0.000
360.758;  976.650;  186.675;    0.000
360.820;  993.650;  127.675;    0.000
360.883;  943.650;  146.675;    0.000
360.945; 1043.650;  144.675;    0.000
361.007;  989.650;  160.675;    0.000
361.070;  969.650;  175.675;    0.000
361.132;  985.650;  195.675;    0.000
361.194; 1002.650;  167.675;    0.000
361.257; 1006.650;  140.675;    0.000
361.319;  979.650;  154.675;    0.000
361.381; 1061.650;  181.675;    0.000
361.443; 1025.650;  137.675;    0.000
361.506; 1062.650;  159.675;    0.000
361.568;  940.650;  144.675;    0.000
361.630;  974.650;  189.675;    0.000
361.693; 1043.650;  162.675;    0.000
361.755;  999.650;  156.675;    0.000
361.817; 1012.650;  225.675;    0.000
361.879; 1051.650;  172.675;    0.000
361.941; 1022.650;  138.675;    0.000
362.004; 1030.650;  163.675;    0.000
362.066; 1004.650;  164.675;    0.000
362.128; 1025.650;  160.675;    0.000
362.190; 1024.650;  168.675;    0.000
362.252; 1042.650;  177.675;    0.000
362.315; 1010.650;  169.675;    0.000
362.377; 1057.650;  188.675;    0.000
362.439; 1003.650;  158.675;    0.000
362.501; 1027.650;  168.675;    0.000
362.563;  978.650;  168.675;    0.000
362.625; 1086.650;  188.675;    0.000
362.688; 1051.650;  162.675;    0.000
362.750; 1106.650;  209.675;    0.000
362.812; 1082.650;  154.675;    0.000
362.874; 1076.650;  190.675;    0.000
362.936; 1048.650;  190.675;    0.000
362.998; 1070.650;  143.675;    0.000
363.060; 1136.650;  186.675;    0.000
363.122; 1062.650;  167.675;    0.000
363.184; 1055.650;  163.675;    0.000
363.246; 1105.650;  169.675;    0.000
363.308; 1092.650;  165.675;    0.000
363.370; 1099.650;  177.675;    0.000
363.432; 1070.650;  139.675;    0.000
363.494; 1146.650;  177.675;    0.000
363.556; 1059.650;  164.675;    0.000
363.618; 1015.650;  170.675;    0.000
363.680; 1074.650;  146.675;    0.000
363.742; 1112.650;  179.675;    0.000
363.804; 1080.650;  188.675;    0.000
363.866; 1124.650;  186.675;    0.000
363.928; 1070.650;  147.675;    0.000
363.990; 1104.650;  185.675;    0.000
364.052; 1065.650;  197.675;    0.000
364.114; 1053.650;  150.675;    0.000
364.176; 1173.650;  217.675;    0.000
364.238; 1106.650;  159.675;    0.000
364.300; 1087.650;  192.675;    0.000
364.362; 1149.650;  130.675;    0.000
364.424; 1137.650;  131.675;    0.000
364.486; 1087.650;  178.675;    0.000
364.548; 1100.650;  203.675;    0.000
364.609; 1168.650;  192.675;    0.000
364.671; 1103.650;  169.675;    0.000
364.733; 1077.650;  169.675;    0.000
364.795; 1138.650;  157.675;    0.000
364.857; 1079.650;  171.675;    0.000
364.919; 1101.650;  134.675;    0.000
364.981; 1100.650;  162.675;    0.000
365.042; 1101.650;  136.675;    0.000
365.104; 1110.650;  152.675;    0.000
365.166; 1086.650;  149.675;    0.000
365.228; 1151.650;  195.675;    0.000
365.290; 1059.650;  147.675;    0.000
365.351; 1081.650;  138.675;    0.000
365.413; 1136.650;  168.675;    0.000
365.475; 1138.650;  150.675;    0.000
365.537; 1104.650;  179.675;    0.000
365.598; 1058.650;  177.675;    0.000
365.660; 1119.650;  149.675;    0.000
365.722; 1137.650;  160.675;    0.000
365.784; 1094.650;  175.675;    0.000
365.845; 1129.650;  149.675;    0.000
365.907; 1072.650;  154.675;    0.000
365.969; 1076.650;  128.675;    0.000
366.030; 1169.650;  176.675;    0.000
366.092; 1088.650;  181.675;    0.000
366.154; 1123.650;  194.675;    0.000
366.215; 1149.650;  149.675;    0.000
366.277; 1193.650;  144.675;    0.000
366.339; 1123.650;  160.675;    0.000
366.400; 1127.650;  144.675;    0.000
366.462; 1150.650;  145.675;    0.000
366.524; 1139.650;  148.675;    0.000
366.585; 1151.650;  128.675;    0.000
366.647; 1124.650;  156.675;    0.000
366.708; 1046.650;  128.675;    0.000
366.770; 1218.650;  188.675;    0.000
366.832; 1236.650;  170.675;    0.000
366.893; 1156.650;  158.675;    0.000
366.955; 1115.650;  150.675;    0.000
367.016; 1152.650;  160.675;    0.000
367.078; 1140.650;  144.675;    0.000
367.139; 1157.650;  109.675;    0.000
367.201; 1167.650;  155.675;    0.000
367.262; 1220.650;  165.675;    0.000
367.324; 1159.650;  180.675;    0.000
367.385; 1077.650;  150.675;    0.000
367.447; 1153.650;  164.675;    0.000
367.508; 1142.650;  137.675;    0.000
367.570; 1185.650;  174.675;    0.000
367.631; 1128.650;  126.675;    0.000
367.693; 1133.650;  153.675;    0.000
367.754; 1167.650;  194.675;    0.000
367.816; 1118.650;  154.675;    0.000
367.877; 1189.650;  183.675;    0.000
367.939; 1213.650;  179.675;    0.000
368.000; 1103.650;  142.675;    0.000
368.062; 1136.650;  147.675;    0.000
368.123; 1164.650;  155.675;    0.000
368.184; 1121.650;  169.675;    0.000
368.246; 1167.650;  145.675;    0.000
368.307; 1156.650;  165.675;    0.000
368.369; 1165.650;  177.675;    0.000
368.430; 1077.650;  161.675;    0.000
368.491; 1179.650;  156.675;    0.000
368.553; 1182.650;  156.675;    0.000
368.614; 1133.650;  186.675;    0.000
368.675; 1219.650;  154.675;    0.000
368.737; 1167.650;  162.675;    0.000
368.798; 1216.650;  202.675;    0.000
368.859; 1184.650;  162.675;    0.000
368.921; 1165.650;  171.675;    0.000
368.982; 1196.650;  193.675;    0.000
369.043; 1194.650;  207.675;    0.000
369.104; 1231.650;  143.675;    0.000
369.166; 1223.650;  203.675;    0.000
369.227; 1205.650;  125.675;    0.000
369.288; 1179.650;  154.675;    0.000
369.349; 1208.650;  187.675;    0.000
369.411; 1208.650;  191.675;    0.000
369.472; 1232.650;  175.675;    0.000
369.533; 1207.650;  180.675;    0.000
369.594; 1226.650;  161.675;    0.000
369.656; 1217.650;  169.675;    0.000
369.717; 1149.650;  103.675;    0.000
369.778; 1211.650;  159.675;    0.000
369.839; 1174.650;  146.675;    0.000
369.900; 1266.650;  218.675;    0.000
369.961; 1257.650;  200.675;    0.000
370.023; 1205.650;  177.675;    0.000
370.084; 1228.650;  149.675;    0.000
370.145; 1180.650;  179.675;    0.000
370.206; 1234.650;  179.675;    0.000
370.267; 1223.650;  166.675;    0.000
370.328; 1229.650;  164.675;    0.000
370.389; 1247.650;  162.675;    0.000
370.451; 1247.650;  179.675;    0.000
370.512; 1142.650;  181.675;    0.000
370.573; 1190.650;  173.675;    0.000
370.634; 1181.650;  162.675;    0.000
370.695; 1222.650;  167.675;    0.000
370.756; 1248.650;  177.675;    0.000
370.817; 1258.650;  178.675;    0.000
370.878; 1258.650;  152.675;    0.000
370.939; 1235.650;  185.675;    0.000
371.000; 1188.650;  173.675;    0.000
371.061; 1271.650;  176.675;    0.000
371.122; 1192.650;  169.675;    0.000
371.183; 1186.650;  116.675;    0.000
371.244; 1230.650;  174.675;    0.000
371.305; 1239.650;  152.675;    0.000
371.366; 1250.650;  168.675;    0.000
371.427; 1207.650;  188.675;    0.000
371.488; 1252.650;  180.675;    0.000
371.549; 1226.650;  145.675;    0.000
371.610; 1226.650;  160.675;    0.000
371.671; 1192.650;  164.675;    0.000
371.732; 1204.650;  158.675;    0.000
371.793; 1253.650;  162.675;    0.000
371.853; 1254.650;  130.675;    0.000
371.914; 1200.650;  172.675;    0.000
371.975; 1195.650;   98.675;    0.000
372.036; 1245.650;  161.675;    0.000
372.097; 1227.650;  143.675;    0.000
372.158; 1238.650;  175.675;    0.000
372.219; 1249.650;  196.675;    0.000
372.280; 1222.650;  175.675;    0.000
372.340; 1287.650;  160.675;    0.000
372.401; 1300.650;  163.675;    0.000
372.462; 1286.650;  147.675;    0.000
372.523; 1267.650;  146.675;    0.000
372.584; 1300.650;  173.675;    0.000
372.645; 1290.650;  126.675;    0.000
372.705; 1309.650;  179.675;    0.000
372.766; 1240.650;  173.675;    0.000
372.827; 1254.650;  171.675;    0.000
372.888; 1293.650;  134.675;    0.000
372.948; 1240.650;  167.675;    0.000
373.009; 1325.650;  167.675;    0.000
373.070; 1207.650;  152.675;    0.000
373.131; 1278.650;  177.675;    0.000
373.191; 1239.650;  225.675;    0.000
373.252; 1281.650;  165.675;    0.000
373.313; 1299.650;  171.675;    0.000
373.373; 1218.650;  160.675;    0.000
373.434; 1258.650;  172.675;    0.000
373.495; 1252.650;  150.675;    0.000
373.555; 1249.650;  130.675;    0.000
373.616; 1236.650;  155.675;    0.000
373.677; 1288.650;  212.675;    0.000
373.737; 1340.650;  188.675;    0.000
373.798; 1281.650;  203.675;    0.000
373.859; 1293.650;  169.675;    0.000
373.919; 1269.650;  197.675;    0.000
373.980; 1321.650;  134.675;    0.000
374.041; 1331.650;  186.675;    0.000
374.101; 1293.650;  207.675;    0.000
374.162; 1257.650;  190.675;    0.000
374.222; 1345.650;  182.675;    0.000
374.283; 1337.650;  213.675;    0.000
374.343; 1346.650;  191.675;    0.000
374.404; 1339.650;  181.675;    0.000
374.465; 1267.650;  193.675;    0.000
374.525; 1311.650;  153.675;    0.000
374.586; 1335.650;  190.675;    0.000
374.646; 1336.650;  173.675;    0.000
374.707; 1348.650;  210.675;    0.000
374.767; 1334.650;  218.675;    0.000
374.828; 1254.650;  174.675;    0.000
374.888; 1354.650;  197.675;    0.000
374.949; 1371.650;  196.675;    0.000
375.009; 1369.650;  169.675;    0.000
375.070; 1372.650;  157.675;    0.000
375.130; 1356.650;  203.675;    0.000
375.190; 1348.650;  174.675;    0.000
375.251; 1440.650;  230.675;    0.000
375.311; 1333.650;  198.675;    0.000
375.372; 1351.650;  160.675;    0.000
375.432; 1341.650;  169.675;    0.000
375.493; 1345.650;  159.675;    0.000
375.553; 1335.650;  179.675;    0.000
375.613; 1349.650;  157.675;    0.000
375.674; 1386.650;  174.675;    0.000
375.734; 1355.650;  180.675;    0.000
375.794; 1335.650;  175.675;    0.000
375.855; 1348.650;  193.675;    0.000
375.915; 1389.650;  148.675;    0.000
375.975; 1358.650;  183.675;    0.000
376.036; 1342.650;  144.675;    0.000
376.096; 1388.650;  195.675;    0.000
376.156; 1379.650;  200.675;    0.000
376.217; 1307.650;  160.675;    0.000
376.277; 1448.650;  193.675;    0.000
376.337; 1358.650;  168.675;    0.000
376.398; 1331.650;  183.675;    0.000
376.458; 1334.650;  168.675;    0.000
376.518; 1388.650;  184.675;    0.000
376.578; 1317.650;  176.675;    0.000
376.639; 1368.650;  158.675;    0.000
376.699; 1394.650;  157.675;    0.000
376.759; 1368.650;  184.675;    0.000
376.819; 1333.650;  166.675;    0.000
376.880; 1401.650;  220.675;    0.000
376.940; 1317.650;  195.675;    0.000
377.000; 1342.650;  178.675;    0.000
377.060; 1401.650;  212.675;    0.000
377.120; 1315.650;  161.675;    0.000
377.180; 1371.650;  168.675;    0.000
377.241; 1431.650;  167.675;    0.000
377.301; 1448.650;  171.675;    0.000
377.361; 1407.650;  174.675;    0.000
377.421; 1424.650;  216.675;    0.000
377.481; 1404.650;  164.675;    0.000
377.541; 1416.650;  163.675;    0.000
377.601; 1357.650;  197.675;    0.000
377.661; 1488.650;  175.675;    0.000
377.722; 1453.650;  196.675;    0.000
377.782; 1411.650;  162.675;    0.000
377.842; 1491.650;  179.675;    0.000
377.902; 1407.650;  140.675;    0.000
377.962; 1347.650;  121.675;    0.000
378.022; 1407.650;  174.675;    0.000
378.082; 1408.650;  167.675;    0.000
378.142; 1420.650;  151.675;    0.000
378.202; 1478.650;  174.675;    0.000
378.262; 1516.650;  168.675;    0.000
378.322; 1506.650;  183.675;    0.000
378.382; 1465.650;  159.675;    0.000
378.442; 1507.650;  177.675;    0.000
378.502; 1432.650;  137.675;    0.000
378.562; 1423.650;  140.675;    0.000
378.622; 1522.650;  197.675;    0.000
378.682; 1493.650;  205.675;    0.000
378.742; 1502.650;  160.675;    0.000
378.802; 1401.650;  132.675;    0.000
378.862; 1562.650;  222.675;    0.000
378.921; 1532.650;  178.675;    0.000
378.981; 1501.650;  160.675;    0.000
379.041; 1544.650;  136.675;    0.000
379.101; 1559.650;  184.675;    0.000
379.161; 1502.650;  147.675;    0.000
379.221; 1515.650;  139.675;    0.000
379.281; 1545.650;  204.675;    0.000
379.341; 1609.650;  142.675;    0.000
379.401; 1550.650;  136.675;    0.000
379.460; 1526.650;  161.675;    0.000
379.520; 1548.650;  171.675;    0.000
379.580; 1605.650;  168.675;    0.000
379.640; 1651.650;  183.675;    0.000
379.700; 1514.650;  182.675;    0.000
379.759; 1578.650;  190.675;    0.000
379.819; 1587.650;  149.675;    0.000
379.879; 1535.650;  140.675;    0.000
379.939; 1608.650;  155.675;    0.000
379.999; 1624.650;  199.675;    0.000
380.058; 1584.650;  163.675;    0.000
380.118; 1654.650;  190.675;    0.000
380.178; 1722.650;  220.675;    0.000
380.237; 1619.650;  181.675;    0.000
380.297; 1629.650;  187.675;    0.000
380.357; 1707.650;  193.675;    0.000
380.417; 1674.650;  157.675;    0.000
380.476; 1734.650;  176.675;    0.000
380.536; 1734.650;  180.675;    0.000
380.596; 1663.650;  191.675;    0.000
380.655; 1666.650;  190.675;    0.000
380.715; 1668.650;  180.675;    0.000
380.775; 1666.650;  202.675;    0.000
380.834; 1716.650;  190.675;    0.000
380.894; 1658.650;  163.675;    0.000
380.954; 1676.650;  181.675;    0.000
381.013; 1659.650;  218.675;    0.000
381.073; 1694.650;  181.675;    0.000
381.132; 1749.650;  193.675;    0.000
381.192; 1748.650;  209.675;    0.000
381.252; 1759.650;  206.675;    0.000
381.311; 1634.650;  173.675;    0.000
381.371; 1798.650;  188.675;    0.000
381.430; 1759.650;  162.675;    0.000
381.490; 1735.650;  168.675;    0.000
381.549; 1742.650;  213.675;    0.000
381.609; 1762.650;  194.675;    0.000
381.668; 1744.650;  190.675;    0.000
381.728; 1864.650;  183.675;    0.000
381.787; 1778.650;  172.675;    0.000
381.847; 1884.650;  198.675;    0.000
381.906; 1856.650;  197.675;    0.000
381.966; 1905.650;  201.675;    0.000
382.025; 1879.650;  219.675;    0.000
382.085; 2060.650;  194.675;    0.000
382.144; 1911.650;  187.675;    0.000
382.204; 1883.650;  196.675;    0.000
382.263; 1947.650;  168.675;    0.000
382.323; 1990.650;  135.675;    0.000
382.382; 2021.650;  173.675;    0.000
382.441; 2004.650;  155.675;    0.000
382.501; 2130.650;  168.675;    0.000
382.560; 2132.650;  200.675;    0.000
382.619; 2174.650;  155.675;    0.000
382.679; 2319.650;  198.675;    0.000
382.738; 2373.650;  211.675;    0.000
382.798; 2600.650;  214.675;    0.000
382.857; 2793.650;  146.675;    0.000
382.916; 3120.650;  183.675;    0.000
382.976; 3262.650;  173.675;    0.000
383.035; 2979.650;  165.675;    0.000
383.094; 3169.650;  173.675;    0.000
383.154; 3497.650;  143.675;    0.000
383.213; 4125.650;  173.675;    0.000
383.272; 3870.650;  166.675;    0.000
383.331; 3106.650;  154.675;    0.000
383.391; 2909.650;  232.675;    0.000
383.450; 2727.650;  185.675;    0.000
383.509; 2753.650;  204.675;    0.000
383.568; 2886.650;  197.675;    0.000
383.628; 2980.650;  171.675;    0.000
383.687; 3307.650;  202.675;    0.000
383.746; 3802.650;  116.675;    0.000
383.805; 4297.650;  156.675;    0.000
383.864; 4296.650;  150.675;    0.000
383.924; 3419.650;  195.675;    0.000
383.983; 2824.650;  157.675;    0.000
384.042; 2544.650;  184.675;    0.000
384.101; 2431.650;  210.675;    0.000
384.160; 2283.650;  123.675;    0.000
384.219; 2280.650;  191.675;    0.000
384.279; 2171.650;  184.675;    0.000
384.338; 2067.650;  172.675;    0.000
384.397; 2096.650;  153.675;    0.000
384.456; 2026.650;  181.675;    0.000
384.515; 2023.650;  171.675;    0.000
384.574; 2086.650;  172.675;    0.000
384.633; 1974.650;  174.675;    0.000
384.692; 1945.650;  178.675;    0.000
384.751; 1972.650;  180.675;    0.000
384.810; 1974.650;  161.675;    0.000
384.869; 1934.650;  162.675;    0.000
384.929; 1970.650;  157.675;    0.000
384.988; 1979.650;  153.675;    0.000
385.047; 1945.650;  178.675;    0.000
385.106; 1896.650;  164.675;    0.000
385.165; 1898.650;  127.675;    0.000
385.224; 1920.650;  156.675;    0.000
385.283; 1888.650;  178.675;    0.000
385.342; 1905.650;  177.675;    0.000
385.401; 1881.650;  178.675;    0.000
385.459; 1890.650;  177.675;    0.000
385.518; 1933.650;  152.675;    0.000
385.577; 1869.650;  133.675;    0.000
385.636; 2001.650;  204.675;    0.000
385.695; 1905.650;  161.675;    0.000
385.754; 1908.650;  190.675;    0.000
385.813; 1937.650;  160.675;    0.000
385.872; 1875.650;  138.675;    0.000
385.931; 1913.650;  192.675;    0.000
385.990; 1959.650;  158.675;    0.000
386.049; 1979.650;  187.675;    0.000
386.107; 1881.650;  140.675;    0.000
386.166; 1818.650;  139.675;    0.000
386.225; 1923.650;  182.675;    0.000
386.284; 1896.650;  123.675;    0.000
386.343; 1874.650;  207.675;    0.000
386.402; 1879.650;  150.675;    0.000
386.460; 1876.650;  185.675;    0.000
386.519; 1884.650;  145.675;    0.000
386.578; 1905.650;  153.675;    0.000
386.637; 1838.650;  153.675;    0.000
386.696; 1952.650;  189.675;    0.000
386.754; 1855.650;  128.675;    0.000
386.813; 1889.650;  202.675;    0.000
386.872; 1869.650;  152.675;    0.000
386.931; 1870.650;  166.675;    0.000
386.989; 1861.650;  194.675;    0.000
387.048; 1840.650;  176.675;    0.000
387.107; 1933.650;  203.675;    0.000
387.165; 1875.650;  136.675;    0.000
387.224; 1868.650;  193.675;    0.000
387.283; 1899.650;  157.675;    0.000
387.342; 1897.650;  194.675;    0.000
387.400; 1865.650;  191.675;    0.000
387.459; 1784.650;  142.675;    0.000
387.517; 1885.650;  202.675;    0.000
387.576; 1876.650;  164.675;    0.000
387.635; 1921.650;  147.675;    0.000
387.693; 1941.650;  199.675;    0.000
387.752; 1805.650;  181.675;    0.000
387.811; 1799.650;  161.675;    0.000
387.869; 1815.650;  184.675;    0.000
387.928; 1851.650;  175.675;    0.000
387.986; 1817.650;  143.675;    0.000
388.045; 1823.650;  146.675;    0.000
388.103; 1846.650;  164.675;    0.000
388.162; 1856.650;  170.675;    0.000
388.221; 1852.650;  169.675;    0.000
388.279; 1837.650;  151.675;    0.000
388.338; 1944.650;  175.675;    0.000
388.396; 1898.650;  170.675;    0.000
388.455; 1839.650;  193.675;    0.000
388.513; 1817.650;  134.675;    0.000
388.572; 1815.650;  201.675;    0.000
388.630; 1839.650;  181.675;    0.000
388.689; 1760.650;  165.675;    0.000
388.747; 1794.650;  164.675;    0.000
388.806; 1717.650;  155.675;    0.000
388.864; 1836.650;  172.675;    0.000
388.922; 1820.650;  190.675;    0.000
388.981; 1713.650;  170.675;    0.000
389.039; 1784.650;  142.675;    0.000
389.098; 1847.650;  177.675;    0.000
389.156; 1879.650;  184.675;    0.000
389.214; 1819.650;  197.675;    0.000
389.273; 1883.650;  141.675;    0.000
389.331; 1797.650;  145.675;    0.000
389.390; 1828.650;  160.675;    0.000
389.448; 1824.650;  142.675;    0.000
389.506; 1818.650;  192.675;    0.000
389.565; 1818.650;  176.675;    0.000
389.623; 1869.650;  174.675;    0.000
389.681; 1899.650;  184.675;    0.000
389.740; 1759.650;  193.675;    0.000
389.798; 1796.650;  130.675;    0.000
389.856; 1784.650;  224.675;    0.000
389.914; 1793.650;  223.675;    0.000
389.973; 1756.650;  164.675;    0.000
390.031; 1828.650;  198.675;    0.000
390.089; 1835.650;  177.675;    0.000
390.147; 1813.650;  158.675;    0.000
390.206; 1771.650;  213.675;    0.000
390.264; 1817.650;  178.675;    0.000
390.322; 1777.650;  181.675;    0.000
390.380; 1746.650;  148.675;    0.000
390.439; 1819.650;  185.675;    0.000
390.497; 1802.650;  208.675;    0.000
390.555; 1833.650;  175.675;    0.000
390.613; 1815.650;  178.675;    0.000
390.671; 1818.650;  190.675;    0.000
390.729; 1822.650;  172.675;    0.000
390.788; 1742.650;  194.675;    0.000
390.846; 1763.650;  187.675;    0.000
390.904; 1832.650;  207.675;    0.000
390.962; 1792.650;  211.675;    0.000
391.020; 1800.650;  218.675;    0.000
391.078; 1860.650;  179.675;    0.000
391.136; 1826.650;  223.675;    0.000
391.194; 1863.650;  209.675;    0.000
391.253; 1881.650;  217.675;    0.000
391.311; 1785.650;  217.675;    0.000
391.369; 1771.650;  217.675;    0.000
391.427; 1844.650;  253.675;    0.000
391.485; 1878.650;  176.675;    0.000
391.543; 1815.650;  252.675;    0.000
391.601; 1813.650;  168.675;    0.000
391.659; 1876.650;  206.675;    0.000
391.717; 1855.650;  172.675;    0.000
391.775; 1782.650;  170.675;    0.000
391.833; 1894.650;  196.675;    0.000
391.891; 1825.650;  180.675;    0.000
391.949; 1901.650;  201.675;    0.000
392.007; 1858.650;  196.675;    0.000
392.065; 1784.650;  191.675;    0.000
392.123; 1820.650;  158.675;    0.000
392.180; 1879.650;  192.675;    0.000
392.238; 1907.650;  186.675;    0.000
392.296; 1842.650;  150.675;    0.000
392.354; 1805.650;  175.675;    0.000
392.412; 1887.650;  219.675;    0.000
392.470; 1954.650;  200.675;    0.000
392.528; 1908.650;  177.675;    0.000
392.586; 1862.650;  169.675;    0.000
392.644; 1913.650;  155.675;    0.000
392.701; 1844.650;  215.675;    0.000
392.759; 1886.650;  218.675;    0.000
392.817; 1913.650;  178.675;    0.000
392.875; 1904.650;  190.675;    0.000
392.933; 1883.650;  197.675;    0.000
392.991; 1905.650;  179.675;    0.000
393.048; 1906.650;  205.675;    0.000
393.106; 1899.650;  229.675;    0.000
393.164; 1827.650;  167.675;    0.000
393.222; 1878.650;  156.675;    0.000
393.279; 1877.650;  203.675;    0.000
393.337; 1896.650;  216.675;    0.000
393.395; 1884.650;  180.675;    0.000
393.453; 1960.650;  163.675;    0.000
393.510; 1866.650;  194.675;    0.000
393.568; 1927.650;  207.675;    0.000
393.626; 1939.650;  200.675;    0.000
393.684; 1925.650;  234.675;    0.000
393.741; 1881.650;  197.675;    0.000
393.799; 1912.650;  201.675;    0.000
393.857; 1904.650;  185.675;    0.000
393.914; 1942.650;  200.675;    0.000
393.972; 1845.650;  181.675;    0.000
394.030; 1801.650;  188.675;    0.000
394.087; 1925.650;  202.675;    0.000
394.145; 1953.650;  214.675;    0.000
394.202; 1936.650;  204.675;    0.000
394.260; 1877.650;  178.675;    0.000
394.318; 1935.650;  208.675;    0.000
394.375; 1925.650;  183.675;    0.000
394.433; 1875.650;  175.675;    0.000
394.490; 1873.650;  170.675;    0.000
394.548; 1915.650;  161.675;    0.000
394.605; 2010.650;  196.675;    0.000
394.663; 1875.650;  191.675;    0.000
394.720; 1848.650;  179.675;    0.000
394.778; 1955.650;  193.675;    0.000
394.836; 1902.650;  160.675;    0.000
394.893; 1898.650;  152.675;    0.000
394.951; 1978.650;  179.675;    0.000
395.008; 1971.650;  185.675;    0.000
395.065; 1982.650;  154.675;    0.000
395.123; 1960.650;  176.675;    0.000
395.180; 1954.650;  202.675;    0.000
395.238; 1936.650;  135.675;    0.000
395.295; 1928.650;  178.675;    0.000
395.353; 1998.650;  181.675;    0.000
395.410; 1969.650;  160.675;    0.000
395.468; 2044.650;  179.675;    0.000
395.525; 1989.650;  187.675;    0.000
395.582; 1947.650;  221.675;    0.000
395.640; 2048.650;  220.675;    0.000
395.697; 2043.650;  174.675;    0.000
395.754; 1987.650;  177.675;    0.000
395.812; 2055.650;  193.675;    0.000
395.869; 2008.650;  220.675;    0.000
395.927; 1967.650;  206.675;    0.000
395.984; 1986.650;  213.675;    0.000
396.041; 1964.650;  194.675;    0.000
396.098; 1912.650;  144.675;    0.000
396.156; 2027.650;  168.675;    0.000
396.213; 1980.650;  181.675;    0.000
396.270; 2028.650;  186.675;    0.000
396.328; 2117.650;  165.675;    0.000
396.385; 2039.650;  192.675;    0.000
396.442; 1956.650;  196.675;    0.000
396.499; 1959.650;  162.675;    0.000
396.557; 2029.650;  177.675;    0.000
396.614; 2065.650;  184.675;    0.000
396.671; 2056.650;  180.675;    0.000
396.728; 2077.650;  194.675;    0.000
396.785; 1994.650;  173.675;    0.000
396.843; 2119.650;  154.675;    0.000
396.900; 2029.650;  200.675;    0.000
396.957; 2027.650;  158.675;    0.000
397.014; 2113.650;  203.675;    0.000
397.071; 2082.650;  178.675;    0.000
397.128; 1982.650;  201.675;    0.000
397.186; 2125.650;  200.675;    0.000
397.243; 2100.650;  187.675;    0.000
397.300; 2149.650;  173.675;    0.000
397.357; 2090.650;  189.675;    0.000
397.414; 2084.650;  202.675;    0.000
397.471; 2093.650;  156.675;    0.000
397.528; 2109.650;  197.675;    0.000
397.585; 2079.650;  174.675;    0.000
397.642; 2090.650;  202.675;    0.000
397.699; 2093.650;  197.675;    0.000
397.756; 2071.650;  188.675;    0.000
397.814; 2151.650;  210.675;    0.000
397.871; 2084.650;  203.675;    0.000
397.928; 2118.650;  189.675;    0.000
397.985; 2125.650;  192.675;    0.000
398.042; 2054.650;  198.675;    0.000
398.099; 2138.650;  181.675;    0.000
398.156; 2145.650;  201.675;    0.000
398.212; 2068.650;  216.675;    0.000
398.269; 2179.650;  206.675;    0.000
398.326; 2186.650;  213.675;    0.000
398.383; 2132.650;  168.675;    0.000
398.440; 2157.650;  184.675;    0.000
398.497; 2147.650;  194.675;    0.000
398.554; 2214.650;  219.675;    0.000
398.611; 2246.650;  190.675;    0.000
398.668; 2141.650;  138.675;    0.000
398.725; 2221.650;  170.675;    0.000
398.782; 2238.650;  223.675;    0.000
398.839; 2218.650;  211.675;    0.000
398.895; 2202.650;  173.675;    0.000
398.952; 2225.650;  207.675;    0.000
399.009; 2253.650;  173.675;    0.000
399.066; 2304.650;  171.675;    0.000
399.123; 2356.650;  189.675;    0.000
399.180; 2264.650;  170.675;    0.000
399.236; 2247.650;  193.675;    0.000
399.293; 2291.650;  222.675;    0.000
399.350; 2377.650;  195.675;    0.000
399.407; 2381.650;  214.675;    0.000
399.463; 2399.650;  181.675;    0.000
399.520; 2400.650;  168.675;    0.000
399.577; 2418.650;  231.675;    0.000
399.634; 2557.650;  215.675;    0.000
399.690; 2431.650;  177.675;    0.000
399.747; 2536.650;  212.675;    0.000
399.804; 2479.650;  208.675;    0.000
399.861; 2450.650;  225.675;    0.000
399.917; 2483.650;  191.675;    0.000
399.974; 2418.650;  182.675;    0.000
400.031; 2421.650;  218.675;    0.000
400.087; 2398.650;  202.675;    0.000
400.144; 2382.650;  192.675;    0.000
400.201; 2390.650;  187.675;    0.000
400.257; 2370.650;  193.675;    0.000
400.314; 2459.650;  185.675;    0.000
400.370; 2336.650;  201.675;    0.000
400.427; 2312.650;  208.675;    0.000
400.484; 2318.650;  201.675;    0.000
400.540; 2338.650;  204.675;    0.000
400.597; 2276.650;  210.675;    0.000
400.653; 2267.650;  224.675;    0.000
400.710; 2361.650;  196.675;    0.000
400.766; 2400.650;  224.675;    0.000
400.823; 2334.650;  210.675;    0.000
400.879; 2363.650;  213.675;    0.000
400.936; 2354.650;  182.675;    0.000
400.993; 2323.650;  184.675;    0.000
401.049; 2243.650;  216.675;    0.000
401.105; 2428.650;  235.675;    0.000
401.162; 2406.650;  196.675;    0.000
401.218; 2320.650;  221.675;    0.000
401.275; 2366.650;  216.675;    0.000
401.331; 2456.650;  198.675;    0.000
401.388; 2353.650;  205.675;    0.000
401.444; 2298.650;  154.675;    0.000
401.501; 2281.650;  208.675;    0.000
401.557; 2312.650;  162.675;    0.000
401.614; 2347.650;  157.675;    0.000
401.670; 2243.650;  198.675;    0.000
401.726; 2416.650;  195.675;    0.000
401.783; 2271.650;  186.675;    0.000
401.839; 2309.650;  205.675;    0.000
401.895; 2292.650;  202.675;    0.000
401.952; 2362.650;  143.675;    0.000
402.008; 2345.650;  177.675;    0.000
402.064; 2376.650;  177.675;    0.000
402.121; 2303.650;  194.675;    0.000
402.177; 2411.650;  181.675;    0.000
402.233; 2460.650;  205.675;    0.000
402.290; 2277.650;  190.675;    0.000
402.346; 2303.650;  190.675;    0.000
402.402; 2424.650;  151.675;    0.000
402.458; 2414.650;  194.675;    0.000
402.515; 2383.650;  212.675;    0.000
402.571; 2427.650;  209.675;    0.000
402.627; 2412.650;  199.675;    0.000
402.683; 2381.650;  213.675;    0.000
402.740; 2320.650;  165.675;    0.000
402.796; 2364.650;  168.675;    0.000
402.852; 2452.650;  200.675;    0.000
402.908; 2447.650;  193.675;    0.000
402.964; 2445.650;  166.675;    0.000
403.021; 2409.650;  196.675;    0.000
403.077; 2423.650;  212.675;    0.000
403.133; 2345.650;  186.675;    0.000
403.189; 2412.650;  206.675;    0.000
403.245; 2373.650;  207.675;    0.000
403.301; 2405.650;  204.675;    0.000
403.357; 2480.650;  246.675;    0.000
403.414; 2495.650;  227.675;    0.000
403.470; 2393.650;  207.675;    0.000
403.526; 2439.650;  171.675;    0.000
403.582; 2445.650;  200.675;    0.000
403.638; 2461.650;  213.675;    0.000
403.694; 2498.650;  239.675;    0.000
403.750; 2429.650;  221.675;    0.000
403.806; 2486.650;  197.675;    0.000
403.862; 2471.650;  222.675;    0.000
403.918; 2459.650;  174.675;    0.000
403.974; 2438.650;  183.675;    0.000
404.030; 2461.650;  184.675;    0.000
404.086; 2404.650;  170.675;    0.000
404.142; 2398.650;  215.675;    0.000
404.198; 2492.650;  189.675;    0.000
404.254; 2420.650;  195.675;    0.000
404.310; 2505.650;  206.675;    0.000
404.366; 2469.650;  179.675;    0.000
404.422; 2492.650;  197.675;    0.000
404.478; 2519.650;  176.675;    0.000
404.534; 2461.650;  165.675;    0.000
404.590; 2517.650;  203.675;    0.000
404.646; 2443.650;  195.675;    0.000
404.701; 2445.650;  180.675;    0.000
404.757; 2526.650;  218.675;    0.000
404.813; 2519.650;  160.675;    0.000
404.869; 2645.650;  213.675;    0.000
404.925; 2492.650;  171.675;    0.000
404.981; 2493.650;  194.675;    0.000
405.037; 2542.650;  211.675;    0.000
405.092; 2480.650;  158.675;    0.000
405.148; 2447.650;  140.675;    0.000
405.204; 2489.650;  161.675;    0.000
405.260; 2443.650;  161.675;    0.000
405.316; 2502.650;  155.675;    0.000
405.371; 2441.650;  151.675;    0.000
405.427; 2532.650;  186.675;    0.000
405.483; 2565.650;  206.675;    0.000
405.539; 2478.650;  162.675;    0.000
405.594; 2540.650;  205.675;    0.000
405.650; 2497.650;  153.675;    0.000
405.706; 2491.650;  185.675;    0.000
405.761; 2589.650;  205.675;    0.000
405.817; 2464.650;  185.675;    0.000
405.873; 2529.650;  160.675;    0.000
405.928; 2613.650;  182.675;    0.000
405.984; 2558.650;  206.675;    0.000
406.040; 2501.650;  200.675;    0.000
406.095; 2485.650;  138.675;    0.000
406.151; 2603.650;  178.675;    0.000
406.207; 2551.650;  225.675;    0.000
406.262; 2646.650;  161.675;    0.000
406.318; 2601.650;  186.675;    0.000
406.374; 2635.650;  173.675;    0.000
406.429; 2630.650;  197.675;    0.000
406.485; 2658.650;  260.675;    0.000
406.540; 2588.650;  184.675;    0.000
406.596; 2625.650;  193.675;    0.000
406.651; 2650.650;  176.675;    0.000
406.707; 2590.650;  158.675;    0.000
406.763; 2706.650;  174.675;    0.000
406.818; 2653.650;  188.675;    0.000
406.874; 2697.650;  176.675;    0.000
406.929; 2716.650;  220.675;    0.000
406.985; 2760.650;  167.675;    0.000
407.040; 2716.650;  191.675;    0.000
407.095; 2723.650;  190.675;    0.000
407.151; 2777.650;  196.675;    0.000
407.206; 2815.650;  184.675;    0.000
407.262; 2793.650;  167.675;    0.000
407.317; 2809.650;  199.675;    0.000
407.373; 2912.650;  211.675;    0.000
407.428; 2835.650;  202.675;    0.000
407.484; 2778.650;  172.675;    0.000
407.539; 2819.650;  171.675;    0.000
407.594; 2797.650;  219.675;    0.000
407.650; 2769.650;  179.675;    0.000
407.705; 2878.650;  141.675;    0.000
407.760; 2842.650;  182.675;    0.000
407.816; 2866.650;  203.675;    0.000
407.871; 2813.650;  219.675;    0.000
407.926; 2807.650;  197.675;    0.000
407.982; 2758.650;  176.675;    0.000
408.037; 2866.650;  187.675;    0.000
408.092; 2770.650;  161.675;    0.000
408.148; 2827.650;  185.675;    0.000
408.203; 2864.650;  196.675;    0.000
408.258; 2800.650;  188.675;    0.000
408.314; 2874.650;  225.675;    0.000
408.369; 2772.650;  172.675;    0.000
408.424; 2766.650;  204.675;    0.000
408.479; 2811.650;  182.675;    0.000
408.534; 2733.650;  220.675;    0.000
408.590; 2714.650;  196.675;    0.000
408.645; 2819.650;  170.675;    0.000
408.700; 2790.650;  204.675;    0.000
408.755; 2758.650;  219.675;    0.000
408.810; 2819.650;  174.675;    0.000
408.866; 2806.650;  212.675;    0.000
408.921; 2816.650;  233.675;    0.000
408.976; 2786.650;  198.675;    0.000
409.031; 2806.650;  179.675;    0.000
409.086; 2762.650;  181.675;    0.000
409.141; 2780.650;  192.675;    0.000
409.196; 2841.650;  172.675;    0.000
409.252; 2690.650;  199.675;    0.000
409.307; 2828.650;  159.675;    0.000
409.362; 2728.650;  158.675;    0.000
409.417; 2787.650;  164.675;    0.000
409.472; 2727.650;  186.675;    0.000
409.527; 2836.650;  215.675;    0.000
409.582; 2777.650;  227.675;    0.000
409.637; 2783.650;  211.675;    0.000
409.692; 2732.650;  224.675;    0.000
409.747; 2812.650;  147.675;    0.000
409.802; 2761.650;  203.675;    0.000
409.857; 2773.650;  203.675;    0.000
409.912; 2782.650;  219.675;    0.000
409.967; 2785.650;  200.675;    0.000
410.022; 2681.650;  199.675;    0.000
410.077; 2773.650;  171.675;    0.000
410.132; 2779.650;  193.675;    0.000
410.187; 2748.650;  167.675;    0.000
410.242; 2809.650;  188.675;    0.000
410.297; 2767.650;  195.675;    0.000
410.351; 2775.650;  225.675;    0.000
410.406; 2806.650;  188.675;    0.000
410.461; 2749.650;  197.675;    0.000
410.516; 2825.650;  212.675;    0.000
410.571; 2836.650;  173.675;    0.000
410.626; 2800.650;  180.675;    0.000
410.681; 2874.650;  198.675;    0.000
410.736; 2737.650;  190.675;    0.000
410.790; 2743.650;  204.675;    0.000
410.845; 2833.650;  214.675;    0.000
410.900; 2793.650;  184.675;    0.000
410.955; 2764.650;  231.675;    0.000
411.010; 2763.650;  211.675;    0.000
411.064; 2824.650;  204.675;    0.000
411.119; 2711.650;  219.675;    0.000
411.174; 2825.650;  208.675;    0.000
411.229; 2841.650;  207.675;    0.000
411.283; 2770.650;  199.675;    0.000
411.338; 2779.650;  198.675;    0.000
411.393; 2692.650;  155.675;    0.000
411.447; 2781.650;  200.675;    0.000
411.502; 2841.650;  229.675;    0.000
411.557; 2806.650;  197.675;    0.000
411.612; 2790.650;  171.675;    0.000
411.666; 2783.650;  201.675;    0.000
411.721; 2811.650;  174.675;    0.000
411.776; 2731.650;  222.675;    0.000
411.830; 2812.650;  150.675;    0.000
411.885; 2786.650;  169.675;    0.000
411.939; 2732.650;  216.675;    0.000
411.994; 2730.650;  215.675;    0.000
412.049; 2834.650;  219.675;    0.000
412.103; 2789.650;  225.675;    0.000
412.158; 2902.650;  216.675;    0.000
412.212; 2811.650;  218.675;    0.000
412.267; 2804.650;  219.675;    0.000
412.322; 2846.650;  235.675;    0.000
412.376; 2855.650;  208.675;    0.000
412.431; 2836.650;  232.675;    0.000
412.485; 2700.650;  223.675;    0.000
412.540; 2731.650;  217.675;    0.000
412.594; 2784.650;  195.675;    0.000
412.649; 2802.650;  236.675;    0.000
412.703; 2795.650;  216.675;    0.000
412.758; 2875.650;  201.675;    0.000
412.812; 2782.650;  176.675;    0.000
412.866; 2727.650;  179.675;    0.000
412.921; 2740.650;  196.675;    0.000
412.975; 2848.650;  238.675;    0.000
413.030; 2730.650;  272.675;    0.000
413.084; 2836.650;  208.675;    0.000
413.139; 2798.650;  201.675;    0.000
413.193; 2779.650;  198.675;    0.000
413.247; 2801.650;  213.675;    0.000
413.302; 2792.650;  202.675;    0.000
413.356; 2709.650;  184.675;    0.000
413.410; 2796.650;  202.675;    0.000
413.465; 2804.650;  145.675;    0.000
413.519; 2761.650;  200.675;    0.000
413.573; 2785.650;  197.675;    0.000
413.628; 2761.650;  224.675;    0.000
413.682; 2759.650;  211.675;    0.000
413.736; 2705.650;  202.675;    0.000
413.791; 2737.650;  228.675;    0.000
413.845; 2803.650;  184.675;    0.000
413.899; 2777.650;  226.675;    0.000
413.953; 2786.650;  213.675;    0.000
414.008; 2661.650;  175.675;    0.000
414.062; 2741.650;  216.675;    0.000
414.116; 2762.650;  206.675;    0.000
414.170; 2775.650;  229.675;    0.000
414.225; 2740.650;  196.675;    0.000
414.279; 2809.650;  199.675;    0.000
414.333; 2763.650;  220.675;    0.000
414.387; 2788.650;  217.675;    0.000
414.441; 2828.650;  206.675;    0.000
414.496; 2775.650;  264.675;    0.000
414.550; 2823.650;  217.675;    0.000
414.604; 2772.650;  224.675;    0.000
414.658; 2773.650;  156.675;    0.000
414.712; 2821.650;  203.675;    0.000
414.766; 2776.650;  216.675;    0.000
414.820; 2856.650;  218.675;    0.000
414.874; 2719.650;  240.675;    0.000
414.928; 2761.650;  204.675;    0.000
414.982; 2845.650;  195.675;    0.000
415.037; 2769.650;  212.675;    0.000
415.091; 2713.650;  211.675;    0.000
415.145; 2786.650;  230.675;    0.000
415.199; 2731.650;  208.675;    0.000
415.253; 2813.650;  213.675;    0.000
415.307; 2713.650;  208.675;    0.000
415.361; 2779.650;  193.675;    0.000
415.415; 2792.650;  207.675;    0.000
415.469; 2774.650;  214.675;    0.000
415.523; 2869.650;  226.675;    0.000
415.577; 2797.650;  194.675;    0.000
415.631; 2840.650;  258.675;    0.000
415.684; 2749.650;  239.675;    0.000
415.738; 2678.650;  191.675;    0.000
415.792; 2773.650;  185.675;    0.000
415.846; 2755.650;  239.675;    0.000
415.900; 2715.650;  209.675;    0.000
415.954; 2813.650;  215.675;    0.000
416.008; 2732.650;  229.675;    0.000
416.062; 2767.650;  200.675;    0.000
416.116; 2668.650;  195.675;    0.000
416.169; 2788.650;  238.675;    0.000
416.223; 2771.650;  271.675;    0.000
416.277; 2717.650;  232.675;    0.000
416.331; 2714.650;  226.675;    0.000
416.385; 2691.650;  207.675;    0.000
416.439; 2761.650;  221.675;    0.000
416.492; 2750.650;  269.675;    0.000
416.546; 2789.650;  254.675;    0.000
416.600; 2756.650;  225.675;    0.000
416.654; 2818.650;  269.675;    0.000
416.707; 2779.650;  232.675;    0.000
416.761; 2736.650;  226.675;    0.000
416.815; 2747.650;  219.675;    0.000
416.869; 2797.650;  234.675;    0.000
416.922; 2750.650;  230.675;    0.000
416.976; 2820.650;  216.675;    0.000
417.030; 2675.650;  271.675;    0.000
417.083; 2684.650;  229.675;    0.000
417.137; 2753.650;  249.675;    0.000
417.191; 2790.650;  241.675;    0.000
417.244; 2769.650;  230.675;    0.000
417.298; 2688.650;  215.675;    0.000
417.352; 2697.650;  188.675;    0.000
417.405; 2821.650;  248.675;    0.000
417.459; 2764.650;  256.675;    0.000
417.512; 2687.650;  263.675;    0.000
417.566; 2785.650;  227.675;    0.000
417.620; 2741.650;  270.675;    0.000
417.673; 2745.650;  216.675;    0.000
417.727; 2715.650;  234.675;    0.000
417.780; 2728.650;  215.675;    0.000
417.834; 2725.650;  203.675;    0.000
417.887; 2723.650;  257.675;    0.000
417.941; 2717.650;  216.675;    0.000
417.994; 2720.650;  245.675;    0.000
418.048; 2707.650;  209.675;    0.000
418.101; 2655.650;  207.675;    0.000
418.155; 2754.650;  204.675;    0.000
418.208; 2815.650;  270.675;    0.000
418.262; 2739.650;  228.675;    0.000
418.315; 2808.650;  254.675;    0.000
418.369; 2784.650;  245.675;    0.000
418.422; 2760.650;  224.675;    0.000
418.476; 2816.650;  221.675;    0.000
418.529; 2718.650;  234.675;    0.000
418.582; 2721.650;  249.675;    0.000
418.636; 2725.650;  224.675;    0.000
418.689; 2755.650;  228.675;    0.000
418.743; 2701.650;  240.675;    0.000
418.796; 2708.650;  197.675;    0.000
418.849; 2771.650;  220.675;    0.000
418.903; 2699.650;  246.675;    0.000
418.956; 2732.650;  250.675;    0.000
419.009; 2745.650;  276.675;    0.000
419.063; 2761.650;  232.675;    0.000
419.116; 2792.650;  228.675;    0.000
419.169; 2800.650;  249.675;    0.000
419.222; 2733.650;  215.675;    0.000
419.276; 2799.650;  228.675;    0.000
419.329; 2779.650;  246.675;    0.000
419.382; 2753.650;  188.675;    0.000
419.435; 2633.650;  240.675;    0.000
419.489; 2787.650;  261.675;    0.000
419.542; 2706.650;  224.675;    0.000
419.595; 2750.650;  251.675;    0.000
419.648; 2721.650;  236.675;    0.000
419.701; 2691.650;  244.675;    0.000
419.755; 2660.650;  242.675;    0.000
419.808; 2724.650;  242.675;    0.000
419.861; 2740.650;  189.675;    0.000
419.914; 2701.650;  258.675;    0.000
419.967; 2716.650;  230.675;    0.000
420.020; 2717.650;  223.675;    0.000
420.073; 2655.650;  221.675;    0.000
420.127; 2705.650;  252.675;    0.000
420.180; 2663.650;  219.675;    0.000
420.233; 2663.650;  201.675;    0.000
420.286; 2717.650;  221.675;    0.000
420.339; 2664.650;  250.675;    0.000
420.392; 2673.650;  268.675;    0.000
420.445; 2614.650;  223.675;    0.000
420.498; 2614.650;  240.675;    0.000
420.551; 2589.650;  220.675;    0.000
420.604; 2675.650;  231.675;    0.000
420.657; 2633.650;  228.675;    0.000
420.710; 2646.650;  219.675;    0.000
420.763; 2714.650;  280.675;    0.000
420.816; 2639.650;  202.675;    0.000
420.869; 2648.650;  219.675;    0.000
420.922; 2627.650;  218.675;    0.000
420.975; 2648.650;  237.675;    0.000
421.028; 2690.650;  242.675;    0.000
421.081; 2676.650;  247.675;    0.000
421.134; 2645.650;  239.675;    0.000
421.187; 2600.650;  229.675;    0.000
421.239; 2619.650;  200.675;    0.000
421.292; 2632.650;  205.675;    0.000
421.345; 2583.650;  219.675;    0.000
421.398; 2609.650;  187.675;    0.000
421.451; 2641.650;  226.675;    0.000
421.504; 2586.650;  206.675;    0.000
421.557; 2579.650;  226.675;    0.000
421.609; 2602.650;  209.675;    0.000
421.662; 2575.650;  229.675;    0.000
421.715; 2597.650;  231.675;    0.000
421.768; 2640.650;  215.675;    0.000
421.821; 2678.650;  211.675;    0.000
421.873; 2606.650;  220.675;    0.000
421.926; 2588.650;  212.675;    0.000
421.979; 2607.650;  209.675;    0.000
422.032; 2559.650;  203.675;    0.000
422.084; 2564.650;  213.675;    0.000
422.137; 2498.650;  196.675;    0.000
422.190; 2679.650;  246.675;    0.000
422.243; 2458.650;  194.675;    0.000
422.295; 2636.650;  225.675;    0.000
422.348; 2543.650;  248.675;    0.000
422.401; 2558.650;  252.675;    0.000
422.453; 2604.650;  249.675;    0.000
422.506; 2526.650;  233.675;    0.000
422.559; 2555.650;  228.675;    0.000
422.611; 2584.650;  224.675;    0.000
422.664; 2624.650;  226.675;    0.000
422.716; 2647.650;  226.675;    0.000
422.769; 2570.650;  216.675;    0.000
422.822; 2576.650;  256.675;    0.000
422.874; 2587.650;  206.675;    0.000
422.927; 2603.650;  257.675;    0.000
422.979; 2568.650;  209.675;    0.000
423.032; 2606.650;  244.675;    0.000
423.084; 2617.650;  244.675;    0.000
423.137; 2516.650;  213.675;    0.000
423.189; 2604.650;  208.675;    0.000
423.242; 2517.650;  226.675;    0.000
423.294; 2604.650;  250.675;    0.000
423.347; 2565.650;  206.675;    0.000
423.399; 2563.650;  268.675;    0.000
423.452; 2599.650;  262.675;    0.000
423.504; 2509.650;  237.675;    0.000
423.557; 2517.650;  245.675;    0.000
423.609; 2653.650;  211.675;    0.000
423.662; 2640.650;  222.675;    0.000
423.714; 2500.650;  219.675;    0.000
423.766; 2533.650;  250.675;    0.000
423.819; 2519.650;  220.675;    0.000
423.871; 2509.650;  229.675;    0.000
423.923; 2447.650;  219.675;    0.000
423.976; 2601.650;  221.675;    0.000
424.028; 2461.650;  211.675;    0.000
424.081; 2524.650;  254.675;    0.000
424.133; 2557.650;  230.675;    0.000
424.185; 2500.650;  241.675;    0.000
424.238; 2463.650;  182.675;    0.000
424.290; 2545.650;  215.675;    0.000
424.342; 2471.650;  235.675;    0.000
424.394; 2569.650;  225.675;    0.000
424.447; 2541.650;  264.675;    0.000
424.499; 2516.650;  225.675;    0.000
424.551; 2615.650;  237.675;    0.000
424.603; 2506.650;  219.675;    0.000
424.656; 2501.650;  240.675;    0.000
424.708; 2607.650;  266.675;    0.000
424.760; 2463.650;  230.675;    0.000
424.812; 2572.650;  284.675;    0.000
424.864; 2500.650;  189.675;    0.000
424.917; 2457.650;  226.675;    0.000
424.969; 2470.650;  253.675;    0.000
425.021; 2548.650;  233.675;    0.000
425.073; 2459.650;  246.675;    0.000
425.125; 2475.650;  238.675;    0.000
425.177; 2537.650;  253.675;    0.000
425.229; 2578.650;  254.675;    0.000
425.282; 2505.650;  252.675;    0.000
425.334; 2552.650;  261.675;    0.000
425.386; 2442.650;  227.675;    0.000
425.438; 2445.650;  246.675;    0.000
425.490; 2410.650;  249.675;    0.000
425.542; 2515.650;  236.675;    0.000
425.594; 2461.650;  236.675;    0.000
425.646; 2522.650;  237.675;    0.000
425.698; 2383.650;  271.675;    0.000
425.750; 2466.650;  240.675;    0.000
425.802; 2392.650;  238.675;    0.000
425.854; 2429.650;  256.675;    0.000
425.906; 2444.650;  230.675;    0.000
425.958; 2500.650;  231.675;    0.000
426.010; 2454.650;  268.675;    0.000
426.062; 2479.650;  227.675;    0.000
426.114; 2487.650;  234.675;    0.000
426.166; 2533.650;  239.675;    0.000
426.218; 2399.650;  255.675;    0.000
426.270; 2440.650;  196.675;    0.000
426.321; 2396.650;  231.675;    0.000
426.373; 2364.650;  199.675;    0.000
426.425; 2527.650;  245.675;    0.000
426.477; 2320.650;  259.675;    0.000
426.529; 2389.650;  274.675;    0.000
426.581; 2337.650;  221.675;    0.000
426.633; 2375.650;  231.675;    0.000
426.684; 2380.650;  248.675;    0.000
426.736; 2525.650;  237.675;    0.000
426.788; 2369.650;  191.675;    0.000
426.840; 2461.650;  180.675;    0.000
426.892; 2422.650;  259.675;    0.000
426.943; 2359.650;  256.675;    0.000
426.995; 2363.650;  212.675;    0.000
427.047; 2351.650;  233.675;    0.000
427.099; 2325.650;  222.675;    0.000
427.150; 2390.650;  203.675;    0.000
427.202; 2326.650;  218.675;    0.000
427.254; 2294.650;  198.675;    0.000
427.306; 2338.650;  248.675;    0.000
427.357; 2365.650;  239.675;    0.000
427.409; 2362.650;  193.675;    0.000
427.461; 2380.650;  215.675;    0.000
427.512; 2426.650;  251.675;    0.000
427.564; 2354.650;  210.675;    0.000
427.616; 2401.650;  251.675;    0.000
427.667; 2296.650;  246.675;    0.000
427.719; 2315.650;  227.675;    0.000
427.770; 2310.650;  247.675;    0.000
427.822; 2424.650;  261.675;    0.000
427.874; 2353.650;  231.675;    0.000
427.925; 2351.650;  231.675;    0.000
427.977; 2248.650;  243.675;    0.000
428.028; 2338.650;  249.675;    0.000
428.080; 2327.650;  224.675;    0.000
428.131; 2307.650;  247.675;    0.000
428.183; 2328.650;  213.675;    0.000
428.234; 2351.650;  213.675;    0.000
428.286; 2280.650;  224.675;    0.000
428.337; 2348.650;  212.675;    0.000
428.389; 2350.650;  231.675;    0.000
428.440; 2353.650;  248.675;    0.000
428.492; 2306.650;  242.675;    0.000
428.543; 2305.650;  220.675;    0.000
428.595; 2295.650;  212.675;    0.000
428.646; 2278.650;  231.675;    0.000
428.697; 2297.650;  232.675;    0.000
428.749; 2348.650;  231.675;    0.000
428.800; 2371.650;  270.675;    0.000
428.852; 2376.650;  266.675;    0.000
428.903; 2278.650;  215.675;    0.000
428.954; 2345.650;  200.675;    0.000
429.006; 2323.650;  247.675;    0.000
429.057; 2268.650;  247.675;    0.000
429.108; 2329.650;  193.675;    0.000
429.160; 2282.650;  249.675;    0.000
429.211; 2289.650;  228.675;    0.000
429.262; 2166.650;  243.675;    0.000
429.314; 2243.650;  227.675;    0.000
429.365; 2341.650;  242.675;    0.000
429.416; 2262.650;  240.675;    0.000
429.467; 2261.650;  222.675;    0.000
429.519; 2236.650;  233.675;    0.000
429.570; 2324.650;  223.675;    0.000
429.621; 2267.650;  257.675;    0.000
429.672; 2314.650;  220.675;    0.000
429.724; 2231.650;  203.675;    0.000
429.775; 2257.650;  242.675;    0.000
429.826; 2205.650;  195.675;    0.000
429.877; 2222.650;  248.675;    0.000
429.928; 2256.650;  226.675;    0.000
429.980; 2192.650;  189.675;    0.000
430.031; 2179.650;  223.675;    0.000
430.082; 2239.650;  217.675;    0.000
430.133; 2266.650;  210.675;    0.000
430.184; 2327.650;  271.675;    0.000
430.235; 2281.650;  190.675;    0.000
430.286; 2320.650;  233.675;    0.000
430.337; 2284.650;  232.675;    0.000
430.388; 2214.650;  221.675;    0.000
430.439; 2324.650;  221.675;    0.000
430.490; 2225.650;  229.675;    0.000
430.542; 2277.650;  196.675;    0.000
430.593; 2259.650;  214.675;    0.000
430.644; 2220.650;  224.675;    0.000
430.695; 2331.650;  216.675;    0.000
430.746; 2275.650;  228.675;    0.000
430.797; 2275.650;  190.675;    0.000
430.848; 2214.650;  231.675;    0.000
430.898; 2231.650;  232.675;    0.000
430.949; 2354.650;  224.675;    0.000
431.000; 2288.650;  236.675;    0.000
431.051; 2300.650;  251.675;    0.000
431.102; 2224.650;  205.675;    0.000
431.153; 2260.650;  212.675;    0.000
431.204; 2218.650;  200.675;    0.000
431.255; 2195.650;  220.675;    0.000
431.306; 2205.650;  223.675;    0.000
431.357; 2299.650;  240.675;    0.000
431.408; 2223.650;  232.675;    0.000
431.458; 2422.650;  204.675;    0.000
431.509; 2266.650;  196.675;    0.000
431.560; 2281.650;  243.675;    0.000
431.611; 2260.650;  222.675;    0.000
431.662; 2278.650;  246.675;    0.000
431.713; 2262.650;  188.675;    0.000
431.763; 2344.650;  226.675;    0.000
431.814; 2259.650;  239.675;    0.000
431.865; 2253.650;  245.675;    0.000
431.916; 2282.650;  173.675;    0.000
431.966; 2252.650;  220.675;    0.000
432.017; 2229.650;  247.675;    0.000
432.068; 2288.650;  241.675;    0.000
432.118; 2319.650;  220.675;    0.000
432.169; 2182.650;  244.675;    0.000
432.220; 2343.650;  246.675;    0.000
432.271; 2261.650;  203.675;    0.000
432.321; 2231.650;  244.675;    0.000
432.372; 2270.650;  254.675;    0.000
432.423; 2232.650;  224.675;    0.000
432.473; 2260.650;  211.675;    0.000
432.524; 2241.650;  227.675;    0.000
432.574; 2222.650;  228.675;    0.000
432.625; 2284.650;  223.675;    0.000
432.676; 2303.650;  220.675;    0.000
432.726; 2215.650;  257.675;    0.000
432.777; 2273.650;  257.675;    0.000
432.827; 2274.650;  240.675;    0.000
432.878; 2225.650;  219.675;    0.000
432.928; 2248.650;  234.675;    0.000
432.979; 2274.650;  226.675;    0.000
433.029; 2143.650;  216.675;    0.000
433.080; 2282.650;  232.675;    0.000
433.130; 2193.650;  257.675;    0.000
433.181; 2227.650;  243.675;    0.000
433.231; 2302.650;  239.675;    0.000
433.282; 2218.650;  232.675;    0.000
433.332; 2222.650;  256.675;    0.000
433.383; 2175.650;  268.675;    0.000
433.433; 2328.650;  291.675;    0.000
433.484; 2268.650;  263.675;    0.000
433.534; 2200.650;  248.675;    0.000
433.585; 2266.650;  244.675;    0.000
433.635; 2282.650;  242.675;    0.000
433.685; 2203.650;  243.675;    0.000
433.736; 2137.650;  283.675;    0.000
433.786; 2283.650;  264.675;    0.000
433.836; 2232.650;  282.675;    0.000
433.887; 2188.650;  265.675;    0.000
433.937; 2252.650;  255.675;    0.000
433.987; 2187.650;  245.675;    0.000
434.038; 2284.650;  276.675;    0.000
434.088; 2193.650;  249.675;    0.000
434.138; 2215.650;  260.675;    0.000
434.189; 2331.650;  241.675;    0.000
434.239; 2198.650;  232.675;    0.000
434.289; 2349.650;  272.675;    0.000
434.339; 2225.650;  288.675;    0.000
434.389; 2306.650;  258.675;    0.000
434.440; 2260.650;  244.675;    0.000
434.490; 2268.650;  288.675;    0.000
434.540; 2319.650;  252.675;    0.000
434.590; 2303.650;  256.675;    0.000
434.640; 2286.650;  259.675;    0.000
434.691; 2203.650;  220.675;    0.000
434.741; 2355.650;  238.675;    0.000
434.791; 2314.650;  276.675;    0.000
434.841; 2366.650;  256.675;    0.000
434.891; 2308.650;  297.675;    0.000
434.941; 2206.650;  290.675;    0.000
434.991; 2336.650;  261.675;    0.000
435.042; 2282.650;  300.675;    0.000
435.092; 2310.650;  248.675;    0.000
435.142; 2245.650;  246.675;    0.000
435.192; 2244.650;  201.675;    0.000
435.242; 2185.650;  234.675;    0.000
435.292; 2298.650;  266.675;    0.000
435.342; 2250.650;  250.675;    0.000
435.392; 2331.650;  279.675;    0.000
435.442; 2207.650;  242.675;    0.000
435.492; 2233.650;  265.675;    0.000
435.542; 2216.650;  243.675;    0.000
435.592; 2200.650;  243.675;    0.000
435.642; 2200.650;  241.675;    0.000
435.692; 2254.650;  263.675;    0.000
435.742; 2275.650;  264.675;    0.000
435.792; 2157.650;  291.675;    0.000
435.842; 2149.650;  257.675;    0.000
435.891; 2133.650;  224.675;    0.000
435.941; 2156.650;  243.675;    0.000
435.991; 2198.650;  300.675;    0.000
436.041; 2149.650;  197.675;    0.000
436.091; 2207.650;  238.675;    0.000
436.141; 2187.650;  222.675;    0.000
436.191; 2173.650;  249.675;    0.000
436.241; 2192.650;  208.675;    0.000
436.290; 2215.650;  282.675;    0.000
436.340; 2138.650;  233.675;    0.000
436.390; 2198.650;  223.675;    0.000
436.440; 2195.650;  252.675;    0.000
436.490; 2123.650;  254.675;    0.000
436.539; 2208.650;  271.675;    0.000
436.589; 2166.650;  248.675;    0.000
436.639; 2126.650;  235.675;    0.000
436.689; 2146.650;  238.675;    0.000
436.738; 2136.650;  267.675;    0.000
436.788; 2103.650;  239.675;    0.000
436.838; 2174.650;  244.675;    0.000
436.887; 2124.650;  265.675;    0.000
436.937; 2158.650;  261.675;    0.000
436.987; 2035.650;  235.675;    0.000
437.036; 2144.650;  267.675;    0.000
437.086; 2114.650;  258.675;    0.000
437.136; 2133.650;  250.675;    0.000
437.185; 2042.650;  214.675;    0.000
437.235; 2120.650;  257.675;    0.000
437.285; 2177.650;  259.675;    0.000
437.334; 2090.650;  241.675;    0.000
437.384; 2121.650;  231.675;    0.000
437.433; 2134.650;  239.675;    0.000
437.483; 2039.650;  260.675;    0.000
437.532; 2065.650;  277.675;    0.000
437.582; 2144.650;  268.675;    0.000
437.631; 2115.650;  239.675;    0.000
437.681; 2136.650;  251.675;    0.000
437.730; 2140.650;  246.675;    0.000
437.780; 2067.650;  226.675;    0.000
437.829; 2135.650;  256.675;    0.000
437.879; 2024.650;  239.675;    0.000
437.928; 2141.650;  253.675;    0.000
437.978; 2117.650;  245.675;    0.000
438.027; 2088.650;  277.675;    0.000
438.077; 2116.650;  248.675;    0.000
438.126; 2125.650;  201.675;    0.000
438.176; 2145.650;  220.675;    0.000
438.225; 2119.650;  250.675;    0.000
438.274; 2083.650;  234.675;    0.000
438.324; 2127.650;  276.675;    0.000
438.373; 2001.650;  226.675;    0.000
438.422; 2101.650;  228.675;    0.000
438.472; 2108.650;  225.675;    0.000
438.521; 2094.650;  227.675;    0.000
438.570; 2072.650;  242.675;    0.000
438.620; 2113.650;  277.675;    0.000
438.669; 2087.650;  256.675;    0.000
438.718; 2081.650;  248.675;    0.000
438.768; 1996.650;  225.675;    0.000
438.817; 2093.650;  229.675;    0.000
438.866; 2085.650;  218.675;    0.000
438.915; 2114.650;  256.675;    0.000
438.965; 2065.650;  242.675;    0.000
439.014; 2059.650;  260.675;    0.000
439.063; 2091.650;  238.675;    0.000
439.112; 2009.650;  209.675;    0.000
439.162; 2112.650;  258.675;    0.000
439.211; 2109.650;  275.675;    0.000
439.260; 2000.650;  238.675;    0.000
439.309; 2082.650;  237.675;    0.000
439.358; 2067.650;  252.675;    0.000
439.407; 2083.650;  239.675;    0.000
439.456; 1999.650;  211.675;    0.000
439.506; 2111.650;  261.675;    0.000
439.555; 2102.650;  274.675;    0.000
439.604; 2170.650;  262.675;    0.000
439.653; 2016.650;  245.675;    0.000
439.702; 2048.650;  247.675;    0.000
439.751; 2128.650;  228.675;    0.000
439.800; 2092.650;  253.675;    0.000
439.849; 2096.650;  219.675;    0.000
439.898; 2051.650;  246.675;    0.000
439.947; 2081.650;  229.675;    0.000
439.996; 2075.650;  274.675;    0.000
440.045; 2105.650;  224.675;    0.000
440.094; 2119.650;  225.675;    0.000
440.143; 2132.650;  277.675;    0.000
440.192; 2133.650;  252.675;    0.000
440.241; 2142.650;  253.675;    0.000
440.290; 2071.650;  242.675;    0.000
440.339; 2204.650;  220.675;    0.000
440.388; 2039.650;  244.675;    0.000
440.437; 2103.650;  268.675;    0.000
440.486; 2122.650;  242.675;    0.000
440.535; 2160.650;  269.675;    0.000
440.583; 2109.650;  258.675;    0.000
440.632; 2064.650;  286.675;    0.000
440.681; 2120.650;  238.675;    0.000
440.730; 2198.650;  271.675;    0.000
440.779; 2143.650;  226.675;    0.000
440.828; 2103.650;  213.675;    0.000
440.876; 2109.650;  207.675;    0.000
440.925; 2149.650;  247.675;    0.000
440.974; 2162.650;  229.675;    0.000
441.023; 2096.650;  227.675;    0.000
441.072; 2118.650;  222.675;    0.000
441.120; 2235.650;  273.675;    0.000
441.169; 2163.650;  263.675;    0.000
441.218; 2190.650;  264.675;    0.000
441.267; 2209.650;  287.675;    0.000
441.315; 2164.650;  251.675;    0.000
441.364; 2186.650;  252.675;    0.000
441.413; 2192.650;  227.675;    0.000
441.461; 2164.650;  198.675;    0.000
441.510; 2145.650;  273.675;    0.000
441.559; 2239.650;  245.675;    0.000
441.607; 2134.650;  218.675;    0.000
441.656; 2191.650;  261.675;    0.000
441.705; 2235.650;  259.675;    0.000
441.753; 2233.650;  272.675;    0.000
441.802; 2202.650;  246.675;    0.000
441.850; 2214.650;  255.675;    0.000
441.899; 2186.650;  236.675;    0.000
441.948; 2182.650;  267.675;    0.000
441.996; 2227.650;  246.675;    0.000
442.045; 2120.650;  279.675;    0.000
442.093; 2224.650;  251.675;    0.000
442.142; 2222.650;  274.675;    0.000
442.190; 2288.650;  279.675;    0.000
442.239; 2226.650;  295.675;    0.000
442.287; 2181.650;  229.675;    0.000
442.336; 2203.650;  265.675;    0.000
442.384; 2246.650;  219.675;    0.000
442.433; 2249.650;  287.675;    0.000
442.481; 2152.650;  271.675;    0.000
442.529; 2229.650;  262.675;    0.000
442.578; 2170.650;  282.675;    0.000
442.626; 2218.650;  245.675;    0.000
442.675; 2203.650;  283.675;    0.000
442.723; 2215.650;  247.675;    0.000
442.771; 2285.650;  221.675;    0.000
442.820; 2198.650;  253.675;    0.000
442.868; 2236.650;  204.675;    0.000
442.917; 2188.650;  263.675;    0.000
442.965; 2182.650;  255.675;    0.000
443.013; 2213.650;  282.675;    0.000
443.062; 2168.650;  258.675;    0.000
443.110; 2131.650;  268.675;    0.000
443.158; 2211.650;  247.675;    0.000
443.206; 2144.650;  243.675;    0.000
443.255; 2241.650;  271.675;    0.000
443.303; 2247.650;  279.675;    0.000
443.351; 2198.650;  264.675;    0.000
443.399; 2198.650;  245.675;    0.000
443.448; 2277.650;  259.675;    0.000
443.496; 2217.650;  281.675;    0.000
443.544; 2198.650;  213.675;    0.000
443.592; 2230.650;  290.675;    0.000
443.640; 2262.650;  270.675;    0.000
443.689; 2231.650;  229.675;    0.000
443.737; 2319.650;  254.675;    0.000
443.785; 2176.650;  234.675;    0.000
443.833; 2266.650;  287.675;    0.000
443.881; 2272.650;  229.675;    0.000
443.929; 2270.650;  260.675;    0.000
443.977; 2292.650;  265.675;    0.000
444.025; 2277.650;  257.675;    0.000
444.074; 2252.650;  245.675;    0.000
444.122; 2361.650;  282.675;    0.000
444.170; 2264.650;  240.675;    0.000
444.218; 2259.650;  270.675;    0.000
444.266; 2361.650;  254.675;    0.000
444.314; 2371.650;  264.675;    0.000
444.362; 2265.650;  287.675;    0.000
444.410; 2391.650;  236.675;    0.000
444.458; 2422.650;  273.675;    0.000
444.506; 2295.650;  235.675;    0.000
444.554; 2302.650;  242.675;    0.000
444.602; 2313.650;  283.675;    0.000
444.650; 2306.650;  266.675;    0.000
444.698; 2402.650;  248.675;    0.000
444.746; 2336.650;  247.675;    0.000
444.793; 2356.650;  211.675;    0.000
444.841; 2427.650;  259.675;    0.000
444.889; 2240.650;  253.675;    0.000
444.937; 2398.650;  248.675;    0.000
444.985; 2395.650;  233.675;    0.000
445.033; 2335.650;  245.675;    0.000
445.081; 2392.650;  243.675;    0.000
445.129; 2323.650;  238.675;    0.000
445.176; 2348.650;  204.675;    0.000
445.224; 2428.650;  262.675;    0.000
445.272; 2394.650;  256.675;    0.000
445.320; 2309.650;  235.675;    0.000
445.368; 2430.650;  251.675;    0.000
445.415; 2371.650;  250.675;    0.000
445.463; 2363.650;  225.675;    0.000
445.511; 2392.650;  226.675;    0.000
445.559; 2335.650;  251.675;    0.000
445.606; 2316.650;  213.675;    0.000
445.654; 2366.650;  261.675;    0.000
445.702; 2344.650;  222.675;    0.000
445.749; 2365.650;  257.675;    0.000
445.797; 2400.650;  263.675;    0.000
445.845; 2435.650;  218.675;    0.000
445.892; 2444.650;  228.675;    0.000
445.940; 2369.650;  249.675;    0.000
445.988; 2435.650;  276.675;    0.000
446.035; 2393.650;  229.675;    0.000
446.083; 2394.650;  255.675;    0.000
446.130; 2403.650;  200.675;    0.000
446.178; 2465.650;  256.675;    0.000
446.226; 2374.650;  238.675;    0.000
446.273; 2437.650;  250.675;    0.000
446.321; 2376.650;  233.675;    0.000
446.368; 2376.650;  244.675;    0.000
446.416; 2459.650;  214.675;    0.000
446.463; 2480.650;  225.675;    0.000
446.511; 2427.650;  253.675;    0.000
446.558; 2487.650;  246.675;    0.000
446.606; 2481.650;  238.675;    0.000
446.653; 2514.650;  215.675;    0.000
446.701; 2495.650;  248.675;    0.000
446.748; 2454.650;  258.675;    0.000
446.796; 2616.650;  259.675;    0.000
446.843; 2591.650;  269.675;    0.000
446.891; 2570.650;  259.675;    0.000
446.938; 2604.650;  226.675;    0.000
446.985; 2548.650;  225.675;    0.000
447.033; 2617.650;  269.675;    0.000
447.080; 2576.650;  258.675;    0.000
447.128; 2638.650;  225.675;    0.000
447.175; 2653.650;  259.675;    0.000
447.222; 2653.650;  238.675;    0.000
447.270; 2809.650;  250.675;    0.000
447.317; 2687.650;  217.675;    0.000
447.364; 2764.650;  262.675;    0.000
447.411; 2671.650;  269.675;    0.000
447.459; 2811.650;  251.675;    0.000
447.506; 2761.650;  227.675;    0.000
447.553; 2858.650;  250.675;    0.000
447.601; 2841.650;  251.675;    0.000
447.648; 2880.650;  276.675;    0.000
447.695; 2988.650;  229.675;    0.000
447.742; 2925.650;  245.675;    0.000
447.789; 2978.650;  243.675;    0.000
447.837; 3083.650;  267.675;    0.000
447.884; 3089.650;  246.675;    0.000
447.931; 3065.650;  266.675;    0.000
447.978; 3125.650;  242.675;    0.000
448.025; 3218.650;  267.675;    0.000
448.072; 3234.650;  257.675;    0.000
448.120; 3161.650;  279.675;    0.000
448.167; 3299.650;  275.675;    0.000
448.214; 3081.650;  241.675;    0.000
448.261; 3064.650;  271.675;    0.000
448.308; 3058.650;  256.675;    0.000
448.355; 3023.650;  253.675;    0.000
448.402; 2952.650;  267.675;    0.000
448.449; 2895.650;  252.675;    0.000
448.496; 2885.650;  241.675;    0.000
448.543; 2836.650;  250.675;    0.000
448.590; 2788.650;  288.675;    0.000
448.637; 2847.650;  255.675;    0.000
448.684; 2740.650;  284.675;    0.000
448.731; 2699.650;  244.675;    0.000
448.778; 2685.650;  257.675;    0.000
448.825; 2691.650;  252.675;    0.000
448.872; 2618.650;  205.675;    0.000
448.919; 2609.650;  244.675;    0.000
448.966; 2662.650;  278.675;    0.000
449.013; 2651.650;  262.675;    0.000
449.060; 2598.650;  278.675;    0.000
449.107; 2454.650;  248.675;    0.000
449.154; 2573.650;  230.675;    0.000
449.200; 2464.650;  211.675;    0.000
449.247; 2434.650;  283.675;    0.000
449.294; 2440.650;  251.675;    0.000
449.341; 2452.650;  280.675;    0.000
449.388; 2523.650;  247.675;    0.000
449.435; 2473.650;  267.675;    0.000
449.481; 2488.650;  303.675;    0.000
449.528; 2463.650;  279.675;    0.000
449.575; 2413.650;  226.675;    0.000
449.622; 2410.650;  263.675;    0.000
449.668; 2443.650;  249.675;    0.000
449.715; 2389.650;  257.675;    0.000
449.762; 2314.650;  251.675;    0.000
449.809; 2435.650;  289.675;    0.000
449.855; 2370.650;  239.675;    0.000
449.902; 2328.650;  262.675;    0.000
449.949; 2337.650;  262.675;    0.000
449.995; 2392.650;  265.675;    0.000
450.042; 2264.650;  280.675;    0.000
450.089; 2290.650;  277.675;    0.000
450.135; 2361.650;  285.675;    0.000
450.182; 2235.650;  275.675;    0.000
450.229; 2247.650;  278.675;    0.000
450.275; 2245.650;  288.675;    0.000
450.322; 2248.650;  238.675;    0.000
450.368; 2205.650;  276.675;    0.000
450.415; 2308.650;  295.675;    0.000
450.462; 2224.650;  283.675;    0.000
450.508; 2285.650;  264.675;    0.000
450.555; 2241.650;  275.675;    0.000
450.601; 2265.650;  278.675;    0.000
450.648; 2287.650;  251.675;    0.000
450.694; 2245.650;  237.675;    0.000
450.741; 2157.650;  280.675;    0.000
450.787; 2205.650;  279.675;    0.000
450.834; 2225.650;  287.675;    0.000
450.880; 2130.650;  265.675;    0.000
450.927; 2199.650;  270.675;    0.000
450.973; 2259.650;  308.675;    0.000
451.019; 2171.650;  253.675;    0.000
451.066; 2177.650;  261.675;    0.000
451.112; 2186.650;  276.675;    0.000
451.159; 2260.650;  235.675;    0.000
451.205; 2146.650;  284.675;    0.000
451.251; 2192.650;  264.675;    0.000
451.298; 2193.650;  262.675;    0.000
451.344; 2206.650;  278.675;    0.000
451.390; 2215.650;  273.675;    0.000
451.437; 2148.650;  272.675;    0.000
451.483; 2233.650;  302.675;    0.000
451.529; 2105.650;  255.675;    0.000
451.576; 2132.650;  287.675;    0.000
451.622; 2184.650;  254.675;    0.000
451.668; 2183.650;  260.675;    0.000
451.714; 2177.650;  289.675;    0.000
451.761; 2173.650;  273.675;    0.000
451.807; 2195.650;  307.675;    0.000
451.853; 2121.650;  281.675;    0.000
451.899; 2126.650;  246.675;    0.000
451.945; 2139.650;  258.675;    0.000
451.992; 2135.650;  276.675;    0.000
452.038; 2088.650;  287.675;    0.000
452.084; 2063.650;  288.675;    0.000
452.130; 2064.650;  259.675;    0.000
452.176; 2026.650;  265.675;    0.000
452.222; 2090.650;  222.675;    0.000
452.268; 2063.650;  271.675;    0.000
452.315; 2104.650;  258.675;    0.000
452.361; 2041.650;  233.675;    0.000
452.407; 2102.650;  270.675;    0.000
452.453; 2088.650;  261.675;    0.000
452.499; 2130.650;  279.675;    0.000
452.545; 2067.650;  269.675;    0.000
452.591; 2069.650;  288.675;    0.000
452.637; 2124.650;  279.675;    0.000
452.683; 2075.650;  232.675;    0.000
452.729; 2168.650;  285.675;    0.000
452.775; 2048.650;  280.675;    0.000
452.821; 2081.650;  260.675;    0.000
452.867; 2049.650;  239.675;    0.000
452.913; 1990.650;  240.675;    0.000
452.959; 2045.650;  214.675;    0.000
453.005; 2035.650;  266.675;    0.000
453.051; 2079.650;  258.675;    0.000
453.097; 2089.650;  253.675;    0.000
453.142; 2066.650;  244.675;    0.000
453.188; 2143.650;  241.675;    0.000
453.234; 2036.650;  257.675;    0.000
453.280; 2030.650;  231.675;    0.000
453.326; 1943.650;  240.675;    0.000
453.372; 1966.650;  208.675;    0.000
453.418; 2028.650;  266.675;    0.000
453.463; 2013.650;  232.675;    0.000
453.509; 2006.650;  221.675;    0.000
453.555; 2040.650;  268.675;    0.000
453.601; 1984.650;  242.675;    0.000
453.647; 1983.650;  283.675;    0.000
453.692; 2081.650;  242.675;    0.000
453.738; 2024.650;  294.675;    0.000
453.784; 1945.650;  256.675;    0.000
453.829; 2023.650;  267.675;    0.000
453.875; 1976.650;  233.675;    0.000
453.921; 1967.650;  247.675;    0.000
453.967; 1937.650;  249.675;    0.000
454.012; 2071.650;  274.675;    0.000
454.058; 2036.650;  249.675;    0.000
454.104; 2033.650;  272.675;    0.000
454.149; 1896.650;  277.675;    0.000
454.195; 1913.650;  256.675;    0.000
454.240; 1988.650;  263.675;    0.000
454.286; 2029.650;  276.675;    0.000
454.332; 2061.650;  290.675;    0.000
454.377; 2027.650;  274.675;    0.000
454.423; 2011.650;  282.675;    0.000
454.468; 1951.650;  275.675;    0.000
454.514; 2041.650;  270.675;    0.000
454.559; 1969.650;  249.675;    0.000
454.605; 1976.650;  241.675;    0.000
454.650; 2008.650;  269.675;    0.000
454.696; 2032.650;  253.675;    0.000
454.741; 1985.650;  279.675;    0.000
454.787; 2043.650;  252.675;    0.000
454.832; 2031.650;  246.675;    0.000
454.878; 1981.650;  264.675;    0.000
454.923; 2019.650;  268.675;    0.000
454.969; 2003.650;  253.675;    0.000
455.014; 1894.650;  264.675;    0.000
455.060; 2030.650;  265.675;    0.000
455.105; 1929.650;  270.675;    0.000
455.150; 1990.650;  284.675;    0.000
455.196; 1988.650;  278.675;    0.000
455.241; 2032.650;  248.675;    0.000
455.286; 1988.650;  274.675;    0.000
455.332; 1949.650;  269.675;    0.000
455.377; 2014.650;  218.675;    0.000
455.422; 1951.650;  261.675;    0.000
455.468; 2023.650;  278.675;    0.000
455.513; 1971.650;  235.675;    0.000
455.558; 1915.650;  232.675;    0.000
455.604; 2010.650;  285.675;    0.000
455.649; 1948.650;  264.675;    0.000
455.694; 1984.650;  235.675;    0.000
455.739; 2024.650;  265.675;    0.000
455.785; 2030.650;  266.675;    0.000
455.830; 1986.650;  272.675;    0.000
455.875; 1977.650;  256.675;    0.000
455.920; 1929.650;  191.675;    0.000
455.965; 1977.650;  280.675;    0.000
456.010; 2014.650;  267.675;    0.000
456.056; 1980.650;  270.675;    0.000
456.101; 1975.650;  248.675;    0.000
456.146; 2033.650;  287.675;    0.000
456.191; 1943.650;  280.675;    0.000
456.236; 1956.650;  229.675;    0.000
456.281; 1903.650;  241.675;    0.000
456.326; 1988.650;  248.675;    0.000
456.371; 1923.650;  233.675;    0.000
456.416; 2030.650;  284.675;    0.000
456.461; 1955.650;  256.675;    0.000
456.507; 2032.650;  250.675;    0.000
456.552; 1969.650;  290.675;    0.000
456.597; 1936.650;  260.675;    0.000
456.642; 2018.650;  252.675;    0.000
456.687; 2026.650;  272.675;    0.000
456.732; 2019.650;  303.675;    0.000
456.776; 2023.650;  269.675;    0.000
456.821; 2031.650;  256.675;    0.000
456.866; 1980.650;  278.675;    0.000
456.911; 1966.650;  230.675;    0.000
456.956; 2058.650;  275.675;    0.000
457.001; 2002.650;  248.675;    0.000
457.046; 2032.650;  222.675;    0.000
457.091; 1927.650;  251.675;    0.000
457.136; 1930.650;  231.675;    0.000
457.181; 1974.650;  245.675;    0.000
457.225; 1930.650;  262.675;    0.000
457.270; 1995.650;  277.675;    0.000
457.315; 2026.650;  235.675;    0.000
457.360; 1946.650;  231.675;    0.000
457.405; 1932.650;  214.675;    0.000
457.450; 1974.650;  255.675;    0.000
457.494; 1842.650;  220.675;    0.000
457.539; 2026.650;  257.675;    0.000
457.584; 1926.650;  279.675;    0.000
457.629; 1971.650;  249.675;    0.000
457.673; 1962.650;  237.675;    0.000
457.718; 1990.650;  232.675;    0.000
457.763; 2064.650;  278.675;    0.000
457.807; 1940.650;  279.675;    0.000
457.852; 1974.650;  246.675;    0.000
457.897; 2012.650;  284.675;    0.000
457.941; 2100.650;  272.675;    0.000
457.986; 2031.650;  285.675;    0.000
458.031; 2007.650;  235.675;    0.000
458.075; 2004.650;  299.675;    0.000
458.120; 1949.650;  284.675;    0.000
458.165; 1931.650;  212.675;    0.000
458.209; 1988.650;  254.675;    0.000
458.254; 1944.650;  257.675;    0.000
458.298; 2001.650;  265.675;    0.000
458.343; 2053.650;  278.675;    0.000
458.387; 2102.650;  316.675;    0.000
458.432; 2097.650;  279.675;    0.000
458.476; 2125.650;  272.675;    0.000
458.521; 2063.650;  240.675;    0.000
458.565; 2085.650;  307.675;    0.000
458.610; 2080.650;  246.675;    0.000
458.654; 2041.650;  275.675;    0.000
458.699; 2065.650;  288.675;    0.000
458.743; 2018.650;  244.675;    0.000
458.788; 2067.650;  245.675;    0.000
458.832; 2037.650;  277.675;    0.000
458.877; 2105.650;  285.675;    0.000
458.921; 2049.650;  216.675;    0.000
458.965; 2100.650;  260.675;    0.000
459.010; 2078.650;  284.675;    0.000
459.054; 2149.650;  272.675;    0.000
459.099; 2055.650;  262.675;    0.000
459.143; 2093.650;  276.675;    0.000
459.187; 2137.650;  258.675;    0.000
459.231; 2120.650;  278.675;    0.000
459.276; 2135.650;  262.675;    0.000
459.320; 2116.650;  291.675;    0.000
459.364; 2155.650;  294.675;    0.000
459.409; 2093.650;  269.675;    0.000
459.453; 2165.650;  257.675;    0.000
459.497; 2212.650;  283.675;    0.000
459.541; 2225.650;  275.675;    0.000
459.586; 2164.650;  261.675;    0.000
459.630; 2163.650;  284.675;    0.000
459.674; 2081.650;  244.675;    0.000
459.718; 2119.650;  309.675;    0.000
459.762; 2071.650;  281.675;    0.000
459.807; 2125.650;  250.675;    0.000
459.851; 2134.650;  286.675;    0.000
459.895; 2079.650;  230.675;    0.000
459.939; 2112.650;  262.675;    0.000
459.983; 2114.650;  250.675;    0.000
460.027; 2113.650;  275.675;    0.000
460.071; 2178.650;  301.675;    0.000
460.115; 2186.650;  279.675;    0.000
460.159; 2181.650;  301.675;    0.000
460.204; 2134.650;  287.675;    0.000
460.248; 2183.650;  293.675;    0.000
460.292; 2252.650;  310.675;    0.000
460.336; 2202.650;  263.675;    0.000
460.380; 2123.650;  268.675;    0.000
460.424; 2240.650;  281.675;    0.000
460.468; 2242.650;  310.675;    0.000
460.512; 2149.650;  273.675;    0.000
460.556; 2256.650;  291.675;    0.000
460.599; 2206.650;  240.675;    0.000
460.643; 2169.650;  260.675;    0.000
460.687; 2146.650;  283.675;    0.000
460.731; 2209.650;  254.675;    0.000
460.775; 2229.650;  265.675;    0.000
460.819; 2220.650;  280.675;    0.000
460.863; 2205.650;  316.675;    0.000
460.907; 2144.650;  231.675;    0.000
460.951; 2249.650;  275.675;    0.000
460.995; 2223.650;  290.675;    0.000
461.038; 2183.650;  284.675;    0.000
461.082; 2233.650;  278.675;    0.000
461.126; 2197.650;  321.675;    0.000
461.170; 2205.650;  273.675;    0.000
461.214; 2284.650;  289.675;    0.000
461.257; 2308.650;  296.675;    0.000
461.301; 2281.650;  287.675;    0.000
461.345; 2201.650;  290.675;    0.000
461.389; 2245.650;  260.675;    0.000
461.432; 2213.650;  262.675;    0.000
461.476; 2231.650;  254.675;    0.000
461.520; 2161.650;  305.675;    0.000
461.563; 2253.650;  289.675;    0.000
461.607; 2249.650;  286.675;    0.000
461.651; 2287.650;  271.675;    0.000
461.694; 2234.650;  245.675;    0.000
461.738; 2161.650;  278.675;    0.000
461.782; 2175.650;  284.675;    0.000
461.825; 2273.650;  305.675;    0.000
461.869; 2252.650;  293.675;    0.000
461.913; 2284.650;  280.675;    0.000
461.956; 2303.650;  237.675;    0.000
462.000; 2258.650;  288.675;    0.000
462.043; 2217.650;  282.675;    0.000
462.087; 2383.650;  268.675;    0.000
462.130; 2307.650;  286.675;    0.000
462.174; 2288.650;  312.675;    0.000
462.217; 2328.650;  270.675;    0.000
462.261; 2265.650;  281.675;    0.000
462.304; 2288.650;  248.675;    0.000
462.348; 2248.650;  267.675;    0.000
462.391; 2281.650;  270.675;    0.000
462.435; 2267.650;  287.675;    0.000
462.478; 2305.650;  290.675;    0.000
462.522; 2385.650;  296.675;    0.000
462.565; 2335.650;  275.675;    0.000
462.608; 2363.650;  325.675;    0.000
462.652; 2402.650;  303.675;    0.000
462.695; 2413.650;  355.675;    0.000
462.739; 2337.650;  272.675;    0.000
462.782; 2382.650;  295.675;    0.000
462.825; 2404.650;  300.675;    0.000
462.869; 2430.650;  319.675;    0.000
462.912; 2415.650;  363.675;    0.000
462.955; 2427.650;  298.675;    0.000
462.998; 2452.650;  321.675;    0.000
463.042; 2409.650;  310.675;    0.000
463.085; 2456.650;  305.675;    0.000
463.128; 2392.650;  345.675;    0.000
463.172; 2394.650;  341.675;    0.000
463.215;  375.650;  300.675;    0.000
463.258;  313.650;  287.675;    0.000
463.301;  305.650;  290.675;    0.000
463.344;  341.650;  320.675;    0.000
463.388;  306.650;  340.675;    0.000
463.431;  308.650;  278.675;    0.000
463.474;  345.650;  353.675;    0.000
463.517;  345.650;  295.675;    0.000
463.560;  339.650;  328.675;    0.000
463.603;  338.650;  316.675;    0.000
463.646;  315.650;  295.675;    0.000
463.690;  315.650;  334.675;    0.000
463.733;  305.650;  343.675;    0.000
463.776;  288.650;  300.675;    0.000
463.819;  318.650;  368.675;    0.000
463.862;  312.650;  327.675;    0.000

