
Integration time [ms]:   0.300
Averaging Nr. [scans]: 1
Smoothing Nr. [pixels]: 0
Data measured with spectrometer [name]: UV2
Wave   ;Sample   ;Dark     ;Reference
[nm]   ;[counts] ;[counts] ;[counts] 

353.533;  228.850;  235.675;    0.000
353.597;  247.850;  239.675;    0.000
353.660;  205.850;  203.675;    0.000
353.723;  198.850;  225.675;    0.000
353.786;  176.850;  178.675;    0.000
353.850;  221.850;  199.675;    0.000
353.913;  196.850;  179.675;    0.000
353.976;  189.850;  209.675;    0.000
354.039;  168.850;  188.675;    0.000
354.102;  207.850;  219.675;    0.000
354.166;  201.850;  237.675;    0.000
354.229;  191.850;  179.675;    0.000
354.292;  207.850;  210.675;    0.000
354.355;  197.850;  214.675;    0.000
354.418;  176.850;  173.675;    0.000
354.481;  207.850;  170.675;    0.000
354.545;  750.850;  229.675;    0.000
354.608;  688.850;  233.675;    0.000
354.671;  691.850;  183.675;    0.000
354.734;  731.850;  208.675;    0.000
354.797;  724.850;  263.675;    0.000
354.860;  706.850;  208.675;    0.000
354.923;  733.850;  202.675;    0.000
354.986;  796.850;  207.675;    0.000
355.050;  770.850;  180.675;    0.000
355.113;  763.850;  189.675;    0.000
355.176;  794.850;  214.675;    0.000
355.239;  809.850;  199.675;    0.000
355.302;  799.850;  229.675;    0.000
355.365;  888.850;  220.675;    0.000
355.428;  808.850;  196.675;    0.000
355.491;  806.850;  243.675;    0.000
355.554;  805.850;  191.675;    0.000
355.617;  866.850;  200.675;    0.000
355.680;  917.850;  190.675;    0.000
355.743;  845.850;  236.675;    0.000
355.806;  826.850;  193.675;    0.000
355.869;  893.850;  223.675;    0.000
355.932;  882.850;  208.675;    0.000
355.995;  929.850;  231.675;    0.000
356.058;  961.850;  202.675;    0.000
356.121;  944.850;  198.675;    0.000
356.184;  921.850;  209.675;    0.000
356.247;  956.850;  224.675;    0.000
356.310;  891.850;  149.675;    0.000
356.373;  965.850;  211.675;    0.000
356.436;  993.850;  195.675;    0.000
356.498;  939.850;  176.675;    0.000
356.561;  911.850;  186.675;    0.000
356.624;  954.850;  184.675;    0.000
356.687;  985.850;  179.675;    0.000
356.750;  983.850;  213.675;    0.000
356.813;  904.850;  172.675;    0.000
356.876;  980.850;  189.675;    0.000
356.939;  916.850;  204.675;    0.000
357.001;  971.850;  195.675;    0.000
357.064;  978.850;  202.675;    0.000
357.127;  949.850;  176.675;    0.000
357.190;  909.850;  186.675;    0.000
357.253; 1049.850;  178.675;    0.000
357.316;  966.850;  187.675;    0.000
357.378;  950.850;  181.675;    0.000
357.441; 1017.850;  142.675;    0.000
357.504;  943.850;  161.675;    0.000
357.567;  941.850;  113.675;    0.000
357.629; 1044.850;  193.675;    0.000
357.692;  998.850;  144.675;    0.000
357.755; 1025.850;  177.675;    0.000
357.818; 1008.850;  144.675;    0.000
357.880;  985.850;  182.675;    0.000
357.943; 1055.850;  166.675;    0.000
358.006; 1006.850;  184.675;    0.000
358.069; 1027.850;  200.675;    0.000
358.131;  993.850;  148.675;    0.000
358.194;  983.850;  155.675;    0.000
358.257;  988.850;  173.675;    0.000
358.319; 1006.850;  178.675;    0.000
358.382; 1034.850;  184.675;    0.000
358.445;  991.850;  156.675;    0.000
358.507; 1008.850;  199.675;    0.000
358.570; 1047.850;  182.675;    0.000
358.633;  994.850;  167.675;    0.000
358.695; 1070.850;  124.675;    0.000
358.758; 1018.850;  164.675;    0.000
358.821; 1033.850;  147.675;    0.000
358.883;  984.850;  153.675;    0.000
358.946; 1022.850;  171.675;    0.000
359.008; 1080.850;  196.675;    0.000
359.071; 1024.850;  178.675;    0.000
359.134; 1057.850;  123.675;    0.000
359.196; 1049.850;  166.675;    0.000
359.259; 1122.850;  173.675;    0.000
359.321; 1039.850;  164.675;    0.000
359.384; 1099.850;  155.675;    0.000
359.446; 1063.850;  157.675;    0.000
359.509; 1067.850;  153.675;    0.000
359.571; 1096.850;  184.675;    0.000
359.634; 1034.850;  138.675;    0.000
359.696; 1046.850;  169.675;    0.000
359.759; 1136.850;  152.675;    0.000
359.821; 1066.850;  150.675;    0.000
359.884; 1071.850;  166.675;    0.000
359.946; 1076.850;  165.675;    0.000
360.009; 1064.850;  176.675;    0.000
360.071; 1055.850;  148.675;    0.000
360.134; 1132.850;  193.675;    0.000
360.196; 1070.850;  151.675;    0.000
360.259; 1151.850;  182.675;    0.000
360.321; 1069.850;  168.675;    0.000
360.384; 1156.850;  176.675;    0.000
360.446; 1141.850;  156.675;    0.000
360.508; 1130.850;  183.675;    0.000
360.571; 1136.850;  193.675;    0.000
360.633; 1111.850;  184.675;    0.000
360.696; 1003.850;  136.675;    0.000
360.758; 1167.850;  186.675;    0.000
360.820; 1124.850;  127.675;    0.000
360.883; 1125.850;  146.675;    0.000
360.945; 1098.850;  144.675;    0.000
361.007; 1092.850;  160.675;    0.000
361.070; 1116.850;  175.675;    0.000
361.132; 1185.850;  195.675;    0.000
361.194; 1165.850;  167.675;    0.000
361.257; 1172.850;  140.675;    0.000
361.319; 1117.850;  154.675;    0.000
361.381; 1107.850;  181.675;    0.000
361.443; 1125.850;  137.675;    0.000
361.506; 1161.850;  159.675;    0.000
361.568; 1163.850;  144.675;    0.000
361.630; 1173.850;  189.675;    0.000
361.693; 1176.850;  162.675;    0.000
361.755; 1147.850;  156.675;    0.000
361.817; 1155.850;  225.675;    0.000
361.879; 1182.850;  172.675;    0.000
361.941; 1157.850;  138.675;    0.000
362.004; 1191.850;  163.675;    0.000
362.066; 1132.850;  164.675;    0.000
362.128; 1226.850;  160.675;    0.000
362.190; 1190.850;  168.675;    0.000
362.252; 1187.850;  177.675;    0.000
362.315; 1156.850;  169.675;    0.000
362.377; 1181.850;  188.675;    0.000
362.439; 1192.850;  158.675;    0.000
362.501; 1150.850;  168.675;    0.000
362.563; 1200.850;  168.675;    0.000
362.625; 1213.850;  188.675;    0.000
362.688; 1217.850;  162.675;    0.000
362.750; 1195.850;  209.675;    0.000
362.812; 1180.850;  154.675;    0.000
362.874; 1181.850;  190.675;    0.000
362.936; 1181.850;  190.675;    0.000
362.998; 1169.850;  143.675;    0.000
363.060; 1164.850;  186.675;    0.000
363.122; 1173.850;  167.675;    0.000
363.184; 1183.850;  163.675;    0.000
363.246; 1223.850;  169.675;    0.000
363.308; 1147.850;  165.675;    0.000
363.370; 1205.850;  177.675;    0.000
363.432; 1195.850;  139.675;    0.000
363.494; 1210.850;  177.675;    0.000
363.556; 1144.850;  164.675;    0.000
363.618; 1162.850;  170.675;    0.000
363.680; 1183.850;  146.675;    0.000
363.742; 1206.850;  179.675;    0.000
363.804; 1218.850;  188.675;    0.000
363.866; 1275.850;  186.675;    0.000
363.928; 1236.850;  147.675;    0.000
363.990; 1284.850;  185.675;    0.000
364.052; 1198.850;  197.675;    0.000
364.114; 1258.850;  150.675;    0.000
364.176; 1152.850;  217.675;    0.000
364.238; 1213.850;  159.675;    0.000
364.300; 1223.850;  192.675;    0.000
364.362; 1232.850;  130.675;    0.000
364.424; 1212.850;  131.675;    0.000
364.486; 1221.850;  178.675;    0.000
364.548; 1227.850;  203.675;    0.000
364.609; 1266.850;  192.675;    0.000
364.671; 1247.850;  169.675;    0.000
364.733; 1275.850;  169.675;    0.000
364.795; 1253.850;  157.675;    0.000
364.857; 1248.850;  171.675;    0.000
364.919; 1236.850;  134.675;    0.000
364.981; 1148.850;  162.675;    0.000
365.042; 1280.850;  136.675;    0.000
365.104; 1231.850;  152.675;    0.000
365.166; 1221.850;  149.675;    0.000
365.228; 1261.850;  195.675;    0.000
365.290; 1227.850;  147.675;    0.000
365.351; 1231.850;  138.675;    0.000
365.413; 1212.850;  168.675;    0.000
365.475; 1251.850;  150.675;    0.000
365.537; 1177.850;  179.675;    0.000
365.598; 1218.850;  177.675;    0.000
365.660; 1224.850;  149.675;    0.000
365.722; 1241.850;  160.675;    0.000
365.784; 1208.850;  175.675;    0.000
365.845; 1267.850;  149.675;    0.000
365.907; 1270.850;  154.675;    0.000
365.969; 1211.850;  128.675;    0.000
366.030; 1255.850;  176.675;    0.000
366.092; 1237.850;  181.675;    0.000
366.154; 1270.850;  194.675;    0.000
366.215; 1262.850;  149.675;    0.000
366.277; 1234.850;  144.675;    0.000
366.339; 1276.850;  160.675;    0.000
366.400; 1233.850;  144.675;    0.000
366.462; 1266.850;  145.675;    0.000
366.524; 1308.850;  148.675;    0.000
366.585; 1240.850;  128.675;    0.000
366.647; 1313.850;  156.675;    0.000
366.708; 1251.850;  128.675;    0.000
366.770; 1328.850;  188.675;    0.000
366.832; 1297.850;  170.675;    0.000
366.893; 1199.850;  158.675;    0.000
366.955; 1255.850;  150.675;    0.000
367.016; 1246.850;  160.675;    0.000
367.078; 1289.850;  144.675;    0.000
367.139; 1239.850;  109.675;    0.000
367.201; 1278.850;  155.675;    0.000
367.262; 1310.850;  165.675;    0.000
367.324; 1286.850;  180.675;    0.000
367.385; 1257.850;  150.675;    0.000
367.447; 1282.850;  164.675;    0.000
367.508; 1296.850;  137.675;    0.000
367.570; 1292.850;  174.675;    0.000
367.631; 1234.850;  126.675;    0.000
367.693; 1371.850;  153.675;    0.000
367.754; 1310.850;  194.675;    0.000
367.816; 1249.850;  154.675;    0.000
367.877; 1325.850;  183.675;    0.000
367.939; 1332.850;  179.675;    0.000
368.000; 1294.850;  142.675;    0.000
368.062; 1310.850;  147.675;    0.000
368.123; 1281.850;  155.675;    0.000
368.184; 1297.850;  169.675;    0.000
368.246; 1281.850;  145.675;    0.000
368.307; 1306.850;  165.675;    0.000
368.369; 1310.850;  177.675;    0.000
368.430; 1363.850;  161.675;    0.000
368.491; 1293.850;  156.675;    0.000
368.553; 1369.850;  156.675;    0.000
368.614; 1346.850;  186.675;    0.000
368.675; 1280.850;  154.675;    0.000
368.737; 1330.850;  162.675;    0.000
368.798; 1365.850;  202.675;    0.000
368.859; 1291.850;  162.675;    0.000
368.921; 1296.850;  171.675;    0.000
368.982; 1301.850;  193.675;    0.000
369.043; 1318.850;  207.675;    0.000
369.104; 1363.850;  143.675;    0.000
369.166; 1262.850;  203.675;    0.000
369.227; 1343.850;  125.675;    0.000
369.288; 1363.850;  154.675;    0.000
369.349; 1330.850;  187.675;    0.000
369.411; 1366.850;  191.675;    0.000
369.472; 1280.850;  175.675;    0.000
369.533; 1338.850;  180.675;    0.000
369.594; 1314.850;  161.675;    0.000
369.656; 1314.850;  169.675;    0.000
369.717; 1250.850;  103.675;    0.000
369.778; 1403.850;  159.675;    0.000
369.839; 1290.850;  146.675;    0.000
369.900; 1406.850;  218.675;    0.000
369.961; 1316.850;  200.675;    0.000
370.023; 1380.850;  177.675;    0.000
370.084; 1390.850;  149.675;    0.000
370.145; 1330.850;  179.675;    0.000
370.206; 1370.850;  179.675;    0.000
370.267; 1335.850;  166.675;    0.000
370.328; 1385.850;  164.675;    0.000
370.389; 1376.850;  162.675;    0.000
370.451; 1374.850;  179.675;    0.000
370.512; 1398.850;  181.675;    0.000
370.573; 1360.850;  173.675;    0.000
370.634; 1385.850;  162.675;    0.000
370.695; 1349.850;  167.675;    0.000
370.756; 1484.850;  177.675;    0.000
370.817; 1318.850;  178.675;    0.000
370.878; 1405.850;  152.675;    0.000
370.939; 1417.850;  185.675;    0.000
371.000; 1363.850;  173.675;    0.000
371.061; 1389.850;  176.675;    0.000
371.122; 1400.850;  169.675;    0.000
371.183; 1329.850;  116.675;    0.000
371.244; 1385.850;  174.675;    0.000
371.305; 1358.850;  152.675;    0.000
371.366; 1399.850;  168.675;    0.000
371.427; 1353.850;  188.675;    0.000
371.488; 1379.850;  180.675;    0.000
371.549; 1415.850;  145.675;    0.000
371.610; 1380.850;  160.675;    0.000
371.671; 1286.850;  164.675;    0.000
371.732; 1359.850;  158.675;    0.000
371.793; 1400.850;  162.675;    0.000
371.853; 1382.850;  130.675;    0.000
371.914; 1405.850;  172.675;    0.000
371.975; 1406.850;   98.675;    0.000
372.036; 1434.850;  161.675;    0.000
372.097; 1301.850;  143.675;    0.000
372.158; 1374.850;  175.675;    0.000
372.219; 1433.850;  196.675;    0.000
372.280; 1328.850;  175.675;    0.000
372.340; 1436.850;  160.675;    0.000
372.401; 1413.850;  163.675;    0.000
372.462; 1332.850;  147.675;    0.000
372.523; 1395.850;  146.675;    0.000
372.584; 1381.850;  173.675;    0.000
372.645; 1411.850;  126.675;    0.000
372.705; 1479.850;  179.675;    0.000
372.766; 1453.850;  173.675;    0.000
372.827; 1528.850;  171.675;    0.000
372.888; 1481.850;  134.675;    0.000
372.948; 1472.850;  167.675;    0.000
373.009; 1364.850;  167.675;    0.000
373.070; 1381.850;  152.675;    0.000
373.131; 1401.850;  177.675;    0.000
373.191; 1465.850;  225.675;    0.000
373.252; 1431.850;  165.675;    0.000
373.313; 1435.850;  171.675;    0.000
373.373; 1393.850;  160.675;    0.000
373.434; 1449.850;  172.675;    0.000
373.495; 1441.850;  150.675;    0.000
373.555; 1382.850;  130.675;    0.000
373.616; 1396.850;  155.675;    0.000
373.677; 1379.850;  212.675;    0.000
373.737; 1437.850;  188.675;    0.000
373.798; 1457.850;  203.675;    0.000
373.859; 1454.850;  169.675;    0.000
373.919; 1421.850;  197.675;    0.000
373.980; 1466.850;  134.675;    0.000
374.041; 1429.850;  186.675;    0.000
374.101; 1421.850;  207.675;    0.000
374.162; 1490.850;  190.675;    0.000
374.222; 1443.850;  182.675;    0.000
374.283; 1496.850;  213.675;    0.000
374.343; 1549.850;  191.675;    0.000
374.404; 1505.850;  181.675;    0.000
374.465; 1568.850;  193.675;    0.000
374.525; 1496.850;  153.675;    0.000
374.586; 1479.850;  190.675;    0.000
374.646; 1551.850;  173.675;    0.000
374.707; 1537.850;  210.675;    0.000
374.767; 1563.850;  218.675;    0.000
374.828; 1491.850;  174.675;    0.000
374.888; 1522.850;  197.675;    0.000
374.949; 1580.850;  196.675;    0.000
375.009; 1471.850;  169.675;    0.000
375.070; 1482.850;  157.675;    0.000
375.130; 1564.850;  203.675;    0.000
375.190; 1520.850;  174.675;    0.000
375.251; 1561.850;  230.675;    0.000
375.311; 1574.850;  198.675;    0.000
375.372; 1538.850;  160.675;    0.000
375.432; 1513.850;  169.675;    0.000
375.493; 1533.850;  159.675;    0.000
375.553; 1511.850;  179.675;    0.000
375.613; 1484.850;  157.675;    0.000
375.674; 1550.850;  174.675;    0.000
375.734; 1547.850;  180.675;    0.000
375.794; 1529.850;  175.675;    0.000
375.855; 1468.850;  193.675;    0.000
375.915; 1523.850;  148.675;    0.000
375.975; 1518.850;  183.675;    0.000
376.036; 1452.850;  144.675;    0.000
376.096; 1505.850;  195.675;    0.000
376.156; 1493.850;  200.675;    0.000
376.217; 1494.850;  160.675;    0.000
376.277; 1478.850;  193.675;    0.000
376.337; 1525.850;  168.675;    0.000
376.398; 1505.850;  183.675;    0.000
376.458; 1521.850;  168.675;    0.000
376.518; 1434.850;  184.675;    0.000
376.578; 1530.850;  176.675;    0.000
376.639; 1491.850;  158.675;    0.000
376.699; 1543.850;  157.675;    0.000
376.759; 1473.850;  184.675;    0.000
376.819; 1490.850;  166.675;    0.000
376.880; 1508.850;  220.675;    0.000
376.940; 1552.850;  195.675;    0.000
377.000; 1454.850;  178.675;    0.000
377.060; 1569.850;  212.675;    0.000
377.120; 1496.850;  161.675;    0.000
377.180; 1483.850;  168.675;    0.000
377.241; 1517.850;  167.675;    0.000
377.301; 1558.850;  171.675;    0.000
377.361; 1445.850;  174.675;    0.000
377.421; 1499.850;  216.675;    0.000
377.481; 1526.850;  164.675;    0.000
377.541; 1551.850;  163.675;    0.000
377.601; 1550.850;  197.675;    0.000
377.661; 1565.850;  175.675;    0.000
377.722; 1542.850;  196.675;    0.000
377.782; 1502.850;  162.675;    0.000
377.842; 1582.850;  179.675;    0.000
377.902; 1578.850;  140.675;    0.000
377.962; 1479.850;  121.675;    0.000
378.022; 1536.850;  174.675;    0.000
378.082; 1554.850;  167.675;    0.000
378.142; 1588.850;  151.675;    0.000
378.202; 1498.850;  174.675;    0.000
378.262; 1552.850;  168.675;    0.000
378.322; 1581.850;  183.675;    0.000
378.382; 1560.850;  159.675;    0.000
378.442; 1513.850;  177.675;    0.000
378.502; 1540.850;  137.675;    0.000
378.562; 1561.850;  140.675;    0.000
378.622; 1599.850;  197.675;    0.000
378.682; 1483.850;  205.675;    0.000
378.742; 1615.850;  160.675;    0.000
378.802; 1585.850;  132.675;    0.000
378.862; 1719.850;  222.675;    0.000
378.921; 1624.850;  178.675;    0.000
378.981; 1614.850;  160.675;    0.000
379.041; 1576.850;  136.675;    0.000
379.101; 1609.850;  184.675;    0.000
379.161; 1554.850;  147.675;    0.000
379.221; 1597.850;  139.675;    0.000
379.281; 1628.850;  204.675;    0.000
379.341; 1595.850;  142.675;    0.000
379.401; 1589.850;  136.675;    0.000
379.460; 1606.850;  161.675;    0.000
379.520; 1667.850;  171.675;    0.000
379.580; 1607.850;  168.675;    0.000
379.640; 1604.850;  183.675;    0.000
379.700; 1647.850;  182.675;    0.000
379.759; 1684.850;  190.675;    0.000
379.819; 1608.850;  149.675;    0.000
379.879; 1676.850;  140.675;    0.000
379.939; 1707.850;  155.675;    0.000
379.999; 1642.850;  199.675;    0.000
380.058; 1619.850;  163.675;    0.000
380.118; 1647.850;  190.675;    0.000
380.178; 1669.850;  220.675;    0.000
380.237; 1650.850;  181.675;    0.000
380.297; 1626.850;  187.675;    0.000
380.357; 1726.850;  193.675;    0.000
380.417; 1680.850;  157.675;    0.000
380.476; 1721.850;  176.675;    0.000
380.536; 1668.850;  180.675;    0.000
380.596; 1664.850;  191.675;    0.000
380.655; 1708.850;  190.675;    0.000
380.715; 1657.850;  180.675;    0.000
380.775; 1715.850;  202.675;    0.000
380.834; 1689.850;  190.675;    0.000
380.894; 1703.850;  163.675;    0.000
380.954; 1639.850;  181.675;    0.000
381.013; 1773.850;  218.675;    0.000
381.073; 1694.850;  181.675;    0.000
381.132; 1805.850;  193.675;    0.000
381.192; 1766.850;  209.675;    0.000
381.252; 1714.850;  206.675;    0.000
381.311; 1791.850;  173.675;    0.000
381.371; 1814.850;  188.675;    0.000
381.430; 1801.850;  162.675;    0.000
381.490; 1774.850;  168.675;    0.000
381.549; 1736.850;  213.675;    0.000
381.609; 1796.850;  194.675;    0.000
381.668; 1770.850;  190.675;    0.000
381.728; 1783.850;  183.675;    0.000
381.787; 1806.850;  172.675;    0.000
381.847; 1831.850;  198.675;    0.000
381.906; 1737.850;  197.675;    0.000
381.966; 1740.850;  201.675;    0.000
382.025; 1844.850;  219.675;    0.000
382.085; 1910.850;  194.675;    0.000
382.144; 1748.850;  187.675;    0.000
382.204; 1867.850;  196.675;    0.000
382.263; 1837.850;  168.675;    0.000
382.323; 1845.850;  135.675;    0.000
382.382; 1968.850;  173.675;    0.000
382.441; 1907.850;  155.675;    0.000
382.501; 2014.850;  168.675;    0.000
382.560; 1933.850;  200.675;    0.000
382.619; 2083.850;  155.675;    0.000
382.679; 2101.850;  198.675;    0.000
382.738; 2026.850;  211.675;    0.000
382.798; 2240.850;  214.675;    0.000
382.857; 2371.850;  146.675;    0.000
382.916; 2660.850;  183.675;    0.000
382.976; 2697.850;  173.675;    0.000
383.035; 2490.850;  165.675;    0.000
383.094; 2559.850;  173.675;    0.000
383.154; 2796.850;  143.675;    0.000
383.213; 3323.850;  173.675;    0.000
383.272; 3231.850;  166.675;    0.000
383.331; 2534.850;  154.675;    0.000
383.391; 2390.850;  232.675;    0.000
383.450; 2353.850;  185.675;    0.000
383.509; 2354.850;  204.675;    0.000
383.568; 2414.850;  197.675;    0.000
383.628; 2480.850;  171.675;    0.000
383.687; 2730.850;  202.675;    0.000
383.746; 3059.850;  116.675;    0.000
383.805; 3654.850;  156.675;    0.000
383.864; 3668.850;  150.675;    0.000
383.924; 2845.850;  195.675;    0.000
383.983; 2450.850;  157.675;    0.000
384.042; 2282.850;  184.675;    0.000
384.101; 2230.850;  210.675;    0.000
384.160; 2039.850;  123.675;    0.000
384.219; 2107.850;  191.675;    0.000
384.279; 2064.850;  184.675;    0.000
384.338; 1960.850;  172.675;    0.000
384.397; 1958.850;  153.675;    0.000
384.456; 2004.850;  181.675;    0.000
384.515; 1936.850;  171.675;    0.000
384.574; 1981.850;  172.675;    0.000
384.633; 1955.850;  174.675;    0.000
384.692; 1964.850;  178.675;    0.000
384.751; 1935.850;  180.675;    0.000
384.810; 1973.850;  161.675;    0.000
384.869; 1941.850;  162.675;    0.000
384.929; 1912.850;  157.675;    0.000
384.988; 2029.850;  153.675;    0.000
385.047; 2012.850;  178.675;    0.000
385.106; 1931.850;  164.675;    0.000
385.165; 1971.850;  127.675;    0.000
385.224; 2011.850;  156.675;    0.000
385.283; 1989.850;  178.675;    0.000
385.342; 1891.850;  177.675;    0.000
385.401; 1962.850;  178.675;    0.000
385.459; 1980.850;  177.675;    0.000
385.518; 1988.850;  152.675;    0.000
385.577; 1903.850;  133.675;    0.000
385.636; 2070.850;  204.675;    0.000
385.695; 1972.850;  161.675;    0.000
385.754; 1989.850;  190.675;    0.000
385.813; 1897.850;  160.675;    0.000
385.872; 1938.850;  138.675;    0.000
385.931; 2050.850;  192.675;    0.000
385.990; 1993.850;  158.675;    0.000
386.049; 2015.850;  187.675;    0.000
386.107; 1999.850;  140.675;    0.000
386.166; 2040.850;  139.675;    0.000
386.225; 1990.850;  182.675;    0.000
386.284; 2021.850;  123.675;    0.000
386.343; 1984.850;  207.675;    0.000
386.402; 1966.850;  150.675;    0.000
386.460; 1935.850;  185.675;    0.000
386.519; 1954.850;  145.675;    0.000
386.578; 1919.850;  153.675;    0.000
386.637; 1937.850;  153.675;    0.000
386.696; 1976.850;  189.675;    0.000
386.754; 1984.850;  128.675;    0.000
386.813; 1970.850;  202.675;    0.000
386.872; 1916.850;  152.675;    0.000
386.931; 1975.850;  166.675;    0.000
386.989; 1937.850;  194.675;    0.000
387.048; 1995.850;  176.675;    0.000
387.107; 2022.850;  203.675;    0.000
387.165; 1883.850;  136.675;    0.000
387.224; 1938.850;  193.675;    0.000
387.283; 1997.850;  157.675;    0.000
387.342; 2012.850;  194.675;    0.000
387.400; 1976.850;  191.675;    0.000
387.459; 1888.850;  142.675;    0.000
387.517; 1968.850;  202.675;    0.000
387.576; 1987.850;  164.675;    0.000
387.635; 1961.850;  147.675;    0.000
387.693; 1965.850;  199.675;    0.000
387.752; 1983.850;  181.675;    0.000
387.811; 1979.850;  161.675;    0.000
387.869; 2040.850;  184.675;    0.000
387.928; 2071.850;  175.675;    0.000
387.986; 2043.850;  143.675;    0.000
388.045; 2026.850;  146.675;    0.000
388.103; 2018.850;  164.675;    0.000
388.162; 1949.850;  170.675;    0.000
388.221; 2110.850;  169.675;    0.000
388.279; 2086.850;  151.675;    0.000
388.338; 2210.850;  175.675;    0.000
388.396; 1976.850;  170.675;    0.000
388.455; 1987.850;  193.675;    0.000
388.513; 2024.850;  134.675;    0.000
388.572; 1994.850;  201.675;    0.000
388.630; 1914.850;  181.675;    0.000
388.689; 1979.850;  165.675;    0.000
388.747; 1972.850;  164.675;    0.000
388.806; 1881.850;  155.675;    0.000
388.864; 2058.850;  172.675;    0.000
388.922; 2032.850;  190.675;    0.000
388.981; 1988.850;  170.675;    0.000
389.039; 1929.850;  142.675;    0.000
389.098; 2055.850;  177.675;    0.000
389.156; 2056.850;  184.675;    0.000
389.214; 2025.850;  197.675;    0.000
389.273; 2013.850;  141.675;    0.000
389.331; 2067.850;  145.675;    0.000
389.390; 2028.850;  160.675;    0.000
389.448; 2059.850;  142.675;    0.000
389.506; 2033.850;  192.675;    0.000
389.565; 2017.850;  176.675;    0.000
389.623; 2074.850;  174.675;    0.000
389.681; 2059.850;  184.675;    0.000
389.740; 2052.850;  193.675;    0.000
389.798; 1971.850;  130.675;    0.000
389.856; 2023.850;  224.675;    0.000
389.914; 2000.850;  223.675;    0.000
389.973; 2042.850;  164.675;    0.000
390.031; 2007.850;  198.675;    0.000
390.089; 2078.850;  177.675;    0.000
390.147; 2072.850;  158.675;    0.000
390.206; 1997.850;  213.675;    0.000
390.264; 2024.850;  178.675;    0.000
390.322; 2062.850;  181.675;    0.000
390.380; 2058.850;  148.675;    0.000
390.439; 2093.850;  185.675;    0.000
390.497; 2073.850;  208.675;    0.000
390.555; 2047.850;  175.675;    0.000
390.613; 2078.850;  178.675;    0.000
390.671; 2136.850;  190.675;    0.000
390.729; 2047.850;  172.675;    0.000
390.788; 2127.850;  194.675;    0.000
390.846; 2012.850;  187.675;    0.000
390.904; 2140.850;  207.675;    0.000
390.962; 2151.850;  211.675;    0.000
391.020; 2120.850;  218.675;    0.000
391.078; 2112.850;  179.675;    0.000
391.136; 2097.850;  223.675;    0.000
391.194; 2145.850;  209.675;    0.000
391.253; 2108.850;  217.675;    0.000
391.311; 2157.850;  217.675;    0.000
391.369; 2195.850;  217.675;    0.000
391.427; 2215.850;  253.675;    0.000
391.485; 2091.850;  176.675;    0.000
391.543; 2207.850;  252.675;    0.000
391.601; 2127.850;  168.675;    0.000
391.659; 2146.850;  206.675;    0.000
391.717; 2232.850;  172.675;    0.000
391.775; 2154.850;  170.675;    0.000
391.833; 2200.850;  196.675;    0.000
391.891; 2234.850;  180.675;    0.000
391.949; 2208.850;  201.675;    0.000
392.007; 2205.850;  196.675;    0.000
392.065; 2288.850;  191.675;    0.000
392.123; 2249.850;  158.675;    0.000
392.180; 2282.850;  192.675;    0.000
392.238; 2297.850;  186.675;    0.000
392.296; 2165.850;  150.675;    0.000
392.354; 2193.850;  175.675;    0.000
392.412; 2287.850;  219.675;    0.000
392.470; 2256.850;  200.675;    0.000
392.528; 2185.850;  177.675;    0.000
392.586; 2229.850;  169.675;    0.000
392.644; 2291.850;  155.675;    0.000
392.701; 2302.850;  215.675;    0.000
392.759; 2271.850;  218.675;    0.000
392.817; 2269.850;  178.675;    0.000
392.875; 2289.850;  190.675;    0.000
392.933; 2340.850;  197.675;    0.000
392.991; 2378.850;  179.675;    0.000
393.048; 2416.850;  205.675;    0.000
393.106; 2483.850;  229.675;    0.000
393.164; 2643.850;  167.675;    0.000
393.222; 2899.850;  156.675;    0.000
393.279; 3476.850;  203.675;    0.000
393.337; 4555.850;  216.675;    0.000
393.395; 4688.850;  180.675;    0.000
393.453; 3354.850;  163.675;    0.000
393.510; 2720.850;  194.675;    0.000
393.568; 2545.850;  207.675;    0.000
393.626; 2430.850;  200.675;    0.000
393.684; 2423.850;  234.675;    0.000
393.741; 2400.850;  197.675;    0.000
393.799; 2373.850;  201.675;    0.000
393.857; 2375.850;  185.675;    0.000
393.914; 2294.850;  200.675;    0.000
393.972; 2314.850;  181.675;    0.000
394.030; 2307.850;  188.675;    0.000
394.087; 2303.850;  202.675;    0.000
394.145; 2326.850;  214.675;    0.000
394.202; 2286.850;  204.675;    0.000
394.260; 2314.850;  178.675;    0.000
394.318; 2388.850;  208.675;    0.000
394.375; 2330.850;  183.675;    0.000
394.433; 2400.850;  175.675;    0.000
394.490; 2342.850;  170.675;    0.000
394.548; 2230.850;  161.675;    0.000
394.605; 2285.850;  196.675;    0.000
394.663; 2350.850;  191.675;    0.000
394.720; 2311.850;  179.675;    0.000
394.778; 2382.850;  193.675;    0.000
394.836; 2292.850;  160.675;    0.000
394.893; 2361.850;  152.675;    0.000
394.951; 2414.850;  179.675;    0.000
395.008; 2432.850;  185.675;    0.000
395.065; 2322.850;  154.675;    0.000
395.123; 2365.850;  176.675;    0.000
395.180; 2363.850;  202.675;    0.000
395.238; 2414.850;  135.675;    0.000
395.295; 2401.850;  178.675;    0.000
395.353; 2444.850;  181.675;    0.000
395.410; 2425.850;  160.675;    0.000
395.468; 2480.850;  179.675;    0.000
395.525; 2436.850;  187.675;    0.000
395.582; 2471.850;  221.675;    0.000
395.640; 2465.850;  220.675;    0.000
395.697; 2371.850;  174.675;    0.000
395.754; 2475.850;  177.675;    0.000
395.812; 2421.850;  193.675;    0.000
395.869; 2496.850;  220.675;    0.000
395.927; 2473.850;  206.675;    0.000
395.984; 2528.850;  213.675;    0.000
396.041; 2394.850;  194.675;    0.000
396.098; 2463.850;  144.675;    0.000
396.156; 2615.850;  168.675;    0.000
396.213; 2529.850;  181.675;    0.000
396.270; 2513.850;  186.675;    0.000
396.328; 2490.850;  165.675;    0.000
396.385; 2606.850;  192.675;    0.000
396.442; 2486.850;  196.675;    0.000
396.499; 2549.850;  162.675;    0.000
396.557; 2517.850;  177.675;    0.000
396.614; 2634.850;  184.675;    0.000
396.671; 2698.850;  180.675;    0.000
396.728; 2960.850;  194.675;    0.000
396.785; 3353.850;  173.675;    0.000
396.843; 4059.850;  154.675;    0.000
396.900; 3776.850;  200.675;    0.000
396.957; 2974.850;  158.675;    0.000
397.014; 2769.850;  203.675;    0.000
397.071; 2657.850;  178.675;    0.000
397.128; 2626.850;  201.675;    0.000
397.186; 2727.850;  200.675;    0.000
397.243; 2612.850;  187.675;    0.000
397.300; 2599.850;  173.675;    0.000
397.357; 2595.850;  189.675;    0.000
397.414; 2502.850;  202.675;    0.000
397.471; 2650.850;  156.675;    0.000
397.528; 2631.850;  197.675;    0.000
397.585; 2576.850;  174.675;    0.000
397.642; 2650.850;  202.675;    0.000
397.699; 2666.850;  197.675;    0.000
397.756; 2610.850;  188.675;    0.000
397.814; 2618.850;  210.675;    0.000
397.871; 2669.850;  203.675;    0.000
397.928; 2650.850;  189.675;    0.000
397.985; 2528.850;  192.675;    0.000
398.042; 2690.850;  198.675;    0.000
398.099; 2620.850;  181.675;    0.000
398.156; 2565.850;  201.675;    0.000
398.212; 2622.850;  216.675;    0.000
398.269; 2651.850;  206.675;    0.000
398.326; 2600.850;  213.675;    0.000
398.383; 2577.850;  168.675;    0.000
398.440; 2607.850;  184.675;    0.000
398.497; 2712.850;  194.675;    0.000
398.554; 2736.850;  219.675;    0.000
398.611; 2733.850;  190.675;    0.000
398.668; 2611.850;  138.675;    0.000
398.725; 2736.850;  170.675;    0.000
398.782; 2765.850;  223.675;    0.000
398.839; 2807.850;  211.675;    0.000
398.895; 2833.850;  173.675;    0.000
398.952; 2820.850;  207.675;    0.000
399.009; 2807.850;  173.675;    0.000
399.066; 2957.850;  171.675;    0.000
399.123; 2934.850;  189.675;    0.000
399.180; 2953.850;  170.675;    0.000
399.236; 3043.850;  193.675;    0.000
399.293; 3066.850;  222.675;    0.000
399.350; 3163.850;  195.675;    0.000
399.407; 3232.850;  214.675;    0.000
399.463; 3201.850;  181.675;    0.000
399.520; 3238.850;  168.675;    0.000
399.577; 3328.850;  231.675;    0.000
399.634; 3310.850;  215.675;    0.000
399.690; 3341.850;  177.675;    0.000
399.747; 3349.850;  212.675;    0.000
399.804; 3244.850;  208.675;    0.000
399.861; 3295.850;  225.675;    0.000
399.917; 3166.850;  191.675;    0.000
399.974; 3189.850;  182.675;    0.000
400.031; 3181.850;  218.675;    0.000
400.087; 3101.850;  202.675;    0.000
400.144; 3152.850;  192.675;    0.000
400.201; 3072.850;  187.675;    0.000
400.257; 3021.850;  193.675;    0.000
400.314; 3141.850;  185.675;    0.000
400.370; 3087.850;  201.675;    0.000
400.427; 3027.850;  208.675;    0.000
400.484; 2959.850;  201.675;    0.000
400.540; 2917.850;  204.675;    0.000
400.597; 2971.850;  210.675;    0.000
400.653; 2978.850;  224.675;    0.000
400.710; 2882.850;  196.675;    0.000
400.766; 2900.850;  224.675;    0.000
400.823; 2865.850;  210.675;    0.000
400.879; 2918.850;  213.675;    0.000
400.936; 2870.850;  182.675;    0.000
400.993; 2916.850;  184.675;    0.000
401.049; 2835.850;  216.675;    0.000
401.105; 2919.850;  235.675;    0.000
401.162; 2826.850;  196.675;    0.000
401.218; 2856.850;  221.675;    0.000
401.275; 2819.850;  216.675;    0.000
401.331; 2910.850;  198.675;    0.000
401.388; 2892.850;  205.675;    0.000
401.444; 2896.850;  154.675;    0.000
401.501; 2897.850;  208.675;    0.000
401.557; 2900.850;  162.675;    0.000
401.614; 2874.850;  157.675;    0.000
401.670; 2935.850;  198.675;    0.000
401.726; 2931.850;  195.675;    0.000
401.783; 2863.850;  186.675;    0.000
401.839; 2905.850;  205.675;    0.000
401.895; 2856.850;  202.675;    0.000
401.952; 2938.850;  143.675;    0.000
402.008; 2914.850;  177.675;    0.000
402.064; 2838.850;  177.675;    0.000
402.121; 2853.850;  194.675;    0.000
402.177; 2927.850;  181.675;    0.000
402.233; 3036.850;  205.675;    0.000
402.290; 2896.850;  190.675;    0.000
402.346; 2948.850;  190.675;    0.000
402.402; 2919.850;  151.675;    0.000
402.458; 2978.850;  194.675;    0.000
402.515; 2829.850;  212.675;    0.000
402.571; 2921.850;  209.675;    0.000
402.627; 2985.850;  199.675;    0.000
402.683; 3030.850;  213.675;    0.000
402.740; 3030.850;  165.675;    0.000
402.796; 2957.850;  168.675;    0.000
402.852; 3051.850;  200.675;    0.000
402.908; 3019.850;  193.675;    0.000
402.964; 2982.850;  166.675;    0.000
403.021; 2976.850;  196.675;    0.000
403.077; 3095.850;  212.675;    0.000
403.133; 2938.850;  186.675;    0.000
403.189; 3060.850;  206.675;    0.000
403.245; 3006.850;  207.675;    0.000
403.301; 3059.850;  204.675;    0.000
403.357; 3114.850;  246.675;    0.000
403.414; 3068.850;  227.675;    0.000
403.470; 3103.850;  207.675;    0.000
403.526; 3112.850;  171.675;    0.000
403.582; 3070.850;  200.675;    0.000
403.638; 3070.850;  213.675;    0.000
403.694; 3067.850;  239.675;    0.000
403.750; 3052.850;  221.675;    0.000
403.806; 3183.850;  197.675;    0.000
403.862; 3014.850;  222.675;    0.000
403.918; 3134.850;  174.675;    0.000
403.974; 3102.850;  183.675;    0.000
404.030; 3053.850;  184.675;    0.000
404.086; 3164.850;  170.675;    0.000
404.142; 3156.850;  215.675;    0.000
404.198; 3138.850;  189.675;    0.000
404.254; 3086.850;  195.675;    0.000
404.310; 3181.850;  206.675;    0.000
404.366; 3053.850;  179.675;    0.000
404.422; 3117.850;  197.675;    0.000
404.478; 3044.850;  176.675;    0.000
404.534; 3076.850;  165.675;    0.000
404.590; 3207.850;  203.675;    0.000
404.646; 3195.850;  195.675;    0.000
404.701; 3145.850;  180.675;    0.000
404.757; 3195.850;  218.675;    0.000
404.813; 3119.850;  160.675;    0.000
404.869; 3136.850;  213.675;    0.000
404.925; 3058.850;  171.675;    0.000
404.981; 3139.850;  194.675;    0.000
405.037; 3124.850;  211.675;    0.000
405.092; 3180.850;  158.675;    0.000
405.148; 3127.850;  140.675;    0.000
405.204; 3128.850;  161.675;    0.000
405.260; 3114.850;  161.675;    0.000
405.316; 3123.850;  155.675;    0.000
405.371; 3207.850;  151.675;    0.000
405.427; 3094.850;  186.675;    0.000
405.483; 3179.850;  206.675;    0.000
405.539; 3116.850;  162.675;    0.000
405.594; 3146.850;  205.675;    0.000
405.650; 3194.850;  153.675;    0.000
405.706; 3192.850;  185.675;    0.000
405.761; 3160.850;  205.675;    0.000
405.817; 3183.850;  185.675;    0.000
405.873; 3182.850;  160.675;    0.000
405.928; 3220.850;  182.675;    0.000
405.984; 3197.850;  206.675;    0.000
406.040; 3077.850;  200.675;    0.000
406.095; 3228.850;  138.675;    0.000
406.151; 3196.850;  178.675;    0.000
406.207; 3213.850;  225.675;    0.000
406.262; 3069.850;  161.675;    0.000
406.318; 3199.850;  186.675;    0.000
406.374; 3233.850;  173.675;    0.000
406.429; 3169.850;  197.675;    0.000
406.485; 3299.850;  260.675;    0.000
406.540; 3229.850;  184.675;    0.000
406.596; 3306.850;  193.675;    0.000
406.651; 3285.850;  176.675;    0.000
406.707; 3305.850;  158.675;    0.000
406.763; 3330.850;  174.675;    0.000
406.818; 3313.850;  188.675;    0.000
406.874; 3328.850;  176.675;    0.000
406.929; 3401.850;  220.675;    0.000
406.985; 3491.850;  167.675;    0.000
407.040; 3536.850;  191.675;    0.000
407.095; 3491.850;  190.675;    0.000
407.151; 3521.850;  196.675;    0.000
407.206; 3547.850;  184.675;    0.000
407.262; 3590.850;  167.675;    0.000
407.317; 3549.850;  199.675;    0.000
407.373; 3712.850;  211.675;    0.000
407.428; 3677.850;  202.675;    0.000
407.484; 3652.850;  172.675;    0.000
407.539; 3626.850;  171.675;    0.000
407.594; 3573.850;  219.675;    0.000
407.650; 3569.850;  179.675;    0.000
407.705; 3549.850;  141.675;    0.000
407.760; 3561.850;  182.675;    0.000
407.816; 3686.850;  203.675;    0.000
407.871; 3551.850;  219.675;    0.000
407.926; 3545.850;  197.675;    0.000
407.982; 3589.850;  176.675;    0.000
408.037; 3517.850;  187.675;    0.000
408.092; 3480.850;  161.675;    0.000
408.148; 3578.850;  185.675;    0.000
408.203; 3443.850;  196.675;    0.000
408.258; 3413.850;  188.675;    0.000
408.314; 3451.850;  225.675;    0.000
408.369; 3499.850;  172.675;    0.000
408.424; 3494.850;  204.675;    0.000
408.479; 3488.850;  182.675;    0.000
408.534; 3405.850;  220.675;    0.000
408.590; 3462.850;  196.675;    0.000
408.645; 3386.850;  170.675;    0.000
408.700; 3340.850;  204.675;    0.000
408.755; 3495.850;  219.675;    0.000
408.810; 3445.850;  174.675;    0.000
408.866; 3404.850;  212.675;    0.000
408.921; 3454.850;  233.675;    0.000
408.976; 3485.850;  198.675;    0.000
409.031; 3426.850;  179.675;    0.000
409.086; 3543.850;  181.675;    0.000
409.141; 3349.850;  192.675;    0.000
409.196; 3382.850;  172.675;    0.000
409.252; 3343.850;  199.675;    0.000
409.307; 3392.850;  159.675;    0.000
409.362; 3470.850;  158.675;    0.000
409.417; 3387.850;  164.675;    0.000
409.472; 3476.850;  186.675;    0.000
409.527; 3392.850;  215.675;    0.000
409.582; 3397.850;  227.675;    0.000
409.637; 3486.850;  211.675;    0.000
409.692; 3334.850;  224.675;    0.000
409.747; 3487.850;  147.675;    0.000
409.802; 3457.850;  203.675;    0.000
409.857; 3475.850;  203.675;    0.000
409.912; 3416.850;  219.675;    0.000
409.967; 3336.850;  200.675;    0.000
410.022; 3470.850;  199.675;    0.000
410.077; 3361.850;  171.675;    0.000
410.132; 3380.850;  193.675;    0.000
410.187; 3289.850;  167.675;    0.000
410.242; 3387.850;  188.675;    0.000
410.297; 3304.850;  195.675;    0.000
410.351; 3481.850;  225.675;    0.000
410.406; 3393.850;  188.675;    0.000
410.461; 3433.850;  197.675;    0.000
410.516; 3344.850;  212.675;    0.000
410.571; 3425.850;  173.675;    0.000
410.626; 3421.850;  180.675;    0.000
410.681; 3409.850;  198.675;    0.000
410.736; 3407.850;  190.675;    0.000
410.790; 3455.850;  204.675;    0.000
410.845; 3375.850;  214.675;    0.000
410.900; 3387.850;  184.675;    0.000
410.955; 3439.850;  231.675;    0.000
411.010; 3462.850;  211.675;    0.000
411.064; 3308.850;  204.675;    0.000
411.119; 3398.850;  219.675;    0.000
411.174; 3448.850;  208.675;    0.000
411.229; 3372.850;  207.675;    0.000
411.283; 3408.850;  199.675;    0.000
411.338; 3409.850;  198.675;    0.000
411.393; 3470.850;  155.675;    0.000
411.447; 3451.850;  200.675;    0.000
411.502; 3461.850;  229.675;    0.000
411.557; 3413.850;  197.675;    0.000
411.612; 3351.850;  171.675;    0.000
411.666; 3420.850;  201.675;    0.000
411.721; 3392.850;  174.675;    0.000
411.776; 3349.850;  222.675;    0.000
411.830; 3417.850;  150.675;    0.000
411.885; 3364.850;  169.675;    0.000
411.939; 3399.850;  216.675;    0.000
411.994; 3399.850;  215.675;    0.000
412.049; 3463.850;  219.675;    0.000
412.103; 3421.850;  225.675;    0.000
412.158; 3541.850;  216.675;    0.000
412.212; 3376.850;  218.675;    0.000
412.267; 3414.850;  219.675;    0.000
412.322; 3412.850;  235.675;    0.000
412.376; 3451.850;  208.675;    0.000
412.431; 3529.850;  232.675;    0.000
412.485; 3399.850;  223.675;    0.000
412.540; 3332.850;  217.675;    0.000
412.594; 3467.850;  195.675;    0.000
412.649; 3422.850;  236.675;    0.000
412.703; 3377.850;  216.675;    0.000
412.758; 3426.850;  201.675;    0.000
412.812; 3373.850;  176.675;    0.000
412.866; 3408.850;  179.675;    0.000
412.921; 3384.850;  196.675;    0.000
412.975; 3251.850;  238.675;    0.000
413.030; 3332.850;  272.675;    0.000
413.084; 3333.850;  208.675;    0.000
413.139; 3427.850;  201.675;    0.000
413.193; 3415.850;  198.675;    0.000
413.247; 3334.850;  213.675;    0.000
413.302; 3299.850;  202.675;    0.000
413.356; 3335.850;  184.675;    0.000
413.410; 3274.850;  202.675;    0.000
413.465; 3434.850;  145.675;    0.000
413.519; 3364.850;  200.675;    0.000
413.573; 3390.850;  197.675;    0.000
413.628; 3266.850;  224.675;    0.000
413.682; 3294.850;  211.675;    0.000
413.736; 3326.850;  202.675;    0.000
413.791; 3403.850;  228.675;    0.000
413.845; 3400.850;  184.675;    0.000
413.899; 3336.850;  226.675;    0.000
413.953; 3320.850;  213.675;    0.000
414.008; 3314.850;  175.675;    0.000
414.062; 3316.850;  216.675;    0.000
414.116; 3339.850;  206.675;    0.000
414.170; 3387.850;  229.675;    0.000
414.225; 3373.850;  196.675;    0.000
414.279; 3236.850;  199.675;    0.000
414.333; 3417.850;  220.675;    0.000
414.387; 3334.850;  217.675;    0.000
414.441; 3382.850;  206.675;    0.000
414.496; 3457.850;  264.675;    0.000
414.550; 3341.850;  217.675;    0.000
414.604; 3325.850;  224.675;    0.000
414.658; 3368.850;  156.675;    0.000
414.712; 3394.850;  203.675;    0.000
414.766; 3489.850;  216.675;    0.000
414.820; 3369.850;  218.675;    0.000
414.874; 3343.850;  240.675;    0.000
414.928; 3265.850;  204.675;    0.000
414.982; 3424.850;  195.675;    0.000
415.037; 3347.850;  212.675;    0.000
415.091; 3319.850;  211.675;    0.000
415.145; 3322.850;  230.675;    0.000
415.199; 3279.850;  208.675;    0.000
415.253; 3361.850;  213.675;    0.000
415.307; 3394.850;  208.675;    0.000
415.361; 3364.850;  193.675;    0.000
415.415; 3344.850;  207.675;    0.000
415.469; 3354.850;  214.675;    0.000
415.523; 3407.850;  226.675;    0.000
415.577; 3386.850;  194.675;    0.000
415.631; 3435.850;  258.675;    0.000
415.684; 3381.850;  239.675;    0.000
415.738; 3282.850;  191.675;    0.000
415.792; 3398.850;  185.675;    0.000
415.846; 3280.850;  239.675;    0.000
415.900; 3202.850;  209.675;    0.000
415.954; 3309.850;  215.675;    0.000
416.008; 3252.850;  229.675;    0.000
416.062; 3324.850;  200.675;    0.000
416.116; 3229.850;  195.675;    0.000
416.169; 3252.850;  238.675;    0.000
416.223; 3321.850;  271.675;    0.000
416.277; 3227.850;  232.675;    0.000
416.331; 3303.850;  226.675;    0.000
416.385; 3317.850;  207.675;    0.000
416.439; 3307.850;  221.675;    0.000
416.492; 3281.850;  269.675;    0.000
416.546; 3354.850;  254.675;    0.000
416.600; 3312.850;  225.675;    0.000
416.654; 3301.850;  269.675;    0.000
416.707; 3350.850;  232.675;    0.000
416.761; 3311.850;  226.675;    0.000
416.815; 3320.850;  219.675;    0.000
416.869; 3275.850;  234.675;    0.000
416.922; 3361.850;  230.675;    0.000
416.976; 3236.850;  216.675;    0.000
417.030; 3260.850;  271.675;    0.000
417.083; 3213.850;  229.675;    0.000
417.137; 3326.850;  249.675;    0.000
417.191; 3253.850;  241.675;    0.000
417.244; 3215.850;  230.675;    0.000
417.298; 3345.850;  215.675;    0.000
417.352; 3281.850;  188.675;    0.000
417.405; 3172.850;  248.675;    0.000
417.459; 3319.850;  256.675;    0.000
417.512; 3426.850;  263.675;    0.000
417.566; 3309.850;  227.675;    0.000
417.620; 3329.850;  270.675;    0.000
417.673; 3291.850;  216.675;    0.000
417.727; 3370.850;  234.675;    0.000
417.780; 3262.850;  215.675;    0.000
417.834; 3137.850;  203.675;    0.000
417.887; 3193.850;  257.675;    0.000
417.941; 3334.850;  216.675;    0.000
417.994; 3300.850;  245.675;    0.000
418.048; 3248.850;  209.675;    0.000
418.101; 3247.850;  207.675;    0.000
418.155; 3305.850;  204.675;    0.000
418.208; 3306.850;  270.675;    0.000
418.262; 3293.850;  228.675;    0.000
418.315; 3187.850;  254.675;    0.000
418.369; 3268.850;  245.675;    0.000
418.422; 3339.850;  224.675;    0.000
418.476; 3350.850;  221.675;    0.000
418.529; 3317.850;  234.675;    0.000
418.582; 3298.850;  249.675;    0.000
418.636; 3327.850;  224.675;    0.000
418.689; 3350.850;  228.675;    0.000
418.743; 3416.850;  240.675;    0.000
418.796; 3363.850;  197.675;    0.000
418.849; 3448.850;  220.675;    0.000
418.903; 3370.850;  246.675;    0.000
418.956; 3366.850;  250.675;    0.000
419.009; 3443.850;  276.675;    0.000
419.063; 3402.850;  232.675;    0.000
419.116; 3249.850;  228.675;    0.000
419.169; 3328.850;  249.675;    0.000
419.222; 3340.850;  215.675;    0.000
419.276; 3416.850;  228.675;    0.000
419.329; 3320.850;  246.675;    0.000
419.382; 3311.850;  188.675;    0.000
419.435; 3311.850;  240.675;    0.000
419.489; 3259.850;  261.675;    0.000
419.542; 3363.850;  224.675;    0.000
419.595; 3311.850;  251.675;    0.000
419.648; 3300.850;  236.675;    0.000
419.701; 3368.850;  244.675;    0.000
419.755; 3204.850;  242.675;    0.000
419.808; 3348.850;  242.675;    0.000
419.861; 3266.850;  189.675;    0.000
419.914; 3291.850;  258.675;    0.000
419.967; 3301.850;  230.675;    0.000
420.020; 3219.850;  223.675;    0.000
420.073; 3215.850;  221.675;    0.000
420.127; 3228.850;  252.675;    0.000
420.180; 3218.850;  219.675;    0.000
420.233; 3253.850;  201.675;    0.000
420.286; 3226.850;  221.675;    0.000
420.339; 3230.850;  250.675;    0.000
420.392; 3127.850;  268.675;    0.000
420.445; 3224.850;  223.675;    0.000
420.498; 3241.850;  240.675;    0.000
420.551; 3114.850;  220.675;    0.000
420.604; 3270.850;  231.675;    0.000
420.657; 3226.850;  228.675;    0.000
420.710; 3241.850;  219.675;    0.000
420.763; 3133.850;  280.675;    0.000
420.816; 3126.850;  202.675;    0.000
420.869; 3154.850;  219.675;    0.000
420.922; 3102.850;  218.675;    0.000
420.975; 3273.850;  237.675;    0.000
421.028; 3151.850;  242.675;    0.000
421.081; 3306.850;  247.675;    0.000
421.134; 3168.850;  239.675;    0.000
421.187; 3236.850;  229.675;    0.000
421.239; 3217.850;  200.675;    0.000
421.292; 3088.850;  205.675;    0.000
421.345; 3196.850;  219.675;    0.000
421.398; 3227.850;  187.675;    0.000
421.451; 3183.850;  226.675;    0.000
421.504; 3073.850;  206.675;    0.000
421.557; 3155.850;  226.675;    0.000
421.609; 3187.850;  209.675;    0.000
421.662; 3162.850;  229.675;    0.000
421.715; 3124.850;  231.675;    0.000
421.768; 3143.850;  215.675;    0.000
421.821; 3094.850;  211.675;    0.000
421.873; 3166.850;  220.675;    0.000
421.926; 3030.850;  212.675;    0.000
421.979; 3161.850;  209.675;    0.000
422.032; 3114.850;  203.675;    0.000
422.084; 3138.850;  213.675;    0.000
422.137; 3102.850;  196.675;    0.000
422.190; 3264.850;  246.675;    0.000
422.243; 3061.850;  194.675;    0.000
422.295; 3120.850;  225.675;    0.000
422.348; 3222.850;  248.675;    0.000
422.401; 3202.850;  252.675;    0.000
422.453; 3137.850;  249.675;    0.000
422.506; 3217.850;  233.675;    0.000
422.559; 2999.850;  228.675;    0.000
422.611; 3238.850;  224.675;    0.000
422.664; 3428.850;  226.675;    0.000
422.716; 3481.850;  226.675;    0.000
422.769; 3241.850;  216.675;    0.000
422.822; 3078.850;  256.675;    0.000
422.874; 3074.850;  206.675;    0.000
422.927; 3101.850;  257.675;    0.000
422.979; 3077.850;  209.675;    0.000
423.032; 3103.850;  244.675;    0.000
423.084; 3008.850;  244.675;    0.000
423.137; 2990.850;  213.675;    0.000
423.189; 3073.850;  208.675;    0.000
423.242; 3085.850;  226.675;    0.000
423.294; 3094.850;  250.675;    0.000
423.347; 3155.850;  206.675;    0.000
423.399; 3142.850;  268.675;    0.000
423.452; 3059.850;  262.675;    0.000
423.504; 3079.850;  237.675;    0.000
423.557; 3106.850;  245.675;    0.000
423.609; 3172.850;  211.675;    0.000
423.662; 3082.850;  222.675;    0.000
423.714; 3096.850;  219.675;    0.000
423.766; 3098.850;  250.675;    0.000
423.819; 3052.850;  220.675;    0.000
423.871; 3063.850;  229.675;    0.000
423.923; 3058.850;  219.675;    0.000
423.976; 3143.850;  221.675;    0.000
424.028; 2958.850;  211.675;    0.000
424.081; 3049.850;  254.675;    0.000
424.133; 3114.850;  230.675;    0.000
424.185; 3064.850;  241.675;    0.000
424.238; 3148.850;  182.675;    0.000
424.290; 3018.850;  215.675;    0.000
424.342; 2995.850;  235.675;    0.000
424.394; 3036.850;  225.675;    0.000
424.447; 3005.850;  264.675;    0.000
424.499; 3107.850;  225.675;    0.000
424.551; 2974.850;  237.675;    0.000
424.603; 3064.850;  219.675;    0.000
424.656; 3057.850;  240.675;    0.000
424.708; 3057.850;  266.675;    0.000
424.760; 3010.850;  230.675;    0.000
424.812; 3024.850;  284.675;    0.000
424.864; 2935.850;  189.675;    0.000
424.917; 2979.850;  226.675;    0.000
424.969; 3099.850;  253.675;    0.000
425.021; 2982.850;  233.675;    0.000
425.073; 3025.850;  246.675;    0.000
425.125; 3134.850;  238.675;    0.000
425.177; 2984.850;  253.675;    0.000
425.229; 3042.850;  254.675;    0.000
425.282; 3008.850;  252.675;    0.000
425.334; 2931.850;  261.675;    0.000
425.386; 3064.850;  227.675;    0.000
425.438; 3029.850;  246.675;    0.000
425.490; 3002.850;  249.675;    0.000
425.542; 2909.850;  236.675;    0.000
425.594; 2910.850;  236.675;    0.000
425.646; 3013.850;  237.675;    0.000
425.698; 2927.850;  271.675;    0.000
425.750; 3020.850;  240.675;    0.000
425.802; 2971.850;  238.675;    0.000
425.854; 2926.850;  256.675;    0.000
425.906; 2943.850;  230.675;    0.000
425.958; 3056.850;  231.675;    0.000
426.010; 2919.850;  268.675;    0.000
426.062; 3000.850;  227.675;    0.000
426.114; 2938.850;  234.675;    0.000
426.166; 2972.850;  239.675;    0.000
426.218; 2879.850;  255.675;    0.000
426.270; 2924.850;  196.675;    0.000
426.321; 2859.850;  231.675;    0.000
426.373; 2914.850;  199.675;    0.000
426.425; 2835.850;  245.675;    0.000
426.477; 2854.850;  259.675;    0.000
426.529; 2979.850;  274.675;    0.000
426.581; 2940.850;  221.675;    0.000
426.633; 2816.850;  231.675;    0.000
426.684; 2856.850;  248.675;    0.000
426.736; 2810.850;  237.675;    0.000
426.788; 2810.850;  191.675;    0.000
426.840; 2939.850;  180.675;    0.000
426.892; 2899.850;  259.675;    0.000
426.943; 2763.850;  256.675;    0.000
426.995; 2892.850;  212.675;    0.000
427.047; 2866.850;  233.675;    0.000
427.099; 2862.850;  222.675;    0.000
427.150; 2880.850;  203.675;    0.000
427.202; 2842.850;  218.675;    0.000
427.254; 2803.850;  198.675;    0.000
427.306; 2814.850;  248.675;    0.000
427.357; 2810.850;  239.675;    0.000
427.409; 2855.850;  193.675;    0.000
427.461; 2734.850;  215.675;    0.000
427.512; 2804.850;  251.675;    0.000
427.564; 2726.850;  210.675;    0.000
427.616; 2764.850;  251.675;    0.000
427.667; 2812.850;  246.675;    0.000
427.719; 2770.850;  227.675;    0.000
427.770; 2695.850;  247.675;    0.000
427.822; 2822.850;  261.675;    0.000
427.874; 2735.850;  231.675;    0.000
427.925; 2803.850;  231.675;    0.000
427.977; 2726.850;  243.675;    0.000
428.028; 2744.850;  249.675;    0.000
428.080; 2824.850;  224.675;    0.000
428.131; 2850.850;  247.675;    0.000
428.183; 2788.850;  213.675;    0.000
428.234; 2828.850;  213.675;    0.000
428.286; 2725.850;  224.675;    0.000
428.337; 2757.850;  212.675;    0.000
428.389; 2684.850;  231.675;    0.000
428.440; 2759.850;  248.675;    0.000
428.492; 2713.850;  242.675;    0.000
428.543; 2721.850;  220.675;    0.000
428.595; 2737.850;  212.675;    0.000
428.646; 2683.850;  231.675;    0.000
428.697; 2744.850;  232.675;    0.000
428.749; 2783.850;  231.675;    0.000
428.800; 2697.850;  270.675;    0.000
428.852; 2809.850;  266.675;    0.000
428.903; 2678.850;  215.675;    0.000
428.954; 2839.850;  200.675;    0.000
429.006; 2700.850;  247.675;    0.000
429.057; 2689.850;  247.675;    0.000
429.108; 2673.850;  193.675;    0.000
429.160; 2722.850;  249.675;    0.000
429.211; 2658.850;  228.675;    0.000
429.262; 2577.850;  243.675;    0.000
429.314; 2713.850;  227.675;    0.000
429.365; 2601.850;  242.675;    0.000
429.416; 2662.850;  240.675;    0.000
429.467; 2640.850;  222.675;    0.000
429.519; 2729.850;  233.675;    0.000
429.570; 2651.850;  223.675;    0.000
429.621; 2649.850;  257.675;    0.000
429.672; 2684.850;  220.675;    0.000
429.724; 2583.850;  203.675;    0.000
429.775; 2727.850;  242.675;    0.000
429.826; 2680.850;  195.675;    0.000
429.877; 2763.850;  248.675;    0.000
429.928; 2651.850;  226.675;    0.000
429.980; 2648.850;  189.675;    0.000
430.031; 2652.850;  223.675;    0.000
430.082; 2611.850;  217.675;    0.000
430.133; 2540.850;  210.675;    0.000
430.184; 2610.850;  271.675;    0.000
430.235; 2739.850;  190.675;    0.000
430.286; 2675.850;  233.675;    0.000
430.337; 2554.850;  232.675;    0.000
430.388; 2645.850;  221.675;    0.000
430.439; 2666.850;  221.675;    0.000
430.490; 2542.850;  229.675;    0.000
430.542; 2562.850;  196.675;    0.000
430.593; 2640.850;  214.675;    0.000
430.644; 2541.850;  224.675;    0.000
430.695; 2544.850;  216.675;    0.000
430.746; 2620.850;  228.675;    0.000
430.797; 2732.850;  190.675;    0.000
430.848; 2689.850;  231.675;    0.000
430.898; 2579.850;  232.675;    0.000
430.949; 2637.850;  224.675;    0.000
431.000; 2633.850;  236.675;    0.000
431.051; 2753.850;  251.675;    0.000
431.102; 2657.850;  205.675;    0.000
431.153; 2594.850;  212.675;    0.000
431.204; 2589.850;  200.675;    0.000
431.255; 2549.850;  220.675;    0.000
431.306; 2687.850;  223.675;    0.000
431.357; 2653.850;  240.675;    0.000
431.408; 2694.850;  232.675;    0.000
431.458; 2561.850;  204.675;    0.000
431.509; 2655.850;  196.675;    0.000
431.560; 2700.850;  243.675;    0.000
431.611; 2605.850;  222.675;    0.000
431.662; 2706.850;  246.675;    0.000
431.713; 2603.850;  188.675;    0.000
431.763; 2606.850;  226.675;    0.000
431.814; 2695.850;  239.675;    0.000
431.865; 2653.850;  245.675;    0.000
431.916; 2636.850;  173.675;    0.000
431.966; 2652.850;  220.675;    0.000
432.017; 2690.850;  247.675;    0.000
432.068; 2632.850;  241.675;    0.000
432.118; 2637.850;  220.675;    0.000
432.169; 2683.850;  244.675;    0.000
432.220; 2673.850;  246.675;    0.000
432.271; 2654.850;  203.675;    0.000
432.321; 2601.850;  244.675;    0.000
432.372; 2629.850;  254.675;    0.000
432.423; 2580.850;  224.675;    0.000
432.473; 2617.850;  211.675;    0.000
432.524; 2630.850;  227.675;    0.000
432.574; 2559.850;  228.675;    0.000
432.625; 2567.850;  223.675;    0.000
432.676; 2615.850;  220.675;    0.000
432.726; 2577.850;  257.675;    0.000
432.777; 2552.850;  257.675;    0.000
432.827; 2542.850;  240.675;    0.000
432.878; 2574.850;  219.675;    0.000
432.928; 2576.850;  234.675;    0.000
432.979; 2583.850;  226.675;    0.000
433.029; 2539.850;  216.675;    0.000
433.080; 2526.850;  232.675;    0.000
433.130; 2502.850;  257.675;    0.000
433.181; 2633.850;  243.675;    0.000
433.231; 2612.850;  239.675;    0.000
433.282; 2576.850;  232.675;    0.000
433.332; 2616.850;  256.675;    0.000
433.383; 2622.850;  268.675;    0.000
433.433; 2659.850;  291.675;    0.000
433.484; 2689.850;  263.675;    0.000
433.534; 2663.850;  248.675;    0.000
433.585; 2637.850;  244.675;    0.000
433.635; 2570.850;  242.675;    0.000
433.685; 2598.850;  243.675;    0.000
433.736; 2563.850;  283.675;    0.000
433.786; 2616.850;  264.675;    0.000
433.836; 2731.850;  282.675;    0.000
433.887; 2562.850;  265.675;    0.000
433.937; 2600.850;  255.675;    0.000
433.987; 2458.850;  245.675;    0.000
434.038; 2565.850;  276.675;    0.000
434.088; 2648.850;  249.675;    0.000
434.138; 2576.850;  260.675;    0.000
434.189; 2607.850;  241.675;    0.000
434.239; 2540.850;  232.675;    0.000
434.289; 2711.850;  272.675;    0.000
434.339; 2631.850;  288.675;    0.000
434.389; 2647.850;  258.675;    0.000
434.440; 2620.850;  244.675;    0.000
434.490; 2779.850;  288.675;    0.000
434.540; 2722.850;  252.675;    0.000
434.590; 2684.850;  256.675;    0.000
434.640; 2616.850;  259.675;    0.000
434.691; 2719.850;  220.675;    0.000
434.741; 2714.850;  238.675;    0.000
434.791; 2724.850;  276.675;    0.000
434.841; 2719.850;  256.675;    0.000
434.891; 2711.850;  297.675;    0.000
434.941; 2708.850;  290.675;    0.000
434.991; 2716.850;  261.675;    0.000
435.042; 2621.850;  300.675;    0.000
435.092; 2732.850;  248.675;    0.000
435.142; 2618.850;  246.675;    0.000
435.192; 2697.850;  201.675;    0.000
435.242; 2663.850;  234.675;    0.000
435.292; 2627.850;  266.675;    0.000
435.342; 2649.850;  250.675;    0.000
435.392; 2570.850;  279.675;    0.000
435.442; 2561.850;  242.675;    0.000
435.492; 2626.850;  265.675;    0.000
435.542; 2630.850;  243.675;    0.000
435.592; 2569.850;  243.675;    0.000
435.642; 2664.850;  241.675;    0.000
435.692; 2605.850;  263.675;    0.000
435.742; 2498.850;  264.675;    0.000
435.792; 2516.850;  291.675;    0.000
435.842; 2455.850;  257.675;    0.000
435.891; 2429.850;  224.675;    0.000
435.941; 2473.850;  243.675;    0.000
435.991; 2500.850;  300.675;    0.000
436.041; 2505.850;  197.675;    0.000
436.091; 2446.850;  238.675;    0.000
436.141; 2483.850;  222.675;    0.000
436.191; 2493.850;  249.675;    0.000
436.241; 2523.850;  208.675;    0.000
436.290; 2545.850;  282.675;    0.000
436.340; 2410.850;  233.675;    0.000
436.390; 2476.850;  223.675;    0.000
436.440; 2445.850;  252.675;    0.000
436.490; 2448.850;  254.675;    0.000
436.539; 2483.850;  271.675;    0.000
436.589; 2526.850;  248.675;    0.000
436.639; 2505.850;  235.675;    0.000
436.689; 2389.850;  238.675;    0.000
436.738; 2471.850;  267.675;    0.000
436.788; 2534.850;  239.675;    0.000
436.838; 2518.850;  244.675;    0.000
436.887; 2425.850;  265.675;    0.000
436.937; 2479.850;  261.675;    0.000
436.987; 2370.850;  235.675;    0.000
437.036; 2448.850;  267.675;    0.000
437.086; 2410.850;  258.675;    0.000
437.136; 2441.850;  250.675;    0.000
437.185; 2398.850;  214.675;    0.000
437.235; 2526.850;  257.675;    0.000
437.285; 2413.850;  259.675;    0.000
437.334; 2460.850;  241.675;    0.000
437.384; 2439.850;  231.675;    0.000
437.433; 2458.850;  239.675;    0.000
437.483; 2362.850;  260.675;    0.000
437.532; 2437.850;  277.675;    0.000
437.582; 2467.850;  268.675;    0.000
437.631; 2414.850;  239.675;    0.000
437.681; 2402.850;  251.675;    0.000
437.730; 2404.850;  246.675;    0.000
437.780; 2347.850;  226.675;    0.000
437.829; 2496.850;  256.675;    0.000
437.879; 2386.850;  239.675;    0.000
437.928; 2326.850;  253.675;    0.000
437.978; 2383.850;  245.675;    0.000
438.027; 2432.850;  277.675;    0.000
438.077; 2345.850;  248.675;    0.000
438.126; 2352.850;  201.675;    0.000
438.176; 2356.850;  220.675;    0.000
438.225; 2334.850;  250.675;    0.000
438.274; 2315.850;  234.675;    0.000
438.324; 2457.850;  276.675;    0.000
438.373; 2341.850;  226.675;    0.000
438.422; 2359.850;  228.675;    0.000
438.472; 2340.850;  225.675;    0.000
438.521; 2270.850;  227.675;    0.000
438.570; 2319.850;  242.675;    0.000
438.620; 2383.850;  277.675;    0.000
438.669; 2436.850;  256.675;    0.000
438.718; 2385.850;  248.675;    0.000
438.768; 2350.850;  225.675;    0.000
438.817; 2366.850;  229.675;    0.000
438.866; 2376.850;  218.675;    0.000
438.915; 2359.850;  256.675;    0.000
438.965; 2319.850;  242.675;    0.000
439.014; 2420.850;  260.675;    0.000
439.063; 2390.850;  238.675;    0.000
439.112; 2335.850;  209.675;    0.000
439.162; 2366.850;  258.675;    0.000
439.211; 2390.850;  275.675;    0.000
439.260; 2361.850;  238.675;    0.000
439.309; 2342.850;  237.675;    0.000
439.358; 2418.850;  252.675;    0.000
439.407; 2356.850;  239.675;    0.000
439.456; 2354.850;  211.675;    0.000
439.506; 2393.850;  261.675;    0.000
439.555; 2412.850;  274.675;    0.000
439.604; 2350.850;  262.675;    0.000
439.653; 2413.850;  245.675;    0.000
439.702; 2350.850;  247.675;    0.000
439.751; 2307.850;  228.675;    0.000
439.800; 2379.850;  253.675;    0.000
439.849; 2396.850;  219.675;    0.000
439.898; 2327.850;  246.675;    0.000
439.947; 2324.850;  229.675;    0.000
439.996; 2332.850;  274.675;    0.000
440.045; 2408.850;  224.675;    0.000
440.094; 2333.850;  225.675;    0.000
440.143; 2320.850;  277.675;    0.000
440.192; 2413.850;  252.675;    0.000
440.241; 2399.850;  253.675;    0.000
440.290; 2393.850;  242.675;    0.000
440.339; 2259.850;  220.675;    0.000
440.388; 2417.850;  244.675;    0.000
440.437; 2421.850;  268.675;    0.000
440.486; 2456.850;  242.675;    0.000
440.535; 2389.850;  269.675;    0.000
440.583; 2438.850;  258.675;    0.000
440.632; 2381.850;  286.675;    0.000
440.681; 2265.850;  238.675;    0.000
440.730; 2513.850;  271.675;    0.000
440.779; 2479.850;  226.675;    0.000
440.828; 2396.850;  213.675;    0.000
440.876; 2383.850;  207.675;    0.000
440.925; 2375.850;  247.675;    0.000
440.974; 2457.850;  229.675;    0.000
441.023; 2522.850;  227.675;    0.000
441.072; 2473.850;  222.675;    0.000
441.120; 2442.850;  273.675;    0.000
441.169; 2484.850;  263.675;    0.000
441.218; 2493.850;  264.675;    0.000
441.267; 2540.850;  287.675;    0.000
441.315; 2499.850;  251.675;    0.000
441.364; 2508.850;  252.675;    0.000
441.413; 2439.850;  227.675;    0.000
441.461; 2511.850;  198.675;    0.000
441.510; 2485.850;  273.675;    0.000
441.559; 2542.850;  245.675;    0.000
441.607; 2441.850;  218.675;    0.000
441.656; 2590.850;  261.675;    0.000
441.705; 2508.850;  259.675;    0.000
441.753; 2541.850;  272.675;    0.000
441.802; 2502.850;  246.675;    0.000
441.850; 2515.850;  255.675;    0.000
441.899; 2512.850;  236.675;    0.000
441.948; 2523.850;  267.675;    0.000
441.996; 2457.850;  246.675;    0.000
442.045; 2528.850;  279.675;    0.000
442.093; 2472.850;  251.675;    0.000
442.142; 2491.850;  274.675;    0.000
442.190; 2518.850;  279.675;    0.000
442.239; 2451.850;  295.675;    0.000
442.287; 2489.850;  229.675;    0.000
442.336; 2503.850;  265.675;    0.000
442.384; 2374.850;  219.675;    0.000
442.433; 2488.850;  287.675;    0.000
442.481; 2474.850;  271.675;    0.000
442.529; 2441.850;  262.675;    0.000
442.578; 2472.850;  282.675;    0.000
442.626; 2472.850;  245.675;    0.000
442.675; 2543.850;  283.675;    0.000
442.723; 2466.850;  247.675;    0.000
442.771; 2487.850;  221.675;    0.000
442.820; 2513.850;  253.675;    0.000
442.868; 2365.850;  204.675;    0.000
442.917; 2458.850;  263.675;    0.000
442.965; 2504.850;  255.675;    0.000
443.013; 2444.850;  282.675;    0.000
443.062; 2447.850;  258.675;    0.000
443.110; 2413.850;  268.675;    0.000
443.158; 2474.850;  247.675;    0.000
443.206; 2463.850;  243.675;    0.000
443.255; 2575.850;  271.675;    0.000
443.303; 2542.850;  279.675;    0.000
443.351; 2479.850;  264.675;    0.000
443.399; 2436.850;  245.675;    0.000
443.448; 2456.850;  259.675;    0.000
443.496; 2536.850;  281.675;    0.000
443.544; 2500.850;  213.675;    0.000
443.592; 2550.850;  290.675;    0.000
443.640; 2537.850;  270.675;    0.000
443.689; 2559.850;  229.675;    0.000
443.737; 2599.850;  254.675;    0.000
443.785; 2491.850;  234.675;    0.000
443.833; 2530.850;  287.675;    0.000
443.881; 2487.850;  229.675;    0.000
443.929; 2594.850;  260.675;    0.000
443.977; 2492.850;  265.675;    0.000
444.025; 2588.850;  257.675;    0.000
444.074; 2496.850;  245.675;    0.000
444.122; 2604.850;  282.675;    0.000
444.170; 2612.850;  240.675;    0.000
444.218; 2587.850;  270.675;    0.000
444.266; 2609.850;  254.675;    0.000
444.314; 2675.850;  264.675;    0.000
444.362; 2705.850;  287.675;    0.000
444.410; 2613.850;  236.675;    0.000
444.458; 2746.850;  273.675;    0.000
444.506; 2683.850;  235.675;    0.000
444.554; 2754.850;  242.675;    0.000
444.602; 2721.850;  283.675;    0.000
444.650; 2731.850;  266.675;    0.000
444.698; 2780.850;  248.675;    0.000
444.746; 2598.850;  247.675;    0.000
444.793; 2672.850;  211.675;    0.000
444.841; 2775.850;  259.675;    0.000
444.889; 2788.850;  253.675;    0.000
444.937; 2705.850;  248.675;    0.000
444.985; 2720.850;  233.675;    0.000
445.033; 2715.850;  245.675;    0.000
445.081; 2690.850;  243.675;    0.000
445.129; 2615.850;  238.675;    0.000
445.176; 2601.850;  204.675;    0.000
445.224; 2613.850;  262.675;    0.000
445.272; 2610.850;  256.675;    0.000
445.320; 2632.850;  235.675;    0.000
445.368; 2570.850;  251.675;    0.000
445.415; 2615.850;  250.675;    0.000
445.463; 2597.850;  225.675;    0.000
445.511; 2668.850;  226.675;    0.000
445.559; 2615.850;  251.675;    0.000
445.606; 2550.850;  213.675;    0.000
445.654; 2522.850;  261.675;    0.000
445.702; 2561.850;  222.675;    0.000
445.749; 2551.850;  257.675;    0.000
445.797; 2530.850;  263.675;    0.000
445.845; 2562.850;  218.675;    0.000
445.892; 2582.850;  228.675;    0.000
445.940; 2559.850;  249.675;    0.000
445.988; 2484.850;  276.675;    0.000
446.035; 2590.850;  229.675;    0.000
446.083; 2566.850;  255.675;    0.000
446.130; 2422.850;  200.675;    0.000
446.178; 2558.850;  256.675;    0.000
446.226; 2567.850;  238.675;    0.000
446.273; 2622.850;  250.675;    0.000
446.321; 2524.850;  233.675;    0.000
446.368; 2492.850;  244.675;    0.000
446.416; 2498.850;  214.675;    0.000
446.463; 2516.850;  225.675;    0.000
446.511; 2552.850;  253.675;    0.000
446.558; 2491.850;  246.675;    0.000
446.606; 2613.850;  238.675;    0.000
446.653; 2582.850;  215.675;    0.000
446.701; 2675.850;  248.675;    0.000
446.748; 2663.850;  258.675;    0.000
446.796; 2632.850;  259.675;    0.000
446.843; 2665.850;  269.675;    0.000
446.891; 2570.850;  259.675;    0.000
446.938; 2600.850;  226.675;    0.000
446.985; 2588.850;  225.675;    0.000
447.033; 2647.850;  269.675;    0.000
447.080; 2513.850;  258.675;    0.000
447.128; 2616.850;  225.675;    0.000
447.175; 2707.850;  259.675;    0.000
447.222; 2657.850;  238.675;    0.000
447.270; 2776.850;  250.675;    0.000
447.317; 2621.850;  217.675;    0.000
447.364; 2647.850;  262.675;    0.000
447.411; 2810.850;  269.675;    0.000
447.459; 2777.850;  251.675;    0.000
447.506; 2757.850;  227.675;    0.000
447.553; 2769.850;  250.675;    0.000
447.601; 2860.850;  251.675;    0.000
447.648; 2800.850;  276.675;    0.000
447.695; 2867.850;  229.675;    0.000
447.742; 2829.850;  245.675;    0.000
447.789; 2923.850;  243.675;    0.000
447.837; 2987.850;  267.675;    0.000
447.884; 3023.850;  246.675;    0.000
447.931; 3064.850;  266.675;    0.000
447.978; 2977.850;  242.675;    0.000
448.025; 3028.850;  267.675;    0.000
448.072; 3088.850;  257.675;    0.000
448.120; 3072.850;  279.675;    0.000
448.167; 3145.850;  275.675;    0.000
448.214; 2981.850;  241.675;    0.000
448.261; 2965.850;  271.675;    0.000
448.308; 2929.850;  256.675;    0.000
448.355; 2983.850;  253.675;    0.000
448.402; 2835.850;  267.675;    0.000
448.449; 2879.850;  252.675;    0.000
448.496; 2757.850;  241.675;    0.000
448.543; 2811.850;  250.675;    0.000
448.590; 2738.850;  288.675;    0.000
448.637; 2752.850;  255.675;    0.000
448.684; 2732.850;  284.675;    0.000
448.731; 2691.850;  244.675;    0.000
448.778; 2732.850;  257.675;    0.000
448.825; 2706.850;  252.675;    0.000
448.872; 2489.850;  205.675;    0.000
448.919; 2531.850;  244.675;    0.000
448.966; 2646.850;  278.675;    0.000
449.013; 2571.850;  262.675;    0.000
449.060; 2634.850;  278.675;    0.000
449.107; 2585.850;  248.675;    0.000
449.154; 2532.850;  230.675;    0.000
449.200; 2516.850;  211.675;    0.000
449.247; 2556.850;  283.675;    0.000
449.294; 2480.850;  251.675;    0.000
449.341; 2593.850;  280.675;    0.000
449.388; 2403.850;  247.675;    0.000
449.435; 2475.850;  267.675;    0.000
449.481; 2471.850;  303.675;    0.000
449.528; 2435.850;  279.675;    0.000
449.575; 2365.850;  226.675;    0.000
449.622; 2436.850;  263.675;    0.000
449.668; 2416.850;  249.675;    0.000
449.715; 2390.850;  257.675;    0.000
449.762; 2356.850;  251.675;    0.000
449.809; 2397.850;  289.675;    0.000
449.855; 2399.850;  239.675;    0.000
449.902; 2415.850;  262.675;    0.000
449.949; 2410.850;  262.675;    0.000
449.995; 2453.850;  265.675;    0.000
450.042; 2447.850;  280.675;    0.000
450.089; 2476.850;  277.675;    0.000
450.135; 2378.850;  285.675;    0.000
450.182; 2362.850;  275.675;    0.000
450.229; 2471.850;  278.675;    0.000
450.275; 2368.850;  288.675;    0.000
450.322; 2317.850;  238.675;    0.000
450.368; 2308.850;  276.675;    0.000
450.415; 2386.850;  295.675;    0.000
450.462; 2350.850;  283.675;    0.000
450.508; 2371.850;  264.675;    0.000
450.555; 2409.850;  275.675;    0.000
450.601; 2299.850;  278.675;    0.000
450.648; 2330.850;  251.675;    0.000
450.694; 2326.850;  237.675;    0.000
450.741; 2370.850;  280.675;    0.000
450.787; 2317.850;  279.675;    0.000
450.834; 2336.850;  287.675;    0.000
450.880; 2400.850;  265.675;    0.000
450.927; 2342.850;  270.675;    0.000
450.973; 2370.850;  308.675;    0.000
451.019; 2283.850;  253.675;    0.000
451.066; 2313.850;  261.675;    0.000
451.112; 2399.850;  276.675;    0.000
451.159; 2294.850;  235.675;    0.000
451.205; 2292.850;  284.675;    0.000
451.251; 2318.850;  264.675;    0.000
451.298; 2227.850;  262.675;    0.000
451.344; 2402.850;  278.675;    0.000
451.390; 2362.850;  273.675;    0.000
451.437; 2267.850;  272.675;    0.000
451.483; 2366.850;  302.675;    0.000
451.529; 2334.850;  255.675;    0.000
451.576; 2350.850;  287.675;    0.000
451.622; 2228.850;  254.675;    0.000
451.668; 2312.850;  260.675;    0.000
451.714; 2298.850;  289.675;    0.000
451.761; 2276.850;  273.675;    0.000
451.807; 2242.850;  307.675;    0.000
451.853; 2207.850;  281.675;    0.000
451.899; 2311.850;  246.675;    0.000
451.945; 2282.850;  258.675;    0.000
451.992; 2275.850;  276.675;    0.000
452.038; 2226.850;  287.675;    0.000
452.084; 2258.850;  288.675;    0.000
452.130; 2360.850;  259.675;    0.000
452.176; 2228.850;  265.675;    0.000
452.222; 2220.850;  222.675;    0.000
452.268; 2232.850;  271.675;    0.000
452.315; 2220.850;  258.675;    0.000
452.361; 2255.850;  233.675;    0.000
452.407; 2285.850;  270.675;    0.000
452.453; 2257.850;  261.675;    0.000
452.499; 2261.850;  279.675;    0.000
452.545; 2233.850;  269.675;    0.000
452.591; 2292.850;  288.675;    0.000
452.637; 2227.850;  279.675;    0.000
452.683; 2259.850;  232.675;    0.000
452.729; 2201.850;  285.675;    0.000
452.775; 2297.850;  280.675;    0.000
452.821; 2235.850;  260.675;    0.000
452.867; 2220.850;  239.675;    0.000
452.913; 2262.850;  240.675;    0.000
452.959; 2221.850;  214.675;    0.000
453.005; 2217.850;  266.675;    0.000
453.051; 2208.850;  258.675;    0.000
453.097; 2173.850;  253.675;    0.000
453.142; 2246.850;  244.675;    0.000
453.188; 2187.850;  241.675;    0.000
453.234; 2219.850;  257.675;    0.000
453.280; 2253.850;  231.675;    0.000
453.326; 2285.850;  240.675;    0.000
453.372; 2182.850;  208.675;    0.000
453.418; 2172.850;  266.675;    0.000
453.463; 2196.850;  232.675;    0.000
453.509; 2187.850;  221.675;    0.000
453.555; 2197.850;  268.675;    0.000
453.601; 2132.850;  242.675;    0.000
453.647; 2219.850;  283.675;    0.000
453.692; 2175.850;  242.675;    0.000
453.738; 2196.850;  294.675;    0.000
453.784; 2183.850;  256.675;    0.000
453.829; 2165.850;  267.675;    0.000
453.875; 2180.850;  233.675;    0.000
453.921; 2178.850;  247.675;    0.000
453.967; 2195.850;  249.675;    0.000
454.012; 2180.850;  274.675;    0.000
454.058; 2203.850;  249.675;    0.000
454.104; 2173.850;  272.675;    0.000
454.149; 2210.850;  277.675;    0.000
454.195; 2142.850;  256.675;    0.000
454.240; 2207.850;  263.675;    0.000
454.286; 2170.850;  276.675;    0.000
454.332; 2235.850;  290.675;    0.000
454.377; 2188.850;  274.675;    0.000
454.423; 2204.850;  282.675;    0.000
454.468; 2188.850;  275.675;    0.000
454.514; 2188.850;  270.675;    0.000
454.559; 2180.850;  249.675;    0.000
454.605; 2177.850;  241.675;    0.000
454.650; 2185.850;  269.675;    0.000
454.696; 2167.850;  253.675;    0.000
454.741; 2185.850;  279.675;    0.000
454.787; 2193.850;  252.675;    0.000
454.832; 2139.850;  246.675;    0.000
454.878; 2209.850;  264.675;    0.000
454.923; 2116.850;  268.675;    0.000
454.969; 2203.850;  253.675;    0.000
455.014; 2241.850;  264.675;    0.000
455.060; 2212.850;  265.675;    0.000
455.105; 2143.850;  270.675;    0.000
455.150; 2251.850;  284.675;    0.000
455.196; 2208.850;  278.675;    0.000
455.241; 2247.850;  248.675;    0.000
455.286; 2193.850;  274.675;    0.000
455.332; 2144.850;  269.675;    0.000
455.377; 2114.850;  218.675;    0.000
455.422; 2175.850;  261.675;    0.000
455.468; 2194.850;  278.675;    0.000
455.513; 2213.850;  235.675;    0.000
455.558; 2073.850;  232.675;    0.000
455.604; 2184.850;  285.675;    0.000
455.649; 2152.850;  264.675;    0.000
455.694; 2186.850;  235.675;    0.000
455.739; 2165.850;  265.675;    0.000
455.785; 2189.850;  266.675;    0.000
455.830; 2217.850;  272.675;    0.000
455.875; 2145.850;  256.675;    0.000
455.920; 2184.850;  191.675;    0.000
455.965; 2153.850;  280.675;    0.000
456.010; 2137.850;  267.675;    0.000
456.056; 2185.850;  270.675;    0.000
456.101; 2109.850;  248.675;    0.000
456.146; 2171.850;  287.675;    0.000
456.191; 2173.850;  280.675;    0.000
456.236; 2177.850;  229.675;    0.000
456.281; 2151.850;  241.675;    0.000
456.326; 2097.850;  248.675;    0.000
456.371; 2144.850;  233.675;    0.000
456.416; 2219.850;  284.675;    0.000
456.461; 2175.850;  256.675;    0.000
456.507; 2190.850;  250.675;    0.000
456.552; 2183.850;  290.675;    0.000
456.597; 2183.850;  260.675;    0.000
456.642; 2156.850;  252.675;    0.000
456.687; 2130.850;  272.675;    0.000
456.732; 2212.850;  303.675;    0.000
456.776; 2128.850;  269.675;    0.000
456.821; 2226.850;  256.675;    0.000
456.866; 2161.850;  278.675;    0.000
456.911; 2132.850;  230.675;    0.000
456.956; 2233.850;  275.675;    0.000
457.001; 2281.850;  248.675;    0.000
457.046; 2160.850;  222.675;    0.000
457.091; 2105.850;  251.675;    0.000
457.136; 2199.850;  231.675;    0.000
457.181; 2225.850;  245.675;    0.000
457.225; 2289.850;  262.675;    0.000
457.270; 2241.850;  277.675;    0.000
457.315; 2245.850;  235.675;    0.000
457.360; 2172.850;  231.675;    0.000
457.405; 2221.850;  214.675;    0.000
457.450; 2255.850;  255.675;    0.000
457.494; 2263.850;  220.675;    0.000
457.539; 2225.850;  257.675;    0.000
457.584; 2197.850;  279.675;    0.000
457.629; 2143.850;  249.675;    0.000
457.673; 2248.850;  237.675;    0.000
457.718; 2262.850;  232.675;    0.000
457.763; 2225.850;  278.675;    0.000
457.807; 2325.850;  279.675;    0.000
457.852; 2276.850;  246.675;    0.000
457.897; 2297.850;  284.675;    0.000
457.941; 2306.850;  272.675;    0.000
457.986; 2265.850;  285.675;    0.000
458.031; 2157.850;  235.675;    0.000
458.075; 2253.850;  299.675;    0.000
458.120; 2259.850;  284.675;    0.000
458.165; 2168.850;  212.675;    0.000
458.209; 2257.850;  254.675;    0.000
458.254; 2267.850;  257.675;    0.000
458.298; 2265.850;  265.675;    0.000
458.343; 2344.850;  278.675;    0.000
458.387; 2341.850;  316.675;    0.000
458.432; 2291.850;  279.675;    0.000
458.476; 2302.850;  272.675;    0.000
458.521; 2361.850;  240.675;    0.000
458.565; 2375.850;  307.675;    0.000
458.610; 2337.850;  246.675;    0.000
458.654; 2352.850;  275.675;    0.000
458.699; 2418.850;  288.675;    0.000
458.743; 2411.850;  244.675;    0.000
458.788; 2400.850;  245.675;    0.000
458.832; 2367.850;  277.675;    0.000
458.877; 2393.850;  285.675;    0.000
458.921; 2350.850;  216.675;    0.000
458.965; 2392.850;  260.675;    0.000
459.010; 2489.850;  284.675;    0.000
459.054; 2458.850;  272.675;    0.000
459.099; 2443.850;  262.675;    0.000
459.143; 2400.850;  276.675;    0.000
459.187; 2453.850;  258.675;    0.000
459.231; 2433.850;  278.675;    0.000
459.276; 2436.850;  262.675;    0.000
459.320; 2480.850;  291.675;    0.000
459.364; 2443.850;  294.675;    0.000
459.409; 2527.850;  269.675;    0.000
459.453; 2459.850;  257.675;    0.000
459.497; 2477.850;  283.675;    0.000
459.541; 2521.850;  275.675;    0.000
459.586; 2514.850;  261.675;    0.000
459.630; 2516.850;  284.675;    0.000
459.674; 2444.850;  244.675;    0.000
459.718; 2503.850;  309.675;    0.000
459.762; 2549.850;  281.675;    0.000
459.807; 2516.850;  250.675;    0.000
459.851; 2479.850;  286.675;    0.000
459.895; 2531.850;  230.675;    0.000
459.939; 2506.850;  262.675;    0.000
459.983; 2553.850;  250.675;    0.000
460.027; 2621.850;  275.675;    0.000
460.071; 2574.850;  301.675;    0.000
460.115; 2572.850;  279.675;    0.000
460.159; 2606.850;  301.675;    0.000
460.204; 2635.850;  287.675;    0.000
460.248; 2561.850;  293.675;    0.000
460.292; 2644.850;  310.675;    0.000
460.336; 2603.850;  263.675;    0.000
460.380; 2610.850;  268.675;    0.000
460.424; 2610.850;  281.675;    0.000
460.468; 2655.850;  310.675;    0.000
460.512; 2639.850;  273.675;    0.000
460.556; 2672.850;  291.675;    0.000
460.599; 2632.850;  240.675;    0.000
460.643; 2628.850;  260.675;    0.000
460.687; 2600.850;  283.675;    0.000
460.731; 2664.850;  254.675;    0.000
460.775; 2609.850;  265.675;    0.000
460.819; 2625.850;  280.675;    0.000
460.863; 2643.850;  316.675;    0.000
460.907; 2587.850;  231.675;    0.000
460.951; 2587.850;  275.675;    0.000
460.995; 2631.850;  290.675;    0.000
461.038; 2645.850;  284.675;    0.000
461.082; 2656.850;  278.675;    0.000
461.126; 2614.850;  321.675;    0.000
461.170; 2612.850;  273.675;    0.000
461.214; 2576.850;  289.675;    0.000
461.257; 2719.850;  296.675;    0.000
461.301; 2713.850;  287.675;    0.000
461.345; 2662.850;  290.675;    0.000
461.389; 2579.850;  260.675;    0.000
461.432; 2657.850;  262.675;    0.000
461.476; 2620.850;  254.675;    0.000
461.520; 2627.850;  305.675;    0.000
461.563; 2738.850;  289.675;    0.000
461.607; 2662.850;  286.675;    0.000
461.651; 2629.850;  271.675;    0.000
461.694; 2661.850;  245.675;    0.000
461.738; 2608.850;  278.675;    0.000
461.782; 2604.850;  284.675;    0.000
461.825; 2670.850;  305.675;    0.000
461.869; 2691.850;  293.675;    0.000
461.913; 2691.850;  280.675;    0.000
461.956; 2753.850;  237.675;    0.000
462.000; 2675.850;  288.675;    0.000
462.043; 2738.850;  282.675;    0.000
462.087; 2752.850;  268.675;    0.000
462.130; 2872.850;  286.675;    0.000
462.174; 2809.850;  312.675;    0.000
462.217; 2844.850;  270.675;    0.000
462.261; 2820.850;  281.675;    0.000
462.304; 2759.850;  248.675;    0.000
462.348; 2813.850;  267.675;    0.000
462.391; 2737.850;  270.675;    0.000
462.435; 2867.850;  287.675;    0.000
462.478; 2765.850;  290.675;    0.000
462.522; 2858.850;  296.675;    0.000
462.565; 2911.850;  275.675;    0.000
462.608; 2979.850;  325.675;    0.000
462.652; 2874.850;  303.675;    0.000
462.695; 2939.850;  355.675;    0.000
462.739; 2968.850;  272.675;    0.000
462.782; 2974.850;  295.675;    0.000
462.825; 2906.850;  300.675;    0.000
462.869; 3066.850;  319.675;    0.000
462.912; 3142.850;  363.675;    0.000
462.955; 2973.850;  298.675;    0.000
462.998; 3104.850;  321.675;    0.000
463.042; 3168.850;  310.675;    0.000
463.085; 3146.850;  305.675;    0.000
463.128; 3178.850;  345.675;    0.000
463.172; 2949.850;  341.675;    0.000
463.215;  401.850;  300.675;    0.000
463.258;  311.850;  287.675;    0.000
463.301;  284.850;  290.675;    0.000
463.344;  328.850;  320.675;    0.000
463.388;  309.850;  340.675;    0.000
463.431;  281.850;  278.675;    0.000
463.474;  330.850;  353.675;    0.000
463.517;  289.850;  295.675;    0.000
463.560;  335.850;  328.675;    0.000
463.603;  305.850;  316.675;    0.000
463.646;  333.850;  295.675;    0.000
463.690;  326.850;  334.675;    0.000
463.733;  317.850;  343.675;    0.000
463.776;  308.850;  300.675;    0.000
463.819;  335.850;  368.675;    0.000
463.862;  293.850;  327.675;    0.000

