0 414.0
1 428.0
2 381.0
3 394.0
4 390.0
5 387.0
6 328.0
7 412.0
8 377.0
9 389.0
10 403.0
11 408.0
12 376.0
13 388.0
14 360.0
15 375.0
16 368.0
17 380.0
18 342.0
19 352.0
20 371.0
21 362.0
22 394.0
23 431.0
24 382.0
25 371.0
26 377.0
27 401.0
28 373.0
29 373.0
30 393.0
31 394.0
32 352.0
33 362.0
34 374.0
35 340.0
36 371.0
37 360.0
38 343.0
39 363.0
40 374.0
41 351.0
42 364.0
43 391.0
44 333.0
45 423.0
46 327.0
47 398.0
48 405.0
49 384.0
50 365.0
51 327.0
52 383.0
53 340.0
54 342.0
55 396.0
56 359.0
57 371.0
58 398.0
59 393.0
60 388.0
61 359.0
62 385.0
63 339.0
64 368.0
65 362.0
66 341.0
67 396.0
68 347.0
69 304.0
70 345.0
71 380.0
72 332.0
73 373.0
74 356.0
75 382.0
76 326.0
77 336.0
78 348.0
79 330.0
80 389.0
81 349.0
82 352.0
83 390.0
84 335.0
85 368.0
86 316.0
87 332.0
88 325.0
89 323.0
90 338.0
91 350.0
92 322.0
93 352.0
94 387.0
95 355.0
96 315.0
97 337.0
98 332.0
99 339.0
100 353.0
101 339.0
102 326.0
103 358.0
104 313.0
105 344.0
106 341.0
107 371.0
108 321.0
109 332.0
110 314.0
111 336.0
112 325.0
113 368.0
114 354.0
115 349.0
116 318.0
117 350.0
118 336.0
119 313.0
120 372.0
121 339.0
122 351.0
123 340.0
124 358.0
125 360.0
126 385.0
127 361.0
128 324.0
129 321.0
130 314.0
131 350.0
132 362.0
133 358.0
134 342.0
135 341.0
136 373.0
137 351.0
138 333.0
139 343.0
140 354.0
141 336.0
142 365.0
143 308.0
144 317.0
145 363.0
146 310.0
147 344.0
148 302.0
149 360.0
150 363.0
151 323.0
152 356.0
153 333.0
154 332.0
155 351.0
156 327.0
157 380.0
158 344.0
159 338.0
160 303.0
161 321.0
162 322.0
163 334.0
164 357.0
165 357.0
166 334.0
167 373.0
168 365.0
169 330.0
170 322.0
171 345.0
172 324.0
173 370.0
174 303.0
175 317.0
176 356.0
177 380.0
178 325.0
179 387.0
180 360.0
181 358.0
182 308.0
183 346.0
184 351.0
185 342.0
186 339.0
187 312.0
188 303.0
189 343.0
190 311.0
191 343.0
192 340.0
193 351.0
194 313.0
195 347.0
196 333.0
197 386.0
198 317.0
199 332.0
200 319.0
201 304.0
202 339.0
203 308.0
204 344.0
205 345.0
206 338.0
207 325.0
208 386.0
209 344.0
210 314.0
211 343.0
212 348.0
213 347.0
214 332.0
215 307.0
216 369.0
217 340.0
218 333.0
219 268.0
220 285.0
221 358.0
222 306.0
223 354.0
224 368.0
225 324.0
226 315.0
227 369.0
228 321.0
229 342.0
230 352.0
231 345.0
232 304.0
233 318.0
234 327.0
235 334.0
236 360.0
237 348.0
238 305.0
239 315.0
240 361.0
241 330.0
242 374.0
243 320.0
244 341.0
245 348.0
246 321.0
247 329.0
248 342.0
249 358.0
250 322.0
251 354.0
252 350.0
253 319.0
254 365.0
255 361.0
256 325.0
257 361.0
258 349.0
259 356.0
260 312.0
261 364.0
262 350.0
263 372.0
264 342.0
265 370.0
266 316.0
267 301.0
268 354.0
269 363.0
270 333.0
271 340.0
272 384.0
273 315.0
274 363.0
275 322.0
276 376.0
277 364.0
278 341.0
279 355.0
280 335.0
281 374.0
282 358.0
283 314.0
284 337.0
285 343.0
286 341.0
287 371.0
288 315.0
289 352.0
290 347.0
291 336.0
292 375.0
293 361.0
294 344.0
295 357.0
296 328.0
297 353.0
298 352.0
299 352.0
300 332.0
301 396.0
302 340.0
303 396.0
304 346.0
305 346.0
306 324.0
307 390.0
308 364.0
309 389.0
310 351.0
311 342.0
312 359.0
313 352.0
314 360.0
315 361.0
316 355.0
317 357.0
318 342.0
319 366.0
320 322.0
321 399.0
322 386.0
323 371.0
324 371.0
325 359.0
326 345.0
327 377.0
328 331.0
329 379.0
330 341.0
331 358.0
332 378.0
333 317.0
334 357.0
335 368.0
336 361.0
337 353.0
338 356.0
339 350.0
340 384.0
341 362.0
342 380.0
343 386.0
344 355.0
345 330.0
346 367.0
347 390.0
348 357.0
349 389.0
350 371.0
351 393.0
352 327.0
353 370.0
354 314.0
355 371.0
356 388.0
357 373.0
358 403.0
359 359.0
360 331.0
361 368.0
362 354.0
363 385.0
364 365.0
365 365.0
366 366.0
367 377.0
368 378.0
369 326.0
370 360.0
371 353.0
372 346.0
373 355.0
374 345.0
375 378.0
376 344.0
377 355.0
378 337.0
379 372.0
380 355.0
381 392.0
382 341.0
383 388.0
384 358.0
385 445.0
386 342.0
387 380.0
388 348.0
389 395.0
390 400.0
391 363.0
392 382.0
393 360.0
394 359.0
395 380.0
396 367.0
397 379.0
398 360.0
399 381.0
400 356.0
401 339.0
402 351.0
403 386.0
404 338.0
405 392.0
406 357.0
407 379.0
408 365.0
409 409.0
410 382.0
411 362.0
412 355.0
413 400.0
414 330.0
415 347.0
416 339.0
417 353.0
418 364.0
419 343.0
420 379.0
421 381.0
422 356.0
423 352.0
424 405.0
425 413.0
426 402.0
427 404.0
428 368.0
429 402.0
430 326.0
431 395.0
432 374.0
433 360.0
434 381.0
435 389.0
436 375.0
437 359.0
438 356.0
439 388.0
440 356.0
441 363.0
442 373.0
443 382.0
444 348.0
445 372.0
446 411.0
447 390.0
448 337.0
449 354.0
450 390.0
451 375.0
452 401.0
453 376.0
454 359.0
455 405.0
456 377.0
457 396.0
458 364.0
459 393.0
460 390.0
461 376.0
462 376.0
463 400.0
464 414.0
465 369.0
466 376.0
467 394.0
468 354.0
469 429.0
470 382.0
471 410.0
472 387.0
473 353.0
474 380.0
475 381.0
476 411.0
477 375.0
478 366.0
479 372.0
480 394.0
481 307.0
482 377.0
483 391.0
484 354.0
485 361.0
486 381.0
487 382.0
488 359.0
489 343.0
490 372.0
491 378.0
492 359.0
493 379.0
494 385.0
495 372.0
496 389.0
497 361.0
498 353.0
499 352.0
500 368.0
501 412.0
502 354.0
503 382.0
504 362.0
505 354.0
506 374.0
507 383.0
508 357.0
509 423.0
510 349.0
511 385.0
512 361.0
513 342.0
514 359.0
515 352.0
516 332.0
517 388.0
518 337.0
519 355.0
520 366.0
521 382.0
522 334.0
523 378.0
524 353.0
525 333.0
526 377.0
527 367.0
528 359.0
529 354.0
530 380.0
531 374.0
532 333.0
533 379.0
534 333.0
535 384.0
536 337.0
537 366.0
538 373.0
539 376.0
540 358.0
541 360.0
542 385.0
543 348.0
544 318.0
545 379.0
546 372.0
547 356.0
548 404.0
549 369.0
550 365.0
551 368.0
552 356.0
553 394.0
554 344.0
555 388.0
556 400.0
557 406.0
558 361.0
559 360.0
560 390.0
561 330.0
562 375.0
563 370.0
564 346.0
565 401.0
566 381.0
567 365.0
568 387.0
569 389.0
570 328.0
571 398.0
572 366.0
573 391.0
574 338.0
575 372.0
576 331.0
577 391.0
578 345.0
579 337.0
580 374.0
581 395.0
582 367.0
583 328.0
584 388.0
585 367.0
586 331.0
587 377.0
588 372.0
589 340.0
590 337.0
591 363.0
592 406.0
593 366.0
594 348.0
595 360.0
596 383.0
597 377.0
598 383.0
599 378.0
600 354.0
601 377.0
602 390.0
603 377.0
604 357.0
605 413.0
606 360.0
607 423.0
608 384.0
609 406.0
610 336.0
611 388.0
612 375.0
613 380.0
614 413.0
615 400.0
616 356.0
617 389.0
618 422.0
619 410.0
620 360.0
621 378.0
622 392.0
623 381.0
624 431.0
625 364.0
626 431.0
627 404.0
628 390.0
629 373.0
630 354.0
631 381.0
632 348.0
633 387.0
634 354.0
635 403.0
636 374.0
637 404.0
638 419.0
639 351.0
640 349.0
641 397.0
642 386.0
643 399.0
644 405.0
645 382.0
646 402.0
647 363.0
648 377.0
649 392.0
650 389.0
651 401.0
652 365.0
653 416.0
654 370.0
655 374.0
656 396.0
657 424.0
658 390.0
659 381.0
660 351.0
661 422.0
662 378.0
663 421.0
664 406.0
665 417.0
666 355.0
667 379.0
668 394.0
669 361.0
670 388.0
671 413.0
672 357.0
673 359.0
674 378.0
675 366.0
676 360.0
677 340.0
678 403.0
679 397.0
680 347.0
681 390.0
682 384.0
683 379.0
684 400.0
685 365.0
686 327.0
687 360.0
688 365.0
689 382.0
690 364.0
691 377.0
692 396.0
693 336.0
694 391.0
695 420.0
696 412.0
697 376.0
698 364.0
699 393.0
700 394.0
701 370.0
702 396.0
703 414.0
704 418.0
705 371.0
706 381.0
707 382.0
708 375.0
709 383.0
710 399.0
711 414.0
712 403.0
713 387.0
714 401.0
715 387.0
716 393.0
717 387.0
718 407.0
719 376.0
720 387.0
721 402.0
722 409.0
723 365.0
724 374.0
725 399.0
726 375.0
727 372.0
728 372.0
729 395.0
730 411.0
731 389.0
732 366.0
733 390.0
734 379.0
735 427.0
736 368.0
737 399.0
738 365.0
739 341.0
740 399.0
741 382.0
742 359.0
743 414.0
744 326.0
745 425.0
746 351.0
747 373.0
748 385.0
749 369.0
750 336.0
751 379.0
752 436.0
753 406.0
754 418.0
755 374.0
756 385.0
757 382.0
758 381.0
759 427.0
760 353.0
761 422.0
762 383.0
763 416.0
764 385.0
765 382.0
766 407.0
767 393.0
768 374.0
769 392.0
770 407.0
771 393.0
772 410.0
773 413.0
774 418.0
775 413.0
776 382.0
777 417.0
778 380.0
779 399.0
780 380.0
781 401.0
782 376.0
783 380.0
784 383.0
785 386.0
786 368.0
787 414.0
788 360.0
789 403.0
790 395.0
791 372.0
792 385.0
793 380.0
794 417.0
795 405.0
796 388.0
797 364.0
798 428.0
799 384.0
800 366.0
801 402.0
802 382.0
803 354.0
804 404.0
805 415.0
806 365.0
807 405.0
808 391.0
809 386.0
810 385.0
811 408.0
812 362.0
813 363.0
814 405.0
815 380.0
816 398.0
817 391.0
818 407.0
819 402.0
820 398.0
821 415.0
822 421.0
823 369.0
824 433.0
825 411.0
826 385.0
827 390.0
828 420.0
829 338.0
830 431.0
831 388.0
832 375.0
833 404.0
834 411.0
835 373.0
836 406.0
837 401.0
838 386.0
839 401.0
840 408.0
841 407.0
842 398.0
843 435.0
844 396.0
845 400.0
846 381.0
847 377.0
848 387.0
849 404.0
850 400.0
851 392.0
852 366.0
853 415.0
854 370.0
855 376.0
856 372.0
857 413.0
858 349.0
859 373.0
860 376.0
861 384.0
862 430.0
863 422.0
864 372.0
865 376.0
866 400.0
867 393.0
868 345.0
869 330.0
870 408.0
871 390.0
872 354.0
873 380.0
874 389.0
875 384.0
876 369.0
877 389.0
878 340.0
879 396.0
880 406.0
881 350.0
882 390.0
883 394.0
884 384.0
885 381.0
886 387.0
887 409.0
888 413.0
889 434.0
890 398.0
891 381.0
892 426.0
893 360.0
894 371.0
895 383.0
896 392.0
897 365.0
898 382.0
899 399.0
900 359.0
901 386.0
902 368.0
903 425.0
904 401.0
905 383.0
906 389.0
907 380.0
908 350.0
909 406.0
910 399.0
911 382.0
912 424.0
913 383.0
914 359.0
915 397.0
916 405.0
917 422.0
918 399.0
919 345.0
920 398.0
921 416.0
922 393.0
923 391.0
924 404.0
925 405.0
926 388.0
927 396.0
928 419.0
929 386.0
930 426.0
931 408.0
932 408.0
933 415.0
934 381.0
935 379.0
936 394.0
937 390.0
938 365.0
939 410.0
940 381.0
941 399.0
942 399.0
943 416.0
944 411.0
945 346.0
946 383.0
947 375.0
948 424.0
949 379.0
950 425.0
951 405.0
952 385.0
953 400.0
954 425.0
955 410.0
956 382.0
957 404.0
958 390.0
959 380.0
960 361.0
961 391.0
962 392.0
963 397.0
964 418.0
965 366.0
966 415.0
967 430.0
968 420.0
969 391.0
970 413.0
971 407.0
972 385.0
973 398.0
974 373.0
975 414.0
976 463.0
977 400.0
978 377.0
979 366.0
980 415.0
981 413.0
982 406.0
983 418.0
984 379.0
985 423.0
986 390.0
987 397.0
988 389.0
989 415.0
990 361.0
991 443.0
992 380.0
993 412.0
994 413.0
995 380.0
996 397.0
997 404.0
998 402.0
999 402.0
1000 392.0
1001 390.0
1002 420.0
1003 419.0
1004 411.0
1005 366.0
1006 369.0
1007 446.0
1008 431.0
1009 377.0
1010 381.0
1011 422.0
1012 391.0
1013 413.0
1014 404.0
1015 434.0
1016 405.0
1017 387.0
1018 406.0
1019 410.0
1020 417.0
1021 380.0
1022 399.0
1023 407.0
1024 369.0
1025 372.0
1026 390.0
1027 385.0
1028 421.0
1029 386.0
1030 390.0
1031 387.0
1032 388.0
1033 378.0
1034 389.0
1035 403.0
1036 381.0
1037 382.0
1038 423.0
1039 396.0
1040 439.0
1041 416.0
1042 441.0
1043 409.0
1044 366.0
1045 429.0
1046 406.0
1047 440.0
1048 390.0
1049 399.0
1050 418.0
1051 411.0
1052 448.0
1053 417.0
1054 393.0
1055 399.0
1056 389.0
1057 372.0
1058 400.0
1059 404.0
1060 375.0
1061 410.0
1062 398.0
1063 416.0
1064 410.0
1065 397.0
1066 405.0
1067 403.0
1068 392.0
1069 405.0
1070 412.0
1071 382.0
1072 445.0
1073 406.0
1074 412.0
1075 424.0
1076 433.0
1077 444.0
1078 455.0
1079 462.0
1080 420.0
1081 426.0
1082 424.0
1083 421.0
1084 429.0
1085 404.0
1086 423.0
1087 408.0
1088 386.0
1089 478.0
1090 430.0
1091 411.0
1092 404.0
1093 433.0
1094 431.0
1095 405.0
1096 405.0
1097 442.0
1098 384.0
1099 431.0
1100 444.0
1101 448.0
1102 379.0
1103 418.0
1104 421.0
1105 410.0
1106 416.0
1107 415.0
1108 389.0
1109 478.0
1110 449.0
1111 470.0
1112 449.0
1113 394.0
1114 405.0
1115 436.0
1116 419.0
1117 450.0
1118 403.0
1119 426.0
1120 414.0
1121 441.0
1122 405.0
1123 427.0
1124 471.0
1125 421.0
1126 406.0
1127 442.0
1128 417.0
1129 421.0
1130 408.0
1131 457.0
1132 409.0
1133 444.0
1134 432.0
1135 364.0
1136 456.0
1137 410.0
1138 414.0
1139 432.0
1140 476.0
1141 402.0
1142 427.0
1143 445.0
1144 432.0
1145 434.0
1146 437.0
1147 403.0
1148 434.0
1149 434.0
1150 431.0
1151 444.0
1152 437.0
1153 427.0
1154 399.0
1155 427.0
1156 394.0
1157 422.0
1158 387.0
1159 417.0
1160 429.0
1161 407.0
1162 417.0
1163 431.0
1164 408.0
1165 458.0
1166 409.0
1167 426.0
1168 423.0
1169 420.0
1170 419.0
1171 440.0
1172 407.0
1173 409.0
1174 436.0
1175 431.0
1176 420.0
1177 437.0
1178 442.0
1179 426.0
1180 475.0
1181 456.0
1182 420.0
1183 451.0
1184 411.0
1185 453.0
1186 388.0
1187 412.0
1188 401.0
1189 445.0
1190 426.0
1191 434.0
1192 426.0
1193 468.0
1194 448.0
1195 417.0
1196 431.0
1197 407.0
1198 414.0
1199 466.0
1200 458.0
1201 421.0
1202 425.0
1203 437.0
1204 425.0
1205 451.0
1206 444.0
1207 438.0
1208 408.0
1209 420.0
1210 471.0
1211 454.0
1212 421.0
1213 444.0
1214 436.0
1215 445.0
1216 465.0
1217 452.0
1218 464.0
1219 448.0
1220 432.0
1221 446.0
1222 462.0
1223 444.0
1224 420.0
1225 464.0
1226 423.0
1227 429.0
1228 474.0
1229 460.0
1230 440.0
1231 403.0
1232 478.0
1233 477.0
1234 450.0
1235 452.0
1236 457.0
1237 419.0
1238 434.0
1239 447.0
1240 442.0
1241 418.0
1242 415.0
1243 437.0
1244 413.0
1245 423.0
1246 437.0
1247 437.0
1248 440.0
1249 422.0
1250 409.0
1251 440.0
1252 418.0
1253 422.0
1254 449.0
1255 494.0
1256 430.0
1257 433.0
1258 399.0
1259 418.0
1260 421.0
1261 437.0
1262 434.0
1263 415.0
1264 475.0
1265 424.0
1266 428.0
1267 427.0
1268 399.0
1269 447.0
1270 444.0
1271 404.0
1272 427.0
1273 415.0
1274 447.0
1275 456.0
1276 410.0
1277 435.0
1278 443.0
1279 419.0
1280 422.0
1281 407.0
1282 375.0
1283 393.0
1284 399.0
1285 445.0
1286 385.0
1287 449.0
1288 460.0
1289 435.0
1290 432.0
1291 408.0
1292 428.0
1293 428.0
1294 407.0
1295 420.0
1296 448.0
1297 432.0
1298 406.0
1299 431.0
1300 416.0
1301 446.0
1302 442.0
1303 403.0
1304 415.0
1305 420.0
1306 431.0
1307 441.0
1308 415.0
1309 449.0
1310 438.0
1311 425.0
1312 398.0
1313 399.0
1314 420.0
1315 411.0
1316 396.0
1317 423.0
1318 395.0
1319 428.0
1320 413.0
1321 408.0
1322 415.0
1323 423.0
1324 378.0
1325 404.0
1326 362.0
1327 365.0
1328 431.0
1329 409.0
1330 420.0
1331 385.0
1332 404.0
1333 409.0
1334 392.0
1335 470.0
1336 398.0
1337 398.0
1338 372.0
1339 424.0
1340 403.0
1341 435.0
1342 377.0
1343 396.0
1344 412.0
1345 445.0
1346 421.0
1347 400.0
1348 414.0
1349 384.0
1350 396.0
1351 448.0
1352 422.0
1353 417.0
1354 382.0
1355 406.0
1356 386.0
1357 365.0
1358 408.0
1359 413.0
1360 461.0
1361 373.0
1362 394.0
1363 404.0
1364 394.0
1365 404.0
1366 408.0
1367 411.0
1368 418.0
1369 423.0
1370 404.0
1371 402.0
1372 423.0
1373 417.0
1374 417.0
1375 438.0
1376 377.0
1377 403.0
1378 436.0
1379 388.0
1380 385.0
1381 448.0
1382 439.0
1383 406.0
1384 412.0
1385 434.0
1386 440.0
1387 405.0
1388 427.0
1389 434.0
1390 425.0
1391 420.0
1392 448.0
1393 451.0
1394 383.0
1395 430.0
1396 472.0
1397 458.0
1398 431.0
1399 477.0
1400 405.0
1401 458.0
1402 485.0
1403 439.0
1404 400.0
1405 440.0
1406 443.0
1407 462.0
1408 397.0
1409 442.0
1410 438.0
1411 453.0
1412 423.0
1413 456.0
1414 501.0
1415 473.0
1416 492.0
1417 441.0
1418 428.0
1419 438.0
1420 454.0
1421 442.0
1422 480.0
1423 458.0
1424 495.0
1425 393.0
1426 481.0
1427 466.0
1428 455.0
1429 477.0
1430 458.0
1431 450.0
1432 439.0
1433 447.0
1434 466.0
1435 441.0
1436 443.0
1437 469.0
1438 447.0
1439 415.0
1440 458.0
1441 453.0
1442 428.0
1443 421.0
1444 449.0
1445 471.0
1446 442.0
1447 406.0
1448 472.0
1449 414.0
1450 409.0
1451 399.0
1452 463.0
1453 386.0
1454 425.0
1455 426.0
1456 423.0
1457 461.0
1458 423.0
1459 444.0
1460 425.0
1461 435.0
1462 500.0
1463 465.0
1464 440.0
1465 424.0
1466 419.0
1467 440.0
1468 440.0
1469 444.0
1470 460.0
1471 463.0
1472 416.0
1473 416.0
1474 434.0
1475 432.0
1476 437.0
1477 414.0
1478 430.0
1479 427.0
1480 454.0
1481 444.0
1482 423.0
1483 427.0
1484 427.0
1485 431.0
1486 432.0
1487 399.0
1488 445.0
1489 423.0
1490 471.0
1491 432.0
1492 439.0
1493 480.0
1494 439.0
1495 451.0
1496 438.0
1497 455.0
1498 430.0
1499 407.0
1500 437.0
1501 433.0
1502 435.0
1503 429.0
1504 411.0
1505 430.0
1506 444.0
1507 459.0
1508 480.0
1509 443.0
1510 421.0
1511 420.0
1512 407.0
1513 386.0
1514 431.0
1515 432.0
1516 448.0
1517 439.0
1518 481.0
1519 431.0
1520 442.0
1521 446.0
1522 437.0
1523 428.0
1524 439.0
1525 427.0
1526 437.0
1527 454.0
1528 434.0
1529 463.0
1530 485.0
1531 412.0
1532 433.0
1533 463.0
1534 471.0
1535 452.0
1536 436.0
1537 448.0
1538 425.0
1539 467.0
1540 418.0
1541 436.0
1542 454.0
1543 460.0
1544 457.0
1545 461.0
1546 514.0
1547 441.0
1548 414.0
1549 430.0
1550 402.0
1551 449.0
1552 468.0
1553 433.0
1554 465.0
1555 441.0
1556 456.0
1557 462.0
1558 444.0
1559 424.0
1560 446.0
1561 428.0
1562 461.0
1563 434.0
1564 434.0
1565 461.0
1566 446.0
1567 448.0
1568 429.0
1569 455.0
1570 444.0
1571 443.0
1572 440.0
1573 464.0
1574 441.0
1575 448.0
1576 435.0
1577 450.0
1578 474.0
1579 440.0
1580 438.0
1581 439.0
1582 491.0
1583 419.0
1584 446.0
1585 479.0
1586 409.0
1587 455.0
1588 411.0
1589 413.0
1590 435.0
1591 442.0
1592 447.0
1593 453.0
1594 436.0
1595 443.0
1596 457.0
1597 475.0
1598 440.0
1599 448.0
1600 461.0
1601 448.0
1602 431.0
1603 470.0
1604 448.0
1605 438.0
1606 454.0
1607 451.0
1608 469.0
1609 470.0
1610 419.0
1611 471.0
1612 435.0
1613 454.0
1614 433.0
1615 465.0
1616 469.0
1617 471.0
1618 431.0
1619 432.0
1620 448.0
1621 454.0
1622 473.0
1623 459.0
1624 448.0
1625 444.0
1626 455.0
1627 422.0
1628 455.0
1629 472.0
1630 436.0
1631 423.0
1632 459.0
1633 405.0
1634 450.0
1635 454.0
1636 405.0
1637 453.0
1638 436.0
1639 449.0
1640 413.0
1641 426.0
1642 440.0
1643 414.0
1644 414.0
1645 424.0
1646 445.0
1647 382.0
1648 427.0
1649 433.0
1650 436.0
1651 432.0
1652 417.0
1653 447.0
1654 428.0
1655 446.0
1656 434.0
1657 454.0
1658 459.0
1659 444.0
1660 449.0
1661 443.0
1662 443.0
1663 445.0
1664 458.0
1665 464.0
1666 459.0
1667 427.0
1668 428.0
1669 435.0
1670 436.0
1671 447.0
1672 441.0
1673 424.0
1674 463.0
1675 416.0
1676 415.0
1677 432.0
1678 414.0
1679 405.0
1680 426.0
1681 425.0
1682 404.0
1683 443.0
1684 452.0
1685 479.0
1686 434.0
1687 440.0
1688 425.0
1689 418.0
1690 447.0
1691 451.0
1692 464.0
1693 420.0
1694 425.0
1695 471.0
1696 423.0
1697 450.0
1698 444.0
1699 420.0
1700 433.0
1701 425.0
1702 465.0
1703 468.0
1704 438.0
1705 446.0
1706 470.0
1707 452.0
1708 438.0
1709 475.0
1710 425.0
1711 383.0
1712 468.0
1713 477.0
1714 421.0
1715 420.0
1716 429.0
1717 452.0
1718 452.0
1719 432.0
1720 432.0
1721 464.0
1722 448.0
1723 478.0
1724 506.0
1725 450.0
1726 460.0
1727 464.0
1728 421.0
1729 477.0
1730 439.0
1731 426.0
1732 458.0
1733 462.0
1734 456.0
1735 479.0
1736 449.0
1737 483.0
1738 415.0
1739 474.0
1740 451.0
1741 490.0
1742 415.0
1743 475.0
1744 491.0
1745 481.0
1746 445.0
1747 425.0
1748 469.0
1749 453.0
1750 440.0
1751 426.0
1752 452.0
1753 480.0
1754 484.0
1755 438.0
1756 501.0
1757 450.0
1758 488.0
1759 464.0
1760 423.0
1761 500.0
1762 431.0
1763 410.0
1764 470.0
1765 467.0
1766 454.0
1767 485.0
1768 445.0
1769 473.0
1770 459.0
1771 435.0
1772 438.0
1773 432.0
1774 434.0
1775 471.0
1776 437.0
1777 469.0
1778 482.0
1779 405.0
1780 441.0
1781 438.0
1782 474.0
1783 439.0
1784 436.0
1785 430.0
1786 481.0
1787 459.0
1788 463.0
1789 476.0
1790 449.0
1791 452.0
1792 465.0
1793 445.0
1794 460.0
1795 456.0
1796 438.0
1797 446.0
1798 458.0
1799 420.0
1800 466.0
1801 415.0
1802 419.0
1803 455.0
1804 444.0
1805 425.0
1806 461.0
1807 467.0
1808 449.0
1809 500.0
1810 458.0
1811 462.0
1812 449.0
1813 456.0
1814 482.0
1815 467.0
1816 427.0
1817 494.0
1818 428.0
1819 485.0
1820 465.0
1821 445.0
1822 451.0
1823 446.0
1824 456.0
1825 462.0
1826 440.0
1827 461.0
1828 477.0
1829 452.0
1830 463.0
1831 466.0
1832 474.0
1833 428.0
1834 502.0
1835 457.0
1836 435.0
1837 457.0
1838 444.0
1839 463.0
1840 460.0
1841 477.0
1842 472.0
1843 442.0
1844 477.0
1845 456.0
1846 474.0
1847 438.0
1848 433.0
1849 478.0
1850 468.0
1851 447.0
1852 501.0
1853 488.0
1854 457.0
1855 448.0
1856 415.0
1857 484.0
1858 456.0
1859 484.0
1860 466.0
1861 467.0
1862 426.0
1863 470.0
1864 472.0
1865 493.0
1866 463.0
1867 475.0
1868 491.0
1869 480.0
1870 462.0
1871 475.0
1872 517.0
1873 437.0
1874 468.0
1875 455.0
1876 461.0
1877 462.0
1878 480.0
1879 458.0
1880 455.0
1881 464.0
1882 469.0
1883 444.0
1884 437.0
1885 495.0
1886 460.0
1887 464.0
1888 462.0
1889 452.0
1890 473.0
1891 456.0
1892 462.0
1893 451.0
1894 430.0
1895 444.0
1896 476.0
1897 449.0
1898 435.0
1899 505.0
1900 476.0
1901 444.0
1902 450.0
1903 451.0
1904 480.0
1905 500.0
1906 458.0
1907 445.0
1908 499.0
1909 522.0
1910 490.0
1911 459.0
1912 458.0
1913 473.0
1914 453.0
1915 465.0
1916 445.0
1917 473.0
1918 484.0
1919 492.0
1920 448.0
1921 418.0
1922 438.0
1923 456.0
1924 492.0
1925 432.0
1926 483.0
1927 441.0
1928 430.0
1929 458.0
1930 448.0
1931 475.0
1932 456.0
1933 431.0
1934 439.0
1935 460.0
1936 473.0
1937 472.0
1938 439.0
1939 475.0
1940 474.0
1941 430.0
1942 434.0
1943 445.0
1944 465.0
1945 475.0
1946 465.0
1947 461.0
1948 424.0
1949 474.0
1950 469.0
1951 466.0
1952 434.0
1953 502.0
1954 465.0
1955 504.0
1956 471.0
1957 447.0
1958 469.0
1959 476.0
1960 468.0
1961 445.0
1962 525.0
1963 442.0
1964 482.0
1965 472.0
1966 512.0
1967 438.0
1968 487.0
1969 499.0
1970 472.0
1971 464.0
1972 483.0
1973 453.0
1974 483.0
1975 472.0
1976 448.0
1977 461.0
1978 458.0
1979 501.0
1980 470.0
1981 464.0
1982 456.0
1983 455.0
1984 430.0
1985 477.0
1986 476.0
1987 466.0
1988 461.0
1989 503.0
1990 492.0
1991 452.0
1992 485.0
1993 476.0
1994 459.0
1995 450.0
1996 484.0
1997 468.0
1998 466.0
1999 469.0
2000 473.0
2001 514.0
2002 496.0
2003 473.0
2004 470.0
2005 458.0
2006 469.0
2007 482.0
2008 480.0
2009 463.0
2010 459.0
2011 480.0
2012 509.0
2013 474.0
2014 517.0
2015 471.0
2016 468.0
2017 500.0
2018 531.0
2019 528.0
2020 507.0
2021 530.0
2022 522.0
2023 519.0
2024 506.0
2025 543.0
2026 515.0
2027 525.0
2028 539.0
2029 531.0
2030 501.0
2031 533.0
2032 534.0
2033 519.0
2034 529.0
2035 542.0
2036 522.0
2037 541.0
2038 549.0
2039 554.0
2040 523.0
2041 543.0
2042 588.0
2043 566.0
2044 529.0
2045 555.0
2046 519.0
2047 550.0
