2.019574502232918 128.0
6.423582584484319 90.0
10.824953320888365 109.0
15.223688857330526 86.0
19.619791337324028 83.0
24.013262901977345 103.0
28.40410569002671 137.0
32.792321837823124 109.0
37.17791347935618 71.0
41.56088274622155 82.0
45.941231767655715 104.0
50.318962670533715 100.0
54.694077579362734 92.0
59.066578616288545 159.0
63.4364679011107 187.0
67.80374755124787 301.0
72.1684196818115 513.0
76.53048640553217 986.0
80.88994983280507 1749.0
85.24681207169871 3042.0
89.60107522792234 4693.0
93.95274140487804 6327.0
98.30181270360653 7700.0
102.6482912228478 8417.0
106.99217905900653 8755.0
111.33347830616066 8566.0
115.67219105608527 8378.0
120.00831939822228 8247.0
124.34186541971509 8159.0
128.67283120540208 8221.0
133.00121883780355 8368.0
137.3270303971414 8358.0
141.65026796135416 8332.0
145.97093360605362 8327.0
150.28902940459645 8204.0
154.60455742801912 8086.0
158.91751974509003 7941.0
163.2279184222746 7794.0
167.53575552378754 7633.0
171.84103311154286 7321.0
176.14375324518423 7329.0
180.44391798209807 7200.0
184.74152937739606 7203.0
189.0365894839153 7050.0
193.3291003522377 7109.0
197.61906403069221 7016.0
201.90648256535698 7056.0
206.1913580000312 6951.0
210.4736923763022 6911.0
214.7534877334806 6863.0
219.03074610865428 6764.0
223.30546953665612 6794.0
227.5776600500941 6843.0
231.84731967933627 6895.0
236.1144504525151 6881.0
240.37905439554686 6959.0
244.64113353211883 6887.0
248.90068988369555 6938.0
253.1577254695147 6800.0
257.4122423066086 6787.0
261.6642424098001 6806.0
265.9137277916893 6680.0
270.1607004626798 6594.0
274.4051624309698 6591.0
278.6471157025547 6532.0
282.88656228123284 6506.0
287.1235041686086 6530.0
291.35794336408725 6501.0
295.5898818649059 6578.0
299.81932166609414 6568.0
304.0462647605001 6390.0
308.27071313881214 6403.0
312.49266878952216 6227.0
316.7121336989536 6253.0
320.929109851255 6269.0
325.14359922841726 6268.0
329.3556038102587 6323.0
333.5651255744376 6410.0
337.7721664964486 6364.0
341.9767285496415 6477.0
346.17881370519564 6552.0
350.3784239321456 6688.0
354.5755611973861 6847.0
358.7702274656713 6829.0
362.9624246995959 6987.0
367.1521548596185 7058.0
371.3394199040751 7235.0
375.5242217891612 7497.0
379.70656246893867 7738.0
383.8864438953423 8196.0
388.0638680181904 8827.0
392.238836785172 9990.0
396.411352141851 11631.0
400.58141603169014 12759.0
404.7490303960336 13123.0
408.9141971741158 12598.0
413.07691830305043 11802.0
417.23719571786506 10735.0
421.39503135147976 9492.0
425.55042713470675 8376.0
429.70338499627667 7364.0
433.85390686281454 6943.0
438.0019946588617 6703.0
442.14765030686686 6390.0
446.290875727195 6262.0
450.43167283813574 6106.0
454.5700435558929 6002.0
458.7059897945842 5906.0
462.8395134662782 5788.0
466.9706164809511 5675.0
471.099300746521 5660.0
475.2255681688355 5496.0
479.3494206516732 5489.0
483.4708600967791 5504.0
487.589888403812 5410.0
491.70650747038144 5532.0
495.82071919206106 5419.0
499.9325254623666 5496.0
504.04192817275805 5487.0
508.1489292126638 5517.0
512.2535304694737 5563.0
516.3557338285223 5652.0
520.4555411731293 5629.0
524.552954384572 5709.0
528.647975342098 5705.0
532.7406059229297 5840.0
536.830848002262 5924.0
540.9187034532645 5923.0
545.0041741471051 6148.0
549.0872619529183 6458.0
553.167968737828 6796.0
557.2462963669526 7498.0
561.3222467033938 8761.0
565.3958216082603 10491.0
569.4670229406382 11477.0
573.5358525576399 11159.0
577.6023123143592 10098.0
581.6664040638993 9418.0
585.7281296573727 8649.0
589.7874909439037 7950.0
593.8444897706343 7584.0
597.8991279827076 7189.0
601.9514074232954 6560.0
606.0013299335944 5813.0
610.0488973528146 5440.0
614.094111518193 5272.0
618.1369742650086 5125.0
622.1774874265494 5124.0
626.2156528341633 5020.0
630.2514723172093 4991.0
634.2849477031015 4878.0
638.316080817298 4854.0
642.3448734832883 4730.0
646.3713275226207 4709.0
650.395444754886 4734.0
654.4172269977249 4633.0
658.4366760668423 4608.0
662.4537937760001 4576.0
666.468581937002 4521.0
670.4810423597413 4437.0
674.4911768521446 4371.0
678.4989872202435 4430.0
682.5044752681114 4466.0
686.5076427979025 4481.0
690.5084916098434 4469.0
694.507023502244 4430.0
698.5032402714994 4412.0
702.4971437120638 4419.0
706.4887356165094 4393.0
710.4780177754722 4446.0
714.4649919776946 4441.0
718.4496600099832 4461.0
722.4320236572773 4392.0
726.4120847025996 4389.0
730.3898449270555 4537.0
734.3653061098838 4447.0
738.3384700284041 4475.0
742.3093384580559 4484.0
746.277913172388 4493.0
750.2441959430562 4493.0
754.2081885398405 4478.0
758.1698927306346 4535.0
762.1293102814453 4472.0
766.0864429564173 4502.0
770.0412925178102 4514.0
773.993860726011 4448.0
777.9441493395368 4436.0
781.8921601150469 4510.0
785.8378948073243 4521.0
789.7813551692923 4476.0
793.7225429520151 4540.0
797.6614599047058 4412.0
801.5981077747099 4506.0
805.5324883075323 4501.0
809.4646032468129 4447.0
813.3944543343616 4481.0
817.322043310132 4393.0
821.2473719122347 4444.0
825.1704418769392 4481.0
829.0912549386849 4409.0
833.0098128300658 4463.0
836.9261172818397 4365.0
840.840170022953 4334.0
844.7519727805033 4382.0
848.661527279766 4396.0
852.5688352442021 4380.0
856.4738983954444 4464.0
860.3767184532999 4484.0
864.2772971357736 4494.0
868.1756361590361 4515.0
872.0717372374714 4529.0
875.9656020836376 4493.0
879.8572324082796 4550.0
883.7466299203562 4466.0
887.6337963270153 4582.0
891.5187333336005 4512.0
895.4014426436471 4554.0
899.2819259589255 4663.0
903.1601849793886 4771.0
907.0362214032009 4773.0
910.9100369267525 4941.0
914.7816332446255 5114.0
918.651012049639 5476.0
922.5181750328187 6003.0
926.3831238834081 7009.0
930.2458602888919 8723.0
934.1063859349616 12535.0
937.9647025055285 22152.0
941.8208116827734 40523.0
945.6747151470645 53323.0
949.5264145770328 46547.0
953.3759116495273 26541.0
957.223208039662 13020.0
961.0683054207684 8158.0
964.9112054644281 6422.0
968.7519098404667 5709.0
972.5904202169703 5358.0
976.4267382602623 5091.0
980.2608656349203 4969.0
984.0928040037895 4868.0
987.9225550279524 4764.0
991.7501203667651 4734.0
995.575501677845 4694.0
999.398700617072 4838.0
1003.2197188385834 4773.0
1007.0385579947985 4719.0
1010.8552197363933 4845.0
1014.6697057123333 4843.0
1018.4820175698534 4964.0
1022.2921569544513 5125.0
1026.1001255099231 5154.0
1029.905924878347 5225.0
1033.7095567000688 5100.0
1037.5110226137278 5137.0
1041.310324256268 5223.0
1045.1074632628977 5470.0
1048.902441267137 6052.0
1052.6952599007925 6936.0
1056.485920793973 7235.0
1060.2744255750852 6949.0
1064.060775870831 6272.0
1067.844973306224 5952.0
1071.6270195045918 5787.0
1075.4069160875458 5873.0
1079.1846646750312 6109.0
1082.9602668852956 6564.0
1086.7337243349061 6641.0
1090.5050386387388 6104.0
1094.2742114099908 5541.0
1098.0412442601878 5557.0
1101.806138799179 6520.0
1105.5688966351272 7238.0
1109.3295193745334 7165.0
1113.0880086222253 6109.0
1116.8443659813624 5435.0
1120.5985930534418 5315.0
1124.350691438286 5520.0
1128.1006627340741 5649.0
1131.8485085373068 5865.0
1135.594230442837 6223.0
1139.3378300438667 6332.0
1143.0793089319404 6367.0
1146.8186686969425 5892.0
1150.5559109271207 5365.0
1154.2910372090753 4954.0
1158.0240491277575 4746.0
1161.7549482664715 4583.0
1165.4837362068947 4605.0
1169.2104145290564 4453.0
1172.9349848113493 4510.0
1176.6574486305326 4365.0
1180.3778075617356 4341.0
1184.0960631784671 4307.0
1187.812217052582 4378.0
1191.5262707543322 4277.0
1195.2382258523437 4304.0
1198.9480839136097 4356.0
1202.6558465035096 4371.0
1206.361515185806 4315.0
1210.0650915226538 4307.0
1213.766577074576 4336.0
1217.4659734004988 4408.0
1221.1632820577356 4377.0
1224.858504601991 4425.0
1228.5516425873689 4441.0
1232.2426975663534 4395.0
1235.9316710898524 4401.0
1239.6185647071609 4296.0
1243.3033799659727 4322.0
1246.986118412397 4350.0
1250.6667815909448 4305.0
1254.3453710445401 4365.0
1258.0218883145021 4200.0
1261.6963349405862 4268.0
1265.368712460948 4227.0
1269.0390224121668 4216.0
1272.7072663292317 4237.0
1276.3734457455694 4171.0
1280.0375621930073 4301.0
1283.6996172018257 4193.0
1287.3596123006998 4237.0
1291.0175490167562 4119.0
1294.6734288755545 4164.0
1298.3272534010664 4095.0
1301.9790241157198 4182.0
1305.628742540373 4097.0
1309.2764101943185 4106.0
1312.922028595296 4111.0
1316.5655992594802 4100.0
1320.2071237014968 4089.0
1323.846603434424 4095.0
1327.4840399697716 4023.0
1331.1194348175213 4115.0
1334.7527894860843 4171.0
1338.3841054823522 4113.0
1342.0133843116462 4054.0
1345.6406274777746 4031.0
1349.2658364829838 4088.0
1352.8890128279852 4175.0
1356.5101580119704 4066.0
1360.129273532578 4134.0
1363.7463608859268 4150.0
1367.361421566605 4113.0
1370.974457067665 4147.0
1374.5854688806437 4106.0
1378.1944584955472 4168.0
1381.8014274008592 4063.0
1385.4063770835503 4070.0
1389.009309029066 3983.0
1392.6102247213344 4055.0
1396.2091256427655 4009.0
1399.80601327428 4072.0
1403.4008890952587 4036.0
1406.9937545835883 4095.0
1410.5846112156444 4043.0
1414.173460466306 4062.0
1417.7603038089435 4124.0
1421.345142715413 4081.0
1424.92797865609 3991.0
1428.5088130998543 4047.0
1432.0876475140687 4029.0
1435.6644833646162 3950.0
1439.2393221159004 3998.0
1442.8121652308116 3966.0
1446.3830141707651 3932.0
1449.9518703956805 3949.0
1453.518735364005 3958.0
1457.083610532702 3894.0
1460.6464973572442 3833.0
1464.207397291631 3896.0
1467.7663117883894 3897.0
1471.3232422985684 3867.0
1474.8781902717353 3881.0
1478.4311571559915 3887.0
1481.9821443979858 3819.0
1485.531153442869 3763.0
1489.078185734343 3798.0
1492.6232427146563 3771.0
1496.1663258245667 3777.0
1499.7074365033957 3817.0
1503.246576188995 3738.0
1506.7837463177634 3866.0
1510.3189483246447 3929.0
1513.8521836431228 3784.0
1517.3834537052471 3857.0
1520.9127599415986 3931.0
1524.4401037813223 3816.0
1527.9654866521066 3904.0
1531.4889099802024 3842.0
1535.010375190431 3810.0
1538.5298837061507 3784.0
1542.0474369492879 3807.0
1545.5630363403407 3889.0
1549.076683298367 3827.0
1552.5883792409895 3911.0
1556.0981255843994 3872.0
1559.605923743359 3855.0
1563.1117751312065 3913.0
1566.6156811598437 3838.0
1570.1176432397615 3848.0
1573.617662780015 3811.0
1577.115741188248 3804.0
1580.6118798706789 3801.0
1584.106080232111 3770.0
1587.598343675931 3712.0
1591.088671604123 3693.0
1594.577065417227 3772.0
1598.0635265144165 3767.0
1601.5480562934213 3757.0
1605.0306561505852 3707.0
1608.5113274808255 3611.0
1611.9900716776801 3672.0
1615.4668901332711 3658.0
1618.9417842383223 3659.0
1622.4147553821647 3614.0
1625.8858049527248 3637.0
1629.3549343365407 3699.0
1632.8221449187527 3627.0
1636.2874380831104 3634.0
1639.7508152119758 3625.0
1643.2122776863298 3593.0
1646.6718268857485 3651.0
1650.1294641884474 3586.0
1653.5851909712358 3629.0
1657.039008609556 3592.0
1660.4909184774679 3551.0
1663.9409219476534 3504.0
1667.389020391422 3513.0
1670.8352151786964 3587.0
1674.2795076780449 3517.0
1677.7218992566554 3566.0
1681.1623912803384 3539.0
1684.6009851135516 3550.0
1688.0376821193756 3499.0
1691.4724836595424 3500.0
1694.905391094407 3455.0
1698.3364057829558 3448.0
1701.7655290828422 3520.0
1705.1927623503402 3499.0
1708.6181069403797 3530.0
1712.0415642065302 3546.0
1715.4631355010088 3538.0
1718.882822174686 3522.0
1722.3006255770792 3459.0
1725.7165470563675 3516.0
1729.1305879593667 3439.0
1732.542749631565 3411.0
1735.9530334170975 3419.0
1739.3614406587637 3461.0
1742.767972698026 3400.0
1746.1726308749967 3369.0
1749.5754165284682 3524.0
1752.976330995895 3559.0
1756.3753756133874 3514.0
1759.7725517157367 3417.0
1763.167860636399 3389.0
1766.5613037075052 3383.0
1769.9528822598616 3445.0
1773.3425976229405 3332.0
1776.7304511249095 3376.0
1780.116444092593 3419.0
1783.5005778515088 3374.0
1786.8828537258578 3415.0
1790.2632730385144 3405.0
1793.6418371110515 3428.0
1797.0185472637127 3362.0
1800.393404815452 3358.0
1803.7664110838848 3348.0
1807.1375673853436 3386.0
1810.5068750348435 3380.0
1813.8743353460848 3343.0
1817.239949631485 3405.0
1820.603719202142 3385.0
1823.9656453678606 3360.0
1827.3257294371494 3336.0
1830.683972717216 3375.0
1834.0403765139617 3257.0
1837.3949421320121 3314.0
1840.7476708746929 3239.0
1844.0985640440374 3366.0
1847.4476229407805 3388.0
1850.7948488643926 3300.0
1854.1402431130368 3420.0
1857.483806983599 3385.0
1860.8255417716787 3400.0
1864.1654487715969 3349.0
1867.5035292763966 3348.0
1870.8397845778377 3389.0
1874.1742159664002 3347.0
1877.506824731303 3415.0
1880.8376121604715 3387.0
1884.1665795405804 3364.0
1887.4937281570062 3414.0
1890.8190592938815 3323.0
1894.1425742340632 3415.0
1897.46427425913 3429.0
1900.7841606494203 3342.0
1904.1022346839832 3399.0
1907.4184976406198 3405.0
1910.7329507958723 3336.0
1914.0455954250135 3372.0
1917.3564328020834 3364.0
1920.6654641998377 3313.0
1923.9726908897915 3421.0
1927.2781141422092 3475.0
1930.5817352261 3423.0
1933.883555409225 3428.0
1937.1835759580958 3436.0
1940.4817981379845 3485.0
1943.778223212904 3408.0
1947.072852445642 3392.0
1950.3656870977327 3371.0
1953.6567284294701 3391.0
1956.9459776999101 3349.0
1960.2334361668766 3352.0
1963.5191050869448 3293.0
1966.8029857154734 3351.0
1970.085079306572 3265.0
1973.3653871131296 3279.0
1976.643910386799 3323.0
1979.920650378008 3280.0
1983.1956083359569 3318.0
1986.4687855086077 3228.0
1989.740183142726 3262.0
1993.0098024838303 3237.0
1996.2776447762224 3262.0
1999.5437112629984 3232.0
2002.8080031860193 3278.0
2006.070521785939 3214.0
2009.33126830219 3202.0
2012.5902439729937 3194.0
2015.8474500353661 3180.0
2019.102887725094 3210.0
2022.3565582767758 3243.0
2025.6084629237955 3242.0
2028.8586028983166 3245.0
2032.1069794313178 3245.0
2035.353593752558 3195.0
2038.5984470906053 3317.0
2041.841540672822 3182.0
2045.0828757253626 3259.0
2048.3224534732044 3162.0
2051.5602751401098 3188.0
2054.796341948658 3186.0
2058.0306551202207 3211.0
2061.263215874989 3165.0
2064.494025431967 3213.0
2067.7230850089477 3215.0
2070.95039582257 3140.0
2074.17595908825 3312.0
2077.399776020247 3236.0
2080.621847831618 3204.0
2083.8421757342503 3193.0
2087.060760938848 3202.0
2090.277604654921 3230.0
2093.4927080908255 3250.0
2096.706072453726 3200.0
2099.9176989496145 3171.0
2103.1275887833067 3167.0
2106.3357431584486 3239.0
2109.542163277517 3269.0
2112.7468503418154 3293.0
2115.94980555148 3249.0
2119.151030105487 3266.0
2122.3505252016384 3218.0
2125.548292036571 3302.0
2128.7443318057694 3171.0
2131.938645703539 3224.0
2135.1312349230475 3177.0
2138.322100656289 3135.0
2141.5112440940998 3159.0
2144.698666426176 3153.0
2147.88436884104 3166.0
2151.068352526078 3126.0
2154.2506186675023 3119.0
2157.431168450402 3079.0
2160.610003058697 3109.0
2163.7871236751666 3121.0
2166.962531481452 3050.0
2170.1362276580317 3055.0
2173.308213384254 3100.0
2176.478489838323 3029.0
2179.6470581972967 3063.0
2182.8139196371026 3065.0
2185.9790753325196 3046.0
2189.1425264571963 3019.0
2192.304274183654 3063.0
2195.464319683265 3000.0
2198.6226641262692 3027.0
2201.7793086817833 3018.0
2204.934254517797 2988.0
2208.087502801161 3073.0
2211.2390546976053 3003.0
2214.3889113717296 3022.0
2217.5370739870177 2966.0
2220.6835437058126 2968.0
2223.828321689357 3031.0
2226.9714090977536 2958.0
2230.1128070900027 2921.0
2233.252516823975 2875.0
2236.3905394564254 2984.0
2239.526876142994 3011.0
2242.6615280382157 3019.0
2245.794496295501 3051.0
2248.9257820671532 2997.0
2252.055386504359 2991.0
2255.1833107572184 3028.0
2258.3095559746944 2962.0
2261.434123304667 2902.0
2264.5570138938924 2947.0
2267.6782288880386 2930.0
2270.797769431665 2911.0
2273.915636668228 2947.0
2277.031831740084 2946.0
2280.146355788501 2963.0
2283.2592099536346 3059.0
2286.3703953745626 3028.0
2289.4799131892446 2993.0
2292.5877645345686 3021.0
2295.6939505463138 3106.0
2298.7984723591867 3023.0
2301.901331106793 3024.0
2305.0025279216416 2999.0
2308.102063935174 2967.0
2311.199940277736 3001.0
2314.2961580785873 2977.0
2317.3907184659106 2955.0
2320.483622566794 2829.0
2323.5748715072655 2925.0
2326.6644664122537 2881.0
2329.752408405624 2953.0
2332.838698610158 2910.0
2335.9233381475656 2938.0
2339.006328138471 2947.0
2342.0876697024346 2984.0
2345.167363957954 2934.0
2348.245412022443 2922.0
2351.321815012245 2894.0
2354.3965740426474 2920.0
2357.4696902278606 2915.0
2360.541164681035 2887.0
2363.610998514258 2818.0
2366.6791928385355 2850.0
2369.745748763844 2901.0
2372.8106673990765 2894.0
2375.8739498520754 2904.0
2378.9355972296166 2858.0
2381.9956106374293 2899.0
2385.053991180181 2806.0
2388.1107399614843 2856.0
2391.165858083909 2862.0
2394.219346648959 2756.0
2397.2712067570956 2783.0
2400.321439507728 2823.0
2403.370045999218 2734.0
2406.4170273288814 2871.0
2409.4623845929887 2832.0
2412.506118886757 2851.0
2415.548231304379 2805.0
2418.588722938983 2817.0
2421.6275948826737 2844.0
2424.664848226512 2834.0
2427.700484060513 2847.0
2430.7345034736586 2787.0
2433.766907553895 2813.0
2436.797697388138 2803.0
2439.826874062268 2815.0
2442.8544386611197 2837.0
2445.880392268516 2870.0
2448.9047359672454 2777.0
2451.9274708390535 2853.0
2454.9485979646747 2794.0
2457.968118423806 2796.0
2460.986033295128 2779.0
2464.0023436562883 2779.0
2467.0170505839164 2843.0
2470.0301551536263 2740.0
2473.041658439998 2779.0
2476.0515615165987 2688.0
2479.0598654559767 2730.0
2482.0665713296735 2734.0
2485.0716802081906 2715.0
2488.07519316104 2747.0
2491.0771112567063 2785.0
2494.07743556267 2740.0
2497.0761671453906 2771.0
2500.073307070323 2768.0
2503.06885640191 2725.0
2506.062816203603 2687.0
2509.0551875378173 2770.0
2512.045971465992 2719.0
2515.0351690485436 2718.0
2518.0227813448937 2759.0
2521.0088094134558 2714.0
2523.993254311646 2726.0
2526.976117095887 2678.0
2529.9573988215943 2682.0
2532.9371005431863 2755.0
2535.9152233140976 2632.0
2538.8917681867533 2747.0
2541.8667362125925 2660.0
2544.84012844205 2667.0
2547.8119459245863 2665.0
2550.78218970867 2615.0
2553.750860841758 2596.0
2556.7179603703476 2628.0
2559.6834893399355 2682.0
2562.647448795029 2659.0
2565.6098397791616 2596.0
2568.5706633348677 2618.0
2571.5299205037227 2742.0
2574.4876123262943 2663.0
2577.4437398421846 2655.0
2580.3983040900266 2620.0
2583.351306107448 2645.0
2586.3027469311214 2636.0
2589.2526275967352 2617.0
2592.2009491390127 2661.0
2595.1477125916867 2667.0
2598.0929189875337 2659.0
2601.036569358354 2719.0
2603.97866473497 2608.0
2606.919206147248 2693.0
2609.8581946240793 2711.0
2612.7956311933794 2663.0
2615.731516882125 2718.0
2618.665852716299 2731.0
2621.598639720938 2646.0
2624.529878920113 2683.0
2627.4595713369263 2677.0
2630.387717993531 2690.0
2633.3143199111096 2661.0
2636.2393781099026 2605.0
2639.162893609175 2573.0
2642.0848674272506 2658.0
2645.0053005814925 2597.0
2647.9241940883103 2628.0
2650.841548963161 2554.0
2653.75736622055 2570.0
2656.671646874035 2562.0
2659.584391936222 2585.0
2662.4956024187663 2532.0
2665.405279332386 2578.0
2668.313423686841 2574.0
2671.2200364909563 2579.0
2674.1251187526013 2591.0
2677.028671478716 2522.0
2679.9306956752903 2543.0
2682.83119234738 2567.0
2685.73016249909 2592.0
2688.6276071335965 2558.0
2691.5235272531395 2648.0
2694.4179238590127 2622.0
2697.310797951588 2579.0
2700.202150530285 2537.0
2703.091982593608 2544.0
2705.9802951391207 2603.0
2708.867089163459 2515.0
2711.7523656623234 2546.0
2714.636125630493 2533.0
2717.518370061809 2546.0
2720.399099949192 2574.0
2723.278316284646 2500.0
2726.1560200592353 2504.0
2729.0322122630996 2539.0
2731.906893885469 2525.0
2734.780065914645 2513.0
2737.6517293380098 2467.0
2740.521885142022 2526.0
2743.3905343122274 2520.0
2746.257677833251 2501.0
2749.123316688803 2473.0
2751.9874518616793 2461.0
2754.8500843337574 2480.0
2757.7112150860044 2467.0
2760.5708450984803 2388.0
2763.428975350317 2448.0
2766.2856068197557 2492.0
2769.1407404841243 2445.0
2771.9943773198293 2483.0
2774.846518302386 2451.0
2777.697164406392 2414.0
2780.5463166055483 2474.0
2783.3939758726483 2459.0
2786.240143179586 2523.0
2789.0848194973446 2459.0
2791.9280057960145 2487.0
2794.769703044781 2475.0
2797.6099122119385 2476.0
2800.448634264871 2457.0
2803.2858701700816 2444.0
2806.1216208931587 2471.0
2808.9558873988103 2439.0
2811.7886706508484 2447.0
2814.6199716121796 2441.0
2817.4497912448373 2475.0
2820.278130509957 2475.0
2823.104990367781 2474.0
2825.9303717776565 2506.0
2828.754275698061 2469.0
2831.5767030865713 2466.0
2834.397654899873 2436.0
2837.2171320937896 2488.0
2840.035135623243 2562.0
2842.851666442271 2497.0
2845.66672550404 2459.0
2848.4803137608214 2551.0
2851.292432164028 2508.0
2854.1030816641714 2471.0
2856.912263210895 2444.0
2859.7199777529718 2486.0
2862.5262262382867 2486.0
2865.3310096138603 2493.0
2868.1343288258213 2396.0
2870.9361848194553 2441.0
2873.7365785391485 2433.0
2876.5355109284205 2418.0
2879.33298292994 2501.0
2882.1289954854865 2482.0
2884.9235495359776 2474.0
2887.7166460214626 2458.0
2890.5082858811206 2455.0
2893.2984700532857 2466.0
2896.0871994753975 2432.0
2898.8744750840574 2411.0
2901.6602978149945 2515.0
2904.444668603071 2459.0
2907.2275883822967 2457.0
2910.009058085816 2463.0
2912.789078645924 2414.0
2915.5676509940517 2409.0
2918.344776060768 2487.0
2921.120454775802 2458.0
2923.894688068012 2497.0
2926.6674768654116 2473.0
2929.4388220951587 2518.0
2932.2087246835586 2517.0
2934.9771855560734 2523.0
2937.7442056372956 2433.0
2940.5097858509957 2500.0
2943.273927120077 2498.0
2946.0366303666015 2534.0
2948.797896511785 2531.0
2951.5577264759963 2428.0
2954.316121178762 2517.0
2957.0730815387665 2551.0
2959.8286084738465 2531.0
2962.5827029010106 2503.0
2965.335365736404 2499.0
2968.086597895359 2484.0
2970.836400292339 2523.0
2973.5847738410007 2482.0
2976.331719454148 2530.0
2979.077238043741 2554.0
2981.821330520927 2517.0
2984.5639977959995 2519.0
2987.3052407784307 2505.0
2990.045060376849 2572.0
2992.783457499064 2587.0
2995.5204330520514 2574.0
2998.2559879419555 2534.0
3000.990123074086 2547.0
3003.7228393529404 2573.0
3006.454137682174 2535.0
3009.1840189646277 2504.0
3011.9124841023067 2479.0
3014.6395339964033 2545.0
3017.365169547287 2494.0
3020.0893916544883 2512.0
3022.8122012167387 2492.0
3025.5335991319375 2461.0
3028.2535862971627 2585.0
3030.9721636086824 2553.0
3033.6893319619353 2537.0
3036.4050922515553 2544.0
3039.1194453713583 2550.0
3041.8323922143363 2595.0
3044.543933672676 2609.0
3047.2540706377554 2676.0
3049.96280400013 2663.0
3052.670134649539 2566.0
3055.376063474933 2658.0
3058.0805913644367 2628.0
3060.7837192053626 2711.0
3063.485447884237 2720.0
3066.185778286749 2712.0
3068.8847112978096 2673.0
3071.5822478015098 2662.0
3074.2783886811394 2709.0
3076.973134819184 2666.0
3079.666487097331 2687.0
3082.35844639646 2725.0
3085.0490135966597 2750.0
3087.738189577211 2686.0
3090.4259752165935 2720.0
3093.1123713924926 2697.0
3095.7973789818066 2745.0
3098.4809988606225 2756.0
3101.16323190423 2776.0
3103.8440789871493 2718.0
3106.5235409830775 2710.0
3109.2016187649365 2769.0
3111.8783132048475 2792.0
3114.553625174143 2786.0
3117.2275555433716 2775.0
3119.9001051822893 2738.0
3122.571274959854 2893.0
3125.241065744253 2803.0
3127.9094784028725 2851.0
3130.5765138023257 2793.0
3133.2421728084264 2890.0
3135.9064562862163 2946.0
3138.569365099947 2945.0
3141.2309001130907 2937.0
3143.8910621883365 2950.0
3146.5498521876 2944.0
3149.207270972006 2854.0
3151.8633194019026 2935.0
3154.5179983368694 2953.0
3157.1713086356986 2975.0
3159.823251156404 2960.0
3162.473826756238 2867.0
3165.1230362916685 2950.0
3167.770880618385 2927.0
3170.417360591313 2933.0
3173.0624770646023 2924.0
3175.70623089163 2892.0
3178.3486229250057 2974.0
3180.989654016568 2964.0
3183.629325017386 2946.0
3186.267636777764 2949.0
3188.9045901472323 2939.0
3191.5401859745634 2988.0
3194.1744251077566 2936.0
3196.80730839405 2948.0
3199.438836679921 3013.0
3202.069010811081 2978.0
3204.697831632479 2937.0
3207.325299988302 2932.0
3209.9514167219777 2949.0
3212.5761826761736 2971.0
3215.1995986928014 2992.0
3217.8216656130126 2945.0
3220.442384277195 2983.0
3223.061755524997 2951.0
3225.6797801952903 2945.0
3228.2964591262107 2919.0
3230.911793155125 2952.0
3233.525783118659 2940.0
3236.138429852677 2833.0
3238.749734192298 2878.0
3241.3596969718924 2883.0
3243.9683190250717 2920.0
3246.5756011847016 2949.0
3249.181544282907 2895.0
3251.786149151051 2855.0
3254.389416619773 2902.0
3256.9913475189414 2887.0
3259.5919426776923 2888.0
3262.19120292442 2841.0
3264.7891290867733 2874.0
3267.3857219916504 2885.0
3269.980982465218 2883.0
3272.5749113328993 2924.0
3275.1675094193747 2880.0
3277.758777548586 2874.0
3280.3487165437396 2874.0
3282.9373272273046 2888.0
3285.524610421005 2933.0
3288.110566945835 2974.0
3290.6951976220503 2908.0
3293.278503269186 2950.0
3295.860484706023 2929.0
3298.4411427506134 2934.0
3301.0204782202895 2845.0
3303.598491931647 2937.0
3306.1751847005407 2979.0
3308.7505573421086 2976.0
3311.324610670752 2982.0
3313.8973455001487 2911.0
3316.4687626432465 2990.0
3319.03886291227 2929.0
3321.6076471187084 2942.0
3324.175116073335 3056.0
3326.7412705861993 2900.0
3329.3061114666207 3025.0
3331.8696395231973 2990.0
3334.4318555638133 2938.0
3336.992760395619 2975.0
3339.552354825058 2940.0
3342.110639657841 2909.0
3344.6676156989706 2962.0
3347.223283752718 2985.0
3349.777644622658 2895.0
3352.330699111629 2874.0
3354.882448021758 2894.0
3357.4328921544707 2954.0
3359.9820323104605 3037.0
3362.5298692897104 2946.0
3365.07640389151 3018.0
3367.621636914404 2999.0
3370.165569156253 3053.0
3372.7082014142 2954.0
3375.2495344846675 3044.0
3377.7895691633867 3010.0
3380.328306245373 2980.0
3382.865746524924 2971.0
3385.4018907956474 3091.0
3387.9367398504355 2986.0
3390.470294481476 3052.0
3393.002555480253 3026.0
3395.5335236375477 3035.0
3398.0631997434457 3024.0
3400.5915845873155 3011.0
3403.1186789578305 3078.0
3405.6444836429687 2975.0
3408.1689994300064 3008.0
3410.6922271055078 2960.0
3413.2141674553664 2962.0
3415.734821264752 2970.0
3418.254189318146 2998.0
3420.7722723993356 2981.0
3423.2890712914095 3023.0
3425.804586776771 2938.0
3428.318819637113 2937.0
3430.831770653447 2919.0
3433.3434406060946 2848.0
3435.853830274676 2879.0
3438.3629404381286 2839.0
3440.870771874692 2863.0
3443.3773253619156 2795.0
3445.8826016766784 2784.0
3448.386601595144 2803.0
3450.8893258928088 2791.0
3453.3907753444787 2773.0
3455.890950724266 2761.0
3458.389852805607 2680.0
3460.8874823612437 2702.0
3463.3838401632447 2727.0
3465.878926982996 2746.0
3468.3727435911856 2661.0
3470.865290757842 2649.0
3473.3565692522975 2659.0
3475.8465798432085 2630.0
3478.335323298552 2620.0
3480.822800385633 2599.0
3483.3090118710647 2611.0
3485.7939585207955 2546.0
3488.277641100093 2517.0
3490.760060373549 2538.0
3493.24121710508 2546.0
3495.7211120579263 2475.0
3498.199745994657 2466.0
3500.6771196771733 2471.0
3503.1532338666957 2468.0
3505.6280893237727 2438.0
3508.101686808293 2428.0
3510.5740270794654 2445.0
3513.045110895834 2380.0
3515.514939015272 2383.0
3517.983512194981 2293.0
3520.450831191509 2259.0
3522.9168967607193 2234.0
3525.3817096578246 2189.0
3527.845270637363 2201.0
3530.30758045321 2165.0
3532.768639858584 2113.0
3535.228449606032 2124.0
3537.6870104474438 2161.0
3540.1443231340486 2108.0
3542.600388416405 2097.0
3545.055207044422 1988.0
3547.5087797673496 2052.0
3549.961107333767 1965.0
3552.4121904916083 1967.0
3554.8620299881495 1947.0
3557.31062657 1925.0
3559.7579809831154 2012.0
3562.204093972812 1999.0
3564.6489662837257 1940.0
3567.092598659859 2006.0
3569.5349918445518 1844.0
3571.9761465804913 1957.0
3574.4160636097185 1873.0
3576.8547436736194 1843.0
3579.2921875129236 1885.0
3581.728395867724 1821.0
3584.163369477458 1851.0
3586.59710908091 1814.0
3589.0296154162183 1806.0
3591.460889220883 1825.0
3593.890931231744 1849.0
3596.3197421850105 1791.0
3598.747322816232 1742.0
3601.1736738603204 1781.0
3603.59879605155 1758.0
3606.0226901235387 1793.0
3608.4453568092704 1742.0
3610.8667968410896 1711.0
3613.287010950689 1720.0
3615.7059998691375 1695.0
3618.123764326849 1693.0
3620.540305053607 1756.0
3622.9556227785524 1744.0
3625.3697182301867 1739.0
3627.7825921363797 1662.0
3630.194245224372 1733.0
3632.6046782207427 1720.0
3635.013891851468 1753.0
3637.4218868418657 1687.0
3639.828663916627 1693.0
3642.2342237998178 1706.0
3644.6385672148604 1701.0
3647.0416948845514 1699.0
3649.4436075310587 1681.0
3651.8443058759135 1743.0
3654.2437906400223 1644.0
3656.642062543657 1621.0
3659.039122306464 1690.0
3661.4349706474677 1600.0
3663.8296082850547 1648.0
3666.2230359369946 1603.0
3668.615254320423 1645.0
3671.00626415186 1598.0
3673.3960661471933 1635.0
3675.784661021687 1682.0
3678.1720494899864 1666.0
3680.5582322661094 1628.0
3682.9432100634576 1596.0
3685.3269835948045 1635.0
3687.709553572315 1602.0
3690.0909207075183 1618.0
3692.471085711335 1597.0
3694.850049294066 1660.0
3697.2278121653794 1597.0
3699.604375034355 1591.0
3701.9797386094356 1651.0
3704.353903598442 1630.0
3706.7268707086014 1621.0
3709.0986406465054 1579.0
3711.4692141181463 1594.0
3713.8385918288877 1678.0
3716.2067744835003 1619.0
3718.573762786128 1620.0
3720.9395574402947 1578.0
3723.3041591489446 1658.0
3725.6675686143785 1599.0
3728.0297865383072 1582.0
3730.390813621821 1606.0
3732.750650565404 1582.0
3735.1092980689455 1543.0
3737.46675683171 1619.0
3739.8230275523615 1633.0
3742.178110928967 1598.0
3744.5320076589746 1584.0
3746.884718439233 1573.0
3749.236243965988 1558.0
3751.5865849348847 1545.0
3753.935742040954 1627.0
3756.283715978638 1545.0
3758.6305074417724 1561.0
3760.9761171235887 1622.0
3763.320545716721 1614.0
3765.663793913207 1566.0
3768.005862404471 1643.0
3770.3467518813572 1560.0
3772.6864630341056 1634.0
3775.0249965523476 1577.0
3777.3623531251387 1557.0
3779.6985334409214 1579.0
3782.033538187546 1563.0
3784.367368052273 1547.0
3786.7000237217712 1609.0
3789.0315058821084 1542.0
3791.3618152187564 1579.0
3793.690952416603 1584.0
3796.0189181599435 1553.0
3798.345713132479 1525.0
3800.6713380173205 1569.0
3802.9957934969902 1609.0
3805.319080253419 1561.0
3807.6411989679477 1556.0
3809.962150321338 1534.0
3812.281934993753 1527.0
3814.6005536647804 1570.0
3816.918007013407 1504.0
3819.234295718041 1528.0
3821.549420456511 1544.0
3823.863381906059 1566.0
3826.1761807433286 1556.0
3828.487817644406 1514.0
3830.7982932847713 1548.0
3833.107608339338 1547.0
3835.415763482426 1554.0
3837.722759387778 1574.0
3840.028596728568 1566.0
3842.333276177373 1555.0
3844.636798406205 1548.0
3846.939164086486 1575.0
3849.2403738890644 1562.0
3851.5404284842184 1502.0
3853.839328541637 1488.0
3856.1370747304404 1521.0
3858.433667719172 1468.0
3860.729108175799 1531.0
3863.02339676772 1475.0
3865.316534161752 1509.0
3867.6085210241413 1513.0
3869.8993580205597 1513.0
3872.189045816114 1544.0
3874.47758507533 1440.0
3876.764976462172 1482.0
3879.051220640026 1431.0
3881.3363182717167 1463.0
3883.620270019488 1518.0
3885.9030765450243 1481.0
3888.1847385094347 1470.0
3890.4652565732767 1499.0
3892.744631396525 1513.0
3895.0228636385855 1450.0
3897.299953958316 1461.0
3899.5759030139957 1435.0
3901.850711463342 1445.0
3904.124379963507 1485.0
3906.3969091710815 1424.0
3908.6682997421017 1427.0
3910.938552332019 1403.0
3913.2076675957524 1493.0
3915.475646187633 1486.0
3917.7424887614507 1459.0
3920.008195970421 1518.0
3922.272768467211 1411.0
3924.536206903926 1467.0
3926.7985119321133 1423.0
3929.05968420275 1415.0
3931.3197243662808 1443.0
3933.578633072575 1412.0
3935.83641097095 1419.0
3938.0930587101707 1391.0
3940.3485769384424 1403.0
3942.602966303423 1388.0
3944.8562274522083 1403.0
3947.108361031348 1373.0
3949.35936768684 1382.0
3951.609248064121 1388.0
3953.8580028080823 1380.0
3956.105632563066 1410.0
3958.3521379728586 1476.0
3960.5975196807076 1407.0
3962.841778329294 1361.0
3965.0849145607663 1393.0
3967.3269290167104 1439.0
3969.5678223381824 1357.0
3971.8075951656706 1364.0
3974.0462481391337 1368.0
3976.2837818979797 1376.0
3978.520197081062 1330.0
3980.755494326709 1364.0
3982.9896742726814 1411.0
3985.222737556214 1363.0
3987.454684813985 1398.0
3989.6855166821415 1349.0
3991.915233796284 1380.0
3994.143836791469 1407.0
3996.3713263022146 1398.0
3998.597702962502 1387.0
4000.822967405763 1354.0
4003.0471202648982 1346.0
4005.2701621722626 1341.0
4007.4920937596853 1363.0
4009.7129156584415 1276.0
4011.932628499278 1324.0
4014.1512329124075 1315.0
4016.3687295275017 1338.0
4018.585118973699 1364.0
4020.800401879597 1319.0
4023.0145788732666 1353.0
4025.2276505822447 1378.0
4027.4396176335267 1296.0
4029.6504806535827 1317.0
4031.860240268348 1292.0
4034.068897103226 1362.0
4036.2764517830915 1348.0
4038.482904932274 1283.0
4040.6882571745996 1342.0
4042.8925091333435 1351.0
4045.0956614312495 1307.0
4047.2977146905546 1360.0
4049.498669532949 1299.0
4051.6985265796025 1364.0
4053.897286451151 1386.0
4056.0949497677084 1332.0
4058.291517148869 1344.0
4060.4869892136912 1349.0
4062.681366580716 1327.0
4064.8746498679525 1315.0
4067.066839692898 1360.0
4069.257936672509 1338.0
4071.447941423234 1313.0
4073.6368545609944 1258.0
4075.8246767011888 1287.0
4078.011408458692 1242.0
4080.197050447866 1271.0
4082.381603282548 1290.0
4084.5650675760526 1262.0
4086.7474439411767 1253.0
4088.928732990198 1323.0
4091.1089353348857 1280.0
4093.2880515864726 1208.0
4095.4660823556956 1287.0
4097.643028252761 1305.0
4099.818889887361 1238.0
4101.993667868672 1263.0
4104.167362805361 1264.0
4106.339975305572 1277.0
4108.511505976948 1303.0
4110.6819554265985 1281.0
4112.851324261139 1173.0
4115.019613086664 1219.0
4117.186822508753 1250.0
4119.352953132485 1242.0
4121.5180055624105 1241.0
4123.681980402591 1222.0
4125.844878256561 1214.0
4128.006699727352 1268.0
4130.16744541749 1284.0
4132.3271159289825 1238.0
4134.48571186334 1254.0
4136.6432338215545 1282.0
4138.799682404124 1245.0
4140.955058211032 1268.0
4143.109361841753 1196.0
4145.262593895269 1271.0
4147.414754970041 1250.0
4149.565845664037 1241.0
4151.715866574717 1215.0
4153.864818299035 1202.0
4156.01270143345 1226.0
4158.159516573906 1268.0
4160.305264315858 1236.0
4162.449945254259 1201.0
4164.593559983544 1248.0
4166.73610909767 1225.0
4168.8775931900755 1237.0
4171.018012853716 1256.0
4173.157368681038 1222.0
4175.295661263984 1179.0
4177.432891194017 1203.0
4179.569059062087 1198.0
4181.704165458649 1249.0
4183.838210973663 1142.0
4185.971196196602 1174.0
4188.103121716428 1176.0
4190.2339881216185 1146.0
4192.363796000154 1224.0
4194.49254593952 1204.0
4196.620238526708 1201.0
4198.7468743482195 1182.0
4200.872453990056 1168.0
4202.996978037736 1253.0
4205.120447076287 1178.0
4207.242861690229 1179.0
4209.364222463613 1228.0
4211.48452997999 1157.0
4213.603784822418 1198.0
4215.721987573468 1167.0
4217.839138815228 1225.0
4219.95523912929 1162.0
4222.0702890967605 1162.0
4224.184289298262 1172.0
4226.297240313931 1178.0
4228.409142723409 1177.0
4230.519997105863 1168.0
4232.629804039958 1118.0
4234.738564103896 1155.0
4236.846277875385 1159.0
4238.952945931634 1143.0
4241.058568849397 1144.0
4243.163147204922 1128.0
4245.266681573985 1169.0
4247.369172531877 1124.0
4249.470620653413 1197.0
4251.5710265129155 1137.0
4253.670390684232 1160.0
4255.768713740742 1146.0
4257.865996255322 1104.0
4259.962238800385 1165.0
4262.057441947868 1182.0
4264.151606269212 1132.0
4266.244732335401 1133.0
4268.336820716925 1104.0
4270.427871983812 1137.0
4272.517886705603 1055.0
4274.6068654513665 1009.0
4276.694808789695 1096.0
4278.781717288701 1019.0
4280.867591516038 1051.0
4282.952432038865 950.0
4285.03623942388 970.0
4287.1190142373125 950.0
4289.200757044901 933.0
4291.281468411935 982.0
4293.36114890321 931.0
4295.439799083063 914.0
4297.5174195153595 914.0
4299.594010763493 907.0
4301.669573390386 823.0
4303.7441079584905 847.0
4305.817615029793 784.0
4307.890095165809 829.0
4309.961548927587 822.0
4312.031976875705 757.0
4314.101379570278 712.0
4316.169757570955 721.0
4318.2371114369125 668.0
4320.30344172687 698.0
4322.368748999074 641.0
4324.433033811306 632.0
4326.496296720886 656.0
4328.558538284671 677.0
4330.6197590590555 619.0
4332.679959599967 611.0
4334.7391404628725 617.0
4336.797302202772 620.0
4338.854445374218 705.0
4340.910570531276 693.0
4342.965678227581 756.0
4345.019769016285 693.0
4347.072843450088 697.0
4349.124902081238 658.0
4351.1759454615085 574.0
4353.225974142224 486.0
4355.274988674248 442.0
4357.3229896079865 463.0
4359.369977493396 431.0
4361.415952879959 393.0
4363.460916316721 411.0
4365.5048683522555 416.0
4367.547809534695 445.0
4369.5897404117 491.0
4371.6306615304875 449.0
4373.670573437822 426.0
4375.709476680005 513.0
4377.747371802899 401.0
4379.784259351895 364.0
4381.820139871951 323.0
4383.855013907556 232.0
4385.888882002757 252.0
4387.921744701142 216.0
4389.953602545866 200.0
4391.984456079612 197.0
4394.014305844623 164.0
4396.043152382701 151.0
4398.070996235179 258.0
4400.0978379429625 148.0
4402.123678046491 97.0
4404.148517085772 104.0
4406.172355600349 111.0
4408.195194129342 108.0
4410.217033211396 114.0
4412.237873384736 90.0
4414.257715187123 122.0
4416.2765591558855 55.0
4418.294405827894 44.0
4420.3112557395925 61.0
4422.32710942696 81.0
4424.3419674255565 116.0
4426.355830270479 27.0
4428.36869849639 88.0
4430.380572637508 54.0
4432.39145322761 28.0
4434.401340800034 48.0
4436.410235887675 63.0
4438.4181390229905 66.0
4440.425050737994 70.0
4442.430971564261 82.0
4444.435902032928 27.0
4446.439842674696 42.0
4448.442794019818 46.0
4450.444756598123 36.0
4452.445730938992 66.0
4454.44571757137 44.0
4456.444717023771 45.0
4458.442729824267 24.0
4460.4397565005 70.0
4462.435797579665 48.0
4464.430853588542 4.0
4466.424925053455 55.0
4468.418012500315 52.0
4470.410116454574 23.0
4472.401237441276 2.0
4474.391375985009 15.0
4476.380532609956 37.0
4478.368707839836 37.0
4480.355902197963 2.0
4482.342116207208 21.0
4484.327350390012 -10.0
4486.3116052683845 20.0
4488.294881363911 19.0
4490.277179197734 50.0
4492.258499290585 15.0
4494.2388421627575 20.0
4496.218208334109 12.0
4498.196598324087 14.0
4500.174012651698 28.0
4502.150451835519 -14.0
4504.125916393715 23.0
4506.100406844011 -5.0
4508.073923703707 22.0
4510.046467489687 10.0
4512.018038718405 -8.0
4513.98863790589 8.0
4515.9582655677395 6.0
4517.926922219141 25.0
4519.894608374854 -16.0
4521.861324549197 -26.0
4523.827071256099 8.0
4525.791849009041 -5.0
4527.755658321092 -6.0
4529.718499704895 51.0
4531.680373672676 18.0
