0 459.0
1 475.0
2 453.0
3 524.0
4 453.0
5 491.0
6 481.0
7 512.0
8 468.0
9 448.0
10 485.0
11 492.0
12 472.0
13 472.0
14 466.0
15 448.0
16 482.0
17 484.0
18 448.0
19 491.0
20 476.0
21 503.0
22 446.0
23 536.0
24 489.0
25 472.0
26 481.0
27 493.0
28 454.0
29 510.0
30 436.0
31 510.0
32 434.0
33 431.0
34 403.0
35 446.0
36 469.0
37 463.0
38 417.0
39 481.0
40 451.0
41 470.0
42 479.0
43 424.0
44 430.0
45 451.0
46 445.0
47 465.0
48 470.0
49 459.0
50 429.0
51 452.0
52 466.0
53 439.0
54 439.0
55 460.0
56 438.0
57 439.0
58 445.0
59 455.0
60 456.0
61 447.0
62 443.0
63 444.0
64 425.0
65 452.0
66 419.0
67 439.0
68 422.0
69 444.0
70 446.0
71 461.0
72 423.0
73 489.0
74 446.0
75 469.0
76 400.0
77 465.0
78 466.0
79 419.0
80 454.0
81 454.0
82 432.0
83 461.0
84 419.0
85 487.0
86 457.0
87 468.0
88 436.0
89 453.0
90 429.0
91 428.0
92 442.0
93 464.0
94 504.0
95 428.0
96 448.0
97 453.0
98 438.0
99 448.0
100 456.0
101 436.0
102 428.0
103 439.0
104 392.0
105 412.0
106 454.0
107 448.0
108 435.0
109 452.0
110 452.0
111 467.0
112 438.0
113 447.0
114 484.0
115 474.0
116 419.0
117 441.0
118 423.0
119 438.0
120 493.0
121 479.0
122 442.0
123 469.0
124 399.0
125 484.0
126 451.0
127 443.0
128 446.0
129 471.0
130 468.0
131 477.0
132 447.0
133 459.0
134 465.0
135 504.0
136 452.0
137 463.0
138 483.0
139 470.0
140 462.0
141 470.0
142 455.0
143 447.0
144 495.0
145 463.0
146 455.0
147 445.0
148 461.0
149 475.0
150 417.0
151 463.0
152 472.0
153 476.0
154 471.0
155 464.0
156 459.0
157 464.0
158 484.0
159 481.0
160 436.0
161 461.0
162 446.0
163 462.0
164 482.0
165 466.0
166 434.0
167 471.0
168 431.0
169 469.0
170 441.0
171 455.0
172 475.0
173 469.0
174 460.0
175 442.0
176 475.0
177 495.0
178 472.0
179 448.0
180 455.0
181 465.0
182 459.0
183 442.0
184 480.0
185 509.0
186 448.0
187 431.0
188 443.0
189 494.0
190 486.0
191 480.0
192 429.0
193 467.0
194 441.0
195 451.0
196 492.0
197 478.0
198 469.0
199 452.0
200 453.0
201 456.0
202 447.0
203 442.0
204 476.0
205 462.0
206 470.0
207 445.0
208 445.0
209 464.0
210 441.0
211 441.0
212 430.0
213 468.0
214 460.0
215 434.0
216 430.0
217 453.0
218 452.0
219 428.0
220 417.0
221 455.0
222 456.0
223 446.0
224 452.0
225 436.0
226 487.0
227 446.0
228 459.0
229 434.0
230 448.0
231 457.0
232 443.0
233 467.0
234 429.0
235 498.0
236 410.0
237 483.0
238 397.0
239 466.0
240 457.0
241 489.0
242 463.0
243 468.0
244 447.0
245 432.0
246 460.0
247 499.0
248 450.0
249 461.0
250 472.0
251 462.0
252 469.0
253 469.0
254 482.0
255 496.0
256 439.0
257 486.0
258 462.0
259 449.0
260 468.0
261 507.0
262 449.0
263 447.0
264 450.0
265 470.0
266 453.0
267 472.0
268 459.0
269 487.0
270 453.0
271 426.0
272 456.0
273 495.0
274 475.0
275 470.0
276 491.0
277 478.0
278 481.0
279 439.0
280 461.0
281 465.0
282 485.0
283 478.0
284 479.0
285 448.0
286 466.0
287 484.0
288 473.0
289 493.0
290 422.0
291 453.0
292 426.0
293 534.0
294 440.0
295 421.0
296 470.0
297 449.0
298 467.0
299 458.0
300 488.0
301 467.0
302 448.0
303 439.0
304 485.0
305 460.0
306 469.0
307 458.0
308 451.0
309 476.0
310 442.0
311 452.0
312 449.0
313 483.0
314 460.0
315 503.0
316 438.0
317 488.0
318 459.0
319 482.0
320 441.0
321 439.0
322 466.0
323 419.0
324 465.0
325 480.0
326 453.0
327 459.0
328 445.0
329 452.0
330 436.0
331 434.0
332 471.0
333 448.0
334 446.0
335 474.0
336 463.0
337 449.0
338 418.0
339 451.0
340 459.0
341 471.0
342 442.0
343 431.0
344 455.0
345 461.0
346 457.0
347 473.0
348 453.0
349 481.0
350 462.0
351 470.0
352 476.0
353 496.0
354 444.0
355 447.0
356 451.0
357 486.0
358 452.0
359 464.0
360 515.0
361 455.0
362 509.0
363 430.0
364 474.0
365 511.0
366 439.0
367 460.0
368 513.0
369 489.0
370 471.0
371 471.0
372 480.0
373 432.0
374 430.0
375 505.0
376 469.0
377 496.0
378 444.0
379 481.0
380 492.0
381 500.0
382 462.0
383 508.0
384 474.0
385 466.0
386 442.0
387 485.0
388 490.0
389 445.0
390 465.0
391 477.0
392 440.0
393 489.0
394 434.0
395 476.0
396 482.0
397 454.0
398 478.0
399 433.0
400 438.0
401 463.0
402 447.0
403 491.0
404 496.0
405 467.0
406 465.0
407 503.0
408 417.0
409 472.0
410 467.0
411 464.0
412 483.0
413 472.0
414 438.0
415 451.0
416 480.0
417 491.0
418 488.0
419 471.0
420 437.0
421 484.0
422 431.0
423 442.0
424 453.0
425 478.0
426 460.0
427 455.0
428 445.0
429 492.0
430 481.0
431 482.0
432 451.0
433 478.0
434 504.0
435 468.0
436 481.0
437 507.0
438 435.0
439 458.0
440 504.0
441 472.0
442 469.0
443 471.0
444 447.0
445 504.0
446 506.0
447 458.0
448 461.0
449 441.0
450 456.0
451 475.0
452 493.0
453 512.0
454 488.0
455 500.0
456 497.0
457 444.0
458 444.0
459 476.0
460 444.0
461 468.0
462 452.0
463 448.0
464 496.0
465 440.0
466 492.0
467 466.0
468 482.0
469 478.0
470 462.0
471 508.0
472 441.0
473 465.0
474 475.0
475 511.0
476 480.0
477 482.0
478 430.0
479 439.0
480 483.0
481 514.0
482 487.0
483 459.0
484 479.0
485 503.0
486 503.0
487 463.0
488 443.0
489 497.0
490 461.0
491 493.0
492 503.0
493 465.0
494 492.0
495 512.0
496 480.0
497 469.0
498 478.0
499 462.0
500 414.0
501 492.0
502 502.0
503 495.0
504 479.0
505 463.0
506 490.0
507 463.0
508 463.0
509 491.0
510 519.0
511 505.0
512 469.0
513 505.0
514 445.0
515 499.0
516 442.0
517 456.0
518 446.0
519 430.0
520 473.0
521 501.0
522 504.0
523 509.0
524 483.0
525 442.0
526 452.0
527 466.0
528 478.0
529 479.0
530 483.0
531 426.0
532 499.0
533 473.0
534 485.0
535 501.0
536 523.0
537 421.0
538 488.0
539 458.0
540 482.0
541 519.0
542 514.0
543 504.0
544 461.0
545 491.0
546 449.0
547 501.0
548 458.0
549 470.0
550 447.0
551 492.0
552 458.0
553 495.0
554 475.0
555 485.0
556 436.0
557 457.0
558 441.0
559 443.0
560 502.0
561 446.0
562 440.0
563 472.0
564 495.0
565 473.0
566 465.0
567 466.0
568 474.0
569 511.0
570 458.0
571 468.0
572 429.0
573 433.0
574 479.0
575 447.0
576 436.0
577 432.0
578 480.0
579 481.0
580 467.0
581 504.0
582 480.0
583 468.0
584 452.0
585 489.0
586 442.0
587 498.0
588 438.0
589 446.0
590 476.0
591 453.0
592 467.0
593 473.0
594 505.0
595 436.0
596 440.0
597 505.0
598 474.0
599 496.0
600 452.0
601 482.0
602 500.0
603 475.0
604 446.0
605 524.0
606 487.0
607 466.0
608 473.0
609 473.0
610 464.0
611 491.0
612 493.0
613 488.0
614 490.0
615 490.0
616 471.0
617 524.0
618 454.0
619 511.0
620 481.0
621 467.0
622 446.0
623 463.0
624 491.0
625 480.0
626 475.0
627 503.0
628 451.0
629 483.0
630 486.0
631 481.0
632 509.0
633 497.0
634 535.0
635 495.0
636 502.0
637 508.0
638 496.0
639 501.0
640 499.0
641 515.0
642 466.0
643 474.0
644 474.0
645 485.0
646 495.0
647 521.0
648 471.0
649 499.0
650 492.0
651 491.0
652 498.0
653 445.0
654 489.0
655 436.0
656 453.0
657 509.0
658 460.0
659 488.0
660 440.0
661 504.0
662 464.0
663 476.0
664 488.0
665 502.0
666 466.0
667 492.0
668 458.0
669 476.0
670 445.0
671 443.0
672 458.0
673 443.0
674 438.0
675 438.0
676 433.0
677 501.0
678 463.0
679 439.0
680 479.0
681 494.0
682 478.0
683 471.0
684 459.0
685 451.0
686 431.0
687 457.0
688 465.0
689 439.0
690 451.0
691 465.0
692 462.0
693 430.0
694 441.0
695 425.0
696 454.0
697 475.0
698 481.0
699 452.0
700 426.0
701 481.0
702 449.0
703 438.0
704 414.0
705 415.0
706 430.0
707 454.0
708 407.0
709 461.0
710 413.0
711 415.0
712 393.0
713 415.0
714 434.0
715 438.0
716 407.0
717 416.0
718 375.0
719 409.0
720 439.0
721 405.0
722 414.0
723 435.0
724 410.0
725 419.0
726 416.0
727 453.0
728 399.0
729 411.0
730 415.0
731 428.0
732 424.0
733 439.0
734 407.0
735 417.0
736 390.0
737 428.0
738 447.0
739 393.0
740 434.0
741 449.0
742 408.0
743 433.0
744 416.0
745 443.0
746 420.0
747 434.0
748 436.0
749 420.0
750 415.0
751 396.0
752 457.0
753 384.0
754 420.0
755 435.0
756 424.0
757 442.0
758 390.0
759 420.0
760 429.0
761 444.0
762 421.0
763 445.0
764 470.0
765 432.0
766 402.0
767 400.0
768 430.0
769 417.0
770 428.0
771 419.0
772 406.0
773 443.0
774 434.0
775 396.0
776 403.0
777 457.0
778 451.0
779 405.0
780 422.0
781 411.0
782 412.0
783 421.0
784 454.0
785 443.0
786 405.0
787 426.0
788 408.0
789 421.0
790 421.0
791 420.0
792 427.0
793 430.0
794 436.0
795 412.0
796 454.0
797 429.0
798 395.0
799 400.0
800 412.0
801 437.0
802 428.0
803 451.0
804 394.0
805 452.0
806 394.0
807 404.0
808 419.0
809 407.0
810 396.0
811 395.0
812 380.0
813 427.0
814 433.0
815 444.0
816 439.0
817 432.0
818 419.0
819 406.0
820 368.0
821 437.0
822 434.0
823 413.0
824 471.0
825 404.0
826 392.0
827 431.0
828 386.0
829 429.0
830 352.0
831 426.0
832 443.0
833 435.0
834 428.0
835 456.0
836 409.0
837 459.0
838 471.0
839 454.0
840 432.0
841 422.0
842 411.0
843 461.0
844 435.0
845 482.0
846 413.0
847 405.0
848 446.0
849 427.0
850 409.0
851 406.0
852 396.0
853 443.0
854 425.0
855 456.0
856 413.0
857 392.0
858 397.0
859 420.0
860 404.0
861 420.0
862 420.0
863 410.0
864 374.0
865 434.0
866 446.0
867 382.0
868 423.0
869 385.0
870 431.0
871 389.0
872 403.0
873 363.0
874 400.0
875 413.0
876 396.0
877 431.0
878 417.0
879 414.0
880 414.0
881 374.0
882 399.0
883 398.0
884 403.0
885 445.0
886 389.0
887 389.0
888 379.0
889 419.0
890 386.0
891 396.0
892 402.0
893 433.0
894 385.0
895 407.0
896 398.0
897 417.0
898 424.0
899 424.0
900 415.0
901 401.0
902 426.0
903 428.0
904 426.0
905 423.0
906 406.0
907 405.0
908 408.0
909 385.0
910 393.0
911 369.0
912 416.0
913 376.0
914 418.0
915 376.0
916 382.0
917 390.0
918 376.0
919 423.0
920 424.0
921 413.0
922 417.0
923 410.0
924 453.0
925 412.0
926 416.0
927 414.0
928 433.0
929 400.0
930 404.0
931 408.0
932 411.0
933 418.0
934 450.0
935 430.0
936 452.0
937 431.0
938 381.0
939 399.0
940 399.0
941 386.0
942 393.0
943 426.0
944 393.0
945 441.0
946 419.0
947 434.0
948 405.0
949 456.0
950 450.0
951 427.0
952 421.0
953 426.0
954 400.0
955 401.0
956 417.0
957 446.0
958 397.0
959 410.0
960 436.0
961 448.0
962 431.0
963 392.0
964 397.0
965 422.0
966 432.0
967 383.0
968 438.0
969 400.0
970 427.0
971 436.0
972 407.0
973 441.0
974 438.0
975 403.0
976 452.0
977 439.0
978 448.0
979 413.0
980 439.0
981 456.0
982 413.0
983 434.0
984 390.0
985 443.0
986 442.0
987 406.0
988 427.0
989 425.0
990 439.0
991 415.0
992 391.0
993 457.0
994 436.0
995 465.0
996 445.0
997 423.0
998 382.0
999 438.0
1000 404.0
1001 446.0
1002 387.0
1003 411.0
1004 435.0
1005 446.0
1006 381.0
1007 405.0
1008 459.0
1009 431.0
1010 423.0
1011 424.0
1012 406.0
1013 423.0
1014 429.0
1015 429.0
1016 400.0
1017 405.0
1018 403.0
1019 400.0
1020 384.0
1021 424.0
1022 444.0
1023 411.0
1024 422.0
1025 448.0
1026 430.0
1027 418.0
1028 401.0
1029 413.0
1030 378.0
1031 421.0
1032 425.0
1033 440.0
1034 434.0
1035 403.0
1036 426.0
1037 412.0
1038 428.0
1039 415.0
1040 429.0
1041 387.0
1042 418.0
1043 424.0
1044 395.0
1045 420.0
1046 413.0
1047 435.0
1048 446.0
1049 447.0
1050 406.0
1051 444.0
1052 431.0
1053 407.0
1054 427.0
1055 457.0
1056 400.0
1057 433.0
1058 421.0
1059 437.0
1060 456.0
1061 426.0
1062 438.0
1063 400.0
1064 430.0
1065 466.0
1066 415.0
1067 425.0
1068 406.0
1069 455.0
1070 409.0
1071 401.0
1072 430.0
1073 409.0
1074 387.0
1075 454.0
1076 404.0
1077 401.0
1078 424.0
1079 457.0
1080 455.0
1081 458.0
1082 466.0
1083 432.0
1084 416.0
1085 415.0
1086 415.0
1087 447.0
1088 428.0
1089 440.0
1090 451.0
1091 407.0
1092 431.0
1093 448.0
1094 430.0
1095 439.0
1096 405.0
1097 463.0
1098 422.0
1099 433.0
1100 449.0
1101 418.0
1102 409.0
1103 473.0
1104 448.0
1105 436.0
1106 401.0
1107 410.0
1108 440.0
1109 460.0
1110 416.0
1111 428.0
1112 443.0
1113 436.0
1114 404.0
1115 440.0
1116 418.0
1117 475.0
1118 438.0
1119 450.0
1120 458.0
1121 419.0
1122 457.0
1123 427.0
1124 427.0
1125 411.0
1126 433.0
1127 438.0
1128 435.0
1129 433.0
1130 435.0
1131 450.0
1132 445.0
1133 411.0
1134 412.0
1135 427.0
1136 443.0
1137 408.0
1138 481.0
1139 476.0
1140 465.0
1141 455.0
1142 442.0
1143 462.0
1144 440.0
1145 450.0
1146 431.0
1147 465.0
1148 413.0
1149 462.0
1150 463.0
1151 439.0
1152 410.0
1153 482.0
1154 443.0
1155 391.0
1156 445.0
1157 473.0
1158 423.0
1159 459.0
1160 457.0
1161 448.0
1162 446.0
1163 449.0
1164 433.0
1165 460.0
1166 428.0
1167 395.0
1168 422.0
1169 438.0
1170 440.0
1171 438.0
1172 413.0
1173 453.0
1174 411.0
1175 418.0
1176 447.0
1177 430.0
1178 424.0
1179 433.0
1180 463.0
1181 433.0
1182 431.0
1183 424.0
1184 450.0
1185 439.0
1186 394.0
1187 433.0
1188 418.0
1189 405.0
1190 413.0
1191 445.0
1192 416.0
1193 435.0
1194 416.0
1195 406.0
1196 438.0
1197 440.0
1198 409.0
1199 398.0
1200 445.0
1201 457.0
1202 414.0
1203 418.0
1204 405.0
1205 428.0
1206 464.0
1207 427.0
1208 437.0
1209 412.0
1210 438.0
1211 436.0
1212 431.0
1213 416.0
1214 426.0
1215 437.0
1216 458.0
1217 465.0
1218 430.0
1219 427.0
1220 448.0
1221 411.0
1222 426.0
1223 439.0
1224 435.0
1225 416.0
1226 423.0
1227 465.0
1228 389.0
1229 461.0
1230 430.0
1231 423.0
1232 474.0
1233 422.0
1234 460.0
1235 441.0
1236 441.0
1237 469.0
1238 453.0
1239 472.0
1240 416.0
1241 466.0
1242 434.0
1243 454.0
1244 450.0
1245 452.0
1246 439.0
1247 473.0
1248 431.0
1249 477.0
1250 470.0
1251 461.0
1252 440.0
1253 465.0
1254 476.0
1255 463.0
1256 404.0
1257 464.0
1258 464.0
1259 414.0
1260 423.0
1261 454.0
1262 450.0
1263 412.0
1264 457.0
1265 437.0
1266 439.0
1267 445.0
1268 434.0
1269 448.0
1270 432.0
1271 469.0
1272 432.0
1273 465.0
1274 442.0
1275 444.0
1276 490.0
1277 480.0
1278 462.0
1279 447.0
1280 452.0
1281 433.0
1282 416.0
1283 449.0
1284 443.0
1285 460.0
1286 452.0
1287 440.0
1288 480.0
1289 447.0
1290 472.0
1291 468.0
1292 450.0
1293 496.0
1294 435.0
1295 446.0
1296 444.0
1297 435.0
1298 464.0
1299 457.0
1300 449.0
1301 466.0
1302 451.0
1303 468.0
1304 460.0
1305 486.0
1306 457.0
1307 427.0
1308 454.0
1309 468.0
1310 467.0
1311 444.0
1312 467.0
1313 439.0
1314 462.0
1315 499.0
1316 432.0
1317 455.0
1318 439.0
1319 455.0
1320 417.0
1321 478.0
1322 445.0
1323 449.0
1324 453.0
1325 474.0
1326 449.0
1327 410.0
1328 490.0
1329 472.0
1330 479.0
1331 446.0
1332 439.0
1333 461.0
1334 448.0
1335 455.0
1336 457.0
1337 443.0
1338 432.0
1339 458.0
1340 455.0
1341 412.0
1342 441.0
1343 458.0
1344 445.0
1345 471.0
1346 464.0
1347 428.0
1348 467.0
1349 472.0
1350 451.0
1351 438.0
1352 426.0
1353 451.0
1354 428.0
1355 433.0
1356 441.0
1357 439.0
1358 443.0
1359 424.0
1360 440.0
1361 424.0
1362 443.0
1363 471.0
1364 448.0
1365 462.0
1366 422.0
1367 441.0
1368 429.0
1369 434.0
1370 443.0
1371 475.0
1372 440.0
1373 406.0
1374 445.0
1375 431.0
1376 425.0
1377 456.0
1378 437.0
1379 456.0
1380 465.0
1381 438.0
1382 436.0
1383 436.0
1384 468.0
1385 428.0
1386 475.0
1387 434.0
1388 442.0
1389 438.0
1390 448.0
1391 431.0
1392 485.0
1393 441.0
1394 437.0
1395 450.0
1396 441.0
1397 436.0
1398 428.0
1399 414.0
1400 413.0
1401 458.0
1402 454.0
1403 416.0
1404 435.0
1405 438.0
1406 465.0
1407 447.0
1408 452.0
1409 477.0
1410 485.0
1411 430.0
1412 449.0
1413 458.0
1414 472.0
1415 490.0
1416 445.0
1417 492.0
1418 455.0
1419 482.0
1420 449.0
1421 448.0
1422 458.0
1423 469.0
1424 483.0
1425 454.0
1426 458.0
1427 475.0
1428 454.0
1429 491.0
1430 449.0
1431 459.0
1432 441.0
1433 453.0
1434 451.0
1435 456.0
1436 465.0
1437 444.0
1438 460.0
1439 439.0
1440 430.0
1441 456.0
1442 450.0
1443 468.0
1444 451.0
1445 455.0
1446 480.0
1447 439.0
1448 464.0
1449 463.0
1450 439.0
1451 458.0
1452 449.0
1453 454.0
1454 453.0
1455 439.0
1456 459.0
1457 434.0
1458 439.0
1459 448.0
1460 403.0
1461 449.0
1462 469.0
1463 427.0
1464 442.0
1465 485.0
1466 408.0
1467 454.0
1468 451.0
1469 427.0
1470 460.0
1471 432.0
1472 435.0
1473 497.0
1474 481.0
1475 482.0
1476 440.0
1477 449.0
1478 474.0
1479 448.0
1480 471.0
1481 444.0
1482 478.0
1483 441.0
1484 446.0
1485 439.0
1486 472.0
1487 467.0
1488 504.0
1489 455.0
1490 469.0
1491 448.0
1492 461.0
1493 456.0
1494 443.0
1495 498.0
1496 442.0
1497 486.0
1498 466.0
1499 447.0
1500 491.0
1501 495.0
1502 441.0
1503 457.0
1504 449.0
1505 453.0
1506 501.0
1507 462.0
1508 450.0
1509 438.0
1510 432.0
1511 436.0
1512 433.0
1513 447.0
1514 465.0
1515 466.0
1516 488.0
1517 400.0
1518 473.0
1519 478.0
1520 447.0
1521 438.0
1522 438.0
1523 458.0
1524 433.0
1525 481.0
1526 465.0
1527 443.0
1528 435.0
1529 488.0
1530 460.0
1531 444.0
1532 445.0
1533 477.0
1534 448.0
1535 452.0
1536 462.0
1537 460.0
1538 480.0
1539 466.0
1540 456.0
1541 469.0
1542 464.0
1543 488.0
1544 487.0
1545 478.0
1546 464.0
1547 472.0
1548 480.0
1549 461.0
1550 461.0
1551 426.0
1552 488.0
1553 444.0
1554 470.0
1555 458.0
1556 419.0
1557 514.0
1558 420.0
1559 483.0
1560 451.0
1561 467.0
1562 495.0
1563 506.0
1564 465.0
1565 483.0
1566 453.0
1567 517.0
1568 483.0
1569 460.0
1570 453.0
1571 490.0
1572 474.0
1573 473.0
1574 442.0
1575 442.0
1576 447.0
1577 445.0
1578 440.0
1579 459.0
1580 469.0
1581 455.0
1582 450.0
1583 464.0
1584 471.0
1585 494.0
1586 473.0
1587 491.0
1588 460.0
1589 475.0
1590 419.0
1591 454.0
1592 475.0
1593 466.0
1594 481.0
1595 475.0
1596 495.0
1597 479.0
1598 465.0
1599 436.0
1600 429.0
1601 479.0
1602 471.0
1603 496.0
1604 454.0
1605 430.0
1606 483.0
1607 447.0
1608 474.0
1609 475.0
1610 477.0
1611 481.0
1612 451.0
1613 501.0
1614 447.0
1615 478.0
1616 504.0
1617 463.0
1618 470.0
1619 501.0
1620 417.0
1621 464.0
1622 441.0
1623 489.0
1624 472.0
1625 474.0
1626 482.0
1627 462.0
1628 488.0
1629 470.0
1630 491.0
1631 467.0
1632 437.0
1633 480.0
1634 443.0
1635 487.0
1636 457.0
1637 478.0
1638 430.0
1639 467.0
1640 463.0
1641 478.0
1642 425.0
1643 453.0
1644 435.0
1645 455.0
1646 511.0
1647 448.0
1648 460.0
1649 493.0
1650 421.0
1651 447.0
1652 506.0
1653 476.0
1654 492.0
1655 496.0
1656 435.0
1657 461.0
1658 474.0
1659 478.0
1660 442.0
1661 497.0
1662 462.0
1663 471.0
1664 457.0
1665 457.0
1666 474.0
1667 489.0
1668 493.0
1669 460.0
1670 456.0
1671 457.0
1672 434.0
1673 420.0
1674 464.0
1675 482.0
1676 440.0
1677 461.0
1678 416.0
1679 438.0
1680 497.0
1681 434.0
1682 488.0
1683 472.0
1684 455.0
1685 510.0
1686 467.0
1687 416.0
1688 454.0
1689 475.0
1690 487.0
1691 457.0
1692 490.0
1693 475.0
1694 457.0
1695 443.0
1696 478.0
1697 451.0
1698 447.0
1699 474.0
1700 509.0
1701 469.0
1702 467.0
1703 421.0
1704 445.0
1705 510.0
1706 442.0
1707 501.0
1708 460.0
1709 464.0
1710 479.0
1711 447.0
1712 420.0
1713 460.0
1714 470.0
1715 451.0
1716 443.0
1717 474.0
1718 450.0
1719 473.0
1720 411.0
1721 463.0
1722 469.0
1723 473.0
1724 466.0
1725 459.0
1726 447.0
1727 522.0
1728 472.0
1729 479.0
1730 493.0
1731 477.0
1732 489.0
1733 460.0
1734 471.0
1735 460.0
1736 454.0
1737 480.0
1738 460.0
1739 471.0
1740 478.0
1741 509.0
1742 450.0
1743 434.0
1744 439.0
1745 481.0
1746 478.0
1747 449.0
1748 481.0
1749 443.0
1750 496.0
1751 495.0
1752 496.0
1753 502.0
1754 489.0
1755 482.0
1756 489.0
1757 478.0
1758 481.0
1759 500.0
1760 479.0
1761 502.0
1762 497.0
1763 490.0
1764 474.0
1765 495.0
1766 501.0
1767 524.0
1768 523.0
1769 489.0
1770 459.0
1771 486.0
1772 522.0
1773 513.0
1774 504.0
1775 461.0
1776 513.0
1777 489.0
1778 488.0
1779 504.0
1780 460.0
1781 498.0
1782 486.0
1783 460.0
1784 494.0
1785 462.0
1786 503.0
1787 457.0
1788 492.0
1789 509.0
1790 455.0
1791 487.0
1792 520.0
1793 478.0
1794 500.0
1795 473.0
1796 461.0
1797 484.0
1798 463.0
1799 478.0
1800 518.0
1801 482.0
1802 454.0
1803 485.0
1804 477.0
1805 475.0
1806 443.0
1807 431.0
1808 444.0
1809 468.0
1810 449.0
1811 477.0
1812 429.0
1813 460.0
1814 478.0
1815 478.0
1816 408.0
1817 462.0
1818 432.0
1819 447.0
1820 457.0
1821 472.0
1822 501.0
1823 462.0
1824 463.0
1825 424.0
1826 508.0
1827 466.0
1828 497.0
1829 473.0
1830 448.0
1831 464.0
1832 465.0
1833 466.0
1834 478.0
1835 450.0
1836 448.0
1837 488.0
1838 451.0
1839 447.0
1840 537.0
1841 492.0
1842 476.0
1843 463.0
1844 473.0
1845 452.0
1846 468.0
1847 474.0
1848 473.0
1849 458.0
1850 454.0
1851 494.0
1852 493.0
1853 458.0
1854 483.0
1855 493.0
1856 501.0
1857 500.0
1858 485.0
1859 513.0
1860 482.0
1861 496.0
1862 470.0
1863 512.0
1864 452.0
1865 501.0
1866 530.0
1867 475.0
1868 512.0
1869 508.0
1870 466.0
1871 481.0
1872 459.0
1873 476.0
1874 484.0
1875 507.0
1876 462.0
1877 479.0
1878 512.0
1879 480.0
1880 479.0
1881 519.0
1882 477.0
1883 466.0
1884 496.0
1885 497.0
1886 479.0
1887 480.0
1888 493.0
1889 480.0
1890 490.0
1891 457.0
1892 478.0
1893 450.0
1894 460.0
1895 489.0
1896 474.0
1897 483.0
1898 453.0
1899 480.0
1900 444.0
1901 501.0
1902 471.0
1903 476.0
1904 518.0
1905 442.0
1906 476.0
1907 475.0
1908 474.0
1909 487.0
1910 459.0
1911 448.0
1912 469.0
1913 455.0
1914 477.0
1915 491.0
1916 478.0
1917 460.0
1918 447.0
1919 444.0
1920 475.0
1921 481.0
1922 476.0
1923 471.0
1924 484.0
1925 463.0
1926 508.0
1927 442.0
1928 483.0
1929 510.0
1930 483.0
1931 472.0
1932 463.0
1933 469.0
1934 445.0
1935 479.0
1936 494.0
1937 497.0
1938 498.0
1939 526.0
1940 467.0
1941 473.0
1942 464.0
1943 485.0
1944 479.0
1945 491.0
1946 486.0
1947 488.0
1948 476.0
1949 465.0
1950 507.0
1951 461.0
1952 442.0
1953 536.0
1954 474.0
1955 497.0
1956 478.0
1957 519.0
1958 476.0
1959 467.0
1960 494.0
1961 515.0
1962 501.0
1963 488.0
1964 457.0
1965 501.0
1966 461.0
1967 492.0
1968 476.0
1969 480.0
1970 508.0
1971 508.0
1972 492.0
1973 490.0
1974 476.0
1975 544.0
1976 456.0
1977 468.0
1978 505.0
1979 494.0
1980 494.0
1981 462.0
1982 490.0
1983 504.0
1984 489.0
1985 501.0
1986 473.0
1987 519.0
1988 490.0
1989 514.0
1990 522.0
1991 494.0
1992 503.0
1993 491.0
1994 503.0
1995 509.0
1996 479.0
1997 495.0
1998 513.0
1999 479.0
2000 502.0
2001 505.0
2002 489.0
2003 500.0
2004 547.0
2005 501.0
2006 476.0
2007 500.0
2008 502.0
2009 477.0
2010 476.0
2011 500.0
2012 554.0
2013 479.0
2014 522.0
2015 486.0
2016 566.0
2017 537.0
2018 599.0
2019 519.0
2020 591.0
2021 543.0
2022 586.0
2023 575.0
2024 569.0
2025 589.0
2026 585.0
2027 543.0
2028 555.0
2029 592.0
2030 596.0
2031 574.0
2032 619.0
2033 549.0
2034 556.0
2035 608.0
2036 597.0
2037 571.0
2038 586.0
2039 596.0
2040 574.0
2041 594.0
2042 593.0
2043 567.0
2044 598.0
2045 591.0
2046 593.0
2047 584.0
