0 482.0
1 461.0
2 481.0
3 489.0
4 491.0
5 481.0
6 494.0
7 498.0
8 486.0
9 491.0
10 520.0
11 489.0
12 461.0
13 479.0
14 471.0
15 510.0
16 484.0
17 478.0
18 453.0
19 507.0
20 489.0
21 530.0
22 471.0
23 476.0
24 453.0
25 472.0
26 485.0
27 487.0
28 428.0
29 490.0
30 424.0
31 474.0
32 425.0
33 412.0
34 437.0
35 428.0
36 453.0
37 464.0
38 416.0
39 506.0
40 460.0
41 452.0
42 432.0
43 452.0
44 399.0
45 422.0
46 428.0
47 444.0
48 458.0
49 441.0
50 443.0
51 424.0
52 460.0
53 469.0
54 436.0
55 459.0
56 424.0
57 514.0
58 426.0
59 478.0
60 467.0
61 484.0
62 463.0
63 447.0
64 433.0
65 455.0
66 448.0
67 465.0
68 451.0
69 448.0
70 427.0
71 462.0
72 424.0
73 457.0
74 454.0
75 485.0
76 443.0
77 444.0
78 466.0
79 449.0
80 458.0
81 449.0
82 458.0
83 437.0
84 470.0
85 431.0
86 478.0
87 499.0
88 420.0
89 467.0
90 447.0
91 463.0
92 465.0
93 442.0
94 467.0
95 409.0
96 479.0
97 458.0
98 465.0
99 485.0
100 456.0
101 473.0
102 437.0
103 460.0
104 448.0
105 452.0
106 460.0
107 442.0
108 460.0
109 450.0
110 444.0
111 470.0
112 443.0
113 472.0
114 473.0
115 462.0
116 459.0
117 447.0
118 442.0
119 450.0
120 475.0
121 433.0
122 401.0
123 455.0
124 443.0
125 475.0
126 466.0
127 490.0
128 467.0
129 445.0
130 435.0
131 485.0
132 453.0
133 445.0
134 466.0
135 503.0
136 484.0
137 450.0
138 452.0
139 465.0
140 487.0
141 470.0
142 431.0
143 496.0
144 468.0
145 443.0
146 485.0
147 509.0
148 458.0
149 474.0
150 459.0
151 464.0
152 486.0
153 457.0
154 487.0
155 493.0
156 468.0
157 485.0
158 446.0
159 479.0
160 448.0
161 474.0
162 458.0
163 461.0
164 473.0
165 484.0
166 469.0
167 503.0
168 450.0
169 498.0
170 466.0
171 480.0
172 477.0
173 461.0
174 459.0
175 429.0
176 516.0
177 472.0
178 474.0
179 465.0
180 468.0
181 476.0
182 462.0
183 451.0
184 482.0
185 490.0
186 432.0
187 461.0
188 471.0
189 509.0
190 477.0
191 484.0
192 462.0
193 465.0
194 432.0
195 436.0
196 468.0
197 455.0
198 458.0
199 436.0
200 444.0
201 438.0
202 463.0
203 409.0
204 448.0
205 436.0
206 445.0
207 451.0
208 444.0
209 468.0
210 434.0
211 474.0
212 415.0
213 488.0
214 464.0
215 459.0
216 431.0
217 461.0
218 446.0
219 472.0
220 449.0
221 451.0
222 424.0
223 471.0
224 432.0
225 430.0
226 477.0
227 488.0
228 439.0
229 452.0
230 471.0
231 426.0
232 454.0
233 469.0
234 472.0
235 461.0
236 441.0
237 447.0
238 436.0
239 414.0
240 482.0
241 480.0
242 459.0
243 466.0
244 451.0
245 493.0
246 512.0
247 513.0
248 441.0
249 455.0
250 494.0
251 466.0
252 448.0
253 450.0
254 453.0
255 493.0
256 453.0
257 460.0
258 455.0
259 452.0
260 462.0
261 512.0
262 458.0
263 475.0
264 458.0
265 435.0
266 428.0
267 489.0
268 473.0
269 489.0
270 455.0
271 448.0
272 468.0
273 460.0
274 456.0
275 475.0
276 468.0
277 510.0
278 464.0
279 450.0
280 469.0
281 450.0
282 469.0
283 452.0
284 453.0
285 478.0
286 473.0
287 498.0
288 504.0
289 432.0
290 457.0
291 498.0
292 429.0
293 534.0
294 494.0
295 408.0
296 459.0
297 476.0
298 443.0
299 473.0
300 496.0
301 477.0
302 468.0
303 461.0
304 476.0
305 446.0
306 428.0
307 468.0
308 446.0
309 440.0
310 469.0
311 410.0
312 464.0
313 501.0
314 446.0
315 480.0
316 435.0
317 482.0
318 486.0
319 473.0
320 476.0
321 453.0
322 427.0
323 457.0
324 466.0
325 474.0
326 450.0
327 457.0
328 434.0
329 459.0
330 443.0
331 499.0
332 494.0
333 419.0
334 435.0
335 487.0
336 479.0
337 463.0
338 441.0
339 471.0
340 481.0
341 417.0
342 453.0
343 464.0
344 485.0
345 490.0
346 472.0
347 482.0
348 476.0
349 476.0
350 439.0
351 426.0
352 489.0
353 494.0
354 478.0
355 447.0
356 443.0
357 470.0
358 479.0
359 467.0
360 497.0
361 487.0
362 477.0
363 487.0
364 477.0
365 518.0
366 399.0
367 444.0
368 467.0
369 508.0
370 457.0
371 475.0
372 470.0
373 457.0
374 478.0
375 546.0
376 467.0
377 481.0
378 438.0
379 475.0
380 467.0
381 499.0
382 480.0
383 491.0
384 461.0
385 453.0
386 465.0
387 496.0
388 455.0
389 490.0
390 462.0
391 480.0
392 482.0
393 475.0
394 413.0
395 463.0
396 454.0
397 467.0
398 477.0
399 464.0
400 467.0
401 475.0
402 437.0
403 490.0
404 488.0
405 475.0
406 457.0
407 454.0
408 461.0
409 478.0
410 497.0
411 480.0
412 501.0
413 500.0
414 487.0
415 458.0
416 506.0
417 478.0
418 462.0
419 453.0
420 441.0
421 473.0
422 487.0
423 497.0
424 450.0
425 478.0
426 464.0
427 481.0
428 464.0
429 481.0
430 445.0
431 500.0
432 484.0
433 486.0
434 456.0
435 486.0
436 484.0
437 484.0
438 469.0
439 466.0
440 511.0
441 460.0
442 448.0
443 496.0
444 445.0
445 459.0
446 484.0
447 454.0
448 478.0
449 464.0
450 461.0
451 466.0
452 511.0
453 459.0
454 454.0
455 516.0
456 455.0
457 489.0
458 441.0
459 471.0
460 436.0
461 477.0
462 452.0
463 498.0
464 489.0
465 472.0
466 430.0
467 456.0
468 499.0
469 484.0
470 486.0
471 495.0
472 468.0
473 467.0
474 512.0
475 497.0
476 459.0
477 492.0
478 491.0
479 468.0
480 502.0
481 483.0
482 478.0
483 479.0
484 496.0
485 493.0
486 503.0
487 475.0
488 459.0
489 494.0
490 512.0
491 525.0
492 525.0
493 483.0
494 479.0
495 514.0
496 492.0
497 478.0
498 487.0
499 439.0
500 449.0
501 476.0
502 509.0
503 491.0
504 497.0
505 482.0
506 456.0
507 500.0
508 471.0
509 484.0
510 501.0
511 490.0
512 424.0
513 473.0
514 452.0
515 504.0
516 449.0
517 492.0
518 484.0
519 470.0
520 470.0
521 480.0
522 488.0
523 496.0
524 473.0
525 469.0
526 426.0
527 508.0
528 472.0
529 510.0
530 462.0
531 507.0
532 498.0
533 478.0
534 495.0
535 523.0
536 477.0
537 447.0
538 475.0
539 471.0
540 487.0
541 496.0
542 505.0
543 499.0
544 493.0
545 481.0
546 466.0
547 478.0
548 485.0
549 462.0
550 442.0
551 511.0
552 461.0
553 468.0
554 475.0
555 487.0
556 443.0
557 490.0
558 464.0
559 447.0
560 507.0
561 481.0
562 419.0
563 444.0
564 461.0
565 451.0
566 446.0
567 471.0
568 490.0
569 480.0
570 471.0
571 459.0
572 439.0
573 453.0
574 428.0
575 445.0
576 451.0
577 437.0
578 452.0
579 486.0
580 504.0
581 451.0
582 486.0
583 526.0
584 419.0
585 488.0
586 459.0
587 495.0
588 449.0
589 497.0
590 466.0
591 481.0
592 491.0
593 442.0
594 496.0
595 481.0
596 488.0
597 481.0
598 469.0
599 482.0
600 470.0
601 498.0
602 450.0
603 476.0
604 479.0
605 501.0
606 479.0
607 473.0
608 478.0
609 451.0
610 498.0
611 461.0
612 498.0
613 519.0
614 481.0
615 495.0
616 486.0
617 505.0
618 473.0
619 522.0
620 459.0
621 469.0
622 464.0
623 456.0
624 523.0
625 493.0
626 446.0
627 508.0
628 436.0
629 521.0
630 448.0
631 483.0
632 420.0
633 496.0
634 506.0
635 462.0
636 511.0
637 470.0
638 474.0
639 511.0
640 457.0
641 499.0
642 461.0
643 491.0
644 461.0
645 484.0
646 469.0
647 506.0
648 461.0
649 472.0
650 466.0
651 468.0
652 483.0
653 492.0
654 474.0
655 435.0
656 470.0
657 493.0
658 452.0
659 495.0
660 451.0
661 503.0
662 484.0
663 470.0
664 481.0
665 489.0
666 457.0
667 478.0
668 485.0
669 512.0
670 462.0
671 470.0
672 499.0
673 442.0
674 432.0
675 473.0
676 453.0
677 495.0
678 469.0
679 448.0
680 484.0
681 474.0
682 485.0
683 440.0
684 452.0
685 442.0
686 457.0
687 470.0
688 464.0
689 444.0
690 435.0
691 458.0
692 467.0
693 436.0
694 460.0
695 467.0
696 433.0
697 493.0
698 444.0
699 440.0
700 463.0
701 462.0
702 440.0
703 456.0
704 446.0
705 423.0
706 433.0
707 476.0
708 462.0
709 465.0
710 397.0
711 390.0
712 398.0
713 453.0
714 456.0
715 432.0
716 433.0
717 415.0
718 394.0
719 442.0
720 448.0
721 418.0
722 453.0
723 425.0
724 399.0
725 428.0
726 415.0
727 424.0
728 442.0
729 421.0
730 386.0
731 387.0
732 390.0
733 419.0
734 440.0
735 407.0
736 437.0
737 429.0
738 435.0
739 392.0
740 437.0
741 428.0
742 432.0
743 435.0
744 424.0
745 442.0
746 418.0
747 410.0
748 425.0
749 384.0
750 381.0
751 437.0
752 449.0
753 430.0
754 436.0
755 410.0
756 444.0
757 418.0
758 409.0
759 438.0
760 395.0
761 434.0
762 419.0
763 424.0
764 439.0
765 405.0
766 403.0
767 457.0
768 398.0
769 413.0
770 452.0
771 409.0
772 400.0
773 419.0
774 422.0
775 412.0
776 434.0
777 460.0
778 457.0
779 405.0
780 436.0
781 429.0
782 418.0
783 408.0
784 450.0
785 416.0
786 414.0
787 433.0
788 440.0
789 449.0
790 420.0
791 421.0
792 406.0
793 424.0
794 406.0
795 400.0
796 400.0
797 419.0
798 390.0
799 393.0
800 410.0
801 456.0
802 419.0
803 427.0
804 400.0
805 451.0
806 424.0
807 417.0
808 409.0
809 400.0
810 419.0
811 400.0
812 398.0
813 434.0
814 432.0
815 407.0
816 424.0
817 413.0
818 423.0
819 370.0
820 461.0
821 470.0
822 402.0
823 469.0
824 429.0
825 414.0
826 403.0
827 447.0
828 412.0
829 410.0
830 397.0
831 427.0
832 401.0
833 450.0
834 417.0
835 438.0
836 427.0
837 438.0
838 433.0
839 426.0
840 411.0
841 417.0
842 451.0
843 426.0
844 443.0
845 423.0
846 404.0
847 435.0
848 477.0
849 413.0
850 401.0
851 382.0
852 433.0
853 440.0
854 404.0
855 440.0
856 417.0
857 408.0
858 438.0
859 408.0
860 400.0
861 406.0
862 414.0
863 423.0
864 398.0
865 438.0
866 397.0
867 411.0
868 397.0
869 399.0
870 393.0
871 398.0
872 413.0
873 404.0
874 387.0
875 402.0
876 417.0
877 410.0
878 418.0
879 363.0
880 417.0
881 394.0
882 407.0
883 383.0
884 409.0
885 404.0
886 399.0
887 427.0
888 381.0
889 386.0
890 384.0
891 457.0
892 413.0
893 412.0
894 413.0
895 422.0
896 354.0
897 432.0
898 402.0
899 414.0
900 415.0
901 397.0
902 456.0
903 419.0
904 371.0
905 405.0
906 408.0
907 420.0
908 379.0
909 433.0
910 426.0
911 398.0
912 396.0
913 391.0
914 416.0
915 399.0
916 395.0
917 376.0
918 425.0
919 406.0
920 375.0
921 423.0
922 424.0
923 432.0
924 393.0
925 431.0
926 389.0
927 414.0
928 376.0
929 400.0
930 433.0
931 426.0
932 393.0
933 394.0
934 446.0
935 454.0
936 417.0
937 432.0
938 403.0
939 427.0
940 417.0
941 390.0
942 436.0
943 409.0
944 425.0
945 436.0
946 421.0
947 408.0
948 426.0
949 440.0
950 416.0
951 434.0
952 444.0
953 449.0
954 430.0
955 400.0
956 403.0
957 428.0
958 432.0
959 429.0
960 446.0
961 421.0
962 402.0
963 410.0
964 388.0
965 391.0
966 412.0
967 411.0
968 431.0
969 414.0
970 453.0
971 466.0
972 419.0
973 447.0
974 459.0
975 414.0
976 439.0
977 435.0
978 461.0
979 393.0
980 411.0
981 445.0
982 417.0
983 458.0
984 400.0
985 455.0
986 446.0
987 430.0
988 437.0
989 432.0
990 447.0
991 425.0
992 413.0
993 458.0
994 462.0
995 429.0
996 430.0
997 434.0
998 387.0
999 471.0
1000 436.0
1001 429.0
1002 423.0
1003 403.0
1004 407.0
1005 410.0
1006 414.0
1007 457.0
1008 427.0
1009 429.0
1010 445.0
1011 441.0
1012 394.0
1013 411.0
1014 430.0
1015 426.0
1016 420.0
1017 415.0
1018 403.0
1019 423.0
1020 393.0
1021 438.0
1022 433.0
1023 441.0
1024 371.0
1025 428.0
1026 421.0
1027 398.0
1028 398.0
1029 413.0
1030 374.0
1031 428.0
1032 435.0
1033 437.0
1034 444.0
1035 469.0
1036 432.0
1037 399.0
1038 432.0
1039 378.0
1040 454.0
1041 392.0
1042 393.0
1043 402.0
1044 405.0
1045 447.0
1046 406.0
1047 454.0
1048 447.0
1049 418.0
1050 405.0
1051 451.0
1052 403.0
1053 449.0
1054 449.0
1055 440.0
1056 427.0
1057 425.0
1058 434.0
1059 424.0
1060 442.0
1061 405.0
1062 430.0
1063 419.0
1064 432.0
1065 463.0
1066 446.0
1067 461.0
1068 411.0
1069 452.0
1070 371.0
1071 387.0
1072 424.0
1073 423.0
1074 410.0
1075 431.0
1076 417.0
1077 440.0
1078 425.0
1079 427.0
1080 461.0
1081 404.0
1082 472.0
1083 456.0
1084 441.0
1085 434.0
1086 390.0
1087 466.0
1088 418.0
1089 426.0
1090 419.0
1091 417.0
1092 389.0
1093 407.0
1094 423.0
1095 423.0
1096 422.0
1097 424.0
1098 417.0
1099 433.0
1100 441.0
1101 429.0
1102 422.0
1103 434.0
1104 460.0
1105 434.0
1106 422.0
1107 417.0
1108 469.0
1109 440.0
1110 447.0
1111 431.0
1112 422.0
1113 436.0
1114 420.0
1115 471.0
1116 409.0
1117 453.0
1118 422.0
1119 436.0
1120 421.0
1121 436.0
1122 406.0
1123 443.0
1124 416.0
1125 400.0
1126 414.0
1127 419.0
1128 455.0
1129 446.0
1130 448.0
1131 433.0
1132 457.0
1133 389.0
1134 413.0
1135 428.0
1136 468.0
1137 430.0
1138 442.0
1139 454.0
1140 450.0
1141 442.0
1142 459.0
1143 465.0
1144 465.0
1145 437.0
1146 415.0
1147 421.0
1148 426.0
1149 456.0
1150 412.0
1151 447.0
1152 476.0
1153 453.0
1154 432.0
1155 430.0
1156 471.0
1157 478.0
1158 442.0
1159 440.0
1160 465.0
1161 493.0
1162 391.0
1163 427.0
1164 466.0
1165 476.0
1166 444.0
1167 413.0
1168 425.0
1169 439.0
1170 420.0
1171 432.0
1172 398.0
1173 442.0
1174 423.0
1175 422.0
1176 468.0
1177 453.0
1178 469.0
1179 477.0
1180 423.0
1181 456.0
1182 404.0
1183 444.0
1184 440.0
1185 429.0
1186 436.0
1187 444.0
1188 420.0
1189 440.0
1190 430.0
1191 444.0
1192 450.0
1193 406.0
1194 442.0
1195 429.0
1196 424.0
1197 471.0
1198 413.0
1199 417.0
1200 484.0
1201 442.0
1202 409.0
1203 398.0
1204 418.0
1205 404.0
1206 431.0
1207 462.0
1208 439.0
1209 427.0
1210 394.0
1211 471.0
1212 437.0
1213 359.0
1214 397.0
1215 479.0
1216 429.0
1217 444.0
1218 409.0
1219 466.0
1220 415.0
1221 410.0
1222 436.0
1223 420.0
1224 439.0
1225 401.0
1226 415.0
1227 462.0
1228 470.0
1229 463.0
1230 408.0
1231 423.0
1232 443.0
1233 455.0
1234 457.0
1235 462.0
1236 421.0
1237 465.0
1238 485.0
1239 486.0
1240 445.0
1241 456.0
1242 436.0
1243 440.0
1244 425.0
1245 460.0
1246 446.0
1247 482.0
1248 452.0
1249 426.0
1250 436.0
1251 395.0
1252 433.0
1253 434.0
1254 459.0
1255 420.0
1256 453.0
1257 478.0
1258 441.0
1259 451.0
1260 424.0
1261 452.0
1262 447.0
1263 422.0
1264 421.0
1265 462.0
1266 450.0
1267 459.0
1268 449.0
1269 436.0
1270 419.0
1271 451.0
1272 457.0
1273 432.0
1274 436.0
1275 473.0
1276 463.0
1277 482.0
1278 436.0
1279 442.0
1280 474.0
1281 461.0
1282 445.0
1283 418.0
1284 491.0
1285 445.0
1286 438.0
1287 442.0
1288 459.0
1289 429.0
1290 472.0
1291 453.0
1292 427.0
1293 469.0
1294 438.0
1295 420.0
1296 448.0
1297 435.0
1298 488.0
1299 485.0
1300 442.0
1301 494.0
1302 447.0
1303 486.0
1304 436.0
1305 467.0
1306 457.0
1307 431.0
1308 467.0
1309 518.0
1310 449.0
1311 428.0
1312 485.0
1313 441.0
1314 445.0
1315 474.0
1316 460.0
1317 440.0
1318 462.0
1319 474.0
1320 427.0
1321 462.0
1322 446.0
1323 473.0
1324 445.0
1325 487.0
1326 433.0
1327 419.0
1328 488.0
1329 452.0
1330 499.0
1331 468.0
1332 429.0
1333 440.0
1334 448.0
1335 435.0
1336 430.0
1337 428.0
1338 422.0
1339 454.0
1340 459.0
1341 453.0
1342 428.0
1343 455.0
1344 455.0
1345 501.0
1346 476.0
1347 422.0
1348 463.0
1349 457.0
1350 472.0
1351 450.0
1352 471.0
1353 431.0
1354 422.0
1355 456.0
1356 419.0
1357 457.0
1358 413.0
1359 423.0
1360 478.0
1361 403.0
1362 432.0
1363 436.0
1364 481.0
1365 463.0
1366 413.0
1367 462.0
1368 444.0
1369 442.0
1370 409.0
1371 474.0
1372 449.0
1373 430.0
1374 457.0
1375 424.0
1376 443.0
1377 456.0
1378 443.0
1379 452.0
1380 438.0
1381 423.0
1382 480.0
1383 465.0
1384 428.0
1385 421.0
1386 481.0
1387 416.0
1388 454.0
1389 420.0
1390 452.0
1391 476.0
1392 488.0
1393 449.0
1394 432.0
1395 480.0
1396 460.0
1397 442.0
1398 434.0
1399 486.0
1400 424.0
1401 456.0
1402 437.0
1403 475.0
1404 447.0
1405 456.0
1406 448.0
1407 418.0
1408 447.0
1409 451.0
1410 468.0
1411 422.0
1412 447.0
1413 453.0
1414 459.0
1415 458.0
1416 467.0
1417 443.0
1418 486.0
1419 493.0
1420 465.0
1421 457.0
1422 417.0
1423 457.0
1424 468.0
1425 456.0
1426 444.0
1427 458.0
1428 432.0
1429 502.0
1430 476.0
1431 456.0
1432 469.0
1433 438.0
1434 483.0
1435 434.0
1436 470.0
1437 462.0
1438 425.0
1439 447.0
1440 431.0
1441 489.0
1442 469.0
1443 456.0
1444 463.0
1445 431.0
1446 470.0
1447 430.0
1448 434.0
1449 445.0
1450 451.0
1451 441.0
1452 437.0
1453 459.0
1454 464.0
1455 485.0
1456 448.0
1457 468.0
1458 443.0
1459 498.0
1460 416.0
1461 458.0
1462 478.0
1463 415.0
1464 437.0
1465 456.0
1466 433.0
1467 445.0
1468 441.0
1469 474.0
1470 474.0
1471 460.0
1472 478.0
1473 476.0
1474 475.0
1475 459.0
1476 462.0
1477 455.0
1478 488.0
1479 463.0
1480 481.0
1481 449.0
1482 451.0
1483 458.0
1484 439.0
1485 428.0
1486 468.0
1487 481.0
1488 461.0
1489 459.0
1490 434.0
1491 452.0
1492 472.0
1493 478.0
1494 459.0
1495 473.0
1496 440.0
1497 458.0
1498 457.0
1499 439.0
1500 484.0
1501 470.0
1502 417.0
1503 466.0
1504 459.0
1505 440.0
1506 477.0
1507 456.0
1508 453.0
1509 437.0
1510 406.0
1511 464.0
1512 432.0
1513 454.0
1514 440.0
1515 479.0
1516 452.0
1517 466.0
1518 465.0
1519 470.0
1520 463.0
1521 444.0
1522 441.0
1523 472.0
1524 477.0
1525 469.0
1526 454.0
1527 454.0
1528 460.0
1529 460.0
1530 442.0
1531 455.0
1532 445.0
1533 466.0
1534 478.0
1535 415.0
1536 491.0
1537 476.0
1538 481.0
1539 465.0
1540 457.0
1541 453.0
1542 434.0
1543 482.0
1544 432.0
1545 468.0
1546 454.0
1547 447.0
1548 469.0
1549 448.0
1550 450.0
1551 469.0
1552 503.0
1553 440.0
1554 490.0
1555 455.0
1556 490.0
1557 497.0
1558 414.0
1559 461.0
1560 465.0
1561 481.0
1562 478.0
1563 435.0
1564 480.0
1565 432.0
1566 510.0
1567 497.0
1568 471.0
1569 476.0
1570 442.0
1571 489.0
1572 470.0
1573 455.0
1574 440.0
1575 453.0
1576 436.0
1577 439.0
1578 441.0
1579 472.0
1580 458.0
1581 444.0
1582 455.0
1583 480.0
1584 476.0
1585 513.0
1586 446.0
1587 469.0
1588 462.0
1589 482.0
1590 448.0
1591 461.0
1592 452.0
1593 473.0
1594 453.0
1595 474.0
1596 486.0
1597 464.0
1598 440.0
1599 440.0
1600 427.0
1601 471.0
1602 474.0
1603 486.0
1604 448.0
1605 465.0
1606 459.0
1607 469.0
1608 505.0
1609 482.0
1610 496.0
1611 503.0
1612 466.0
1613 488.0
1614 465.0
1615 486.0
1616 531.0
1617 485.0
1618 484.0
1619 530.0
1620 453.0
1621 473.0
1622 436.0
1623 488.0
1624 461.0
1625 486.0
1626 492.0
1627 472.0
1628 490.0
1629 474.0
1630 467.0
1631 462.0
1632 470.0
1633 477.0
1634 455.0
1635 483.0
1636 485.0
1637 483.0
1638 432.0
1639 491.0
1640 489.0
1641 470.0
1642 451.0
1643 482.0
1644 445.0
1645 506.0
1646 491.0
1647 481.0
1648 483.0
1649 446.0
1650 435.0
1651 449.0
1652 480.0
1653 507.0
1654 447.0
1655 489.0
1656 482.0
1657 414.0
1658 467.0
1659 467.0
1660 448.0
1661 469.0
1662 465.0
1663 473.0
1664 455.0
1665 448.0
1666 508.0
1667 490.0
1668 482.0
1669 479.0
1670 454.0
1671 446.0
1672 457.0
1673 449.0
1674 425.0
1675 447.0
1676 445.0
1677 466.0
1678 434.0
1679 434.0
1680 489.0
1681 462.0
1682 465.0
1683 477.0
1684 453.0
1685 482.0
1686 469.0
1687 434.0
1688 462.0
1689 518.0
1690 489.0
1691 468.0
1692 487.0
1693 471.0
1694 481.0
1695 460.0
1696 448.0
1697 453.0
1698 451.0
1699 488.0
1700 454.0
1701 488.0
1702 504.0
1703 439.0
1704 424.0
1705 515.0
1706 456.0
1707 472.0
1708 471.0
1709 468.0
1710 455.0
1711 464.0
1712 468.0
1713 449.0
1714 482.0
1715 457.0
1716 458.0
1717 488.0
1718 452.0
1719 479.0
1720 432.0
1721 431.0
1722 468.0
1723 492.0
1724 447.0
1725 442.0
1726 455.0
1727 500.0
1728 492.0
1729 475.0
1730 483.0
1731 487.0
1732 468.0
1733 472.0
1734 443.0
1735 461.0
1736 469.0
1737 478.0
1738 460.0
1739 497.0
1740 474.0
1741 458.0
1742 435.0
1743 460.0
1744 460.0
1745 419.0
1746 491.0
1747 485.0
1748 504.0
1749 460.0
1750 485.0
1751 475.0
1752 476.0
1753 472.0
1754 496.0
1755 476.0
1756 483.0
1757 478.0
1758 498.0
1759 490.0
1760 466.0
1761 511.0
1762 511.0
1763 489.0
1764 477.0
1765 489.0
1766 457.0
1767 507.0
1768 480.0
1769 498.0
1770 464.0
1771 484.0
1772 471.0
1773 524.0
1774 483.0
1775 470.0
1776 540.0
1777 483.0
1778 492.0
1779 493.0
1780 477.0
1781 490.0
1782 495.0
1783 454.0
1784 482.0
1785 488.0
1786 485.0
1787 489.0
1788 471.0
1789 473.0
1790 502.0
1791 488.0
1792 508.0
1793 455.0
1794 490.0
1795 463.0
1796 488.0
1797 482.0
1798 475.0
1799 467.0
1800 493.0
1801 454.0
1802 461.0
1803 477.0
1804 445.0
1805 484.0
1806 471.0
1807 452.0
1808 440.0
1809 476.0
1810 448.0
1811 467.0
1812 428.0
1813 456.0
1814 490.0
1815 470.0
1816 437.0
1817 492.0
1818 432.0
1819 503.0
1820 451.0
1821 472.0
1822 520.0
1823 446.0
1824 453.0
1825 475.0
1826 460.0
1827 450.0
1828 469.0
1829 490.0
1830 439.0
1831 428.0
1832 483.0
1833 448.0
1834 463.0
1835 467.0
1836 454.0
1837 433.0
1838 486.0
1839 469.0
1840 465.0
1841 465.0
1842 476.0
1843 463.0
1844 472.0
1845 470.0
1846 454.0
1847 468.0
1848 445.0
1849 444.0
1850 457.0
1851 481.0
1852 442.0
1853 458.0
1854 494.0
1855 444.0
1856 476.0
1857 459.0
1858 485.0
1859 489.0
1860 462.0
1861 464.0
1862 463.0
1863 500.0
1864 462.0
1865 501.0
1866 494.0
1867 489.0
1868 510.0
1869 487.0
1870 476.0
1871 453.0
1872 474.0
1873 451.0
1874 469.0
1875 496.0
1876 488.0
1877 473.0
1878 501.0
1879 510.0
1880 450.0
1881 474.0
1882 454.0
1883 494.0
1884 481.0
1885 477.0
1886 461.0
1887 469.0
1888 469.0
1889 508.0
1890 492.0
1891 478.0
1892 514.0
1893 456.0
1894 490.0
1895 448.0
1896 483.0
1897 441.0
1898 456.0
1899 479.0
1900 434.0
1901 497.0
1902 464.0
1903 452.0
1904 507.0
1905 455.0
1906 468.0
1907 472.0
1908 444.0
1909 467.0
1910 471.0
1911 450.0
1912 486.0
1913 484.0
1914 497.0
1915 499.0
1916 463.0
1917 461.0
1918 464.0
1919 452.0
1920 455.0
1921 479.0
1922 456.0
1923 458.0
1924 468.0
1925 453.0
1926 489.0
1927 476.0
1928 467.0
1929 496.0
1930 496.0
1931 440.0
1932 464.0
1933 489.0
1934 470.0
1935 440.0
1936 512.0
1937 486.0
1938 472.0
1939 475.0
1940 468.0
1941 456.0
1942 497.0
1943 480.0
1944 447.0
1945 542.0
1946 464.0
1947 466.0
1948 488.0
1949 467.0
1950 517.0
1951 478.0
1952 507.0
1953 532.0
1954 479.0
1955 530.0
1956 445.0
1957 507.0
1958 478.0
1959 499.0
1960 471.0
1961 480.0
1962 493.0
1963 467.0
1964 481.0
1965 487.0
1966 464.0
1967 496.0
1968 487.0
1969 458.0
1970 497.0
1971 496.0
1972 484.0
1973 465.0
1974 455.0
1975 490.0
1976 454.0
1977 486.0
1978 502.0
1979 483.0
1980 483.0
1981 481.0
1982 475.0
1983 469.0
1984 493.0
1985 511.0
1986 502.0
1987 509.0
1988 496.0
1989 498.0
1990 487.0
1991 485.0
1992 518.0
1993 496.0
1994 485.0
1995 499.0
1996 476.0
1997 481.0
1998 484.0
1999 470.0
2000 511.0
2001 522.0
2002 486.0
2003 488.0
2004 479.0
2005 505.0
2006 455.0
2007 491.0
2008 488.0
2009 471.0
2010 500.0
2011 475.0
2012 517.0
2013 502.0
2014 503.0
2015 496.0
2016 523.0
2017 538.0
2018 519.0
2019 531.0
2020 568.0
2021 529.0
2022 533.0
2023 589.0
2024 559.0
2025 600.0
2026 566.0
2027 572.0
2028 564.0
2029 555.0
2030 570.0
2031 575.0
2032 624.0
2033 580.0
2034 593.0
2035 545.0
2036 575.0
2037 538.0
2038 558.0
2039 602.0
2040 576.0
2041 603.0
2042 585.0
2043 593.0
2044 581.0
2045 594.0
2046 609.0
2047 598.0
