
Integration time [ms]:   1.000
Averaging Nr. [scans]: 1
Smoothing Nr. [pixels]: 0
Data measured with spectrometer [name]: NIR
Wave   ;Sample   ;Dark     ;Reference
[nm]   ;[counts] ;[counts] ;[counts] 

691.496;   -5.000;  163.125;    0.000
691.696;   23.000;  208.125;    0.000
691.896;   -7.000;  111.125;    0.000
692.096;    1.000;  178.125;    0.000
692.296;  -37.000;   93.125;    0.000
692.496;   17.000;  161.125;    0.000
692.695;  -47.000;  135.125;    0.000
692.895;   -8.000;  179.125;    0.000
693.095;  -36.000;  158.125;    0.000
693.295;    1.000;  168.125;    0.000
693.495;  -12.000;  170.125;    0.000
693.695;  -28.000;  155.125;    0.000
693.894;   24.000;  151.125;    0.000
694.094;   12.000;  164.125;    0.000
694.294;  -20.000;  129.125;    0.000
694.494;  314.000;  170.125;    0.000
694.693; 3256.000;  137.125;    0.000
694.893; 3702.000;  163.125;    0.000
695.093; 3610.000;  121.125;    0.000
695.293; 3780.000;  144.125;    0.000
695.492; 3603.000;   88.125;    0.000
695.692; 3738.000;  148.125;    0.000
695.891; 3767.000;  125.125;    0.000
696.091; 3695.000;  184.125;    0.000
696.291; 3732.000;  153.125;    0.000
696.490; 3721.000;  131.125;    0.000
696.690; 3795.000;  123.125;    0.000
696.889; 3891.000;  180.125;    0.000
697.089; 3767.000;  147.125;    0.000
697.288; 3820.000;  164.125;    0.000
697.488; 3766.000;  133.125;    0.000
697.687; 3791.000;  153.125;    0.000
697.887; 3767.000;  119.125;    0.000
698.086; 3799.000;  143.125;    0.000
698.286; 3818.000;  125.125;    0.000
698.485; 3899.000;  120.125;    0.000
698.684; 3827.000;  116.125;    0.000
698.884; 3805.000;  131.125;    0.000
699.083; 3775.000;  115.125;    0.000
699.282; 3781.000;  144.125;    0.000
699.482; 3843.000;  109.125;    0.000
699.681; 3863.000;  115.125;    0.000
699.880; 3846.000;  125.125;    0.000
700.080; 3931.000;  139.125;    0.000
700.279; 3788.000;  111.125;    0.000
700.478; 3903.000;  146.125;    0.000
700.677; 3965.000;  131.125;    0.000
700.877; 3869.000;  156.125;    0.000
701.076; 3939.000;  153.125;    0.000
701.275; 3880.000;  123.125;    0.000
701.474; 3873.000;  150.125;    0.000
701.673; 3904.000;   97.125;    0.000
701.872; 3818.000;  139.125;    0.000
702.071; 3855.000;  108.125;    0.000
702.271; 3944.000;  125.125;    0.000
702.470; 3946.000;  108.125;    0.000
702.669; 4018.000;  102.125;    0.000
702.868; 3891.000;  153.125;    0.000
703.067; 3923.000;  145.125;    0.000
703.266; 4024.000;   96.125;    0.000
703.465; 3923.000;  165.125;    0.000
703.664; 3897.000;  106.125;    0.000
703.863; 4005.000;  144.125;    0.000
704.062; 3971.000;   86.125;    0.000
704.260; 3940.000;   99.125;    0.000
704.459; 3871.000;  112.125;    0.000
704.658; 3960.000;  106.125;    0.000
704.857; 3954.000;  129.125;    0.000
705.056; 3961.000;   98.125;    0.000
705.255; 4058.000;   97.125;    0.000
705.454; 3943.000;  101.125;    0.000
705.652; 4034.000;  142.125;    0.000
705.851; 3943.000;  100.125;    0.000
706.050; 4096.000;  162.125;    0.000
706.249; 3993.000;  146.125;    0.000
706.447; 4009.000;  120.125;    0.000
706.646; 4059.000;  114.125;    0.000
706.845; 4091.000;  117.125;    0.000
707.043; 4042.000;  136.125;    0.000
707.242; 4048.000;   90.125;    0.000
707.441; 4154.000;  131.125;    0.000
707.639; 4085.000;  120.125;    0.000
707.838; 4095.000;  122.125;    0.000
708.037; 3957.000;  109.125;    0.000
708.235; 4122.000;  122.125;    0.000
708.434; 4079.000;  109.125;    0.000
708.632; 4054.000;   47.125;    0.000
708.831; 4185.000;  122.125;    0.000
709.029; 4176.000;  130.125;    0.000
709.228; 4129.000;  112.125;    0.000
709.426; 4341.000;  128.125;    0.000
709.625; 4101.000;  129.125;    0.000
709.823; 4154.000;  130.125;    0.000
710.022; 4180.000;   90.125;    0.000
710.220; 4118.000;  131.125;    0.000
710.418; 4316.000;  133.125;    0.000
710.617; 4344.000;   82.125;    0.000
710.815; 4177.000;   90.125;    0.000
711.013; 4208.000;   86.125;    0.000
711.212; 4233.000;  117.125;    0.000
711.410; 4296.000;  106.125;    0.000
711.608; 4236.000;  138.125;    0.000
711.807; 4270.000;  116.125;    0.000
712.005; 4256.000;   82.125;    0.000
712.203; 4368.000;   90.125;    0.000
712.401; 4396.000;  124.125;    0.000
712.599; 4324.000;   64.125;    0.000
712.798; 4379.000;  113.125;    0.000
712.996; 4336.000;  100.125;    0.000
713.194; 4296.000;  130.125;    0.000
713.392; 4324.000;   89.125;    0.000
713.590; 4388.000;  105.125;    0.000
713.788; 4447.000;  100.125;    0.000
713.986; 4410.000;  117.125;    0.000
714.184; 4368.000;   72.125;    0.000
714.382; 4602.000;   88.125;    0.000
714.580; 4484.000;   88.125;    0.000
714.778; 4813.000;  129.125;    0.000
714.976; 4759.000;   90.125;    0.000
715.174; 4612.000;  119.125;    0.000
715.372; 4919.000;  117.125;    0.000
715.570; 5142.000;  101.125;    0.000
715.768; 5566.000;  122.125;    0.000
715.966; 5511.000;  114.125;    0.000
716.164; 5404.000;  135.125;    0.000
716.362; 5335.000;  126.125;    0.000
716.560; 5083.000;  126.125;    0.000
716.758; 5121.000;   98.125;    0.000
716.955; 5003.000;   76.125;    0.000
717.153; 4792.000;   45.125;    0.000
717.351; 4983.000;  106.125;    0.000
717.549; 4867.000;  108.125;    0.000
717.746; 4804.000;   66.125;    0.000
717.944; 4763.000;  127.125;    0.000
718.142; 4772.000;  148.125;    0.000
718.340; 4657.000;   94.125;    0.000
718.537; 4831.000;  107.125;    0.000
718.735; 4798.000;  130.125;    0.000
718.933; 4721.000;  111.125;    0.000
719.130; 4818.000;  107.125;    0.000
719.328; 4726.000;  128.125;    0.000
719.525; 4771.000;  141.125;    0.000
719.723; 4621.000;  122.125;    0.000
719.920; 4798.000;   85.125;    0.000
720.118; 4813.000;  115.125;    0.000
720.316; 4867.000;  153.125;    0.000
720.513; 4833.000;  120.125;    0.000
720.711; 4726.000;  134.125;    0.000
720.908; 4771.000;  126.125;    0.000
721.105; 4794.000;  119.125;    0.000
721.303; 4779.000;  112.125;    0.000
721.500; 4840.000;  125.125;    0.000
721.698; 4829.000;   94.125;    0.000
721.895; 4815.000;  118.125;    0.000
722.092; 4691.000;   77.125;    0.000
722.290; 4827.000;  135.125;    0.000
722.487; 4760.000;  154.125;    0.000
722.684; 4774.000;  122.125;    0.000
722.882; 4839.000;   90.125;    0.000
723.079; 4705.000;  132.125;    0.000
723.276; 4703.000;   95.125;    0.000
723.473; 4674.000;  106.125;    0.000
723.671; 4703.000;   80.125;    0.000
723.868; 4853.000;  112.125;    0.000
724.065; 4888.000;  107.125;    0.000
724.262; 4899.000;  119.125;    0.000
724.459; 4721.000;   80.125;    0.000
724.656; 4949.000;  109.125;    0.000
724.854; 4916.000;  107.125;    0.000
725.051; 4952.000;  103.125;    0.000
725.248; 4863.000;  101.125;    0.000
725.445; 4952.000;   93.125;    0.000
725.642; 4798.000;   92.125;    0.000
725.839; 4912.000;  157.125;    0.000
726.036; 4860.000;   71.125;    0.000
726.233; 4643.000;   80.125;    0.000
726.430; 4852.000;  146.125;    0.000
726.627; 4921.000;  103.125;    0.000
726.824; 4808.000;   46.125;    0.000
727.021; 4930.000;  149.125;    0.000
727.218; 4855.000;   87.125;    0.000
727.414; 4966.000;  112.125;    0.000
727.611; 4794.000;  111.125;    0.000
727.808; 4874.000;  122.125;    0.000
728.005; 4869.000;   58.125;    0.000
728.202; 4981.000;  129.125;    0.000
728.399; 4921.000;  111.125;    0.000
728.595; 4935.000;   93.125;    0.000
728.792; 4951.000;   78.125;    0.000
728.989; 4922.000;  104.125;    0.000
729.186; 4980.000;  110.125;    0.000
729.382; 4842.000;   93.125;    0.000
729.579; 4873.000;  102.125;    0.000
729.776; 4931.000;  112.125;    0.000
729.972; 5025.000;  101.125;    0.000
730.169; 5008.000;  150.125;    0.000
730.366; 4807.000;   92.125;    0.000
730.562; 4998.000;   74.125;    0.000
730.759; 4979.000;   97.125;    0.000
730.955; 5022.000;   86.125;    0.000
731.152; 4888.000;   88.125;    0.000
731.348; 4969.000;  117.125;    0.000
731.545; 4881.000;   62.125;    0.000
731.741; 4925.000;   84.125;    0.000
731.938; 5087.000;  108.125;    0.000
732.134; 4982.000;  115.125;    0.000
732.331; 4996.000;   88.125;    0.000
732.527; 4988.000;   96.125;    0.000
732.724; 5112.000;  103.125;    0.000
732.920; 5025.000;   93.125;    0.000
733.116; 4893.000;  109.125;    0.000
733.313; 5008.000;   77.125;    0.000
733.509; 5080.000;   81.125;    0.000
733.705; 5078.000;  141.125;    0.000
733.902; 5080.000;   88.125;    0.000
734.098; 5136.000;   56.125;    0.000
734.294; 5120.000;  122.125;    0.000
734.490; 5178.000;  102.125;    0.000
734.687; 5063.000;   70.125;    0.000
734.883; 5192.000;   73.125;    0.000
735.079; 5132.000;   65.125;    0.000
735.275; 5114.000;  112.125;    0.000
735.471; 5041.000;  124.125;    0.000
735.667; 5177.000;   94.125;    0.000
735.863; 5100.000;  106.125;    0.000
736.060; 5190.000;  106.125;    0.000
736.256; 5161.000;   95.125;    0.000
736.452; 5104.000;  103.125;    0.000
736.648; 5162.000;  106.125;    0.000
736.844; 5260.000;   98.125;    0.000
737.040; 5369.000;  118.125;    0.000
737.236; 5346.000;   95.125;    0.000
737.432; 5182.000;   59.125;    0.000
737.628; 5263.000;  120.125;    0.000
737.824; 5318.000;   78.125;    0.000
738.019; 5272.000;   98.125;    0.000
738.215; 5291.000;  127.125;    0.000
738.411; 5359.000;  111.125;    0.000
738.607; 5209.000;   69.125;    0.000
738.803; 5333.000;   40.125;    0.000
738.999; 5448.000;  128.125;    0.000
739.195; 5323.000;   81.125;    0.000
739.390; 5429.000;   97.125;    0.000
739.586; 5274.000;  100.125;    0.000
739.782; 5394.000;  135.125;    0.000
739.978; 5426.000;  121.125;    0.000
740.173; 5533.000;   92.125;    0.000
740.369; 5496.000;   92.125;    0.000
740.565; 5471.000;  119.125;    0.000
740.760; 5627.000;  139.125;    0.000
740.956; 5655.000;  134.125;    0.000
741.152; 5686.000;  107.125;    0.000
741.347; 5638.000;   63.125;    0.000
741.543; 5647.000;   99.125;    0.000
741.738; 5913.000;  119.125;    0.000
741.934; 5889.000;  156.125;    0.000
742.129; 6283.000;   87.125;    0.000
742.325; 7201.000;  143.125;    0.000
742.520; 7871.000;  109.125;    0.000
742.716; 7406.000;  135.125;    0.000
742.911; 6858.000;   77.125;    0.000
743.107; 6981.000;  117.125;    0.000
743.302; 6748.000;   93.125;    0.000
743.498; 6669.000;  118.125;    0.000
743.693; 6903.000;   95.125;    0.000
743.888; 7205.000;  122.125;    0.000
744.084; 8358.000;  104.125;    0.000
744.279;10368.000;   94.125;    0.000
744.474;10320.000;  138.125;    0.000
744.670; 9293.000;  113.125;    0.000
744.865; 8302.000;  116.125;    0.000
745.060; 7849.000;   89.125;    0.000
745.255; 7792.000;  144.125;    0.000
745.451; 7482.000;   98.125;    0.000
745.646; 7258.000;  110.125;    0.000
745.841; 7295.000;   87.125;    0.000
746.036; 7264.000;   98.125;    0.000
746.231; 7424.000;  153.125;    0.000
746.426; 7899.000;   90.125;    0.000
746.622; 9223.000;  154.125;    0.000
746.817;12317.000;  111.125;    0.000
747.012;13774.000;  110.125;    0.000
747.207;11968.000;   76.125;    0.000
747.402;10613.000;   94.125;    0.000
747.597; 9697.000;   68.125;    0.000
747.792; 9212.000;  125.125;    0.000
747.987; 8793.000;   92.125;    0.000
748.182; 8606.000;  113.125;    0.000
748.377; 8092.000;   72.125;    0.000
748.572; 7780.000;  135.125;    0.000
748.767; 7606.000;   98.125;    0.000
748.961; 7308.000;  123.125;    0.000
749.156; 7065.000;   96.125;    0.000
749.351; 6990.000;  121.125;    0.000
749.546; 6834.000;   95.125;    0.000
749.741; 6767.000;  144.125;    0.000
749.936; 6616.000;  105.125;    0.000
750.130; 6508.000;  101.125;    0.000
750.325; 6297.000;  126.125;    0.000
750.520; 6365.000;  113.125;    0.000
750.715; 6475.000;  135.125;    0.000
750.909; 6264.000;  138.125;    0.000
751.104; 6138.000;   96.125;    0.000
751.299; 6226.000;  118.125;    0.000
751.493; 6032.000;  124.125;    0.000
751.688; 6139.000;  131.125;    0.000
751.882; 6096.000;   96.125;    0.000
752.077; 6103.000;  123.125;    0.000
752.272; 5971.000;  112.125;    0.000
752.466; 5980.000;  143.125;    0.000
752.661; 5903.000;  107.125;    0.000
752.855; 5890.000;   97.125;    0.000
753.050; 5899.000;  125.125;    0.000
753.244; 5899.000;  161.125;    0.000
753.439; 5902.000;  101.125;    0.000
753.633; 5851.000;  129.125;    0.000
753.828; 5853.000;  114.125;    0.000
754.022; 5661.000;  118.125;    0.000
754.216; 5709.000;  126.125;    0.000
754.411; 5745.000;  148.125;    0.000
754.605; 5749.000;  100.125;    0.000
754.799; 5798.000;  146.125;    0.000
754.994; 5812.000;  116.125;    0.000
755.188; 5786.000;  146.125;    0.000
755.382; 5592.000;  103.125;    0.000
755.576; 5690.000;  119.125;    0.000
755.771; 5611.000;  100.125;    0.000
755.965; 5862.000;  129.125;    0.000
756.159; 5729.000;  100.125;    0.000
756.353; 5620.000;  153.125;    0.000
756.547; 5767.000;  113.125;    0.000
756.742; 5699.000;  129.125;    0.000
756.936; 5639.000;   70.125;    0.000
757.130; 5726.000;   91.125;    0.000
757.324; 5660.000;   92.125;    0.000
757.518; 5667.000;  128.125;    0.000
757.712; 5743.000;  146.125;    0.000
757.906; 5747.000;  114.125;    0.000
758.100; 5673.000;  153.125;    0.000
758.294; 5648.000;  133.125;    0.000
758.488; 5609.000;  149.125;    0.000
758.682; 5579.000;  132.125;    0.000
758.876; 5739.000;  128.125;    0.000
759.070; 5528.000;  178.125;    0.000
759.264; 5650.000;   98.125;    0.000
759.458; 5652.000;  168.125;    0.000
759.651; 5665.000;  131.125;    0.000
759.845; 5641.000;  133.125;    0.000
760.039; 5618.000;  120.125;    0.000
760.233; 5577.000;  116.125;    0.000
760.427; 5624.000;  121.125;    0.000
760.620; 5756.000;  163.125;    0.000
760.814; 5750.000;  106.125;    0.000
761.008; 5585.000;  119.125;    0.000
761.202; 5660.000;  121.125;    0.000
761.395; 5606.000;  136.125;    0.000
761.589; 5656.000;  111.125;    0.000
761.783; 5675.000;  116.125;    0.000
761.976; 5666.000;  139.125;    0.000
762.170; 5644.000;  140.125;    0.000
762.363; 5601.000;  115.125;    0.000
762.557; 5648.000;  129.125;    0.000
762.750; 5605.000;   85.125;    0.000
762.944; 5657.000;  107.125;    0.000
763.138; 5528.000;   99.125;    0.000
763.331; 5726.000;   97.125;    0.000
763.524; 5870.000;  100.125;    0.000
763.718; 5968.000;  130.125;    0.000
763.911; 5734.000;  127.125;    0.000
764.105; 5784.000;   69.125;    0.000
764.298; 5737.000;   94.125;    0.000
764.492; 5659.000;  129.125;    0.000
764.685; 5586.000;  114.125;    0.000
764.878; 5725.000;  145.125;    0.000
765.072; 5664.000;  124.125;    0.000
765.265; 5786.000;  124.125;    0.000
765.458; 5767.000;  108.125;    0.000
765.651; 5879.000;  132.125;    0.000
765.845; 5910.000;  106.125;    0.000
766.038; 6144.000;  155.125;    0.000
766.231; 7471.000;  153.125;    0.000
766.424;12611.000;  165.125;    0.000
766.617;12969.000;   85.125;    0.000
766.811; 7057.000;  140.125;    0.000
767.004; 6262.000;  151.125;    0.000
767.197; 6171.000;  178.125;    0.000
767.390; 5855.000;  112.125;    0.000
767.583; 6044.000;  134.125;    0.000
767.776; 5712.000;  101.125;    0.000
767.969; 5831.000;   99.125;    0.000
768.162; 5983.000;  152.125;    0.000
768.355; 5977.000;  115.125;    0.000
768.548; 5990.000;  154.125;    0.000
768.741; 6014.000;  124.125;    0.000
768.934; 6017.000;  129.125;    0.000
769.127; 6071.000;  137.125;    0.000
769.320; 6196.000;  115.125;    0.000
769.513; 6471.000;  144.125;    0.000
769.706; 7889.000;  107.125;    0.000
769.898;12616.000;  134.125;    0.000
770.091; 9115.000;  128.125;    0.000
770.284; 6620.000;   97.125;    0.000
770.477; 6487.000;  135.125;    0.000
770.670; 6246.000;  137.125;    0.000
770.862; 6290.000;  112.125;    0.000
771.055; 6425.000;  127.125;    0.000
771.248; 6422.000;  116.125;    0.000
771.441; 6325.000;  101.125;    0.000
771.633; 6325.000;  130.125;    0.000
771.826; 6497.000;  147.125;    0.000
772.018; 6404.000;  117.125;    0.000
772.211; 6671.000;  141.125;    0.000
772.404; 6608.000;  104.125;    0.000
772.596; 6778.000;  128.125;    0.000
772.789; 6810.000;  131.125;    0.000
772.981; 6774.000;  134.125;    0.000
773.174; 6975.000;  108.125;    0.000
773.366; 7042.000;  153.125;    0.000
773.559; 6905.000;  137.125;    0.000
773.751; 7073.000;  119.125;    0.000
773.944; 7317.000;  148.125;    0.000
774.136; 7447.000;  155.125;    0.000
774.329; 7555.000;  126.125;    0.000
774.521; 7818.000;  116.125;    0.000
774.713; 7900.000;  119.125;    0.000
774.906; 8138.000;  179.125;    0.000
775.098; 8601.000;  127.125;    0.000
775.290; 8993.000;  146.125;    0.000
775.483; 9451.000;  123.125;    0.000
775.675;10104.000;  119.125;    0.000
775.867;10703.000;  119.125;    0.000
776.059;11568.000;  137.125;    0.000
776.251;12674.000;  154.125;    0.000
776.444;14485.000;  101.125;    0.000
776.636;16770.000;  153.125;    0.000
776.828;21589.000;  127.125;    0.000
777.020;31442.000;  140.125;    0.000
777.212;48249.000;  160.125;    0.000
777.404;54406.000;  170.125;    0.000
777.596;49439.000;  136.125;    0.000
777.788;35420.000;  137.125;    0.000
777.980;26613.000;  129.125;    0.000
778.172;21168.000;  139.125;    0.000
778.364;17953.000;  124.125;    0.000
778.556;15717.000;  163.125;    0.000
778.748;14220.000;  142.125;    0.000
778.940;12864.000;  178.125;    0.000
779.132;11874.000;  159.125;    0.000
779.324;10976.000;  109.125;    0.000
779.516;10314.000;  143.125;    0.000
779.708; 9786.000;  158.125;    0.000
779.900; 9322.000;  142.125;    0.000
780.091; 8741.000;  131.125;    0.000
780.283; 8468.000;  176.125;    0.000
780.475; 8181.000;  151.125;    0.000
780.667; 7965.000;  120.125;    0.000
780.859; 7805.000;  134.125;    0.000
781.050; 7592.000;  183.125;    0.000
781.242; 7388.000;   95.125;    0.000
781.434; 7280.000;  127.125;    0.000
781.625; 7120.000;  163.125;    0.000
781.817; 7046.000;  170.125;    0.000
782.008; 6798.000;  123.125;    0.000
782.200; 6756.000;  141.125;    0.000
782.392; 6744.000;  149.125;    0.000
782.583; 6538.000;  155.125;    0.000
782.775; 6623.000;  140.125;    0.000
782.966; 6447.000;  167.125;    0.000
783.158; 6350.000;  164.125;    0.000
783.349; 6424.000;  174.125;    0.000
783.541; 6195.000;  141.125;    0.000
783.732; 6265.000;  115.125;    0.000
783.924; 6207.000;  135.125;    0.000
784.115; 6189.000;  157.125;    0.000
784.306; 6132.000;  102.125;    0.000
784.498; 6129.000;  124.125;    0.000
784.689; 5988.000;  171.125;    0.000
784.880; 6039.000;  165.125;    0.000
785.072; 5974.000;  152.125;    0.000
785.263; 5998.000;  146.125;    0.000
785.454; 5878.000;  145.125;    0.000
785.645; 5962.000;  127.125;    0.000
785.837; 5891.000;  138.125;    0.000
786.028; 6005.000;  151.125;    0.000
786.219; 5965.000;  142.125;    0.000
786.410; 5879.000;  140.125;    0.000
786.601; 5837.000;  137.125;    0.000
786.792; 5803.000;  158.125;    0.000
786.984; 5732.000;  139.125;    0.000
787.175; 5808.000;  140.125;    0.000
787.366; 5899.000;  145.125;    0.000
787.557; 5984.000;  156.125;    0.000
787.748; 5911.000;  148.125;    0.000
787.939; 5904.000;  157.125;    0.000
788.130; 6096.000;  179.125;    0.000
788.321; 6053.000;  142.125;    0.000
788.512; 6114.000;  167.125;    0.000
788.703; 6097.000;  145.125;    0.000
788.894; 6150.000;  132.125;    0.000
789.084; 6096.000;  113.125;    0.000
789.275; 6176.000;  134.125;    0.000
789.466; 6161.000;  151.125;    0.000
789.657; 6210.000;  138.125;    0.000
789.848; 6215.000;  145.125;    0.000
790.039; 6346.000;  130.125;    0.000
790.229; 6220.000;  140.125;    0.000
790.420; 6228.000;  135.125;    0.000
790.611; 6135.000;  156.125;    0.000
790.801; 6135.000;   64.125;    0.000
790.992; 6101.000;  150.125;    0.000
791.183; 6104.000;  177.125;    0.000
791.373; 6154.000;   91.125;    0.000
791.564; 6219.000;   85.125;    0.000
791.755; 6079.000;  125.125;    0.000
791.945; 5968.000;   94.125;    0.000
792.136; 6028.000;   98.125;    0.000
792.326; 6079.000;  105.125;    0.000
792.517; 6145.000;  136.125;    0.000
792.707; 6253.000;  140.125;    0.000
792.898; 6222.000;  164.125;    0.000
793.088; 6304.000;  116.125;    0.000
793.279; 6081.000;  112.125;    0.000
793.469; 6266.000;  105.125;    0.000
793.660; 6232.000;  161.125;    0.000
793.850; 6481.000;  133.125;    0.000
794.040; 6696.000;  121.125;    0.000
794.231; 6948.000;  115.125;    0.000
794.421; 7633.000;  152.125;    0.000
794.611; 8404.000;  132.125;    0.000
794.802;10058.000;  144.125;    0.000
794.992;10280.000;  142.125;    0.000
795.182;10726.000;  179.125;    0.000
795.372; 9968.000;  167.125;    0.000
795.563; 8958.000;  149.125;    0.000
795.753; 8085.000;  117.125;    0.000
795.943; 7652.000;  146.125;    0.000
796.133; 7209.000;  119.125;    0.000
796.323; 6936.000;  141.125;    0.000
796.513; 6619.000;  134.125;    0.000
796.703; 6390.000;  116.125;    0.000
796.893; 6182.000;  120.125;    0.000
797.083; 6138.000;  131.125;    0.000
797.273; 6078.000;  118.125;    0.000
797.463; 5919.000;  130.125;    0.000
797.653; 5751.000;   87.125;    0.000
797.843; 5703.000;  123.125;    0.000
798.033; 5739.000;  115.125;    0.000
798.223; 5541.000;  142.125;    0.000
798.413; 5519.000;  148.125;    0.000
798.603; 5551.000;  147.125;    0.000
798.793; 5451.000;  107.125;    0.000
798.983; 5169.000;  121.125;    0.000
799.172; 5166.000;  120.125;    0.000
799.362; 5253.000;  145.125;    0.000
799.552; 5221.000;  101.125;    0.000
799.742; 5117.000;  149.125;    0.000
799.932; 5088.000;  104.125;    0.000
800.121; 5103.000;  175.125;    0.000
800.311; 4948.000;  132.125;    0.000
800.501; 5166.000;  118.125;    0.000
800.690; 4988.000;  162.125;    0.000
800.880; 5064.000;  141.125;    0.000
801.070; 4865.000;  151.125;    0.000
801.259; 4938.000;  167.125;    0.000
801.449; 4839.000;  108.125;    0.000
801.638; 5050.000;  176.125;    0.000
801.828; 4918.000;  118.125;    0.000
802.017; 4950.000;  179.125;    0.000
802.207; 4883.000;  127.125;    0.000
802.396; 4881.000;  167.125;    0.000
802.586; 4763.000;  129.125;    0.000
802.775; 4811.000;  142.125;    0.000
802.965; 4761.000;  147.125;    0.000
803.154; 4765.000;  179.125;    0.000
803.343; 4782.000;  117.125;    0.000
803.533; 4657.000;  120.125;    0.000
803.722; 4727.000;  122.125;    0.000
803.911; 4736.000;  155.125;    0.000
804.101; 4566.000;  147.125;    0.000
804.290; 4645.000;  160.125;    0.000
804.479; 4610.000;  139.125;    0.000
804.668; 4773.000;  180.125;    0.000
804.857; 4736.000;  131.125;    0.000
805.047; 4535.000;  119.125;    0.000
805.236; 4692.000;  139.125;    0.000
805.425; 4581.000;  163.125;    0.000
805.614; 4636.000;  103.125;    0.000
805.803; 4588.000;  133.125;    0.000
805.992; 4507.000;  147.125;    0.000
806.181; 4650.000;  109.125;    0.000
806.370; 4530.000;  133.125;    0.000
806.559; 4592.000;  119.125;    0.000
806.748; 4590.000;  144.125;    0.000
806.937; 4471.000;  147.125;    0.000
807.126; 4495.000;  134.125;    0.000
807.315; 4573.000;  132.125;    0.000
807.504; 4550.000;  141.125;    0.000
807.693; 4455.000;  145.125;    0.000
807.882; 4485.000;   91.125;    0.000
808.071; 4489.000;  116.125;    0.000
808.260; 4436.000;  105.125;    0.000
808.448; 4425.000;  184.125;    0.000
808.637; 4545.000;  146.125;    0.000
808.826; 4416.000;  153.125;    0.000
809.015; 4502.000;  113.125;    0.000
809.203; 4450.000;  166.125;    0.000
809.392; 4458.000;  117.125;    0.000
809.581; 4566.000;  186.125;    0.000
809.770; 4508.000;  122.125;    0.000
809.958; 4543.000;  140.125;    0.000
810.147; 4513.000;  130.125;    0.000
810.335; 4525.000;  112.125;    0.000
810.524; 4561.000;  106.125;    0.000
810.713; 4468.000;  154.125;    0.000
810.901; 4619.000;  131.125;    0.000
811.090; 4582.000;  164.125;    0.000
811.278; 4588.000;  159.125;    0.000
811.467; 4844.000;  194.125;    0.000
811.655; 4854.000;  164.125;    0.000
811.844; 4799.000;  149.125;    0.000
812.032; 4731.000;  169.125;    0.000
812.220; 4736.000;  163.125;    0.000
812.409; 4636.000;  134.125;    0.000
812.597; 4583.000;  165.125;    0.000
812.785; 4639.000;  180.125;    0.000
812.974; 4599.000;  166.125;    0.000
813.162; 4556.000;  171.125;    0.000
813.350; 4632.000;  142.125;    0.000
813.539; 4637.000;  126.125;    0.000
813.727; 4755.000;  153.125;    0.000
813.915; 4509.000;  138.125;    0.000
814.103; 4686.000;  191.125;    0.000
814.291; 4672.000;  142.125;    0.000
814.479; 4658.000;  156.125;    0.000
814.668; 4661.000;  152.125;    0.000
814.856; 4794.000;  150.125;    0.000
815.044; 4849.000;  165.125;    0.000
815.232; 4828.000;  172.125;    0.000
815.420; 4899.000;  147.125;    0.000
815.608; 4908.000;  143.125;    0.000
815.796; 4883.000;  126.125;    0.000
815.984; 4880.000;  152.125;    0.000
816.172; 5060.000;  129.125;    0.000
816.360; 5161.000;  177.125;    0.000
816.548; 5124.000;  141.125;    0.000
816.736; 5307.000;  142.125;    0.000
816.924; 5384.000;  161.125;    0.000
817.111; 5620.000;  138.125;    0.000
817.299; 5732.000;  112.125;    0.000
817.487; 5852.000;  180.125;    0.000
817.675; 6205.000;  138.125;    0.000
817.863; 6652.000;  172.125;    0.000
818.050; 7926.000;  142.125;    0.000
818.238;12556.000;  151.125;    0.000
818.426;17932.000;  129.125;    0.000
818.613;14592.000;  124.125;    0.000
818.801;13920.000;  209.125;    0.000
818.989;13485.000;  178.125;    0.000
819.176;12580.000;  155.125;    0.000
819.364;16026.000;  174.125;    0.000
819.552;22862.000;  131.125;    0.000
819.739;14878.000;  184.125;    0.000
819.927;11212.000;  132.125;    0.000
820.114;10448.000;  173.125;    0.000
820.302; 9639.000;  140.125;    0.000
820.489; 9053.000;  133.125;    0.000
820.677; 8943.000;  167.125;    0.000
820.864; 9280.000;  161.125;    0.000
821.052;10110.000;  134.125;    0.000
821.239;11071.000;  149.125;    0.000
821.426;12412.000;  160.125;    0.000
821.614;16531.000;  143.125;    0.000
821.801;18214.000;  118.125;    0.000
821.988;15479.000;  154.125;    0.000
822.176;14685.000;  112.125;    0.000
822.363;15258.000;  131.125;    0.000
822.550;13911.000;  131.125;    0.000
822.737;12041.000;  104.125;    0.000
822.924;11043.000;  160.125;    0.000
823.112;10538.000;  161.125;    0.000
823.299; 9783.000;  169.125;    0.000
823.486; 9233.000;  129.125;    0.000
823.673; 8680.000;  135.125;    0.000
823.860; 8477.000;  169.125;    0.000
824.047; 8749.000;  124.125;    0.000
824.234;10077.000;  160.125;    0.000
824.421;10182.000;  114.125;    0.000
824.608; 9030.000;  191.125;    0.000
824.795; 7932.000;  160.125;    0.000
824.982; 7388.000;  139.125;    0.000
825.169; 6952.000;  121.125;    0.000
825.356; 6591.000;  148.125;    0.000
825.543; 6239.000;  167.125;    0.000
825.730; 5918.000;  103.125;    0.000
825.917; 5706.000;  113.125;    0.000
826.104; 5652.000;  188.125;    0.000
826.290; 5389.000;  193.125;    0.000
826.477; 5327.000;  175.125;    0.000
826.664; 5283.000;  151.125;    0.000
826.851; 5039.000;  122.125;    0.000
827.038; 5002.000;  121.125;    0.000
827.224; 4726.000;  124.125;    0.000
827.411; 4849.000;  155.125;    0.000
827.598; 4661.000;  127.125;    0.000
827.784; 4677.000;  140.125;    0.000
827.971; 4517.000;  114.125;    0.000
828.157; 4459.000;  135.125;    0.000
828.344; 4454.000;  173.125;    0.000
828.531; 4424.000;  113.125;    0.000
828.717; 4356.000;  137.125;    0.000
828.904; 4346.000;  158.125;    0.000
829.090; 4305.000;  199.125;    0.000
829.277; 4209.000;  156.125;    0.000
829.463; 4212.000;  154.125;    0.000
829.650; 4236.000;  174.125;    0.000
829.836; 4217.000;  136.125;    0.000
830.022; 4186.000;  143.125;    0.000
830.209; 4144.000;  157.125;    0.000
830.395; 4020.000;  156.125;    0.000
830.581; 3946.000;  148.125;    0.000
830.768; 3976.000;  169.125;    0.000
830.954; 4001.000;  169.125;    0.000
831.140; 3818.000;  124.125;    0.000
831.327; 3926.000;  157.125;    0.000
831.513; 3849.000;  163.125;    0.000
831.699; 3912.000;  176.125;    0.000
831.885; 3908.000;  154.125;    0.000
832.071; 3711.000;  159.125;    0.000
832.257; 3725.000;  142.125;    0.000
832.444; 3784.000;  159.125;    0.000
832.630; 3766.000;  129.125;    0.000
832.816; 3688.000;  132.125;    0.000
833.002; 3663.000;  125.125;    0.000
833.188; 3742.000;  144.125;    0.000
833.374; 3710.000;  131.125;    0.000
833.560; 3717.000;  154.125;    0.000
833.746; 3742.000;  171.125;    0.000
833.932; 3695.000;  162.125;    0.000
834.118; 3697.000;  131.125;    0.000
834.303; 3591.000;  113.125;    0.000
834.489; 3622.000;  170.125;    0.000
834.675; 3575.000;  177.125;    0.000
834.861; 3627.000;  154.125;    0.000
835.047; 3614.000;  171.125;    0.000
835.233; 3575.000;   98.125;    0.000
835.418; 3597.000;  138.125;    0.000
835.604; 3563.000;  140.125;    0.000
835.790; 3521.000;  130.125;    0.000
835.976; 3525.000;  129.125;    0.000
836.161; 3577.000;  142.125;    0.000
836.347; 3458.000;  128.125;    0.000
836.533; 3459.000;  143.125;    0.000
836.718; 3566.000;  164.125;    0.000
836.904; 3602.000;  172.125;    0.000
837.089; 3532.000;  152.125;    0.000
837.275; 3555.000;  143.125;    0.000
837.460; 3613.000;  125.125;    0.000
837.646; 3513.000;  137.125;    0.000
837.831; 3571.000;  153.125;    0.000
838.017; 3598.000;  171.125;    0.000
838.202; 3507.000;  111.125;    0.000
838.388; 3466.000;  140.125;    0.000
838.573; 3638.000;  158.125;    0.000
838.759; 3477.000;  188.125;    0.000
838.944; 3523.000;  125.125;    0.000
839.129; 3527.000;  123.125;    0.000
839.315; 3575.000;  181.125;    0.000
839.500; 3557.000;  150.125;    0.000
839.685; 3410.000;  109.125;    0.000
839.870; 3589.000;  202.125;    0.000
840.056; 3531.000;  101.125;    0.000
840.241; 3501.000;  184.125;    0.000
840.426; 3616.000;  192.125;    0.000
840.611; 3581.000;  180.125;    0.000
840.796; 3800.000;  156.125;    0.000
840.981; 3731.000;  142.125;    0.000
841.166; 3744.000;  161.125;    0.000
841.352; 3746.000;  185.125;    0.000
841.537; 3816.000;  139.125;    0.000
841.722; 3830.000;  143.125;    0.000
841.907; 3935.000;  140.125;    0.000
842.092; 3904.000;  176.125;    0.000
842.277; 4017.000;  136.125;    0.000
842.461; 4066.000;  155.125;    0.000
842.646; 4167.000;  163.125;    0.000
842.831; 4325.000;  153.125;    0.000
843.016; 4354.000;  187.125;    0.000
843.201; 4534.000;  179.125;    0.000
843.386; 4689.000;  167.125;    0.000
843.571; 4841.000;  129.125;    0.000
843.755; 5178.000;  136.125;    0.000
843.940; 5729.000;  121.125;    0.000
844.125; 6365.000;  157.125;    0.000
844.310; 7652.000;  175.125;    0.000
844.494;10658.000;  164.125;    0.000
844.679;15385.000;  167.125;    0.000
844.864;14898.000;  166.125;    0.000
845.048;11408.000;  132.125;    0.000
845.233; 9174.000;  175.125;    0.000
845.418; 7873.000;  159.125;    0.000
845.602; 7108.000;  147.125;    0.000
845.787; 6357.000;  132.125;    0.000
845.971; 6002.000;  187.125;    0.000
846.156; 5439.000;  141.125;    0.000
846.340; 5136.000;  153.125;    0.000
846.525; 4894.000;  157.125;    0.000
846.709; 4596.000;  117.125;    0.000
846.893; 4383.000;  147.125;    0.000
847.078; 4263.000;  170.125;    0.000
847.262; 4226.000;  150.125;    0.000
847.447; 4019.000;  132.125;    0.000
847.631; 4056.000;  144.125;    0.000
847.815; 3819.000;  157.125;    0.000
848.000; 3811.000;  164.125;    0.000
848.184; 3907.000;  174.125;    0.000
848.368; 3653.000;  149.125;    0.000
848.552; 3696.000;  143.125;    0.000
848.736; 3619.000;  132.125;    0.000
848.921; 3561.000;  147.125;    0.000
849.105; 3477.000;  150.125;    0.000
849.289; 3492.000;  146.125;    0.000
849.473; 3524.000;  167.125;    0.000
849.657; 3519.000;  149.125;    0.000
849.841; 3608.000;  181.125;    0.000
850.025; 3544.000;  154.125;    0.000
850.209; 3436.000;  152.125;    0.000
850.393; 3338.000;  139.125;    0.000
850.577; 3247.000;  128.125;    0.000
850.761; 3416.000;  194.125;    0.000
850.945; 3148.000;  152.125;    0.000
851.129; 3298.000;  157.125;    0.000
851.313; 3325.000;  181.125;    0.000
851.497; 3131.000;  145.125;    0.000
851.680; 3256.000;  168.125;    0.000
851.864; 3270.000;  185.125;    0.000
852.048; 3239.000;  170.125;    0.000
852.232; 3160.000;  192.125;    0.000
852.416; 3193.000;  182.125;    0.000
852.599; 3228.000;  169.125;    0.000
852.783; 3195.000;  168.125;    0.000
852.967; 3335.000;  184.125;    0.000
853.150; 3250.000;  163.125;    0.000
853.334; 3204.000;  164.125;    0.000
853.518; 3266.000;  190.125;    0.000
853.701; 3249.000;  137.125;    0.000
853.885; 3347.000;  177.125;    0.000
854.068; 3751.000;  163.125;    0.000
854.252; 4600.000;  139.125;    0.000
854.435; 3981.000;  152.125;    0.000
854.619; 3344.000;  148.125;    0.000
854.802; 3211.000;  168.125;    0.000
854.986; 3209.000;  157.125;    0.000
855.169; 3242.000;  147.125;    0.000
855.353; 3234.000;  173.125;    0.000
855.536; 3236.000;  127.125;    0.000
855.719; 3149.000;  191.125;    0.000
855.903; 3192.000;  186.125;    0.000
856.086; 3219.000;  145.125;    0.000
856.269; 3279.000;  130.125;    0.000
856.452; 3348.000;  153.125;    0.000
856.636; 3472.000;  129.125;    0.000
856.819; 3704.000;  134.125;    0.000
857.002; 3733.000;  152.125;    0.000
857.185; 3609.000;  140.125;    0.000
857.368; 3552.000;  170.125;    0.000
857.552; 3534.000;  132.125;    0.000
857.735; 3416.000;  160.125;    0.000
857.918; 3448.000;  139.125;    0.000
858.101; 3406.000;  159.125;    0.000
858.284; 3434.000;  136.125;    0.000
858.467; 3441.000;  147.125;    0.000
858.650; 3480.000;  153.125;    0.000
858.833; 3572.000;  113.125;    0.000
859.016; 3567.000;  167.125;    0.000
859.199; 3753.000;  141.125;    0.000
859.382; 4350.000;  155.125;    0.000
859.564; 4690.000;  136.125;    0.000
859.747; 4476.000;  142.125;    0.000
859.930; 4153.000;  141.125;    0.000
860.113; 3952.000;  156.125;    0.000
860.296; 4077.000;  167.125;    0.000
860.478; 3859.000;  121.125;    0.000
860.661; 3880.000;  230.125;    0.000
860.844; 3816.000;  186.125;    0.000
861.027; 3874.000;  155.125;    0.000
861.209; 3646.000;  151.125;    0.000
861.392; 3707.000;  162.125;    0.000
861.575; 3720.000;  150.125;    0.000
861.757; 3858.000;  162.125;    0.000
861.940; 3819.000;  207.125;    0.000
862.122; 3847.000;  113.125;    0.000
862.305; 3977.000;  114.125;    0.000
862.487; 4186.000;  162.125;    0.000
862.670; 4513.000;  148.125;    0.000
862.852; 5481.000;  131.125;    0.000
863.035; 6685.000;  174.125;    0.000
863.217; 6578.000;  170.125;    0.000
863.400; 5753.000;  148.125;    0.000
863.582; 5442.000;  129.125;    0.000
863.764; 5070.000;  181.125;    0.000
863.947; 4776.000;  152.125;    0.000
864.129; 4661.000;  178.125;    0.000
864.311; 4526.000;  139.125;    0.000
864.493; 4453.000;  166.125;    0.000
864.676; 4279.000;  148.125;    0.000
864.858; 4254.000;  123.125;    0.000
865.040; 4258.000;  180.125;    0.000
865.222; 4265.000;  131.125;    0.000
865.404; 4408.000;  146.125;    0.000
865.587; 4789.000;  175.125;    0.000
865.769; 4895.000;  183.125;    0.000
865.951; 4971.000;  171.125;    0.000
866.133; 5396.000;  165.125;    0.000
866.315; 5588.000;  138.125;    0.000
866.497; 5130.000;  139.125;    0.000
866.679; 5113.000;  167.125;    0.000
866.861; 5151.000;  151.125;    0.000
867.043; 5528.000;  190.125;    0.000
867.225; 5796.000;  140.125;    0.000
867.407; 6167.000;  125.125;    0.000
867.589; 7192.000;  141.125;    0.000
867.770; 8919.000;  149.125;    0.000
867.952;12534.000;  138.125;    0.000
868.134;16708.000;  153.125;    0.000
868.316;16707.000;  148.125;    0.000
868.498;15722.000;  180.125;    0.000
868.679;13497.000;  152.125;    0.000
868.861;11123.000;  174.125;    0.000
869.043; 9140.000;  152.125;    0.000
869.224; 8081.000;  177.125;    0.000
869.406; 7305.000;  171.125;    0.000
869.588; 6700.000;  177.125;    0.000
869.769; 6257.000;  174.125;    0.000
869.951; 6216.000;  167.125;    0.000
870.132; 6198.000;  144.125;    0.000
870.314; 7056.000;  143.125;    0.000
870.495; 7434.000;  162.125;    0.000
870.677; 6546.000;  136.125;    0.000
870.858; 6316.000;  155.125;    0.000
871.040; 6661.000;  179.125;    0.000
871.221; 7630.000;  177.125;    0.000
871.403; 7227.000;  180.125;    0.000
871.584; 6463.000;  157.125;    0.000
871.765; 6732.000;  183.125;    0.000
871.947; 7066.000;  169.125;    0.000
872.128; 6563.000;  162.125;    0.000
872.309; 5511.000;  159.125;    0.000
872.491; 5035.000;  148.125;    0.000
872.672; 4790.000;  163.125;    0.000
872.853; 4723.000;  152.125;    0.000
873.034; 4629.000;  166.125;    0.000
873.215; 4223.000;  155.125;    0.000
873.396; 3993.000;  147.125;    0.000
873.578; 3959.000;  147.125;    0.000
873.759; 3795.000;  153.125;    0.000
873.940; 3598.000;  194.125;    0.000
874.121; 3565.000;  179.125;    0.000
874.302; 3470.000;  155.125;    0.000
874.483; 3373.000;  131.125;    0.000
874.664; 3487.000;  106.125;    0.000
874.845; 3531.000;  122.125;    0.000
875.026; 3356.000;  127.125;    0.000
875.207; 3311.000;  151.125;    0.000
875.388; 3172.000;  149.125;    0.000
875.568; 3141.000;  164.125;    0.000
875.749; 3065.000;  176.125;    0.000
875.930; 3046.000;  207.125;    0.000
876.111; 3067.000;  177.125;    0.000
876.292; 2996.000;  178.125;    0.000
876.472; 2942.000;  163.125;    0.000
876.653; 2930.000;  159.125;    0.000
876.834; 2887.000;  177.125;    0.000
877.015; 2893.000;  212.125;    0.000
877.195; 2850.000;  166.125;    0.000
877.376; 2813.000;  157.125;    0.000
877.556; 2845.000;  175.125;    0.000
877.737; 2883.000;  220.125;    0.000
877.918; 2748.000;  163.125;    0.000
878.098; 2713.000;  166.125;    0.000
878.279; 2758.000;  136.125;    0.000
878.459; 2776.000;  167.125;    0.000
878.640; 2753.000;  167.125;    0.000
878.820; 2762.000;  155.125;    0.000
879.000; 2662.000;  158.125;    0.000
879.181; 2779.000;  155.125;    0.000
879.361; 2724.000;  181.125;    0.000
879.542; 2678.000;  181.125;    0.000
879.722; 2665.000;  117.125;    0.000
879.902; 2717.000;  180.125;    0.000
880.083; 2809.000;  139.125;    0.000
880.263; 2798.000;  168.125;    0.000
880.443; 2951.000;  206.125;    0.000
880.623; 3722.000;  132.125;    0.000
880.803; 4196.000;  149.125;    0.000
880.984; 3456.000;  189.125;    0.000
881.164; 3107.000;  171.125;    0.000
881.344; 2957.000;  150.125;    0.000
881.524; 2879.000;  185.125;    0.000
881.704; 2970.000;  152.125;    0.000
881.884; 3078.000;  188.125;    0.000
882.064; 3343.000;  155.125;    0.000
882.244; 3294.000;  182.125;    0.000
882.424; 3091.000;  154.125;    0.000
882.604; 2927.000;  175.125;    0.000
882.784; 2815.000;  137.125;    0.000
882.964; 2841.000;  135.125;    0.000
883.144; 2769.000;  142.125;    0.000
883.324; 2765.000;  192.125;    0.000
883.504; 2667.000;  193.125;    0.000
883.683; 2665.000;  208.125;    0.000
883.863; 2554.000;  127.125;    0.000
884.043; 2608.000;  140.125;    0.000
884.223; 2556.000;  167.125;    0.000
884.402; 2477.000;  156.125;    0.000
884.582; 2636.000;  185.125;    0.000
884.762; 2505.000;  187.125;    0.000
884.941; 2532.000;  201.125;    0.000
885.121; 2490.000;  157.125;    0.000
885.301; 2538.000;  173.125;    0.000
885.480; 2484.000;  158.125;    0.000
885.660; 2406.000;  153.125;    0.000
885.839; 2416.000;  144.125;    0.000
886.019; 2463.000;  184.125;    0.000
886.198; 2411.000;  132.125;    0.000
886.378; 2394.000;  124.125;    0.000
886.557; 2451.000;  146.125;    0.000
886.737; 2450.000;  157.125;    0.000
886.916; 2421.000;  203.125;    0.000
887.095; 2377.000;  151.125;    0.000
887.275; 2341.000;  143.125;    0.000
887.454; 2373.000;  140.125;    0.000
887.633; 2399.000;  196.125;    0.000
887.813; 2444.000;  161.125;    0.000
887.992; 2412.000;  183.125;    0.000
888.171; 2402.000;  153.125;    0.000
888.350; 2420.000;  185.125;    0.000
888.530; 2399.000;  163.125;    0.000
888.709; 2310.000;  174.125;    0.000
888.888; 2398.000;  179.125;    0.000
889.067; 2341.000;  178.125;    0.000
889.246; 2464.000;  184.125;    0.000
889.425; 2347.000;  169.125;    0.000
889.604; 2439.000;  210.125;    0.000
889.783; 2357.000;  183.125;    0.000
889.962; 2308.000;  116.125;    0.000
890.141; 2414.000;  179.125;    0.000
890.320; 2301.000;  182.125;    0.000
890.499; 2363.000;  188.125;    0.000
890.678; 2306.000;  167.125;    0.000
890.857; 2348.000;  141.125;    0.000
891.036; 2329.000;  179.125;    0.000
891.214; 2336.000;  156.125;    0.000
891.393; 2387.000;  209.125;    0.000
891.572; 2381.000;  181.125;    0.000
891.751; 2370.000;  172.125;    0.000
891.930; 2390.000;  169.125;    0.000
892.108; 2266.000;  131.125;    0.000
892.287; 2287.000;  162.125;    0.000
892.466; 2396.000;  178.125;    0.000
892.644; 2415.000;  161.125;    0.000
892.823; 2357.000;  180.125;    0.000
893.001; 2313.000;  179.125;    0.000
893.180; 2389.000;  152.125;    0.000
893.359; 2322.000;  184.125;    0.000
893.537; 2277.000;  178.125;    0.000
893.716; 2266.000;  169.125;    0.000
893.894; 2328.000;  159.125;    0.000
894.073; 2390.000;  179.125;    0.000
894.251; 2315.000;  167.125;    0.000
894.429; 2272.000;  142.125;    0.000
894.608; 2399.000;  166.125;    0.000
894.786; 2354.000;  153.125;    0.000
894.964; 2349.000;  181.125;    0.000
895.143; 2341.000;  161.125;    0.000
895.321; 2304.000;  198.125;    0.000
895.499; 2375.000;  184.125;    0.000
895.677; 2349.000;  178.125;    0.000
895.856; 2406.000;  226.125;    0.000
896.034; 2396.000;  180.125;    0.000
896.212; 2390.000;  200.125;    0.000
896.390; 2409.000;  161.125;    0.000
896.568; 2334.000;  204.125;    0.000
896.746; 2305.000;  136.125;    0.000
896.924; 2346.000;  171.125;    0.000
897.102; 2341.000;  203.125;    0.000
897.280; 2320.000;  142.125;    0.000
897.458; 2435.000;  159.125;    0.000
897.636; 2464.000;  163.125;    0.000
897.814; 2329.000;  137.125;    0.000
897.992; 2456.000;  199.125;    0.000
898.170; 2382.000;  176.125;    0.000
898.348; 2439.000;  195.125;    0.000
898.526; 2406.000;  199.125;    0.000
898.704; 2426.000;  260.125;    0.000
898.882; 2394.000;  185.125;    0.000
899.059; 2361.000;  169.125;    0.000
899.237; 2361.000;  197.125;    0.000
899.415; 2441.000;  207.125;    0.000
899.593; 2371.000;  169.125;    0.000
899.770; 2453.000;  182.125;    0.000
899.948; 2528.000;  198.125;    0.000
900.125; 2436.000;  200.125;    0.000
900.303; 2388.000;  165.125;    0.000
900.481; 2501.000;  182.125;    0.000
900.658; 2544.000;  206.125;    0.000
900.836; 2476.000;  188.125;    0.000
901.013; 2488.000;  169.125;    0.000
901.191; 2666.000;  172.125;    0.000
901.368; 2650.000;  170.125;    0.000
901.546; 2714.000;  234.125;    0.000
901.723; 2654.000;  173.125;    0.000
901.901; 2628.000;  190.125;    0.000
902.078; 2769.000;  145.125;    0.000
902.255; 2729.000;  204.125;    0.000
902.433; 2781.000;  198.125;    0.000
902.610; 2867.000;  190.125;    0.000
902.787; 2826.000;  204.125;    0.000
902.964; 3060.000;  208.125;    0.000
903.142; 2988.000;  187.125;    0.000
903.319; 3092.000;  216.125;    0.000
903.496; 3049.000;  186.125;    0.000
903.673; 3167.000;  201.125;    0.000
903.850; 3170.000;  195.125;    0.000
904.027; 3272.000;  211.125;    0.000
904.204; 3378.000;  197.125;    0.000
904.381; 3758.000;  198.125;    0.000
904.558; 4359.000;  188.125;    0.000
904.735; 4887.000;  207.125;    0.000
904.912; 4894.000;  217.125;    0.000
905.089; 4997.000;  188.125;    0.000
905.266; 4645.000;  160.125;    0.000
905.443; 4153.000;  221.125;    0.000
905.620; 3883.000;  163.125;    0.000
905.797; 3853.000;  186.125;    0.000
905.974; 3592.000;  205.125;    0.000
906.151; 3580.000;  159.125;    0.000
906.327; 3562.000;  206.125;    0.000
906.504; 3469.000;  201.125;    0.000
906.681; 3388.000;  202.125;    0.000
906.858; 3314.000;  188.125;    0.000
907.034; 3276.000;  207.125;    0.000
907.211; 3057.000;  182.125;    0.000
907.388; 3026.000;  184.125;    0.000
907.564; 3020.000;  148.125;    0.000
907.741; 3001.000;  181.125;    0.000
907.917; 2834.000;  191.125;    0.000
908.094; 2890.000;  210.125;    0.000
908.271; 2943.000;  171.125;    0.000
908.447; 2800.000;  241.125;    0.000
908.623; 2806.000;  188.125;    0.000
908.800; 2751.000;  205.125;    0.000
908.976; 2765.000;  210.125;    0.000
909.153; 2741.000;  193.125;    0.000
909.329; 2800.000;  206.125;    0.000
909.505; 2721.000;  181.125;    0.000
909.682; 2727.000;  192.125;    0.000
909.858; 2618.000;  134.125;    0.000
910.034; 2620.000;  214.125;    0.000
910.211; 2548.000;  182.125;    0.000
910.387; 2606.000;  194.125;    0.000
910.563; 2527.000;  199.125;    0.000
910.739; 2507.000;  188.125;    0.000
910.915; 2550.000;  192.125;    0.000
911.091; 2590.000;  198.125;    0.000
911.268; 2511.000;  178.125;    0.000
911.444; 2615.000;  201.125;    0.000
911.620; 2503.000;  181.125;    0.000
911.796; 2451.000;  185.125;    0.000
911.972; 2481.000;  176.125;    0.000
912.148; 2501.000;  196.125;    0.000
912.324; 2589.000;  192.125;    0.000
912.500; 2475.000;  204.125;    0.000
912.676; 2503.000;  164.125;    0.000
912.851; 2482.000;  193.125;    0.000
913.027; 2536.000;  175.125;    0.000
913.203; 2488.000;  193.125;    0.000
913.379; 2467.000;  213.125;    0.000
913.555; 2401.000;  211.125;    0.000
913.730; 2465.000;  194.125;    0.000
913.906; 2498.000;  153.125;    0.000
914.082; 2440.000;  212.125;    0.000
914.258; 2575.000;  194.125;    0.000
914.433; 2596.000;  191.125;    0.000
914.609; 2516.000;  208.125;    0.000
914.784; 2427.000;  176.125;    0.000
914.960; 2450.000;  227.125;    0.000
915.136; 2507.000;  152.125;    0.000
915.311; 2474.000;  171.125;    0.000
915.487; 2450.000;  173.125;    0.000
915.662; 2515.000;  189.125;    0.000
915.838; 2525.000;  179.125;    0.000
916.013; 2481.000;  191.125;    0.000
916.189; 2609.000;  207.125;    0.000
916.364; 2529.000;  194.125;    0.000
916.539; 2469.000;  174.125;    0.000
916.715; 2512.000;  207.125;    0.000
916.890; 2540.000;  193.125;    0.000
917.065; 2544.000;  199.125;    0.000
917.240; 2582.000;  214.125;    0.000
917.416; 2534.000;  194.125;    0.000
917.591; 2522.000;  213.125;    0.000
917.766; 2622.000;  194.125;    0.000
917.941; 2526.000;  201.125;    0.000
918.116; 2505.000;  198.125;    0.000
918.292; 2497.000;  176.125;    0.000
918.467; 2539.000;  190.125;    0.000
918.642; 2595.000;  200.125;    0.000
918.817; 2589.000;  186.125;    0.000
918.992; 2496.000;  174.125;    0.000
919.167; 2566.000;  197.125;    0.000
919.342; 2519.000;  188.125;    0.000
919.517; 2607.000;  179.125;    0.000
919.692; 2680.000;  182.125;    0.000
919.867; 2660.000;  216.125;    0.000
920.041; 2609.000;  208.125;    0.000
920.216; 2687.000;  223.125;    0.000
920.391; 2683.000;  203.125;    0.000
920.566; 2746.000;  202.125;    0.000
920.741; 2726.000;  197.125;    0.000
920.915; 2914.000;  223.125;    0.000
921.090; 3049.000;  183.125;    0.000
921.265; 3565.000;  169.125;    0.000
921.439; 3849.000;  212.125;    0.000
921.614; 3487.000;  190.125;    0.000
921.789; 3307.000;  177.125;    0.000
921.963; 3160.000;  233.125;    0.000
922.138; 3064.000;  156.125;    0.000
922.312; 3046.000;  193.125;    0.000
922.487; 2925.000;  208.125;    0.000
922.661; 3147.000;  212.125;    0.000
922.836; 3368.000;  210.125;    0.000
923.010; 3374.000;  183.125;    0.000
923.185; 3281.000;  228.125;    0.000
923.359; 2980.000;  227.125;    0.000
923.534; 3013.000;  189.125;    0.000
923.708; 3196.000;  210.125;    0.000
923.882; 3337.000;  217.125;    0.000
924.057; 3260.000;  195.125;    0.000
924.231; 3084.000;  201.125;    0.000
924.405; 3108.000;  188.125;    0.000
924.579; 3078.000;  188.125;    0.000
924.753; 2966.000;  174.125;    0.000
924.928; 2952.000;  179.125;    0.000
925.102; 2952.000;  186.125;    0.000
925.276; 3068.000;  201.125;    0.000
925.450; 3197.000;  211.125;    0.000
925.624; 3181.000;  238.125;    0.000
925.798; 3294.000;  191.125;    0.000
925.972; 3432.000;  192.125;    0.000
926.146; 3650.000;  198.125;    0.000
926.320; 4042.000;  151.125;    0.000
926.494; 4492.000;  202.125;    0.000
926.668; 4753.000;  197.125;    0.000
926.842; 4764.000;  177.125;    0.000
927.016; 4697.000;  202.125;    0.000
927.190; 4567.000;  207.125;    0.000
927.363; 4468.000;  180.125;    0.000
927.537; 4226.000;  212.125;    0.000
927.711; 4118.000;  148.125;    0.000
927.885; 4014.000;  196.125;    0.000
928.058; 3819.000;  173.125;    0.000
928.232; 3806.000;  219.125;    0.000
928.406; 3713.000;  141.125;    0.000
928.579; 3561.000;  157.125;    0.000
928.753; 3607.000;  205.125;    0.000
928.927; 3465.000;  196.125;    0.000
929.100; 3381.000;  237.125;    0.000
929.274; 3266.000;  166.125;    0.000
929.447; 3182.000;  150.125;    0.000
929.621; 3161.000;  188.125;    0.000
929.794; 3170.000;  169.125;    0.000
929.968; 3084.000;  194.125;    0.000
930.141; 3067.000;  226.125;    0.000
930.315; 3027.000;  196.125;    0.000
930.488; 2924.000;  233.125;    0.000
930.661; 2945.000;  188.125;    0.000
930.835; 2966.000;  170.125;    0.000
931.008; 2845.000;  176.125;    0.000
931.181; 2827.000;  175.125;    0.000
931.354; 2756.000;  212.125;    0.000
931.528; 2730.000;  177.125;    0.000
931.701; 2669.000;  218.125;    0.000
931.874; 2714.000;  175.125;    0.000
932.047; 2643.000;  157.125;    0.000
932.220; 2664.000;  187.125;    0.000
932.393; 2621.000;  166.125;    0.000
932.566; 2494.000;  168.125;    0.000
932.739; 2595.000;  203.125;    0.000
932.912; 2575.000;  202.125;    0.000
933.085; 2542.000;  209.125;    0.000
933.258; 2516.000;  196.125;    0.000
933.431; 2427.000;  207.125;    0.000
933.604; 2483.000;  201.125;    0.000
933.777; 2553.000;  202.125;    0.000
933.950; 2505.000;  184.125;    0.000
934.123; 2398.000;  167.125;    0.000
934.296; 2499.000;  209.125;    0.000
934.468; 2477.000;  216.125;    0.000
934.641; 2434.000;  156.125;    0.000
934.814; 2454.000;  215.125;    0.000
934.987; 2365.000;  201.125;    0.000
935.159; 2509.000;  176.125;    0.000
935.332; 2452.000;  203.125;    0.000
935.505; 2489.000;  163.125;    0.000
935.677; 2453.000;  169.125;    0.000
935.850; 2434.000;  178.125;    0.000
936.022; 2422.000;  187.125;    0.000
936.195; 2476.000;  207.125;    0.000
936.367; 2462.000;  191.125;    0.000
936.540; 2452.000;  214.125;    0.000
936.712; 2557.000;  202.125;    0.000
936.885; 2543.000;  195.125;    0.000
937.057; 2532.000;  173.125;    0.000
937.229; 2547.000;  179.125;    0.000
937.402; 2618.000;  174.125;    0.000
937.574; 2654.000;  140.125;    0.000
937.746; 2629.000;  153.125;    0.000
937.919; 2746.000;  196.125;    0.000
938.091; 2865.000;  173.125;    0.000
938.263; 3087.000;  206.125;    0.000
938.435; 3399.000;  213.125;    0.000
938.608; 3950.000;  204.125;    0.000
938.780; 4611.000;  199.125;    0.000
938.952; 4700.000;  190.125;    0.000
939.124; 4761.000;  182.125;    0.000
939.296; 5435.000;  188.125;    0.000
939.468; 5703.000;  119.125;    0.000
939.640; 4893.000;  171.125;    0.000
939.812; 4408.000;  222.125;    0.000
939.984; 3918.000;  172.125;    0.000
940.156; 3843.000;  171.125;    0.000
940.328; 3485.000;  215.125;    0.000
940.500; 3374.000;  179.125;    0.000
940.672; 3210.000;  178.125;    0.000
940.843; 3035.000;  193.125;    0.000
941.015; 3045.000;  207.125;    0.000
941.187; 2846.000;  179.125;    0.000
941.359; 2805.000;  191.125;    0.000
941.531; 2717.000;  160.125;    0.000
941.702; 2739.000;  208.125;    0.000
941.874; 2632.000;  143.125;    0.000
942.046; 2605.000;  189.125;    0.000
942.217; 2530.000;  167.125;    0.000
942.389; 2504.000;  199.125;    0.000
942.560; 2507.000;  179.125;    0.000
942.732; 2408.000;  209.125;    0.000
942.904; 2372.000;  180.125;    0.000
943.075; 2323.000;  197.125;    0.000
943.247; 2292.000;  207.125;    0.000
943.418; 2291.000;  183.125;    0.000
943.589; 2288.000;  176.125;    0.000
943.761; 2314.000;  165.125;    0.000
943.932; 2257.000;  170.125;    0.000
944.104; 2238.000;  147.125;    0.000
944.275; 2087.000;  149.125;    0.000
944.446; 2270.000;  191.125;    0.000
944.617; 2253.000;  128.125;    0.000
944.789; 2244.000;  166.125;    0.000
944.960; 2231.000;  195.125;    0.000
945.131; 2181.000;  164.125;    0.000
945.302; 2215.000;  229.125;    0.000
945.473; 2150.000;  153.125;    0.000
945.645; 2242.000;  166.125;    0.000
945.816; 2339.000;  187.125;    0.000
945.987; 2362.000;  193.125;    0.000
946.158; 2363.000;  166.125;    0.000
946.329; 2377.000;  196.125;    0.000
946.500; 2273.000;  152.125;    0.000
946.671; 2187.000;  161.125;    0.000
946.842; 2211.000;  176.125;    0.000
947.013; 2155.000;  188.125;    0.000
947.183; 2244.000;  213.125;    0.000
947.354; 2052.000;  163.125;    0.000
947.525; 2117.000;  204.125;    0.000
947.696; 2141.000;  159.125;    0.000
947.867; 2101.000;  197.125;    0.000
948.037; 2026.000;  174.125;    0.000
948.208; 2076.000;  163.125;    0.000
948.379; 2204.000;  189.125;    0.000
948.550; 2140.000;  173.125;    0.000
948.720; 2082.000;  186.125;    0.000
948.891; 2163.000;  166.125;    0.000
949.061; 2060.000;  197.125;    0.000
949.232; 2094.000;  168.125;    0.000
949.403; 2084.000;  188.125;    0.000
949.573; 2063.000;  164.125;    0.000
949.744; 2123.000;  194.125;    0.000
949.914; 2062.000;  154.125;    0.000
950.085; 2125.000;  197.125;    0.000
950.255; 1976.000;  187.125;    0.000
950.425; 2059.000;  193.125;    0.000
950.596; 2013.000;  182.125;    0.000
950.766; 2041.000;  202.125;    0.000
950.936; 2064.000;  230.125;    0.000
951.107; 2044.000;  133.125;    0.000
951.277; 2057.000;  234.125;    0.000
951.447; 2078.000;  200.125;    0.000
951.617; 2078.000;  212.125;    0.000
951.788; 1960.000;  176.125;    0.000
951.958; 2058.000;  218.125;    0.000
952.128; 1982.000;  198.125;    0.000
952.298; 1941.000;  185.125;    0.000
952.468; 2049.000;  231.125;    0.000
952.638; 2036.000;  213.125;    0.000
952.808; 1931.000;  218.125;    0.000
952.978; 1963.000;  252.125;    0.000
953.148; 1948.000;  200.125;    0.000
953.318; 1992.000;  243.125;    0.000
953.488; 1886.000;  140.125;    0.000
953.658; 1965.000;  208.125;    0.000
953.828; 1949.000;  179.125;    0.000
953.998; 1892.000;  211.125;    0.000
954.167; 1938.000;  197.125;    0.000
954.337; 1931.000;  217.125;    0.000
954.507; 1966.000;  219.125;    0.000
954.677; 1880.000;  201.125;    0.000
954.846; 1882.000;  241.125;    0.000
955.016; 1967.000;  222.125;    0.000
955.186; 1885.000;  200.125;    0.000
955.355; 1921.000;  247.125;    0.000
955.525; 1926.000;  212.125;    0.000
955.695; 1803.000;  200.125;    0.000
955.864; 1859.000;  196.125;    0.000
956.034; 1898.000;  195.125;    0.000
956.203; 1924.000;  243.125;    0.000
956.373; 1837.000;  197.125;    0.000
956.542; 1865.000;  237.125;    0.000
956.711; 1849.000;  249.125;    0.000
956.881; 1819.000;  235.125;    0.000
957.050; 1804.000;  259.125;    0.000
957.220; 1782.000;  234.125;    0.000
957.389; 1842.000;  250.125;    0.000
957.558; 1746.000;  214.125;    0.000
957.727; 1821.000;  225.125;    0.000
957.897; 1856.000;  211.125;    0.000
958.066; 1829.000;  200.125;    0.000
958.235; 1801.000;  202.125;    0.000
958.404; 1825.000;  242.125;    0.000
958.573; 1854.000;  222.125;    0.000
958.743; 1730.000;  191.125;    0.000
958.912; 1842.000;  183.125;    0.000
959.081; 1764.000;  212.125;    0.000
959.250; 1754.000;  192.125;    0.000
959.419; 1785.000;  238.125;    0.000
959.588; 1793.000;  205.125;    0.000
959.757; 1743.000;  213.125;    0.000
959.926; 1748.000;  217.125;    0.000
960.094; 1777.000;  215.125;    0.000
960.263; 1776.000;  220.125;    0.000
960.432; 1710.000;  164.125;    0.000
960.601; 1701.000;  228.125;    0.000
960.770; 1738.000;  176.125;    0.000
960.939; 1736.000;  201.125;    0.000
961.107; 1794.000;  183.125;    0.000
961.276; 1789.000;  199.125;    0.000
961.445; 1684.000;  205.125;    0.000
961.613; 1729.000;  183.125;    0.000
961.782; 1684.000;  216.125;    0.000
961.951; 1679.000;  169.125;    0.000
962.119; 1738.000;  211.125;    0.000
962.288; 1724.000;  204.125;    0.000
962.456; 1732.000;  187.125;    0.000
962.625; 1748.000;  223.125;    0.000
962.793; 1809.000;  200.125;    0.000
962.962; 1799.000;  185.125;    0.000
963.130; 1728.000;  195.125;    0.000
963.298; 1690.000;  187.125;    0.000
963.467; 1734.000;  247.125;    0.000
963.635; 1710.000;  165.125;    0.000
963.803; 1815.000;  192.125;    0.000
963.972; 1732.000;  191.125;    0.000
964.140; 1717.000;  163.125;    0.000
964.308; 1723.000;  161.125;    0.000
964.477; 1661.000;  182.125;    0.000
964.645; 1713.000;  195.125;    0.000
964.813; 1732.000;  165.125;    0.000
964.981; 1700.000;  193.125;    0.000
965.149; 1839.000;  174.125;    0.000
965.317; 1756.000;  194.125;    0.000
965.485; 1654.000;  209.125;    0.000
965.653; 1724.000;  210.125;    0.000
965.821; 1756.000;  194.125;    0.000
965.989; 1687.000;  182.125;    0.000
966.157; 1760.000;  180.125;    0.000
966.325; 1669.000;  198.125;    0.000
966.493; 1738.000;  182.125;    0.000
966.661; 1708.000;  200.125;    0.000
966.829; 1623.000;  190.125;    0.000
966.996; 1704.000;  221.125;    0.000
967.164; 1802.000;  176.125;    0.000
967.332; 1757.000;  228.125;    0.000
967.500; 1670.000;  177.125;    0.000
967.667; 1661.000;  202.125;    0.000
967.835; 1648.000;  220.125;    0.000
968.003; 1703.000;  183.125;    0.000
968.170; 1710.000;  163.125;    0.000
968.338; 1699.000;  162.125;    0.000
968.505; 1652.000;  198.125;    0.000
968.673; 1658.000;  213.125;    0.000
968.841; 1609.000;  131.125;    0.000
969.008; 1699.000;  225.125;    0.000
969.175; 1689.000;  202.125;    0.000
969.343; 1652.000;  222.125;    0.000
969.510; 1623.000;  230.125;    0.000
969.678; 1662.000;  161.125;    0.000
969.845; 1695.000;  208.125;    0.000
970.012; 1670.000;  186.125;    0.000
970.180; 1722.000;  226.125;    0.000
970.347; 1723.000;  222.125;    0.000
970.514; 1705.000;  206.125;    0.000
970.681; 1709.000;  173.125;    0.000
970.849; 1629.000;  190.125;    0.000
971.016; 1713.000;  220.125;    0.000
971.183; 1709.000;  202.125;    0.000
971.350; 1688.000;  196.125;    0.000
971.517; 1746.000;  218.125;    0.000
971.684; 1722.000;  228.125;    0.000
971.851; 1688.000;  235.125;    0.000
972.018; 1720.000;  200.125;    0.000
972.185; 1712.000;  183.125;    0.000
972.352; 1719.000;  216.125;    0.000
972.519; 1785.000;  227.125;    0.000
972.686; 1672.000;  209.125;    0.000
972.853; 1644.000;  157.125;    0.000
973.020; 1678.000;  179.125;    0.000
973.186; 1671.000;  173.125;    0.000
973.353; 1684.000;  189.125;    0.000
973.520; 1672.000;  228.125;    0.000
973.687; 1650.000;  190.125;    0.000
973.853; 1747.000;  197.125;    0.000
974.020; 1751.000;  208.125;    0.000
974.187; 1680.000;  158.125;    0.000
974.353; 1708.000;  201.125;    0.000
974.520; 1697.000;  158.125;    0.000
974.687; 1703.000;  192.125;    0.000
974.853; 1719.000;  177.125;    0.000
975.020; 1666.000;  212.125;    0.000
975.186; 1640.000;  200.125;    0.000
975.353; 1620.000;  208.125;    0.000
975.519; 1627.000;  169.125;    0.000
975.685; 1733.000;  176.125;    0.000
975.852; 1629.000;  201.125;    0.000
976.018; 1624.000;  209.125;    0.000
976.184; 1658.000;  197.125;    0.000
976.351; 1731.000;  196.125;    0.000
976.517; 1724.000;  243.125;    0.000
976.683; 1684.000;  210.125;    0.000
976.849; 1692.000;  226.125;    0.000
977.016; 1607.000;  218.125;    0.000
977.182; 1665.000;  213.125;    0.000
977.348; 1586.000;  205.125;    0.000
977.514; 1668.000;  210.125;    0.000
977.680; 1680.000;  226.125;    0.000
977.846; 1657.000;  206.125;    0.000
978.012; 1616.000;  222.125;    0.000
978.178; 1661.000;  216.125;    0.000
978.344; 1592.000;  172.125;    0.000
978.510; 1628.000;  210.125;    0.000
978.676; 1512.000;  184.125;    0.000
978.842; 1668.000;  190.125;    0.000
979.008; 1596.000;  203.125;    0.000
979.174; 1646.000;  211.125;    0.000
979.340; 1598.000;  190.125;    0.000
979.505; 1590.000;  235.125;    0.000
979.671; 1640.000;  182.125;    0.000
979.837; 1700.000;  235.125;    0.000
980.003; 1625.000;  183.125;    0.000
980.168; 1663.000;  220.125;    0.000
980.334; 1641.000;  161.125;    0.000
980.499; 1660.000;  212.125;    0.000
980.665; 1704.000;  219.125;    0.000
980.831; 1622.000;  201.125;    0.000
980.996; 1645.000;  189.125;    0.000
981.162; 1760.000;  222.125;    0.000
981.327; 1674.000;  173.125;    0.000
981.493; 1580.000;  197.125;    0.000
981.658; 1583.000;  178.125;    0.000
981.823; 1614.000;  196.125;    0.000
981.989; 1682.000;  248.125;    0.000
982.154; 1647.000;  222.125;    0.000
982.319; 1650.000;  226.125;    0.000
982.485; 1735.000;  188.125;    0.000
982.650; 1743.000;  203.125;    0.000
982.815; 1701.000;  237.125;    0.000
982.980; 1705.000;  210.125;    0.000
983.146; 1649.000;  202.125;    0.000
983.311; 1593.000;  195.125;    0.000
983.476; 1621.000;  207.125;    0.000
983.641; 1632.000;  198.125;    0.000
983.806; 1568.000;  136.125;    0.000
983.971; 1602.000;  248.125;    0.000
984.136; 1686.000;  213.125;    0.000
984.301; 1632.000;  181.125;    0.000
984.466; 1628.000;  210.125;    0.000
984.631; 1642.000;  219.125;    0.000
984.796; 1675.000;  207.125;    0.000
984.961; 1691.000;  214.125;    0.000
985.126; 1746.000;  218.125;    0.000
985.291; 1584.000;  214.125;    0.000
985.455; 1679.000;  187.125;    0.000
985.620; 1577.000;  191.125;    0.000
985.785; 1707.000;  190.125;    0.000
985.950; 1667.000;  184.125;    0.000
986.114; 1666.000;  242.125;    0.000
986.279; 1651.000;  251.125;    0.000
986.444; 1664.000;  177.125;    0.000
986.608; 1705.000;  216.125;    0.000
986.773; 1737.000;  211.125;    0.000
986.937; 1723.000;  244.125;    0.000
987.102; 1679.000;  187.125;    0.000
987.266; 1686.000;  178.125;    0.000
987.431; 1686.000;  205.125;    0.000
987.595; 1660.000;  221.125;    0.000
987.760; 1697.000;  205.125;    0.000
987.924; 1695.000;  195.125;    0.000
988.088; 1713.000;  184.125;    0.000
988.253; 1603.000;  188.125;    0.000
988.417; 1632.000;  196.125;    0.000
988.581; 1664.000;  218.125;    0.000
988.746; 1655.000;  203.125;    0.000
988.910; 1636.000;  195.125;    0.000
989.074; 1659.000;  187.125;    0.000
989.238; 1692.000;  243.125;    0.000
989.402; 1636.000;  242.125;    0.000
989.566; 1643.000;  205.125;    0.000
989.731; 1592.000;  195.125;    0.000
989.895; 1579.000;  211.125;    0.000
990.059; 1612.000;  175.125;    0.000
990.223; 1564.000;  176.125;    0.000
990.387; 1625.000;  234.125;    0.000
990.551; 1548.000;  231.125;    0.000
990.714; 1589.000;  209.125;    0.000
990.878; 1664.000;  187.125;    0.000
991.042; 1622.000;  183.125;    0.000
991.206; 1716.000;  216.125;    0.000
991.370; 1616.000;  257.125;    0.000
991.534; 1638.000;  188.125;    0.000
991.697; 1650.000;  203.125;    0.000
991.861; 1593.000;  219.125;    0.000
992.025; 1604.000;  221.125;    0.000
992.188; 1662.000;  188.125;    0.000
992.352; 1635.000;  205.125;    0.000
992.516; 1535.000;  189.125;    0.000
992.679; 1512.000;  207.125;    0.000
992.843; 1652.000;  210.125;    0.000
993.006; 1603.000;  191.125;    0.000
993.170; 1579.000;  228.125;    0.000
993.333; 1595.000;  142.125;    0.000
993.497; 1620.000;  175.125;    0.000
993.660; 1628.000;  220.125;    0.000
993.824; 1655.000;  193.125;    0.000
993.987; 1673.000;  219.125;    0.000
994.150; 1547.000;  166.125;    0.000
994.314; 1622.000;  207.125;    0.000
994.477; 1534.000;  227.125;    0.000
994.640; 1585.000;  210.125;    0.000
994.803; 1554.000;  219.125;    0.000
994.967; 1511.000;  192.125;    0.000
995.130; 1583.000;  197.125;    0.000
995.293; 1493.000;  189.125;    0.000
995.456; 1662.000;  180.125;    0.000
995.619; 1493.000;  239.125;    0.000
995.782; 1543.000;  209.125;    0.000
995.945; 1509.000;  216.125;    0.000
996.108; 1548.000;  198.125;    0.000
996.271; 1565.000;  205.125;    0.000
996.434; 1624.000;  205.125;    0.000
996.597; 1467.000;  208.125;    0.000
996.760; 1524.000;  205.125;    0.000
996.923; 1576.000;  174.125;    0.000
997.086; 1584.000;  198.125;    0.000
997.248; 1556.000;  214.125;    0.000
997.411; 1599.000;  237.125;    0.000
997.574; 1550.000;  182.125;    0.000
997.737; 1648.000;  188.125;    0.000
997.899; 1506.000;  216.125;    0.000
998.062; 1592.000;  210.125;    0.000
998.225; 1509.000;  202.125;    0.000
998.387; 1519.000;  202.125;    0.000
998.550; 1498.000;  193.125;    0.000
998.712; 1553.000;  225.125;    0.000
998.875; 1496.000;  228.125;    0.000
999.037; 1466.000;  186.125;    0.000
999.200; 1505.000;  212.125;    0.000
999.362; 1557.000;  234.125;    0.000
999.525; 1512.000;  170.125;    0.000
999.687; 1566.000;  191.125;    0.000
999.849; 1561.000;  218.125;    0.000
1000.012; 1506.000;  187.125;    0.000
1000.174; 1556.000;  216.125;    0.000
1000.336; 1610.000;  194.125;    0.000
1000.499; 1591.000;  209.125;    0.000
1000.661; 1612.000;  208.125;    0.000
1000.823; 1575.000;  197.125;    0.000
1000.985; 1564.000;  201.125;    0.000
1001.147; 1685.000;  234.125;    0.000
1001.309; 1635.000;  180.125;    0.000
1001.471; 1610.000;  223.125;    0.000
1001.633; 1597.000;  198.125;    0.000
1001.796; 1690.000;  200.125;    0.000
1001.958; 1686.000;  204.125;    0.000
1002.119; 1645.000;  193.125;    0.000
1002.281; 1759.000;  205.125;    0.000
1002.443; 1844.000;  236.125;    0.000
1002.605; 1867.000;  197.125;    0.000
1002.767; 1907.000;  223.125;    0.000
1002.929; 1998.000;  220.125;    0.000
1003.091; 2085.000;  214.125;    0.000
1003.252; 2220.000;  233.125;    0.000
1003.414; 2139.000;  230.125;    0.000
1003.576; 2281.000;  203.125;    0.000
1003.738; 2281.000;  201.125;    0.000
1003.899; 2568.000;  222.125;    0.000
1004.061; 2670.000;  208.125;    0.000
1004.222; 2751.000;  194.125;    0.000
1004.384; 2902.000;  205.125;    0.000
1004.546; 2900.000;  162.125;    0.000
1004.707; 2922.000;  232.125;    0.000
1004.869; 3039.000;  223.125;    0.000
1005.030; 2889.000;  204.125;    0.000
1005.191; 2867.000;  214.125;    0.000
1005.353; 2858.000;  226.125;    0.000
1005.514; 2695.000;  201.125;    0.000
1005.675; 2671.000;  205.125;    0.000
1005.837; 2482.000;  235.125;    0.000
1005.998; 2441.000;  210.125;    0.000
1006.159; 2317.000;  214.125;    0.000
1006.321; 2479.000;  236.125;    0.000
1006.482; 2549.000;  214.125;    0.000
1006.643; 2597.000;  213.125;    0.000
1006.804; 2692.000;  204.125;    0.000
1006.965; 2794.000;  212.125;    0.000
1007.126; 2791.000;  251.125;    0.000
1007.287; 2814.000;  238.125;    0.000
1007.448; 2856.000;  198.125;    0.000
1007.609; 2768.000;  241.125;    0.000
1007.770; 2617.000;  213.125;    0.000
1007.931; 2665.000;  225.125;    0.000
1008.092; 2681.000;  204.125;    0.000
1008.253; 2794.000;  220.125;    0.000
1008.414; 2758.000;  180.125;    0.000
1008.575; 3002.000;  224.125;    0.000
1008.736; 2858.000;  164.125;    0.000
1008.896; 2902.000;  247.125;    0.000
1009.057; 2873.000;  263.125;    0.000
1009.218; 2887.000;  233.125;    0.000
1009.379; 2779.000;  207.125;    0.000
1009.539; 2857.000;  221.125;    0.000
1009.700; 3049.000;  209.125;    0.000
1009.860; 3014.000;  217.125;    0.000
1010.021; 2975.000;  182.125;    0.000
1010.182; 2979.000;  233.125;    0.000
1010.342; 2988.000;  210.125;    0.000
1010.503; 3100.000;  232.125;    0.000
1010.663; 3237.000;  228.125;    0.000
1010.823; 3293.000;  212.125;    0.000
1010.984; 3437.000;  244.125;    0.000
1011.144; 3412.000;  200.125;    0.000
1011.305; 3456.000;  237.125;    0.000
1011.465; 3614.000;  225.125;    0.000
1011.625; 3634.000;  215.125;    0.000
1011.785; 3736.000;  235.125;    0.000
1011.946; 3704.000;  231.125;    0.000
1012.106; 3692.000;  206.125;    0.000
1012.266; 3579.000;  218.125;    0.000
1012.426; 3611.000;  249.125;    0.000
1012.586; 3576.000;  217.125;    0.000
1012.746; 3406.000;  231.125;    0.000
1012.906; 3510.000;  230.125;    0.000
1013.066; 3503.000;  260.125;    0.000
1013.226; 3573.000;  206.125;    0.000
1013.386; 3546.000;  220.125;    0.000
1013.546; 3361.000;  233.125;    0.000
1013.706; 3437.000;  194.125;    0.000
1013.866; 3365.000;  209.125;    0.000
1014.026; 3440.000;  204.125;    0.000
1014.186; 3369.000;  203.125;    0.000
1014.346; 3374.000;  244.125;    0.000
1014.505; 3490.000;  206.125;    0.000
1014.665; 3662.000;  210.125;    0.000
1014.825; 3466.000;  235.125;    0.000
1014.985; 3372.000;  227.125;    0.000
1015.144; 3577.000;  237.125;    0.000
1015.304; 3727.000;  196.125;    0.000
1015.464; 3629.000;  228.125;    0.000
1015.623; 3505.000;  235.125;    0.000
1015.783; 3852.000;  187.125;    0.000
1015.942; 4040.000;  184.125;    0.000
1016.102; 4071.000;  245.125;    0.000
1016.261; 3942.000;  203.125;    0.000
1016.420; 4318.000;  209.125;    0.000
1016.580; 4836.000;  235.125;    0.000
1016.739; 4648.000;  175.125;    0.000
1016.899; 4467.000;  220.125;    0.000
1017.058; 4777.000;  219.125;    0.000
1017.217; 4983.000;  238.125;    0.000
1017.376; 4524.000;  235.125;    0.000
1017.536; 4090.000;  195.125;    0.000
1017.695; 4319.000;  215.125;    0.000
1017.854; 4408.000;  231.125;    0.000
1018.013; 4161.000;  184.125;    0.000
1018.172; 3932.000;  179.125;    0.000
1018.331; 4031.000;  205.125;    0.000
1018.490; 4389.000;  203.125;    0.000
1018.649; 4596.000;  261.125;    0.000
1018.808; 4530.000;  253.125;    0.000
1018.967; 4590.000;  201.125;    0.000
1019.126; 4695.000;  216.125;    0.000
1019.285; 4780.000;  169.125;    0.000
1019.444; 4682.000;  226.125;    0.000
1019.603; 4573.000;  252.125;    0.000
1019.762; 4273.000;  206.125;    0.000
1019.921; 4461.000;  235.125;    0.000
1020.079; 4676.000;  192.125;    0.000
1020.238; 4781.000;  226.125;    0.000
1020.397; 4678.000;  231.125;    0.000
1020.555; 4598.000;  218.125;    0.000
1020.714; 4600.000;  235.125;    0.000
1020.873; 4976.000;  229.125;    0.000
1021.031; 4768.000;  234.125;    0.000
1021.190; 4719.000;  223.125;    0.000
1021.348; 4771.000;  186.125;    0.000
1021.507; 5084.000;  201.125;    0.000
1021.665; 5296.000;  222.125;    0.000
1021.824; 4832.000;  208.125;    0.000
1021.982; 4679.000;  209.125;    0.000
1022.141; 4727.000;  224.125;    0.000
1022.299; 5278.000;  214.125;    0.000
1022.457; 5424.000;  176.125;    0.000
1022.616; 4892.000;  211.125;    0.000
1022.774; 4461.000;  218.125;    0.000
1022.932; 4915.000;  205.125;    0.000
1023.090; 5521.000;  246.125;    0.000
1023.249; 5558.000;  249.125;    0.000
1023.407; 5020.000;  235.125;    0.000
1023.565; 4594.000;  202.125;    0.000
1023.723; 5023.000;  210.125;    0.000
1023.881; 5576.000;  206.125;    0.000
1024.039; 5473.000;  240.125;    0.000
1024.197; 5114.000;  275.125;    0.000
1024.355; 4697.000;  228.125;    0.000
1024.513; 5061.000;  234.125;    0.000
1024.671; 5524.000;  222.125;    0.000
1024.829; 5684.000;  241.125;    0.000
1024.987; 5035.000;  209.125;    0.000
1025.145; 4776.000;  227.125;    0.000
1025.302; 5008.000;  208.125;    0.000
1025.460; 5456.000;  210.125;    0.000
1025.618; 5804.000;  192.125;    0.000
1025.776; 5489.000;  220.125;    0.000
1025.933; 4736.000;  223.125;    0.000
1026.091; 5096.000;  189.125;    0.000
1026.249; 5568.000;  210.125;    0.000
1026.406; 5832.000;  231.125;    0.000
1026.564; 5574.000;  247.125;    0.000
1026.721; 5088.000;  213.125;    0.000
1026.879; 5100.000;  208.125;    0.000
1027.036; 5544.000;  222.125;    0.000
1027.194; 5918.000;  253.125;    0.000
1027.351; 5907.000;  239.125;    0.000
1027.509; 5500.000;  232.125;    0.000
1027.666; 5370.000;  251.125;    0.000
1027.823; 5622.000;  212.125;    0.000
1027.981; 5811.000;  260.125;    0.000
1028.138; 6017.000;  263.125;    0.000
1028.295; 5838.000;  251.125;    0.000
1028.452; 5617.000;  249.125;    0.000
1028.609; 5507.000;  259.125;    0.000
1028.767; 5851.000;  255.125;    0.000
1028.924; 6036.000;  201.125;    0.000
1029.081; 5827.000;  217.125;    0.000
1029.238; 5882.000;  230.125;    0.000
1029.395; 5591.000;  263.125;    0.000
1029.552; 5843.000;  207.125;    0.000
1029.709; 6126.000;  220.125;    0.000
1029.866; 6275.000;  214.125;    0.000
1030.023; 5977.000;  224.125;    0.000
1030.180; 5671.000;  209.125;    0.000
1030.337; 5763.000;  269.125;    0.000
1030.494; 5905.000;  207.125;    0.000
1030.650; 6261.000;  230.125;    0.000
1030.807; 6332.000;  217.125;    0.000
1030.964; 5903.000;  212.125;    0.000
1031.121; 5811.000;  220.125;    0.000
1031.277; 5714.000;  233.125;    0.000
1031.434; 6080.000;  266.125;    0.000
1031.591; 6388.000;  270.125;    0.000
1031.747; 6339.000;  229.125;    0.000
1031.904; 6421.000;  227.125;    0.000
1032.060; 6057.000;  210.125;    0.000
1032.217; 6146.000;  218.125;    0.000
1032.373; 6742.000;  190.125;    0.000
1032.530; 6823.000;  236.125;    0.000
1032.686; 7282.000;  199.125;    0.000
1032.843; 7176.000;  216.125;    0.000
1032.999; 6639.000;  204.125;    0.000
1033.155; 7107.000;  208.125;    0.000
1033.312; 6947.000;  231.125;    0.000
1033.468; 8393.000;  213.125;    0.000
1033.624; 8822.000;  235.125;    0.000
1033.780; 9095.000;  233.125;    0.000
1033.937; 8767.000;  201.125;    0.000
1034.093; 8253.000;  233.125;    0.000
1034.249; 8520.000;  214.125;    0.000
1034.405; 8721.000;  245.125;    0.000
1034.561; 9469.000;  228.125;    0.000
1034.717; 9925.000;  234.125;    0.000
1034.873; 9732.000;  248.125;    0.000
1035.029; 9964.000;  220.125;    0.000
1035.185; 9174.000;  294.125;    0.000
1035.341; 8846.000;  231.125;    0.000
1035.497; 9966.000;  254.125;    0.000
1035.653;10006.000;  225.125;    0.000
1035.809;11232.000;  243.125;    0.000
1035.964;11625.000;  216.125;    0.000
1036.120;10831.000;  199.125;    0.000
1036.276;10653.000;  220.125;    0.000
1036.432;10239.000;  210.125;    0.000
1036.587; 9998.000;  225.125;    0.000
1036.743;11020.000;  245.125;    0.000
1036.899;11769.000;  219.125;    0.000
1037.054;11790.000;  157.125;    0.000
1037.210;13291.000;  208.125;    0.000
1037.365;13385.000;  230.125;    0.000
1037.521;12112.000;  236.125;    0.000
1037.676;12016.000;  193.125;    0.000
1037.832;11369.000;  246.125;    0.000
1037.987;11387.000;  231.125;    0.000
1038.143;11898.000;  234.125;    0.000
1038.298;13522.000;  219.125;    0.000
1038.453;13634.000;  230.125;    0.000
1038.609;14580.000;  254.125;    0.000
1038.764;14705.000;  249.125;    0.000
1038.919;13177.000;  224.125;    0.000
1039.074;13419.000;  209.125;    0.000
1039.229;12185.000;  214.125;    0.000
1039.385;12776.000;  268.125;    0.000
1039.540;13014.000;  268.125;    0.000
1039.695;14398.000;  229.125;    0.000
1039.850;15385.000;  252.125;    0.000
1040.005;16246.000;  248.125;    0.000
1040.160;16630.000;  215.125;    0.000
1040.315;16157.000;  239.125;    0.000
1040.470;15459.000;  210.125;    0.000
1040.625;14512.000;  239.125;    0.000
1040.780;14339.000;  251.125;    0.000
1040.935;14737.000;  247.125;    0.000
1041.089;15528.000;  215.125;    0.000
1041.244;17583.000;  210.125;    0.000
1041.399;18652.000;  237.125;    0.000
1041.554;19453.000;  253.125;    0.000
1041.708;20880.000;  227.125;    0.000
1041.863;19754.000;  219.125;    0.000
1042.018;18721.000;  246.125;    0.000
1042.172;18856.000;  236.125;    0.000
1042.327;18020.000;  272.125;    0.000
1042.481;17784.000;  197.125;    0.000
1042.636;19095.000;  213.125;    0.000
1042.791;18874.000;  250.125;    0.000
1042.945;22286.000;  267.125;    0.000
1043.099;24240.000;  257.125;    0.000
1043.254;24230.000;  206.125;    0.000
1043.408;25847.000;  266.125;    0.000
1043.563;26447.000;  232.125;    0.000
1043.717;23915.000;  241.125;    0.000
1043.871;22866.000;  248.125;    0.000
1044.025;22749.000;  234.125;    0.000
1044.180;22469.000;  222.125;    0.000
1044.334;22697.000;  235.125;    0.000
1044.488;23667.000;  270.125;    0.000
1044.642;24975.000;  215.125;    0.000
1044.796;27890.000;  212.125;    0.000
1044.950;32162.000;  228.125;    0.000
1045.104;33320.000;  223.125;    0.000
1045.258;33217.000;  236.125;    0.000
1045.412;31675.000;  225.125;    0.000
1045.566;30755.000;  245.125;    0.000
1045.720;29877.000;  201.125;    0.000
1045.874;27598.000;  229.125;    0.000
1046.028;25492.000;  243.125;    0.000
1046.182;26933.000;  212.125;    0.000
1046.336;27753.000;  256.125;    0.000
1046.489;27976.000;  234.125;    0.000
1046.643;29647.000;  246.125;    0.000
1046.797;31990.000;  219.125;    0.000
1046.951;32872.000;  231.125;    0.000
1047.104;34946.000;  285.125;    0.000
1047.258;35154.000;  256.125;    0.000
1047.411;36809.000;  232.125;    0.000
1047.565;35761.000;  269.125;    0.000
1047.719;34012.000;  213.125;    0.000
1047.872;32601.000;  210.125;    0.000
1048.026;31413.000;  251.125;    0.000
1048.179;32476.000;  213.125;    0.000
1048.332;31398.000;  212.125;    0.000
1048.486;30564.000;  218.125;    0.000
1048.639;31356.000;  218.125;    0.000
1048.792;32090.000;  247.125;    0.000
1048.946;36156.000;  208.125;    0.000
1049.099;39179.000;  247.125;    0.000
1049.252;38818.000;  274.125;    0.000
1049.406;36504.000;  232.125;    0.000
1049.559;38355.000;  251.125;    0.000
1049.712;42528.000;  243.125;    0.000
1049.865;45251.000;  219.125;    0.000
1050.018;44513.000;  216.125;    0.000
1050.171;38736.000;  237.125;    0.000
1050.324;37799.000;  291.125;    0.000
1050.477;39930.000;  241.125;    0.000
1050.630;42399.000;  245.125;    0.000
1050.783;43938.000;  213.125;    0.000
1050.936;40992.000;  246.125;    0.000
1051.089;40085.000;  255.125;    0.000
1051.242;41999.000;  228.125;    0.000
1051.394;46571.000;  276.125;    0.000
1051.547;47943.000;  246.125;    0.000
1051.700;45324.000;  252.125;    0.000
1051.853;44834.000;  267.125;    0.000
1052.005;45847.000;  261.125;    0.000
1052.158;51699.000;  313.125;    0.000
1052.311;56791.000;  264.125;    0.000
1052.463;54688.000;  271.125;    0.000
1052.616;47435.000;  291.125;    0.000
1052.768;43063.000;  298.125;    0.000
1052.921;41699.000;  262.125;    0.000
1053.073;45821.000;  307.125;    0.000
1053.226;51004.000;  301.125;    0.000
1053.378;57489.000;  309.125;    0.000
1053.531;61195.000;  280.125;    0.000
1053.683;58583.000;  258.125;    0.000
1053.835;50604.000;  267.125;    0.000
1053.988;37564.000;  294.125;    0.000
1054.140; 6910.000;  292.125;    0.000
1054.292; 1669.000;  249.125;    0.000
1054.444; 1293.000;  288.125;    0.000
1054.596; 1154.000;  275.125;    0.000
1054.749; 1092.000;  284.125;    0.000
1054.901;  969.000;  291.125;    0.000
1055.053;  920.000;  274.125;    0.000
1055.205;  906.000;  313.125;    0.000
1055.357;  895.000;  309.125;    0.000
1055.509;  784.000;  283.125;    0.000
1055.661;  854.000;  341.125;    0.000
1055.813;  744.000;  288.125;    0.000
1055.965;  779.000;  300.125;    0.000
1056.116;  803.000;  296.125;    0.000
1056.268;  800.000;  319.125;    0.000
1056.420;  773.000;  298.125;    0.000

