
Integration time [ms]:   1.000
Averaging Nr. [scans]: 1
Smoothing Nr. [pixels]: 0
Data measured with spectrometer [name]: UV1
Wave   ;Sample   ;Dark     ;Reference
[nm]   ;[counts] ;[counts] ;[counts] 

236.381;  121.375;  175.825;    0.000
236.451;  152.375;  220.825;    0.000
236.520;  137.375;  178.825;    0.000
236.590;  193.375;  182.825;    0.000
236.660;  191.375;  180.825;    0.000
236.730;  197.375;  201.825;    0.000
236.799;  179.375;  168.825;    0.000
236.869;  169.375;  205.825;    0.000
236.939;  165.375;  175.825;    0.000
237.009;  168.375;  186.825;    0.000
237.078;  175.375;  200.825;    0.000
237.148;  150.375;  156.825;    0.000
237.218;  173.375;  190.825;    0.000
237.287;  179.375;  167.825;    0.000
237.357;  177.375;  213.825;    0.000
237.427;  192.375;  164.825;    0.000
237.496; 1222.375;  210.825;    0.000
237.566; 1191.375;  193.825;    0.000
237.636; 1110.375;  179.825;    0.000
237.705; 1141.375;  218.825;    0.000
237.775; 1061.375;  160.825;    0.000
237.845; 1094.375;  207.825;    0.000
237.914; 1120.375;  180.825;    0.000
237.984; 1156.375;  207.825;    0.000
238.054; 1085.375;  149.825;    0.000
238.123; 1157.375;  190.825;    0.000
238.193; 1198.375;  167.825;    0.000
238.263; 1105.375;  172.825;    0.000
238.332; 1067.375;  173.825;    0.000
238.402; 1175.375;  214.825;    0.000
238.471; 1137.375;  181.825;    0.000
238.541; 1090.375;  177.825;    0.000
238.611; 1059.375;  138.825;    0.000
238.680; 1122.375;  168.825;    0.000
238.750; 1132.375;  171.825;    0.000
238.819; 1105.375;  156.825;    0.000
238.889; 1078.375;  194.825;    0.000
238.958; 1176.375;  185.825;    0.000
239.028; 1132.375;  170.825;    0.000
239.097; 1079.375;  159.825;    0.000
239.167; 1159.375;  208.825;    0.000
239.237; 1126.375;  167.825;    0.000
239.306; 1083.375;  154.825;    0.000
239.376; 1129.375;  183.825;    0.000
239.445; 1132.375;  221.825;    0.000
239.515; 1172.375;  208.825;    0.000
239.584; 1094.375;  177.825;    0.000
239.654; 1108.375;  133.825;    0.000
239.723; 1071.375;  167.825;    0.000
239.793; 1089.375;  190.825;    0.000
239.862; 1163.375;  192.825;    0.000
239.932; 1112.375;  174.825;    0.000
240.001; 1105.375;  166.825;    0.000
240.070; 1100.375;  179.825;    0.000
240.140; 1129.375;  191.825;    0.000
240.209; 1042.375;  134.825;    0.000
240.279; 1063.375;  185.825;    0.000
240.348; 1099.375;  193.825;    0.000
240.418; 1081.375;  149.825;    0.000
240.487; 1109.375;  197.825;    0.000
240.556; 1140.375;  193.825;    0.000
240.626; 1060.375;  178.825;    0.000
240.695; 1098.375;  194.825;    0.000
240.765; 1131.375;  178.825;    0.000
240.834; 1069.375;  190.825;    0.000
240.903; 1147.375;  212.825;    0.000
240.973; 1111.375;  153.825;    0.000
241.042; 1130.375;  177.825;    0.000
241.112; 1110.375;  193.825;    0.000
241.181; 1141.375;  171.825;    0.000
241.250; 1062.375;  152.825;    0.000
241.320; 1110.375;  176.825;    0.000
241.389; 1042.375;  186.825;    0.000
241.458; 1126.375;  182.825;    0.000
241.528; 1049.375;  175.825;    0.000
241.597; 1090.375;  180.825;    0.000
241.666; 1048.375;  162.825;    0.000
241.736; 1110.375;  187.825;    0.000
241.805; 1110.375;  173.825;    0.000
241.874; 1043.375;  177.825;    0.000
241.943; 1094.375;  208.825;    0.000
242.013; 1119.375;  183.825;    0.000
242.082; 1102.375;  171.825;    0.000
242.151; 1052.375;  208.825;    0.000
242.221; 1086.375;  160.825;    0.000
242.290; 1050.375;  200.825;    0.000
242.359; 1084.375;  167.825;    0.000
242.428; 1092.375;  213.825;    0.000
242.498; 1049.375;  156.825;    0.000
242.567; 1082.375;  200.825;    0.000
242.636; 1012.375;  178.825;    0.000
242.705; 1119.375;  185.825;    0.000
242.774;  977.375;  190.825;    0.000
242.844; 1029.375;  194.825;    0.000
242.913;  990.375;  162.825;    0.000
242.982; 1029.375;  189.825;    0.000
243.051; 1034.375;  176.825;    0.000
243.120; 1037.375;  213.825;    0.000
243.190; 1055.375;  155.825;    0.000
243.259; 1054.375;  183.825;    0.000
243.328; 1041.375;  170.825;    0.000
243.397; 1046.375;  224.825;    0.000
243.466; 1017.375;  172.825;    0.000
243.535; 1060.375;  145.825;    0.000
243.605; 1000.375;  157.825;    0.000
243.674; 1055.375;  199.825;    0.000
243.743; 1088.375;  196.825;    0.000
243.812; 1029.375;  152.825;    0.000
243.881; 1013.375;  188.825;    0.000
243.950; 1079.375;  154.825;    0.000
244.019; 1078.375;  195.825;    0.000
244.088; 1087.375;  164.825;    0.000
244.158; 1077.375;  220.825;    0.000
244.227; 1003.375;  150.825;    0.000
244.296; 1014.375;  153.825;    0.000
244.365; 1084.375;  195.825;    0.000
244.434; 1032.375;  136.825;    0.000
244.503; 1017.375;  172.825;    0.000
244.572;  998.375;  129.825;    0.000
244.641; 1038.375;  132.825;    0.000
244.710; 1031.375;  185.825;    0.000
244.779; 1045.375;  164.825;    0.000
244.848;  973.375;  132.825;    0.000
244.917; 1088.375;  196.825;    0.000
244.986;  998.375;  148.825;    0.000
245.055; 1080.375;  192.825;    0.000
245.124; 1039.375;  170.825;    0.000
245.193; 1011.375;  172.825;    0.000
245.262;  949.375;  146.825;    0.000
245.331;  988.375;  178.825;    0.000
245.400;  955.375;  108.825;    0.000
245.469;  998.375;  173.825;    0.000
245.538; 1018.375;  180.825;    0.000
245.607;  971.375;  171.825;    0.000
245.676;  995.375;  149.825;    0.000
245.745;  932.375;  194.825;    0.000
245.814;  884.375;  186.825;    0.000
245.883;  892.375;  192.825;    0.000
245.952;  894.375;  169.825;    0.000
246.021;  946.375;  190.825;    0.000
246.090;  939.375;  181.825;    0.000
246.159;  923.375;  179.825;    0.000
246.227;  887.375;  182.825;    0.000
246.296;  914.375;  182.825;    0.000
246.365;  902.375;  171.825;    0.000
246.434;  938.375;  218.825;    0.000
246.503;  910.375;  147.825;    0.000
246.572;  884.375;  227.825;    0.000
246.641;  878.375;  193.825;    0.000
246.710;  940.375;  207.825;    0.000
246.779;  896.375;  181.825;    0.000
246.847;  882.375;  179.825;    0.000
246.916;  877.375;  155.825;    0.000
246.985;  842.375;  168.825;    0.000
247.054;  851.375;  137.825;    0.000
247.123;  937.375;  128.825;    0.000
247.192;  876.375;  163.825;    0.000
247.260;  819.375;  173.825;    0.000
247.329;  894.375;  174.825;    0.000
247.398;  910.375;  238.825;    0.000
247.467;  855.375;  168.825;    0.000
247.536;  879.375;  203.825;    0.000
247.604;  914.375;  194.825;    0.000
247.673;  860.375;  145.825;    0.000
247.742;  852.375;  167.825;    0.000
247.811;  868.375;  180.825;    0.000
247.879;  860.375;  187.825;    0.000
247.948;  940.375;  187.825;    0.000
248.017;  873.375;  170.825;    0.000
248.086;  875.375;  223.825;    0.000
248.154;  881.375;  160.825;    0.000
248.223;  907.375;  163.825;    0.000
248.292;  897.375;  201.825;    0.000
248.361;  889.375;  205.825;    0.000
248.429;  864.375;  191.825;    0.000
248.498;  783.375;  194.825;    0.000
248.567;  884.375;  217.825;    0.000
248.635;  881.375;  224.825;    0.000
248.704;  811.375;  204.825;    0.000
248.773;  825.375;  175.825;    0.000
248.841;  890.375;  157.825;    0.000
248.910;  919.375;  206.825;    0.000
248.979;  841.375;  170.825;    0.000
249.047;  852.375;  178.825;    0.000
249.116;  921.375;  183.825;    0.000
249.185;  902.375;  202.825;    0.000
249.253;  834.375;  159.825;    0.000
249.322;  827.375;  177.825;    0.000
249.390;  817.375;  157.825;    0.000
249.459;  881.375;  211.825;    0.000
249.528;  812.375;  181.825;    0.000
249.596;  834.375;  179.825;    0.000
249.665;  832.375;  176.825;    0.000
249.733;  871.375;  186.825;    0.000
249.802;  915.375;  185.825;    0.000
249.871;  825.375;  166.825;    0.000
249.939;  854.375;  163.825;    0.000
250.008;  855.375;  212.825;    0.000
250.076;  908.375;  227.825;    0.000
250.145;  844.375;  172.825;    0.000
250.213;  817.375;  173.825;    0.000
250.282;  812.375;  189.825;    0.000
250.350;  758.375;  166.825;    0.000
250.419;  853.375;  161.825;    0.000
250.487;  809.375;  178.825;    0.000
250.556;  883.375;  208.825;    0.000
250.624;  879.375;  190.825;    0.000
250.693;  826.375;  163.825;    0.000
250.761;  847.375;  194.825;    0.000
250.830;  819.375;  225.825;    0.000
250.898;  854.375;  140.825;    0.000
250.967;  758.375;  167.825;    0.000
251.035;  778.375;  155.825;    0.000
251.104;  818.375;  189.825;    0.000
251.172;  812.375;  136.825;    0.000
251.241;  786.375;  148.825;    0.000
251.309;  844.375;  201.825;    0.000
251.378;  808.375;  169.825;    0.000
251.446;  852.375;  178.825;    0.000
251.514;  845.375;  206.825;    0.000
251.583;  780.375;  178.825;    0.000
251.651;  775.375;  168.825;    0.000
251.720;  771.375;  190.825;    0.000
251.788;  837.375;  209.825;    0.000
251.856;  755.375;  173.825;    0.000
251.925;  761.375;  171.825;    0.000
251.993;  784.375;  188.825;    0.000
252.062;  804.375;  169.825;    0.000
252.130;  799.375;  196.825;    0.000
252.198;  782.375;  210.825;    0.000
252.267;  717.375;  181.825;    0.000
252.335;  865.375;  164.825;    0.000
252.403;  761.375;  152.825;    0.000
252.472;  776.375;  166.825;    0.000
252.540;  804.375;  189.825;    0.000
252.608;  757.375;  198.825;    0.000
252.677;  763.375;  156.825;    0.000
252.745;  801.375;  184.825;    0.000
252.813;  759.375;  163.825;    0.000
252.881;  669.375;  130.825;    0.000
252.950;  703.375;  189.825;    0.000
253.018;  744.375;  164.825;    0.000
253.086;  661.375;  172.825;    0.000
253.155;  646.375;  205.825;    0.000
253.223;  639.375;  175.825;    0.000
253.291;  636.375;  176.825;    0.000
253.359;  661.375;  182.825;    0.000
253.428;  659.375;  222.825;    0.000
253.496;  644.375;  166.825;    0.000
253.564;  550.375;  135.825;    0.000
253.632;  631.375;  184.825;    0.000
253.700;  595.375;  173.825;    0.000
253.769;  588.375;  163.825;    0.000
253.837;  603.375;  179.825;    0.000
253.905;  566.375;  157.825;    0.000
253.973;  604.375;  164.825;    0.000
254.041;  564.375;  170.825;    0.000
254.110;  605.375;  169.825;    0.000
254.178;  586.375;  165.825;    0.000
254.246;  568.375;  126.825;    0.000
254.314;  607.375;  166.825;    0.000
254.382;  579.375;  169.825;    0.000
254.450;  563.375;  170.825;    0.000
254.518;  582.375;  196.825;    0.000
254.587;  537.375;  161.825;    0.000
254.655;  592.375;  187.825;    0.000
254.723;  566.375;  144.825;    0.000
254.791;  568.375;  175.825;    0.000
254.859;  598.375;  168.825;    0.000
254.927;  625.375;  198.825;    0.000
254.995;  589.375;  165.825;    0.000
255.063;  578.375;  150.825;    0.000
255.131;  573.375;  181.825;    0.000
255.199;  606.375;  160.825;    0.000
255.267;  551.375;  131.825;    0.000
255.336;  581.375;  188.825;    0.000
255.404;  528.375;  163.825;    0.000
255.472;  605.375;  192.825;    0.000
255.540;  622.375;  158.825;    0.000
255.608;  602.375;  147.825;    0.000
255.676;  611.375;  166.825;    0.000
255.744;  569.375;  159.825;    0.000
255.812;  555.375;  164.825;    0.000
255.880;  640.375;  195.825;    0.000
255.948;  598.375;  167.825;    0.000
256.016;  624.375;  185.825;    0.000
256.084;  599.375;  191.825;    0.000
256.152;  638.375;  214.825;    0.000
256.220;  669.375;  195.825;    0.000
256.288;  624.375;  185.825;    0.000
256.356;  579.375;  168.825;    0.000
256.424;  626.375;  161.825;    0.000
256.491;  644.375;  161.825;    0.000
256.559;  653.375;  157.825;    0.000
256.627;  721.375;  164.825;    0.000
256.695;  706.375;  146.825;    0.000
256.763;  660.375;  194.825;    0.000
256.831;  697.375;  182.825;    0.000
256.899;  691.375;  192.825;    0.000
256.967;  635.375;  172.825;    0.000
257.035;  714.375;  169.825;    0.000
257.103;  715.375;  223.825;    0.000
257.171;  639.375;  141.825;    0.000
257.238;  682.375;  146.825;    0.000
257.306;  700.375;  180.825;    0.000
257.374;  722.375;  138.825;    0.000
257.442;  706.375;  135.825;    0.000
257.510;  722.375;  130.825;    0.000
257.578;  714.375;  123.825;    0.000
257.646;  737.375;  162.825;    0.000
257.713;  648.375;  149.825;    0.000
257.781;  822.375;  125.825;    0.000
257.849;  768.375;  149.825;    0.000
257.917;  806.375;  177.825;    0.000
257.985;  729.375;  143.825;    0.000
258.052;  731.375;  154.825;    0.000
258.120;  802.375;  162.825;    0.000
258.188;  819.375;  172.825;    0.000
258.256;  780.375;  160.825;    0.000
258.324;  861.375;  209.825;    0.000
258.391;  784.375;  153.825;    0.000
258.459;  850.375;  133.825;    0.000
258.527;  870.375;  160.825;    0.000
258.595;  885.375;  128.825;    0.000
258.662;  853.375;  114.825;    0.000
258.730;  885.375;  192.825;    0.000
258.798;  882.375;  144.825;    0.000
258.865;  864.375;  140.825;    0.000
258.933;  953.375;  150.825;    0.000
259.001;  927.375;  149.825;    0.000
259.069;  901.375;  110.825;    0.000
259.136;  962.375;  150.825;    0.000
259.204;  967.375;  156.825;    0.000
259.272; 1001.375;  185.825;    0.000
259.339;  960.375;  148.825;    0.000
259.407;  899.375;  163.825;    0.000
259.475;  982.375;  129.825;    0.000
259.542;  918.375;  144.825;    0.000
259.610;  997.375;  164.825;    0.000
259.677; 1015.375;  188.825;    0.000
259.745; 1154.375;  113.825;    0.000
259.813; 1242.375;  188.825;    0.000
259.880; 1362.375;  174.825;    0.000
259.948; 1335.375;  166.825;    0.000
260.016; 1078.375;  150.825;    0.000
260.083; 1084.375;  178.825;    0.000
260.151; 1078.375;  120.825;    0.000
260.218; 1106.375;  175.825;    0.000
260.286; 1098.375;  155.825;    0.000
260.353; 1176.375;  165.825;    0.000
260.421; 1113.375;  169.825;    0.000
260.489; 1208.375;  194.825;    0.000
260.556; 1148.375;  161.825;    0.000
260.624; 1234.375;  179.825;    0.000
260.691; 1201.375;  174.825;    0.000
260.759; 1265.375;  164.825;    0.000
260.826; 1175.375;  125.825;    0.000
260.894; 1161.375;  164.825;    0.000
260.961; 1262.375;  147.825;    0.000
261.029; 1251.375;  167.825;    0.000
261.096; 1391.375;  136.825;    0.000
261.164; 1456.375;  146.825;    0.000
261.231; 1341.375;  190.825;    0.000
261.299; 1330.375;  171.825;    0.000
261.366; 1348.375;  165.825;    0.000
261.434; 1292.375;  160.825;    0.000
261.501; 1317.375;  149.825;    0.000
261.568; 1275.375;  155.825;    0.000
261.636; 1356.375;  137.825;    0.000
261.703; 1341.375;  186.825;    0.000
261.771; 1387.375;  162.825;    0.000
261.838; 1335.375;  190.825;    0.000
261.906; 1326.375;  133.825;    0.000
261.973; 1403.375;  202.825;    0.000
262.040; 1437.375;  179.825;    0.000
262.108; 1342.375;  161.825;    0.000
262.175; 1424.375;  155.825;    0.000
262.243; 1452.375;  158.825;    0.000
262.310; 1488.375;  129.825;    0.000
262.377; 1493.375;  157.825;    0.000
262.445; 1534.375;  132.825;    0.000
262.512; 1553.375;  161.825;    0.000
262.579; 1543.375;  151.825;    0.000
262.647; 1547.375;  174.825;    0.000
262.714; 1643.375;  174.825;    0.000
262.781; 1516.375;  164.825;    0.000
262.849; 1529.375;  168.825;    0.000
262.916; 1580.375;  153.825;    0.000
262.983; 1618.375;  201.825;    0.000
263.051; 1742.375;  117.825;    0.000
263.118; 1725.375;  150.825;    0.000
263.185; 1589.375;  172.825;    0.000
263.252; 1605.375;  154.825;    0.000
263.320; 1558.375;  152.825;    0.000
263.387; 1650.375;  136.825;    0.000
263.454; 1545.375;  167.825;    0.000
263.522; 1607.375;  122.825;    0.000
263.589; 1629.375;  147.825;    0.000
263.656; 1594.375;  130.825;    0.000
263.723; 1648.375;  182.825;    0.000
263.790; 1711.375;  163.825;    0.000
263.858; 1688.375;  161.825;    0.000
263.925; 1631.375;  153.825;    0.000
263.992; 1752.375;  139.825;    0.000
264.059; 1695.375;  141.825;    0.000
264.126; 1692.375;  153.825;    0.000
264.194; 1739.375;  144.825;    0.000
264.261; 1802.375;  188.825;    0.000
264.328; 1747.375;  161.825;    0.000
264.395; 1858.375;  184.825;    0.000
264.462; 1715.375;  162.825;    0.000
264.529; 1758.375;  178.825;    0.000
264.597; 1724.375;  160.825;    0.000
264.664; 1798.375;  158.825;    0.000
264.731; 1802.375;  176.825;    0.000
264.798; 1834.375;  137.825;    0.000
264.865; 1894.375;  175.825;    0.000
264.932; 1817.375;  162.825;    0.000
264.999; 1848.375;  153.825;    0.000
265.066; 1850.375;  168.825;    0.000
265.133; 1886.375;  142.825;    0.000
265.201; 1810.375;  163.825;    0.000
265.268; 1859.375;  143.825;    0.000
265.335; 1895.375;  156.825;    0.000
265.402; 1922.375;  136.825;    0.000
265.469; 1910.375;  127.825;    0.000
265.536; 1922.375;  159.825;    0.000
265.603; 2042.375;  191.825;    0.000
265.670; 1902.375;  136.825;    0.000
265.737; 1880.375;  186.825;    0.000
265.804; 1978.375;  147.825;    0.000
265.871; 1980.375;  147.825;    0.000
265.938; 1964.375;  153.825;    0.000
266.005; 1948.375;  172.825;    0.000
266.072; 2051.375;  151.825;    0.000
266.139; 2068.375;  175.825;    0.000
266.206; 2017.375;  165.825;    0.000
266.273; 2095.375;  162.825;    0.000
266.340; 2049.375;  150.825;    0.000
266.407; 2018.375;  169.825;    0.000
266.474; 2119.375;  151.825;    0.000
266.541; 2117.375;  164.825;    0.000
266.608; 2030.375;  111.825;    0.000
266.675; 2131.375;  173.825;    0.000
266.742; 2092.375;  148.825;    0.000
266.808; 2172.375;  185.825;    0.000
266.875; 2021.375;  188.825;    0.000
266.942; 2096.375;  131.825;    0.000
267.009; 2008.375;  184.825;    0.000
267.076; 2109.375;  200.825;    0.000
267.143; 2105.375;  216.825;    0.000
267.210; 2115.375;  138.825;    0.000
267.277; 2093.375;  143.825;    0.000
267.344; 2155.375;  172.825;    0.000
267.410; 2165.375;  172.825;    0.000
267.477; 2063.375;  160.825;    0.000
267.544; 2150.375;  175.825;    0.000
267.611; 2153.375;  189.825;    0.000
267.678; 2124.375;  162.825;    0.000
267.745; 2185.375;  206.825;    0.000
267.811; 2168.375;  146.825;    0.000
267.878; 2162.375;  147.825;    0.000
267.945; 2157.375;  170.825;    0.000
268.012; 2109.375;  153.825;    0.000
268.079; 2257.375;  185.825;    0.000
268.145; 2129.375;  197.825;    0.000
268.212; 2252.375;  167.825;    0.000
268.279; 2227.375;  145.825;    0.000
268.346; 2163.375;  182.825;    0.000
268.412; 2169.375;  144.825;    0.000
268.479; 2097.375;  186.825;    0.000
268.546; 2229.375;  147.825;    0.000
268.613; 2168.375;  188.825;    0.000
268.679; 2230.375;  173.825;    0.000
268.746; 2197.375;  204.825;    0.000
268.813; 2191.375;  199.825;    0.000
268.879; 2175.375;  157.825;    0.000
268.946; 2183.375;  192.825;    0.000
269.013; 2164.375;  136.825;    0.000
269.079; 2225.375;  166.825;    0.000
269.146; 2102.375;  129.825;    0.000
269.213; 2214.375;  178.825;    0.000
269.280; 2136.375;  148.825;    0.000
269.346; 2171.375;  194.825;    0.000
269.413; 2237.375;  135.825;    0.000
269.479; 2148.375;  180.825;    0.000
269.546; 2198.375;  169.825;    0.000
269.613; 2101.375;  160.825;    0.000
269.679; 2220.375;  161.825;    0.000
269.746; 2075.375;  143.825;    0.000
269.813; 2195.375;  172.825;    0.000
269.879; 2176.375;  152.825;    0.000
269.946; 2219.375;  156.825;    0.000
270.012; 2223.375;  190.825;    0.000
270.079; 2180.375;  143.825;    0.000
270.145; 2190.375;  148.825;    0.000
270.212; 2165.375;  176.825;    0.000
270.279; 2142.375;  168.825;    0.000
270.345; 2132.375;  143.825;    0.000
270.412; 2171.375;  155.825;    0.000
270.478; 2178.375;  176.825;    0.000
270.545; 2143.375;  112.825;    0.000
270.611; 2192.375;  186.825;    0.000
270.678; 2115.375;  141.825;    0.000
270.744; 2120.375;  145.825;    0.000
270.811; 2144.375;  120.825;    0.000
270.877; 2158.375;  118.825;    0.000
270.944; 2173.375;  135.825;    0.000
271.010; 2116.375;  128.825;    0.000
271.077; 2137.375;  176.825;    0.000
271.143; 2177.375;  162.825;    0.000
271.210; 2224.375;  133.825;    0.000
271.276; 2055.375;  107.825;    0.000
271.342; 2149.375;  202.825;    0.000
271.409; 2241.375;  160.825;    0.000
271.475; 2189.375;  165.825;    0.000
271.542; 2153.375;  152.825;    0.000
271.608; 2180.375;  163.825;    0.000
271.675; 2067.375;  149.825;    0.000
271.741; 2203.375;  164.825;    0.000
271.807; 2187.375;  128.825;    0.000
271.874; 2195.375;  148.825;    0.000
271.940; 2141.375;  179.825;    0.000
272.007; 2102.375;  148.825;    0.000
272.073; 2158.375;  146.825;    0.000
272.139; 2164.375;  166.825;    0.000
272.206; 2226.375;  198.825;    0.000
272.272; 2109.375;  201.825;    0.000
272.338; 2140.375;  208.825;    0.000
272.405; 2164.375;  181.825;    0.000
272.471; 2149.375;  167.825;    0.000
272.537; 2154.375;  189.825;    0.000
272.604; 2125.375;  162.825;    0.000
272.670; 2229.375;  194.825;    0.000
272.736; 2231.375;  176.825;    0.000
272.802; 2221.375;  163.825;    0.000
272.869; 2196.375;  170.825;    0.000
272.935; 2163.375;  145.825;    0.000
273.001; 2161.375;  149.825;    0.000
273.068; 2184.375;  172.825;    0.000
273.134; 2227.375;  155.825;    0.000
273.200; 2219.375;  183.825;    0.000
273.266; 2170.375;  160.825;    0.000
273.333; 2277.375;  190.825;    0.000
273.399; 2115.375;  132.825;    0.000
273.465; 2272.375;  179.825;    0.000
273.531; 2296.375;  161.825;    0.000
273.597; 2260.375;  194.825;    0.000
273.664; 2357.375;  193.825;    0.000
273.730; 2338.375;  180.825;    0.000
273.796; 2253.375;  145.825;    0.000
273.862; 2463.375;  176.825;    0.000
273.928; 2649.375;  169.825;    0.000
273.995; 2431.375;  202.825;    0.000
274.061; 2420.375;  176.825;    0.000
274.127; 2329.375;  178.825;    0.000
274.193; 2468.375;  106.825;    0.000
274.259; 2513.375;  186.825;    0.000
274.325; 2404.375;  163.825;    0.000
274.391; 2345.375;  162.825;    0.000
274.457; 2409.375;  145.825;    0.000
274.524; 2457.375;  189.825;    0.000
274.590; 2589.375;  161.825;    0.000
274.656; 2643.375;  157.825;    0.000
274.722; 2627.375;  143.825;    0.000
274.788; 2539.375;  166.825;    0.000
274.854; 2777.375;  200.825;    0.000
274.920; 2731.375;  132.825;    0.000
274.986; 2644.375;  184.825;    0.000
275.052; 2530.375;  169.825;    0.000
275.118; 2524.375;  153.825;    0.000
275.184; 2583.375;  182.825;    0.000
275.250; 2656.375;  124.825;    0.000
275.316; 2587.375;  154.825;    0.000
275.382; 2666.375;  150.825;    0.000
275.448; 2775.375;  180.825;    0.000
275.514; 2874.375;  143.825;    0.000
275.580; 2873.375;  120.825;    0.000
275.646; 2730.375;  127.825;    0.000
275.712; 2708.375;  109.825;    0.000
275.778; 2724.375;  126.825;    0.000
275.844; 2720.375;  155.825;    0.000
275.910; 2809.375;  164.825;    0.000
275.976; 2840.375;  161.825;    0.000
276.042; 2809.375;  152.825;    0.000
276.108; 2951.375;  159.825;    0.000
276.174; 2851.375;  149.825;    0.000
276.240; 2911.375;  112.825;    0.000
276.306; 2899.375;  142.825;    0.000
276.372; 3029.375;  136.825;    0.000
276.437; 3178.375;  141.825;    0.000
276.503; 3106.375;  150.825;    0.000
276.569; 3206.375;  178.825;    0.000
276.635; 3314.375;  117.825;    0.000
276.701; 3391.375;  174.825;    0.000
276.767; 3374.375;  136.825;    0.000
276.833; 3388.375;  119.825;    0.000
276.899; 3610.375;  171.825;    0.000
276.964; 3648.375;  146.825;    0.000
277.030; 3714.375;  157.825;    0.000
277.096; 3796.375;  124.825;    0.000
277.162; 3923.375;  185.825;    0.000
277.228; 3864.375;  125.825;    0.000
277.293; 4147.375;  159.825;    0.000
277.359; 4332.375;  186.825;    0.000
277.425; 4521.375;  176.825;    0.000
277.491; 4768.375;  140.825;    0.000
277.557; 5819.375;  172.825;    0.000
277.622; 7754.375;  187.825;    0.000
277.688; 7723.375;  203.825;    0.000
277.754; 7933.375;  170.825;    0.000
277.820; 8639.375;  142.825;    0.000
277.885;10652.375;  182.825;    0.000
277.951;13464.375;  171.825;    0.000
278.017;11122.375;  173.825;    0.000
278.083; 9561.375;  151.825;    0.000
278.148; 9180.375;  159.825;    0.000
278.214; 9581.375;  173.825;    0.000
278.280;10187.375;  137.825;    0.000
278.345; 9228.375;  190.825;    0.000
278.411; 8543.375;  149.825;    0.000
278.477; 8863.375;  157.825;    0.000
278.542; 9495.375;  136.825;    0.000
278.608;10434.375;  144.825;    0.000
278.674;11555.375;  215.825;    0.000
278.739;12938.375;  148.825;    0.000
278.805;14966.375;  152.825;    0.000
278.871;17768.375;  170.825;    0.000
278.936;23450.375;  180.825;    0.000
279.002;36766.375;  177.825;    0.000
279.067;48478.375;  172.825;    0.000
279.133;45594.375;  160.825;    0.000
279.199;39947.375;  165.825;    0.000
279.264;41064.375;  130.825;    0.000
279.330;48142.375;  154.825;    0.000
279.395;62976.375;  170.825;    0.000
279.461;65309.375;  136.825;    0.000
279.527;65309.375;  174.825;    0.000
279.592;65309.375;  179.825;    0.000
279.658;65309.375;  187.825;    0.000
279.723;65309.375;  201.825;    0.000
279.789;65309.375;  194.825;    0.000
279.854;63827.375;  171.825;    0.000
279.920;52309.375;  183.825;    0.000
279.985;46830.375;  173.825;    0.000
280.051;47636.375;  194.825;    0.000
280.116;56849.375;  197.825;    0.000
280.182;65309.375;  171.825;    0.000
280.247;65309.375;  131.825;    0.000
280.313;65309.375;  166.825;    0.000
280.378;50737.375;  159.825;    0.000
280.444;36585.375;  190.825;    0.000
280.509;28379.375;  189.825;    0.000
280.574;23733.375;  171.825;    0.000
280.640;20228.375;  167.825;    0.000
280.705;17631.375;  129.825;    0.000
280.771;16025.375;  193.825;    0.000
280.836;14606.375;  172.825;    0.000
280.902;13461.375;  189.825;    0.000
280.967;12431.375;  143.825;    0.000
281.032;11668.375;  182.825;    0.000
281.098;11071.375;  172.825;    0.000
281.163;10338.375;  184.825;    0.000
281.229; 9897.375;  210.825;    0.000
281.294; 9436.375;  223.825;    0.000
281.359; 8991.375;  197.825;    0.000
281.425; 8590.375;  192.825;    0.000
281.490; 8338.375;  162.825;    0.000
281.555; 7937.375;  193.825;    0.000
281.621; 7715.375;  141.825;    0.000
281.686; 7392.375;  166.825;    0.000
281.751; 7018.375;  204.825;    0.000
281.816; 6788.375;  159.825;    0.000
281.882; 6565.375;  146.825;    0.000
281.947; 6356.375;  176.825;    0.000
282.012; 6145.375;  139.825;    0.000
282.078; 6084.375;  186.825;    0.000
282.143; 5865.375;  151.825;    0.000
282.208; 5841.375;  213.825;    0.000
282.273; 5751.375;  160.825;    0.000
282.339; 5603.375;  175.825;    0.000
282.404; 5471.375;  157.825;    0.000
282.469; 5191.375;  185.825;    0.000
282.534; 5295.375;  166.825;    0.000
282.600; 5200.375;  168.825;    0.000
282.665; 5008.375;  167.825;    0.000
282.730; 4910.375;  148.825;    0.000
282.795; 4876.375;  186.825;    0.000
282.860; 4798.375;  161.825;    0.000
282.926; 4819.375;  178.825;    0.000
282.991; 4775.375;  139.825;    0.000
283.056; 4652.375;  158.825;    0.000
283.121; 4627.375;  191.825;    0.000
283.186; 4610.375;  182.825;    0.000
283.251; 4566.375;  181.825;    0.000
283.316; 4520.375;  187.825;    0.000
283.382; 4311.375;  175.825;    0.000
283.447; 4456.375;  183.825;    0.000
283.512; 4348.375;  175.825;    0.000
283.577; 4336.375;  180.825;    0.000
283.642; 4277.375;  193.825;    0.000
283.707; 4110.375;  145.825;    0.000
283.772; 4231.375;  143.825;    0.000
283.837; 4203.375;  143.825;    0.000
283.902; 4169.375;  150.825;    0.000
283.967; 4205.375;  166.825;    0.000
284.032; 4182.375;  126.825;    0.000
284.097; 4250.375;  201.825;    0.000
284.163; 4112.375;  133.825;    0.000
284.228; 4049.375;  193.825;    0.000
284.293; 4167.375;  157.825;    0.000
284.358; 4256.375;  185.825;    0.000
284.423; 4222.375;  142.825;    0.000
284.488; 4171.375;  192.825;    0.000
284.553; 4325.375;  146.825;    0.000
284.618; 4396.375;  154.825;    0.000
284.683; 4559.375;  172.825;    0.000
284.748; 4794.375;  195.825;    0.000
284.812; 5136.375;  190.825;    0.000
284.877; 5571.375;  169.825;    0.000
284.942; 6409.375;  195.825;    0.000
285.007; 7838.375;  204.825;    0.000
285.072;11676.375;  189.825;    0.000
285.137;23563.375;  149.825;    0.000
285.202;31658.375;  164.825;    0.000
285.267;23475.375;  161.825;    0.000
285.332;13250.375;  140.825;    0.000
285.397; 9379.375;  142.825;    0.000
285.462; 7420.375;  146.825;    0.000
285.527; 6386.375;  132.825;    0.000
285.591; 5896.375;  160.825;    0.000
285.656; 5302.375;  136.825;    0.000
285.721; 5104.375;  135.825;    0.000
285.786; 4885.375;  171.825;    0.000
285.851; 4562.375;  168.825;    0.000
285.916; 4361.375;  178.825;    0.000
285.981; 4312.375;  152.825;    0.000
286.045; 4331.375;  167.825;    0.000
286.110; 4053.375;  187.825;    0.000
286.175; 4154.375;  162.825;    0.000
286.240; 4097.375;  163.825;    0.000
286.305; 4005.375;  190.825;    0.000
286.369; 3926.375;  143.825;    0.000
286.434; 4031.375;  185.825;    0.000
286.499; 3830.375;  195.825;    0.000
286.564; 3883.375;  173.825;    0.000
286.628; 3725.375;  159.825;    0.000
286.693; 3890.375;  175.825;    0.000
286.758; 3696.375;  170.825;    0.000
286.823; 3660.375;  129.825;    0.000
286.887; 3630.375;  172.825;    0.000
286.952; 3601.375;  163.825;    0.000
287.017; 3638.375;  217.825;    0.000
287.082; 3595.375;  165.825;    0.000
287.146; 3615.375;  176.825;    0.000
287.211; 3572.375;  192.825;    0.000
287.276; 3573.375;  147.825;    0.000
287.340; 3524.375;  162.825;    0.000
287.405; 3512.375;  196.825;    0.000
287.470; 3476.375;  148.825;    0.000
287.534; 3601.375;  166.825;    0.000
287.599; 3559.375;  193.825;    0.000
287.663; 3519.375;  191.825;    0.000
287.728; 3545.375;  146.825;    0.000
287.793; 3601.375;  234.825;    0.000
287.857; 3483.375;  177.825;    0.000
287.922; 3430.375;  166.825;    0.000
287.987; 3644.375;  169.825;    0.000
288.051; 3675.375;  169.825;    0.000
288.116; 3989.375;  187.825;    0.000
288.180; 3930.375;  200.825;    0.000
288.245; 3664.375;  201.825;    0.000
288.309; 3605.375;  176.825;    0.000
288.374; 3548.375;  162.825;    0.000
288.439; 3403.375;  195.825;    0.000
288.503; 3516.375;  162.825;    0.000
288.568; 3491.375;  228.825;    0.000
288.632; 3503.375;  194.825;    0.000
288.697; 3467.375;  173.825;    0.000
288.761; 3446.375;  153.825;    0.000
288.826; 3325.375;  151.825;    0.000
288.890; 3460.375;  208.825;    0.000
288.955; 3468.375;  159.825;    0.000
289.019; 3398.375;  198.825;    0.000
289.084; 3410.375;  152.825;    0.000
289.148; 3373.375;  171.825;    0.000
289.212; 3407.375;  184.825;    0.000
289.277; 3497.375;  165.825;    0.000
289.341; 3450.375;  207.825;    0.000
289.406; 3420.375;  156.825;    0.000
289.470; 3385.375;  191.825;    0.000
289.535; 3390.375;  222.825;    0.000
289.599; 3311.375;  214.825;    0.000
289.663; 3302.375;  183.825;    0.000
289.728; 3329.375;  192.825;    0.000
289.792; 3519.375;  197.825;    0.000
289.857; 3382.375;  221.825;    0.000
289.921; 3384.375;  177.825;    0.000
289.985; 3426.375;  177.825;    0.000
290.050; 3345.375;  178.825;    0.000
290.114; 3318.375;  112.825;    0.000
290.178; 3484.375;  170.825;    0.000
290.243; 3423.375;  162.825;    0.000
290.307; 3406.375;  178.825;    0.000
290.371; 3331.375;  141.825;    0.000
290.436; 3338.375;  178.825;    0.000
290.500; 3387.375;  135.825;    0.000
290.564; 3384.375;  199.825;    0.000
290.629; 3392.375;  165.825;    0.000
290.693; 3334.375;  154.825;    0.000
290.757; 3378.375;  159.825;    0.000
290.821; 3470.375;  179.825;    0.000
290.886; 3345.375;  141.825;    0.000
290.950; 3497.375;  166.825;    0.000
291.014; 3406.375;  169.825;    0.000
291.078; 3314.375;  191.825;    0.000
291.143; 3466.375;  169.825;    0.000
291.207; 3461.375;  164.825;    0.000
291.271; 3505.375;  193.825;    0.000
291.335; 3548.375;  150.825;    0.000
291.399; 3660.375;  175.825;    0.000
291.464; 3830.375;  128.825;    0.000
291.528; 4159.375;  162.825;    0.000
291.592; 4083.375;  152.825;    0.000
291.656; 3759.375;  175.825;    0.000
291.720; 3757.375;  173.825;    0.000
291.784; 3686.375;  192.825;    0.000
291.849; 3768.375;  159.825;    0.000
291.913; 3644.375;  174.825;    0.000
291.977; 3778.375;  177.825;    0.000
292.041; 3759.375;  188.825;    0.000
292.105; 3840.375;  174.825;    0.000
292.169; 3735.375;  143.825;    0.000
292.233; 3799.375;  149.825;    0.000
292.297; 3990.375;  176.825;    0.000
292.361; 4142.375;  178.825;    0.000
292.425; 4241.375;  153.825;    0.000
292.490; 4398.375;  185.825;    0.000
292.554; 4638.375;  144.825;    0.000
292.618; 4862.375;  166.825;    0.000
292.682; 5350.375;  181.825;    0.000
292.746; 6611.375;  152.825;    0.000
292.810; 9768.375;  208.825;    0.000
292.874;12298.375;  142.825;    0.000
292.938;11990.375;  195.825;    0.000
293.002;10214.375;  156.825;    0.000
293.066; 8940.375;  108.825;    0.000
293.130; 7975.375;  136.825;    0.000
293.194; 7624.375;  135.825;    0.000
293.258; 7234.375;  187.825;    0.000
293.322; 7156.375;  148.825;    0.000
293.386; 7329.375;  186.825;    0.000
293.450; 7786.375;  196.825;    0.000
293.514; 9201.375;  175.825;    0.000
293.577;13504.375;  137.825;    0.000
293.641;19029.375;  142.825;    0.000
293.705;20063.375;  201.825;    0.000
293.769;16828.375;  150.825;    0.000
293.833;13743.375;  147.825;    0.000
293.897;12065.375;  170.825;    0.000
293.961;10297.375;  121.825;    0.000
294.025; 9250.375;  172.825;    0.000
294.089; 8357.375;  167.825;    0.000
294.152; 7576.375;  167.825;    0.000
294.216; 7027.375;  165.825;    0.000
294.280; 6629.375;  168.825;    0.000
294.344; 6236.375;  160.825;    0.000
294.408; 5731.375;  187.825;    0.000
294.472; 5515.375;  141.825;    0.000
294.536; 5372.375;  184.825;    0.000
294.599; 5031.375;  176.825;    0.000
294.663; 4931.375;  120.825;    0.000
294.727; 4946.375;  159.825;    0.000
294.791; 4736.375;  190.825;    0.000
294.855; 4553.375;  148.825;    0.000
294.918; 4424.375;  160.825;    0.000
294.982; 4300.375;  156.825;    0.000
295.046; 4282.375;  177.825;    0.000
295.110; 4167.375;  149.825;    0.000
295.173; 4089.375;  156.825;    0.000
295.237; 4067.375;  174.825;    0.000
295.301; 3903.375;  152.825;    0.000
295.364; 3880.375;  204.825;    0.000
295.428; 3892.375;  196.825;    0.000
295.492; 3861.375;  178.825;    0.000
295.556; 3728.375;  161.825;    0.000
295.619; 3700.375;  178.825;    0.000
295.683; 3769.375;  152.825;    0.000
295.747; 3605.375;  148.825;    0.000
295.810; 3729.375;  177.825;    0.000
295.874; 3731.375;  146.825;    0.000
295.938; 3637.375;  115.825;    0.000
296.001; 3569.375;  172.825;    0.000
296.065; 3577.375;  146.825;    0.000
296.128; 3455.375;  164.825;    0.000
296.192; 3506.375;  137.825;    0.000
296.256; 3287.375;  143.825;    0.000
296.319; 3391.375;  156.825;    0.000
296.383; 3341.375;  165.825;    0.000
296.447; 3346.375;  170.825;    0.000
296.510; 3290.375;  174.825;    0.000
296.574; 3284.375;  127.825;    0.000
296.637; 3344.375;  132.825;    0.000
296.701; 3285.375;  206.825;    0.000
296.764; 3272.375;  179.825;    0.000
296.828; 3286.375;  213.825;    0.000
296.891; 3227.375;  149.825;    0.000
296.955; 3253.375;  170.825;    0.000
297.018; 3225.375;  185.825;    0.000
297.082; 3225.375;  205.825;    0.000
297.145; 3108.375;  154.825;    0.000
297.209; 3204.375;  200.825;    0.000
297.272; 3147.375;  157.825;    0.000
297.336; 3161.375;  164.825;    0.000
297.399; 3149.375;  166.825;    0.000
297.463; 3039.375;  195.825;    0.000
297.526; 3087.375;  176.825;    0.000
297.590; 3090.375;  198.825;    0.000
297.653; 3067.375;  146.825;    0.000
297.717; 3065.375;  175.825;    0.000
297.780; 3062.375;  139.825;    0.000
297.843; 3020.375;  174.825;    0.000
297.907; 3036.375;  149.825;    0.000
297.970; 3120.375;  161.825;    0.000
298.034; 3055.375;  185.825;    0.000
298.097; 2978.375;  167.825;    0.000
298.160; 3133.375;  195.825;    0.000
298.224; 3051.375;  178.825;    0.000
298.287; 3015.375;  164.825;    0.000
298.350; 2888.375;  194.825;    0.000
298.414; 2966.375;  191.825;    0.000
298.477; 2939.375;  155.825;    0.000
298.540; 3068.375;  139.825;    0.000
298.604; 2936.375;  198.825;    0.000
298.667; 2923.375;  183.825;    0.000
298.730; 2824.375;  185.825;    0.000
298.794; 2920.375;  153.825;    0.000
298.857; 2965.375;  169.825;    0.000
298.920; 2955.375;  159.825;    0.000
298.984; 2878.375;  179.825;    0.000
299.047; 2961.375;  174.825;    0.000
299.110; 2799.375;  144.825;    0.000
299.173; 2749.375;  190.825;    0.000
299.237; 2810.375;  163.825;    0.000
299.300; 2856.375;  153.825;    0.000
299.363; 2883.375;  145.825;    0.000
299.426; 2842.375;  160.825;    0.000
299.489; 2843.375;  173.825;    0.000
299.553; 2848.375;  209.825;    0.000
299.616; 2881.375;  172.825;    0.000
299.679; 2808.375;  204.825;    0.000
299.742; 2688.375;  162.825;    0.000
299.805; 2820.375;  198.825;    0.000
299.868; 2753.375;  176.825;    0.000
299.932; 2817.375;  166.825;    0.000
299.995; 2779.375;  162.825;    0.000
300.058; 2797.375;  175.825;    0.000
300.121; 2789.375;  197.825;    0.000
300.184; 2741.375;  188.825;    0.000
300.247; 2815.375;  181.825;    0.000
300.310; 2838.375;  161.825;    0.000
300.374; 2783.375;  201.825;    0.000
300.437; 2713.375;  156.825;    0.000
300.500; 2805.375;  180.825;    0.000
300.563; 2658.375;  174.825;    0.000
300.626; 2690.375;  206.825;    0.000
300.689; 2710.375;  218.825;    0.000
300.752; 2703.375;  192.825;    0.000
300.815; 2761.375;  172.825;    0.000
300.878; 2778.375;  207.825;    0.000
300.941; 2722.375;  163.825;    0.000
301.004; 2770.375;  171.825;    0.000
301.067; 2678.375;  198.825;    0.000
301.130; 2609.375;  156.825;    0.000
301.193; 2696.375;  173.825;    0.000
301.256; 2680.375;  167.825;    0.000
301.319; 2744.375;  211.825;    0.000
301.382; 2690.375;  167.825;    0.000
301.445; 2725.375;  224.825;    0.000
301.508; 2729.375;  168.825;    0.000
301.571; 2703.375;  161.825;    0.000
301.634; 2703.375;  177.825;    0.000
301.697; 2610.375;  203.825;    0.000
301.760; 2683.375;  190.825;    0.000
301.823; 2703.375;  182.825;    0.000
301.885; 2678.375;  202.825;    0.000
301.948; 2684.375;  200.825;    0.000
302.011; 2766.375;  157.825;    0.000
302.074; 2754.375;  205.825;    0.000
302.137; 2652.375;  149.825;    0.000
302.200; 2550.375;  201.825;    0.000
302.263; 2593.375;  178.825;    0.000
302.326; 2684.375;  184.825;    0.000
302.388; 2586.375;  176.825;    0.000
302.451; 2661.375;  146.825;    0.000
302.514; 2614.375;  192.825;    0.000
302.577; 2547.375;  181.825;    0.000
302.640; 2619.375;  186.825;    0.000
302.703; 2536.375;  164.825;    0.000
302.765; 2539.375;  197.825;    0.000
302.828; 2668.375;  208.825;    0.000
302.891; 2712.375;  168.825;    0.000
302.954; 2588.375;  177.825;    0.000
303.016; 2687.375;  190.825;    0.000
303.079; 2754.375;  216.825;    0.000
303.142; 2625.375;  228.825;    0.000
303.205; 2713.375;  192.825;    0.000
303.267; 2541.375;  182.825;    0.000
303.330; 2630.375;  201.825;    0.000
303.393; 2572.375;  196.825;    0.000
303.456; 2657.375;  184.825;    0.000
303.518; 2601.375;  194.825;    0.000
303.581; 2593.375;  195.825;    0.000
303.644; 2646.375;  184.825;    0.000
303.706; 2597.375;  150.825;    0.000
303.769; 2677.375;  182.825;    0.000
303.832; 2597.375;  143.825;    0.000
303.894; 2619.375;  207.825;    0.000
303.957; 2624.375;  178.825;    0.000
304.020; 2567.375;  203.825;    0.000
304.082; 2635.375;  175.825;    0.000
304.145; 2601.375;  171.825;    0.000
304.207; 2518.375;  157.825;    0.000
304.270; 2557.375;  195.825;    0.000
304.333; 2606.375;  195.825;    0.000
304.395; 2554.375;  197.825;    0.000
304.458; 2575.375;  231.825;    0.000
304.520; 2616.375;  218.825;    0.000
304.583; 2583.375;  177.825;    0.000
304.646; 2574.375;  177.825;    0.000
304.708; 2602.375;  178.825;    0.000
304.771; 2564.375;  143.825;    0.000
304.833; 2605.375;  241.825;    0.000
304.896; 2594.375;  200.825;    0.000
304.958; 2696.375;  176.825;    0.000
305.021; 2682.375;  159.825;    0.000
305.083; 2645.375;  159.825;    0.000
305.146; 2529.375;  190.825;    0.000
305.208; 2578.375;  152.825;    0.000
305.271; 2591.375;  162.825;    0.000
305.333; 2616.375;  219.825;    0.000
305.396; 2631.375;  163.825;    0.000
305.458; 2617.375;  215.825;    0.000
305.520; 2624.375;  174.825;    0.000
305.583; 2660.375;  161.825;    0.000
305.645; 2631.375;  203.825;    0.000
305.708; 2530.375;  163.825;    0.000
305.770; 2697.375;  215.825;    0.000
305.833; 2563.375;  207.825;    0.000
305.895; 2559.375;  166.825;    0.000
305.957; 2612.375;  175.825;    0.000
306.020; 2580.375;  169.825;    0.000
306.082; 2615.375;  203.825;    0.000
306.144; 2602.375;  181.825;    0.000
306.207; 2670.375;  199.825;    0.000
306.269; 2557.375;  177.825;    0.000
306.331; 2669.375;  160.825;    0.000
306.394; 2642.375;  193.825;    0.000
306.456; 2534.375;  136.825;    0.000
306.518; 2576.375;  189.825;    0.000
306.581; 2593.375;  156.825;    0.000
306.643; 2619.375;  190.825;    0.000
306.705; 2528.375;  190.825;    0.000
306.768; 2636.375;  172.825;    0.000
306.830; 2655.375;  214.825;    0.000
306.892; 2725.375;  198.825;    0.000
306.954; 2690.375;  177.825;    0.000
307.017; 2699.375;  183.825;    0.000
307.079; 2659.375;  170.825;    0.000
307.141; 2624.375;  173.825;    0.000
307.203; 2757.375;  171.825;    0.000
307.266; 2764.375;  166.825;    0.000
307.328; 2696.375;  207.825;    0.000
307.390; 2710.375;  201.825;    0.000
307.452; 2761.375;  182.825;    0.000
307.514; 2839.375;  213.825;    0.000
307.577; 2759.375;  213.825;    0.000
307.639; 2811.375;  197.825;    0.000
307.701; 2746.375;  174.825;    0.000
307.763; 2825.375;  181.825;    0.000
307.825; 2718.375;  186.825;    0.000
307.887; 2880.375;  198.825;    0.000
307.949; 2730.375;  158.825;    0.000
308.012; 2764.375;  209.825;    0.000
308.074; 2753.375;  176.825;    0.000
308.136; 2848.375;  227.825;    0.000
308.198; 2845.375;  187.825;    0.000
308.260; 2840.375;  211.825;    0.000
308.322; 2879.375;  206.825;    0.000
308.384; 2889.375;  186.825;    0.000
308.446; 2915.375;  175.825;    0.000
308.508; 2795.375;  211.825;    0.000
308.570; 2851.375;  191.825;    0.000
308.632; 2870.375;  195.825;    0.000
308.694; 2925.375;  173.825;    0.000
308.756; 2982.375;  185.825;    0.000
308.818; 3012.375;  195.825;    0.000
308.880; 2974.375;  189.825;    0.000
308.942; 3020.375;  231.825;    0.000
309.004; 2991.375;  188.825;    0.000
309.066; 3108.375;  196.825;    0.000
309.128; 3135.375;  155.825;    0.000
309.190; 3276.375;  176.825;    0.000
309.252; 3471.375;  191.825;    0.000
309.314; 3578.375;  236.825;    0.000
309.376; 3511.375;  212.825;    0.000
309.438; 3328.375;  201.825;    0.000
309.500; 3231.375;  206.825;    0.000
309.562; 3364.375;  213.825;    0.000
309.624; 3548.375;  196.825;    0.000
309.686; 3750.375;  198.825;    0.000
309.747; 3549.375;  186.825;    0.000
309.809; 3342.375;  215.825;    0.000
309.871; 3321.375;  242.825;    0.000
309.933; 3179.375;  162.825;    0.000
309.995; 3324.375;  163.825;    0.000
310.057; 3155.375;  145.825;    0.000
310.119; 3120.375;  205.825;    0.000
310.180; 3171.375;  195.825;    0.000
310.242; 3190.375;  167.825;    0.000
310.304; 3091.375;  213.825;    0.000
310.366; 3186.375;  224.825;    0.000
310.428; 2995.375;  170.825;    0.000
310.489; 3022.375;  195.825;    0.000
310.551; 2994.375;  207.825;    0.000
310.613; 2958.375;  168.825;    0.000
310.675; 3068.375;  188.825;    0.000
310.737; 2990.375;  211.825;    0.000
310.798; 3046.375;  221.825;    0.000
310.860; 2980.375;  201.825;    0.000
310.922; 2974.375;  206.825;    0.000
310.983; 2937.375;  222.825;    0.000
311.045; 2944.375;  235.825;    0.000
311.107; 2984.375;  184.825;    0.000
311.169; 2975.375;  148.825;    0.000
311.230; 2882.375;  211.825;    0.000
311.292; 3011.375;  235.825;    0.000
311.354; 2903.375;  183.825;    0.000
311.415; 2915.375;  196.825;    0.000
311.477; 2942.375;  200.825;    0.000
311.539; 2874.375;  171.825;    0.000
311.600; 2928.375;  169.825;    0.000
311.662; 2922.375;  231.825;    0.000
311.724; 2916.375;  204.825;    0.000
311.785; 2988.375;  214.825;    0.000
311.847; 2908.375;  193.825;    0.000
311.908; 2905.375;  180.825;    0.000
311.970; 3000.375;  233.825;    0.000
312.032; 2959.375;  192.825;    0.000
312.093; 3009.375;  195.825;    0.000
312.155; 2837.375;  194.825;    0.000
312.216; 2881.375;  238.825;    0.000
312.278; 2949.375;  146.825;    0.000
312.339; 2838.375;  184.825;    0.000
312.401; 2897.375;  201.825;    0.000
312.462; 2971.375;  173.825;    0.000
312.524; 2943.375;  205.825;    0.000
312.585; 2923.375;  199.825;    0.000
312.647; 2870.375;  168.825;    0.000
312.708; 2833.375;  180.825;    0.000
312.770; 2912.375;  180.825;    0.000
312.831; 2836.375;  176.825;    0.000
312.893; 2908.375;  211.825;    0.000
312.954; 2994.375;  178.825;    0.000
313.016; 2917.375;  204.825;    0.000
313.077; 2951.375;  216.825;    0.000
313.139; 2961.375;  172.825;    0.000
313.200; 2963.375;  197.825;    0.000
313.261; 3020.375;  227.825;    0.000
313.323; 2929.375;  204.825;    0.000
313.384; 2994.375;  182.825;    0.000
313.446; 2953.375;  204.825;    0.000
313.507; 2876.375;  164.825;    0.000
313.568; 2887.375;  197.825;    0.000
313.630; 2929.375;  190.825;    0.000
313.691; 2994.375;  185.825;    0.000
313.752; 2901.375;  192.825;    0.000
313.814; 2823.375;  176.825;    0.000
313.875; 2928.375;  210.825;    0.000
313.936; 2875.375;  165.825;    0.000
313.998; 2928.375;  162.825;    0.000
314.059; 2895.375;  178.825;    0.000
314.120; 2886.375;  176.825;    0.000
314.182; 2891.375;  167.825;    0.000
314.243; 2864.375;  204.825;    0.000
314.304; 2959.375;  197.825;    0.000
314.365; 3040.375;  183.825;    0.000
314.427; 2878.375;  176.825;    0.000
314.488; 2882.375;  149.825;    0.000
314.549; 2967.375;  218.825;    0.000
314.610; 2962.375;  160.825;    0.000
314.672; 2889.375;  187.825;    0.000
314.733; 2916.375;  184.825;    0.000
314.794; 2860.375;  164.825;    0.000
314.855; 2860.375;  191.825;    0.000
314.917; 2964.375;  172.825;    0.000
314.978; 2849.375;  185.825;    0.000
315.039; 2915.375;  194.825;    0.000
315.100; 2923.375;  190.825;    0.000
315.161; 2983.375;  185.825;    0.000
315.222; 2915.375;  204.825;    0.000
315.283; 2871.375;  166.825;    0.000
315.345; 2906.375;  133.825;    0.000
315.406; 2962.375;  191.825;    0.000
315.467; 2872.375;  166.825;    0.000
315.528; 2962.375;  194.825;    0.000
315.589; 2910.375;  193.825;    0.000
315.650; 3036.375;  190.825;    0.000
315.711; 2958.375;  219.825;    0.000
315.772; 3147.375;  159.825;    0.000
315.833; 3252.375;  191.825;    0.000
315.894; 3542.375;  202.825;    0.000
315.955; 3401.375;  167.825;    0.000
316.016; 3198.375;  177.825;    0.000
316.078; 3162.375;  185.825;    0.000
316.139; 3011.375;  219.825;    0.000
316.200; 3064.375;  163.825;    0.000
316.261; 3033.375;  183.825;    0.000
316.322; 3020.375;  230.825;    0.000
316.383; 2866.375;  198.825;    0.000
316.444; 2990.375;  209.825;    0.000
316.504; 2999.375;  179.825;    0.000
316.565; 2861.375;  185.825;    0.000
316.626; 2905.375;  155.825;    0.000
316.687; 2948.375;  211.825;    0.000
316.748; 3032.375;  192.825;    0.000
316.809; 2918.375;  183.825;    0.000
316.870; 2969.375;  196.825;    0.000
316.931; 2965.375;  173.825;    0.000
316.992; 2985.375;  179.825;    0.000
317.053; 2953.375;  186.825;    0.000
317.114; 2840.375;  189.825;    0.000
317.175; 2949.375;  226.825;    0.000
317.235; 2845.375;  206.825;    0.000
317.296; 2947.375;  191.825;    0.000
317.357; 2879.375;  173.825;    0.000
317.418; 2877.375;  212.825;    0.000
317.479; 2959.375;  247.825;    0.000
317.540; 2831.375;  205.825;    0.000
317.601; 2814.375;  205.825;    0.000
317.661; 2946.375;  150.825;    0.000
317.722; 2983.375;  198.825;    0.000
317.783; 3042.375;  153.825;    0.000
317.844; 3402.375;  202.825;    0.000
317.904; 3758.375;  180.825;    0.000
317.965; 3870.375;  205.825;    0.000
318.026; 3698.375;  223.825;    0.000
318.087; 3428.375;  218.825;    0.000
318.148; 3318.375;  207.825;    0.000
318.208; 3248.375;  212.825;    0.000
318.269; 3144.375;  174.825;    0.000
318.330; 3102.375;  191.825;    0.000
318.390; 3009.375;  197.825;    0.000
318.451; 2944.375;  167.825;    0.000
318.512; 2901.375;  174.825;    0.000
318.572; 2949.375;  199.825;    0.000
318.633; 2942.375;  233.825;    0.000
318.694; 2983.375;  232.825;    0.000
318.754; 2873.375;  181.825;    0.000
318.815; 2817.375;  199.825;    0.000
318.876; 2885.375;  207.825;    0.000
318.936; 2942.375;  202.825;    0.000
318.997; 2912.375;  182.825;    0.000
319.058; 2961.375;  180.825;    0.000
319.118; 2889.375;  199.825;    0.000
319.179; 2825.375;  199.825;    0.000
319.239; 2796.375;  229.825;    0.000
319.300; 2953.375;  223.825;    0.000
319.361; 2845.375;  210.825;    0.000
319.421; 2831.375;  205.825;    0.000
319.482; 2753.375;  205.825;    0.000
319.542; 2835.375;  176.825;    0.000
319.603; 2813.375;  191.825;    0.000
319.663; 2773.375;  183.825;    0.000
319.724; 2876.375;  174.825;    0.000
319.784; 2857.375;  198.825;    0.000
319.845; 2794.375;  218.825;    0.000
319.905; 2749.375;  217.825;    0.000
319.966; 2803.375;  197.825;    0.000
320.026; 2839.375;  209.825;    0.000
320.087; 2797.375;  225.825;    0.000
320.147; 2794.375;  201.825;    0.000
320.208; 2787.375;  176.825;    0.000
320.268; 2830.375;  168.825;    0.000
320.329; 2792.375;  238.825;    0.000
320.389; 2829.375;  220.825;    0.000
320.449; 2814.375;  230.825;    0.000
320.510; 2804.375;  234.825;    0.000
320.570; 2840.375;  210.825;    0.000
320.631; 2841.375;  207.825;    0.000
320.691; 2761.375;  222.825;    0.000
320.751; 2766.375;  195.825;    0.000
320.812; 2713.375;  193.825;    0.000
320.872; 2847.375;  237.825;    0.000
320.932; 2859.375;  213.825;    0.000
320.993; 2789.375;  185.825;    0.000
321.053; 2802.375;  245.825;    0.000
321.113; 2801.375;  206.825;    0.000
321.174; 2882.375;  202.825;    0.000
321.234; 2784.375;  244.825;    0.000
321.294; 2811.375;  228.825;    0.000
321.355; 2728.375;  208.825;    0.000
321.415; 2805.375;  223.825;    0.000
321.475; 2764.375;  203.825;    0.000
321.535; 2861.375;  230.825;    0.000
321.596; 2850.375;  186.825;    0.000
321.656; 2811.375;  216.825;    0.000
321.716; 2823.375;  207.825;    0.000
321.776; 2777.375;  181.825;    0.000
321.837; 2737.375;  207.825;    0.000
321.897; 2808.375;  225.825;    0.000
321.957; 2794.375;  222.825;    0.000
322.017; 2700.375;  215.825;    0.000
322.077; 2767.375;  250.825;    0.000
322.138; 2817.375;  189.825;    0.000
322.198; 2847.375;  200.825;    0.000
322.258; 2748.375;  217.825;    0.000
322.318; 2821.375;  183.825;    0.000
322.378; 2752.375;  231.825;    0.000
322.438; 2755.375;  228.825;    0.000
322.499; 2746.375;  248.825;    0.000
322.559; 2659.375;  198.825;    0.000
322.619; 2711.375;  221.825;    0.000
322.679; 2751.375;  217.825;    0.000
322.739; 2704.375;  204.825;    0.000
322.799; 2790.375;  236.825;    0.000
322.859; 2824.375;  213.825;    0.000
322.919; 2790.375;  210.825;    0.000
322.979; 2882.375;  244.825;    0.000
323.039; 2835.375;  218.825;    0.000
323.099; 2786.375;  232.825;    0.000
323.159; 2747.375;  216.825;    0.000
323.219; 2774.375;  169.825;    0.000
323.279; 2722.375;  236.825;    0.000
323.339; 2852.375;  243.825;    0.000
323.399; 2898.375;  208.825;    0.000
323.459; 2846.375;  220.825;    0.000
323.519; 2774.375;  228.825;    0.000
323.579; 2834.375;  164.825;    0.000
323.639; 2809.375;  209.825;    0.000
323.699; 2770.375;  188.825;    0.000
323.759; 2746.375;  206.825;    0.000
323.819; 2766.375;  204.825;    0.000
323.879; 2762.375;  222.825;    0.000
323.939; 2729.375;  206.825;    0.000
323.999; 2684.375;  202.825;    0.000
324.059; 2774.375;  245.825;    0.000
324.119; 2720.375;  214.825;    0.000
324.178; 2706.375;  183.825;    0.000
324.238; 2715.375;  193.825;    0.000
324.298; 2749.375;  207.825;    0.000
324.358; 2766.375;  196.825;    0.000
324.418; 2773.375;  193.825;    0.000
324.478; 2760.375;  191.825;    0.000
324.538; 2680.375;  224.825;    0.000
324.597; 2681.375;  187.825;    0.000
324.657; 2686.375;  208.825;    0.000
324.717; 2733.375;  198.825;    0.000
324.777; 2725.375;  159.825;    0.000
324.837; 2743.375;  180.825;    0.000
324.896; 2781.375;  215.825;    0.000
324.956; 2742.375;  210.825;    0.000
325.016; 2753.375;  187.825;    0.000
325.076; 2769.375;  197.825;    0.000
325.135; 2794.375;  226.825;    0.000
325.195; 2797.375;  201.825;    0.000
325.255; 2714.375;  167.825;    0.000
325.315; 2695.375;  217.825;    0.000
325.374; 2741.375;  196.825;    0.000
325.434; 2724.375;  167.825;    0.000
325.494; 2747.375;  214.825;    0.000
325.553; 2776.375;  203.825;    0.000
325.613; 2752.375;  206.825;    0.000
325.673; 2653.375;  148.825;    0.000
325.732; 2715.375;  207.825;    0.000
325.792; 2796.375;  151.825;    0.000
325.852; 2675.375;  195.825;    0.000
325.911; 2721.375;  201.825;    0.000
325.971; 2827.375;  224.825;    0.000
326.031; 2800.375;  201.825;    0.000
326.090; 2741.375;  203.825;    0.000
326.150; 2732.375;  183.825;    0.000
326.209; 2649.375;  226.825;    0.000
326.269; 2730.375;  194.825;    0.000
326.328; 2683.375;  200.825;    0.000
326.388; 2657.375;  177.825;    0.000
326.448; 2741.375;  239.825;    0.000
326.507; 2725.375;  197.825;    0.000
326.567; 2714.375;  161.825;    0.000
326.626; 2664.375;  220.825;    0.000
326.686; 2645.375;  178.825;    0.000
326.745; 2647.375;  167.825;    0.000
326.805; 2645.375;  176.825;    0.000
326.864; 2616.375;  204.825;    0.000
326.924; 2657.375;  218.825;    0.000
326.983; 2603.375;  201.825;    0.000
327.043; 2630.375;  219.825;    0.000
327.102; 2705.375;  202.825;    0.000
327.161; 2631.375;  228.825;    0.000
327.221; 2679.375;  217.825;    0.000
327.280; 2646.375;  188.825;    0.000
327.340; 2594.375;  209.825;    0.000
327.399; 2649.375;  189.825;    0.000
327.459; 2598.375;  216.825;    0.000
327.518; 2580.375;  200.825;    0.000
327.577; 2578.375;  194.825;    0.000
327.637; 2586.375;  180.825;    0.000
327.696; 2653.375;  208.825;    0.000
327.755; 2650.375;  218.825;    0.000
327.815; 2567.375;  234.825;    0.000
327.874; 2730.375;  259.825;    0.000
327.933; 2636.375;  192.825;    0.000
327.993; 2617.375;  208.825;    0.000
328.052; 2528.375;  221.825;    0.000
328.111; 2620.375;  203.825;    0.000
328.171; 2544.375;  221.825;    0.000
328.230; 2539.375;  222.825;    0.000
328.289; 2643.375;  254.825;    0.000
328.349; 2503.375;  232.825;    0.000
328.408; 2541.375;  223.825;    0.000
328.467; 2557.375;  198.825;    0.000
328.526; 2624.375;  217.825;    0.000
328.586; 2582.375;  185.825;    0.000
328.645; 2588.375;  210.825;    0.000
328.704; 2595.375;  211.825;    0.000
328.763; 2497.375;  231.825;    0.000
328.822; 2591.375;  254.825;    0.000
328.882; 2562.375;  216.825;    0.000
328.941; 2589.375;  239.825;    0.000
329.000; 2532.375;  251.825;    0.000
329.059; 2569.375;  227.825;    0.000
329.118; 2560.375;  233.825;    0.000
329.177; 2498.375;  188.825;    0.000
329.237; 2531.375;  257.825;    0.000
329.296; 2595.375;  265.825;    0.000
329.355; 2551.375;  245.825;    0.000
329.414; 2501.375;  236.825;    0.000
329.473; 2516.375;  242.825;    0.000
329.532; 2506.375;  228.825;    0.000
329.591; 2478.375;  206.825;    0.000
329.650; 2546.375;  250.825;    0.000
329.709; 2487.375;  278.825;    0.000
329.768; 2575.375;  219.825;    0.000
329.827; 2578.375;  254.825;    0.000
329.886; 2558.375;  221.825;    0.000
329.945; 2560.375;  239.825;    0.000
330.004; 2642.375;  245.825;    0.000
330.063; 2562.375;  201.825;    0.000
330.122; 2682.375;  227.825;    0.000
330.181; 2680.375;  196.825;    0.000
330.240; 2745.375;  203.825;    0.000
330.299; 2650.375;  214.825;    0.000
330.358; 2574.375;  196.825;    0.000
330.417; 2504.375;  201.825;    0.000
330.476; 2459.375;  248.825;    0.000
330.535; 2579.375;  253.825;    0.000
330.594; 2530.375;  231.825;    0.000
330.653; 2504.375;  210.825;    0.000
330.712; 2519.375;  242.825;    0.000
330.771; 2566.375;  240.825;    0.000
330.830; 2484.375;  230.825;    0.000
330.889; 2554.375;  217.825;    0.000
330.948; 2507.375;  211.825;    0.000
331.006; 2544.375;  217.825;    0.000
331.065; 2492.375;  170.825;    0.000
331.124; 2533.375;  211.825;    0.000
331.183; 2456.375;  192.825;    0.000
331.242; 2506.375;  227.825;    0.000
331.301; 2553.375;  240.825;    0.000
331.359; 2545.375;  223.825;    0.000
331.418; 2531.375;  215.825;    0.000
331.477; 2575.375;  230.825;    0.000
331.536; 2438.375;  221.825;    0.000
331.595; 2421.375;  198.825;    0.000
331.653; 2559.375;  207.825;    0.000
331.712; 2460.375;  217.825;    0.000
331.771; 2496.375;  221.825;    0.000
331.830; 2492.375;  222.825;    0.000
331.888; 2455.375;  213.825;    0.000
331.947; 2466.375;  233.825;    0.000
332.006; 2505.375;  212.825;    0.000
332.065; 2493.375;  200.825;    0.000
332.123; 2457.375;  223.825;    0.000
332.182; 2464.375;  180.825;    0.000
332.241; 2528.375;  192.825;    0.000
332.299; 2581.375;  172.825;    0.000
332.358; 2543.375;  216.825;    0.000
332.417; 2551.375;  211.825;    0.000
332.475; 2461.375;  222.825;    0.000
332.534; 2571.375;  238.825;    0.000
332.592; 2537.375;  216.825;    0.000
332.651; 2472.375;  196.825;    0.000
332.710; 2552.375;  215.825;    0.000
332.768; 2623.375;  193.825;    0.000
332.827; 2546.375;  201.825;    0.000
332.885; 2563.375;  226.825;    0.000
332.944; 2557.375;  174.825;    0.000
333.003; 2663.375;  187.825;    0.000
333.061; 2616.375;  208.825;    0.000
333.120; 2702.375;  202.825;    0.000
333.178; 2802.375;  227.825;    0.000
333.237; 2847.375;  215.825;    0.000
333.295; 2740.375;  245.825;    0.000
333.354; 2723.375;  194.825;    0.000
333.412; 2666.375;  165.825;    0.000
333.471; 2636.375;  219.825;    0.000
333.529; 2800.375;  255.825;    0.000
333.588; 2861.375;  264.825;    0.000
333.646; 2970.375;  231.825;    0.000
333.705; 2822.375;  232.825;    0.000
333.763; 2873.375;  233.825;    0.000
333.822; 2721.375;  221.825;    0.000
333.880; 2719.375;  180.825;    0.000
333.938; 2692.375;  229.825;    0.000
333.997; 2702.375;  194.825;    0.000
334.055; 2667.375;  230.825;    0.000
334.114; 2739.375;  230.825;    0.000
334.172; 2742.375;  170.825;    0.000
334.230; 2699.375;  192.825;    0.000
334.289; 2660.375;  225.825;    0.000
334.347; 2654.375;  233.825;    0.000
334.405; 2618.375;  207.825;    0.000
334.464; 2652.375;  175.825;    0.000
334.522; 2590.375;  180.825;    0.000
334.580; 2715.375;  172.825;    0.000
334.639; 2708.375;  230.825;    0.000
334.697; 2660.375;  217.825;    0.000
334.755; 2701.375;  217.825;    0.000
334.814; 2754.375;  210.825;    0.000
334.872; 2694.375;  170.825;    0.000
334.930; 2743.375;  167.825;    0.000
334.988; 2635.375;  244.825;    0.000
335.047; 2745.375;  202.825;    0.000
335.105; 2582.375;  181.825;    0.000
335.163; 2476.375;  195.825;    0.000
335.221; 2652.375;  203.825;    0.000
335.280; 2586.375;  216.825;    0.000
335.338; 2601.375;  197.825;    0.000
335.396; 2650.375;  232.825;    0.000
335.454; 2609.375;  211.825;    0.000
335.512; 2625.375;  221.825;    0.000
335.570; 2678.375;  216.825;    0.000
335.629; 2721.375;  244.825;    0.000
335.687; 2504.375;  244.825;    0.000
335.745; 2661.375;  189.825;    0.000
335.803; 2693.375;  198.825;    0.000
335.861; 2636.375;  236.825;    0.000
335.919; 2705.375;  234.825;    0.000
335.977; 2675.375;  214.825;    0.000
336.035; 2711.375;  242.825;    0.000
336.094; 2791.375;  219.825;    0.000
336.152; 2747.375;  196.825;    0.000
336.210; 2559.375;  221.825;    0.000
336.268; 2632.375;  257.825;    0.000
336.326; 2694.375;  211.825;    0.000
336.384; 2560.375;  217.825;    0.000
336.442; 2606.375;  176.825;    0.000
336.500; 2600.375;  242.825;    0.000
336.558; 2645.375;  238.825;    0.000
336.616; 2616.375;  261.825;    0.000
336.674; 2695.375;  200.825;    0.000
336.732; 2554.375;  208.825;    0.000
336.790; 2605.375;  183.825;    0.000
336.848; 2589.375;  199.825;    0.000
336.906; 2573.375;  240.825;    0.000
336.964; 2540.375;  234.825;    0.000
337.022; 2694.375;  282.825;    0.000
337.080; 2649.375;  265.825;    0.000
337.138; 2561.375;  255.825;    0.000
337.195; 2629.375;  200.825;    0.000
337.253; 2511.375;  199.825;    0.000
337.311; 2574.375;  233.825;    0.000
337.369; 2579.375;  250.825;    0.000
337.427; 2489.375;  201.825;    0.000
337.485; 2505.375;  228.825;    0.000
337.543; 2534.375;  221.825;    0.000
337.601; 2472.375;  232.825;    0.000
337.658; 2526.375;  215.825;    0.000
337.716; 2603.375;  198.825;    0.000
337.774; 2575.375;  262.825;    0.000
337.832; 2572.375;  220.825;    0.000
337.890; 2491.375;  194.825;    0.000
337.947; 2466.375;  205.825;    0.000
338.005; 2506.375;  229.825;    0.000
338.063; 2564.375;  237.825;    0.000
338.121; 2571.375;  220.825;    0.000
338.178; 2550.375;  227.825;    0.000
338.236; 2524.375;  238.825;    0.000
338.294; 2510.375;  242.825;    0.000
338.352; 2621.375;  230.825;    0.000
338.409; 2532.375;  222.825;    0.000
338.467; 2550.375;  233.825;    0.000
338.525; 2515.375;  253.825;    0.000
338.583; 2494.375;  221.825;    0.000
338.640; 2467.375;  225.825;    0.000
338.698; 2471.375;  229.825;    0.000
338.756; 2434.375;  238.825;    0.000
338.813; 2500.375;  260.825;    0.000
338.871; 2516.375;  246.825;    0.000
338.928; 2630.375;  240.825;    0.000
338.986; 2492.375;  228.825;    0.000
339.044; 2550.375;  265.825;    0.000
339.101; 2427.375;  224.825;    0.000
339.159; 2457.375;  235.825;    0.000
339.216; 2620.375;  244.825;    0.000
339.274; 2563.375;  266.825;    0.000
339.332; 2490.375;  248.825;    0.000
339.389; 2476.375;  246.825;    0.000
339.447; 2529.375;  237.825;    0.000
339.504; 2457.375;  244.825;    0.000
339.562; 2496.375;  249.825;    0.000
339.619; 2558.375;  266.825;    0.000
339.677; 2433.375;  263.825;    0.000
339.734; 2433.375;  216.825;    0.000
339.792; 2431.375;  276.825;    0.000
339.849; 2475.375;  240.825;    0.000
339.907; 2472.375;  275.825;    0.000
339.964; 2457.375;  243.825;    0.000
340.022; 2529.375;  224.825;    0.000
340.079; 2446.375;  230.825;    0.000
340.137; 2366.375;  232.825;    0.000
340.194; 2469.375;  261.825;    0.000
340.252; 2433.375;  219.825;    0.000
340.309; 2447.375;  212.825;    0.000
340.366; 2444.375;  231.825;    0.000
340.424; 2520.375;  244.825;    0.000
340.481; 2471.375;  238.825;    0.000
340.538; 2457.375;  217.825;    0.000
340.596; 2494.375;  224.825;    0.000
340.653; 2505.375;  225.825;    0.000
340.711; 2555.375;  276.825;    0.000
340.768; 2438.375;  239.825;    0.000
340.825; 2381.375;  216.825;    0.000
340.883; 2506.375;  264.825;    0.000
340.940; 2477.375;  256.825;    0.000
340.997; 2456.375;  230.825;    0.000
341.054; 2376.375;  229.825;    0.000
341.112; 2543.375;  220.825;    0.000
341.169; 2392.375;  276.825;    0.000
341.226; 2551.375;  224.825;    0.000
341.284; 2451.375;  235.825;    0.000
341.341; 2463.375;  226.825;    0.000
341.398; 2502.375;  200.825;    0.000
341.455; 2533.375;  242.825;    0.000
341.512; 2542.375;  226.825;    0.000
341.570; 2560.375;  299.825;    0.000
341.627; 2460.375;  221.825;    0.000
341.684; 2436.375;  204.825;    0.000
341.741; 2509.375;  285.825;    0.000
341.798; 2528.375;  237.825;    0.000
341.856; 2519.375;  223.825;    0.000
341.913; 2591.375;  232.825;    0.000
341.970; 2619.375;  250.825;    0.000
342.027; 2493.375;  272.825;    0.000
342.084; 2525.375;  242.825;    0.000
342.141; 2548.375;  207.825;    0.000
342.198; 2458.375;  252.825;    0.000
342.255; 2584.375;  189.825;    0.000
342.313; 2547.375;  222.825;    0.000
342.370; 2403.375;  203.825;    0.000
342.427; 2481.375;  261.825;    0.000
342.484; 2446.375;  230.825;    0.000
342.541; 2461.375;  224.825;    0.000
342.598; 2494.375;  245.825;    0.000
342.655; 2404.375;  235.825;    0.000
342.712; 2515.375;  238.825;    0.000
342.769; 2496.375;  235.825;    0.000
342.826; 2519.375;  232.825;    0.000
342.883; 2436.375;  212.825;    0.000
342.940; 2435.375;  189.825;    0.000
342.997; 2440.375;  241.825;    0.000
343.054; 2501.375;  235.825;    0.000
343.111; 2430.375;  216.825;    0.000
343.168; 2527.375;  202.825;    0.000
343.225; 2490.375;  228.825;    0.000
343.282; 2539.375;  208.825;    0.000
343.339; 2599.375;  241.825;    0.000
343.395; 2646.375;  206.825;    0.000
343.452; 2530.375;  227.825;    0.000
343.509; 2612.375;  212.825;    0.000
343.566; 2574.375;  266.825;    0.000
343.623; 2664.375;  240.825;    0.000
343.680; 2680.375;  215.825;    0.000
343.737; 2676.375;  231.825;    0.000
343.794; 2799.375;  256.825;    0.000
343.850; 2666.375;  235.825;    0.000
343.907; 2703.375;  246.825;    0.000
343.964; 2751.375;  241.825;    0.000
344.021; 2823.375;  237.825;    0.000
344.078; 2870.375;  248.825;    0.000
344.134; 2810.375;  225.825;    0.000
344.191; 2694.375;  209.825;    0.000
344.248; 2706.375;  234.825;    0.000
344.305; 2788.375;  224.825;    0.000
344.361; 2704.375;  194.825;    0.000
344.418; 2698.375;  240.825;    0.000
344.475; 2626.375;  252.825;    0.000
344.532; 2672.375;  251.825;    0.000
344.588; 2665.375;  240.825;    0.000
344.645; 2713.375;  253.825;    0.000
344.702; 2624.375;  216.825;    0.000
344.758; 2666.375;  258.825;    0.000
344.815; 2673.375;  239.825;    0.000
344.872; 2599.375;  216.825;    0.000
344.928; 2705.375;  236.825;    0.000
344.985; 2683.375;  238.825;    0.000
345.042; 2682.375;  211.825;    0.000
345.098; 2639.375;  223.825;    0.000
345.155; 2678.375;  266.825;    0.000
345.212; 2625.375;  266.825;    0.000
345.268; 2596.375;  245.825;    0.000
345.325; 2648.375;  225.825;    0.000
345.381; 2628.375;  223.825;    0.000
345.438; 2596.375;  259.825;    0.000
345.495; 2645.375;  233.825;    0.000
345.551; 2699.375;  254.825;    0.000
345.608; 2547.375;  212.825;    0.000
345.664; 2641.375;  225.825;    0.000
345.721; 2555.375;  223.825;    0.000
345.777; 2585.375;  226.825;    0.000
345.834; 2446.375;  215.825;    0.000
345.890; 2570.375;  230.825;    0.000
345.947; 2657.375;  232.825;    0.000
346.003; 2658.375;  241.825;    0.000
346.060; 2589.375;  241.825;    0.000
346.116; 2614.375;  231.825;    0.000
346.173; 2586.375;  229.825;    0.000
346.229; 2635.375;  262.825;    0.000
346.285; 2552.375;  232.825;    0.000
346.342; 2599.375;  228.825;    0.000
346.398; 2684.375;  203.825;    0.000
346.455; 2726.375;  214.825;    0.000
346.511; 2626.375;  245.825;    0.000
346.567; 2703.375;  192.825;    0.000
346.624; 2672.375;  206.825;    0.000
346.680; 2605.375;  209.825;    0.000
346.737; 2632.375;  239.825;    0.000
346.793; 2682.375;  234.825;    0.000
346.849; 2646.375;  252.825;    0.000
346.906; 2649.375;  247.825;    0.000
346.962; 2649.375;  274.825;    0.000
347.018; 2615.375;  225.825;    0.000
347.074; 2690.375;  261.825;    0.000
347.131; 2652.375;  230.825;    0.000
347.187; 2605.375;  269.825;    0.000
347.243; 2681.375;  261.825;    0.000
347.300; 2682.375;  236.825;    0.000
347.356; 2694.375;  284.825;    0.000
347.412; 2721.375;  243.825;    0.000
347.468; 2755.375;  276.825;    0.000
347.524; 2655.375;  232.825;    0.000
347.581; 2688.375;  242.825;    0.000
347.637; 2630.375;  270.825;    0.000
347.693; 2707.375;  269.825;    0.000
347.749; 2756.375;  278.825;    0.000
347.805; 2570.375;  224.825;    0.000
347.862; 2587.375;  207.825;    0.000
347.918; 2678.375;  259.825;    0.000
347.974; 2678.375;  244.825;    0.000
348.030; 2635.375;  219.825;    0.000
348.086; 2670.375;  250.825;    0.000
348.142; 2744.375;  251.825;    0.000
348.198; 2650.375;  267.825;    0.000
348.254; 2720.375;  230.825;    0.000
348.311; 2674.375;  261.825;    0.000
348.367; 2792.375;  259.825;    0.000
348.423; 2667.375;  251.825;    0.000
348.479; 2646.375;  251.825;    0.000
348.535; 2679.375;  269.825;    0.000
348.591; 2718.375;  238.825;    0.000
348.647; 2601.375;  273.825;    0.000
348.703; 2652.375;  291.825;    0.000
348.759; 2656.375;  231.825;    0.000
348.815; 2688.375;  286.825;    0.000
348.871; 2680.375;  265.825;    0.000
348.927; 2705.375;  234.825;    0.000
348.983; 2717.375;  267.825;    0.000
349.039; 2749.375;  233.825;    0.000
349.095; 2713.375;  225.825;    0.000
349.151; 2775.375;  242.825;    0.000
349.207; 2741.375;  223.825;    0.000
349.263; 2621.375;  219.825;    0.000
349.319; 2753.375;  226.825;    0.000
349.374; 2767.375;  232.825;    0.000
349.430; 2728.375;  235.825;    0.000
349.486; 2667.375;  227.825;    0.000
349.542; 2799.375;  253.825;    0.000
349.598; 2767.375;  227.825;    0.000
349.654; 2782.375;  270.825;    0.000
349.710; 2629.375;  233.825;    0.000
349.766; 2670.375;  245.825;    0.000
349.821; 2724.375;  242.825;    0.000
349.877; 2714.375;  229.825;    0.000
349.933; 2806.375;  229.825;    0.000
349.989; 2727.375;  230.825;    0.000
350.045; 2724.375;  236.825;    0.000
350.100; 2761.375;  237.825;    0.000
350.156; 2704.375;  230.825;    0.000
350.212; 2732.375;  254.825;    0.000
350.268; 2732.375;  239.825;    0.000
350.323; 2697.375;  204.825;    0.000
350.379; 2739.375;  246.825;    0.000
350.435; 2717.375;  249.825;    0.000
350.491; 2725.375;  217.825;    0.000
350.546; 2707.375;  231.825;    0.000
350.602; 2679.375;  240.825;    0.000
350.658; 2732.375;  235.825;    0.000
350.713; 2643.375;  234.825;    0.000
350.769; 2841.375;  218.825;    0.000
350.825; 2694.375;  227.825;    0.000
350.880; 2696.375;  226.825;    0.000
350.936; 2707.375;  247.825;    0.000
350.992; 2748.375;  213.825;    0.000
351.047; 2723.375;  207.825;    0.000
351.103; 2702.375;  271.825;    0.000
351.158; 2841.375;  251.825;    0.000
351.214; 2762.375;  199.825;    0.000
351.270; 2791.375;  214.825;    0.000
351.325; 2778.375;  235.825;    0.000
351.381; 2694.375;  223.825;    0.000
351.436; 2773.375;  237.825;    0.000
351.492; 2732.375;  221.825;    0.000
351.547; 2812.375;  237.825;    0.000
351.603; 2774.375;  239.825;    0.000
351.658; 2732.375;  209.825;    0.000
351.714; 2725.375;  226.825;    0.000
351.769; 2749.375;  238.825;    0.000
351.825; 2795.375;  226.825;    0.000
351.880; 2756.375;  217.825;    0.000
351.936; 2821.375;  246.825;    0.000
351.991; 2799.375;  233.825;    0.000
352.047; 2747.375;  215.825;    0.000
352.102; 2666.375;  243.825;    0.000
352.158; 2711.375;  234.825;    0.000
352.213; 2787.375;  201.825;    0.000
352.268; 2670.375;  234.825;    0.000
352.324; 2668.375;  211.825;    0.000
352.379; 2800.375;  221.825;    0.000
352.434; 2744.375;  259.825;    0.000
352.490; 2796.375;  250.825;    0.000
352.545; 2810.375;  251.825;    0.000
352.601; 2861.375;  283.825;    0.000
352.656; 2771.375;  236.825;    0.000
352.711; 2735.375;  237.825;    0.000
352.767; 2683.375;  201.825;    0.000
352.822; 2686.375;  209.825;    0.000
352.877; 2713.375;  239.825;    0.000
352.932; 2732.375;  228.825;    0.000
352.988; 2742.375;  202.825;    0.000
353.043; 2770.375;  268.825;    0.000
353.098; 2860.375;  208.825;    0.000
353.153; 2753.375;  219.825;    0.000
353.209; 2793.375;  252.825;    0.000
353.264; 2754.375;  225.825;    0.000
353.319; 2790.375;  234.825;    0.000
353.374; 2737.375;  236.825;    0.000
353.430; 2725.375;  245.825;    0.000
353.485; 2781.375;  238.825;    0.000
353.540; 2738.375;  238.825;    0.000
353.595; 2810.375;  215.825;    0.000
353.650; 2815.375;  238.825;    0.000
353.705; 2701.375;  274.825;    0.000
353.761; 2727.375;  229.825;    0.000
353.816; 2816.375;  275.825;    0.000
353.871; 2834.375;  245.825;    0.000
353.926; 2824.375;  253.825;    0.000
353.981; 2731.375;  269.825;    0.000
354.036; 2800.375;  246.825;    0.000
354.091; 2823.375;  257.825;    0.000
354.146; 2786.375;  278.825;    0.000
354.201; 2813.375;  276.825;    0.000
354.256; 2782.375;  224.825;    0.000
354.311; 2825.375;  287.825;    0.000
354.367; 2798.375;  210.825;    0.000
354.422; 2846.375;  231.825;    0.000
354.477; 2811.375;  226.825;    0.000
354.532; 2802.375;  262.825;    0.000
354.587; 2829.375;  275.825;    0.000
354.642; 2742.375;  247.825;    0.000
354.697; 2898.375;  251.825;    0.000
354.751; 2806.375;  249.825;    0.000
354.806; 2826.375;  217.825;    0.000
354.861; 2863.375;  247.825;    0.000
354.916; 2810.375;  259.825;    0.000
354.971; 2824.375;  241.825;    0.000
355.026; 2806.375;  250.825;    0.000
355.081; 2722.375;  244.825;    0.000
355.136; 2714.375;  203.825;    0.000
355.191; 2822.375;  241.825;    0.000
355.246; 2867.375;  248.825;    0.000
355.301; 2866.375;  259.825;    0.000
355.355; 2908.375;  236.825;    0.000
355.410; 2856.375;  221.825;    0.000
355.465; 2864.375;  206.825;    0.000
355.520; 2842.375;  258.825;    0.000
355.575; 2846.375;  273.825;    0.000
355.630; 2809.375;  252.825;    0.000
355.684; 2759.375;  246.825;    0.000
355.739; 2817.375;  251.825;    0.000
355.794; 2942.375;  247.825;    0.000
355.849; 2860.375;  246.825;    0.000
355.904; 2821.375;  262.825;    0.000
355.958; 2854.375;  249.825;    0.000
356.013; 2789.375;  213.825;    0.000
356.068; 2820.375;  255.825;    0.000
356.123; 2877.375;  205.825;    0.000
356.177; 2839.375;  239.825;    0.000
356.232; 2912.375;  258.825;    0.000
356.287; 2805.375;  248.825;    0.000
356.341; 2843.375;  221.825;    0.000
356.396; 2709.375;  220.825;    0.000
356.451; 2840.375;  231.825;    0.000
356.505; 2893.375;  231.825;    0.000
356.560; 2843.375;  254.825;    0.000
356.615; 2730.375;  234.825;    0.000
356.669; 2807.375;  250.825;    0.000
356.724; 2795.375;  261.825;    0.000
356.778; 2819.375;  207.825;    0.000
356.833; 2728.375;  205.825;    0.000
356.888; 2936.375;  235.825;    0.000
356.942; 2970.375;  205.825;    0.000
356.997; 2970.375;  276.825;    0.000
357.051; 2926.375;  243.825;    0.000
357.106; 2837.375;  242.825;    0.000
357.160; 2813.375;  241.825;    0.000
357.215; 2868.375;  212.825;    0.000
357.269; 2768.375;  238.825;    0.000
357.324; 2766.375;  223.825;    0.000
357.378; 2743.375;  221.825;    0.000
357.433; 2861.375;  262.825;    0.000
357.487; 2845.375;  246.825;    0.000
357.542; 2869.375;  221.825;    0.000
357.596; 2864.375;  225.825;    0.000
357.651; 2808.375;  244.825;    0.000
357.705; 2827.375;  269.825;    0.000
357.760; 2971.375;  209.825;    0.000
357.814; 2915.375;  250.825;    0.000
357.868; 2903.375;  266.825;    0.000
357.923; 2853.375;  248.825;    0.000
357.977; 2812.375;  262.825;    0.000
358.032; 2986.375;  228.825;    0.000
358.086; 2986.375;  257.825;    0.000
358.140; 2960.375;  217.825;    0.000
358.195; 2871.375;  246.825;    0.000
358.249; 2795.375;  255.825;    0.000
358.303; 2826.375;  252.825;    0.000
358.358; 2758.375;  278.825;    0.000
358.412; 2839.375;  276.825;    0.000
358.466; 2856.375;  275.825;    0.000
358.521; 2922.375;  229.825;    0.000
358.575; 2922.375;  270.825;    0.000
358.629; 2792.375;  239.825;    0.000
358.683; 2754.375;  254.825;    0.000
358.738; 2787.375;  239.825;    0.000
358.792; 2812.375;  272.825;    0.000
358.846; 2756.375;  289.825;    0.000
358.900; 2807.375;  299.825;    0.000
358.954; 2922.375;  247.825;    0.000
359.009; 2854.375;  245.825;    0.000
359.063; 2701.375;  272.825;    0.000
359.117; 2859.375;  242.825;    0.000
359.171; 2782.375;  279.825;    0.000
359.225; 2800.375;  221.825;    0.000
359.280; 2814.375;  238.825;    0.000
359.334; 2925.375;  264.825;    0.000
359.388; 2904.375;  273.825;    0.000
359.442; 2808.375;  233.825;    0.000
359.496; 2819.375;  226.825;    0.000
359.550; 2840.375;  271.825;    0.000
359.604; 2837.375;  296.825;    0.000
359.658; 2827.375;  252.825;    0.000
359.712; 2821.375;  256.825;    0.000
359.766; 2736.375;  257.825;    0.000
359.820; 2801.375;  239.825;    0.000
359.875; 2877.375;  252.825;    0.000
359.929; 2880.375;  258.825;    0.000
359.983; 2817.375;  232.825;    0.000
360.037; 2767.375;  268.825;    0.000
360.091; 2825.375;  303.825;    0.000
360.145; 2675.375;  232.825;    0.000
360.199; 2787.375;  255.825;    0.000
360.253; 2799.375;  252.825;    0.000
360.306; 2736.375;  278.825;    0.000
360.360; 2721.375;  249.825;    0.000
360.414; 2860.375;  274.825;    0.000
360.468; 2780.375;  247.825;    0.000
360.522; 2874.375;  268.825;    0.000
360.576; 2885.375;  263.825;    0.000
360.630; 2855.375;  296.825;    0.000
360.684; 2831.375;  253.825;    0.000
360.738; 2877.375;  301.825;    0.000
360.792; 2888.375;  282.825;    0.000
360.846; 2881.375;  277.825;    0.000
360.899; 2896.375;  292.825;    0.000
360.953; 2812.375;  266.825;    0.000
361.007; 2767.375;  240.825;    0.000
361.061; 2853.375;  247.825;    0.000
361.115; 2813.375;  276.825;    0.000
361.168; 2825.375;  288.825;    0.000
361.222; 2675.375;  271.825;    0.000
361.276; 2728.375;  270.825;    0.000
361.330; 2819.375;  295.825;    0.000
361.384; 2761.375;  276.825;    0.000
361.437; 2887.375;  280.825;    0.000
361.491; 2774.375;  261.825;    0.000
361.545; 2787.375;  273.825;    0.000
361.599; 2738.375;  269.825;    0.000
361.652; 2825.375;  258.825;    0.000
361.706; 2730.375;  270.825;    0.000
361.760; 2776.375;  294.825;    0.000
361.813; 2866.375;  244.825;    0.000
361.867; 2828.375;  294.825;    0.000
361.921; 2753.375;  285.825;    0.000
361.974; 2874.375;  269.825;    0.000
362.028; 2783.375;  275.825;    0.000
362.082; 2908.375;  270.825;    0.000
362.135; 2793.375;  259.825;    0.000
362.189; 2787.375;  302.825;    0.000
362.242; 2848.375;  296.825;    0.000
362.296; 2764.375;  285.825;    0.000
362.350; 2811.375;  303.825;    0.000
362.403; 2855.375;  271.825;    0.000
362.457; 2756.375;  285.825;    0.000
362.510; 2739.375;  288.825;    0.000
362.564; 2711.375;  268.825;    0.000
362.617; 2774.375;  285.825;    0.000
362.671; 2768.375;  277.825;    0.000
362.724; 2751.375;  242.825;    0.000
362.778; 2812.375;  274.825;    0.000
362.831; 2818.375;  280.825;    0.000
362.885; 2764.375;  284.825;    0.000
362.938; 2751.375;  276.825;    0.000
362.992;  346.375;  289.825;    0.000
363.045;  283.375;  247.825;    0.000
363.099;  264.375;  260.825;    0.000
363.152;  273.375;  258.825;    0.000
363.205;  258.375;  286.825;    0.000
363.259;  276.375;  236.825;    0.000
363.312;  290.375;  297.825;    0.000
363.366;  289.375;  266.825;    0.000
363.419;  289.375;  309.825;    0.000
363.472;  300.375;  293.825;    0.000
363.526;  289.375;  270.825;    0.000
363.579;  258.375;  276.825;    0.000
363.632;  301.375;  279.825;    0.000
363.686;  253.375;  292.825;    0.000
363.739;  297.375;  248.825;    0.000
363.792;  267.375;  287.825;    0.000

