
Integration time [ms]:   1.000
Averaging Nr. [scans]: 1
Smoothing Nr. [pixels]: 0
Data measured with spectrometer [name]: UV2
Wave   ;Sample   ;Dark     ;Reference
[nm]   ;[counts] ;[counts] ;[counts] 

353.533;  243.625;  216.475;    0.000
353.597;  217.625;  244.475;    0.000
353.660;  198.625;  181.475;    0.000
353.723;  152.625;  203.475;    0.000
353.786;  182.625;  180.475;    0.000
353.850;  206.625;  213.475;    0.000
353.913;  189.625;  191.475;    0.000
353.976;  206.625;  195.475;    0.000
354.039;  207.625;  158.475;    0.000
354.102;  206.625;  199.475;    0.000
354.166;  208.625;  185.475;    0.000
354.229;  193.625;  188.475;    0.000
354.292;  178.625;  188.475;    0.000
354.355;  176.625;  226.475;    0.000
354.418;  188.625;  158.475;    0.000
354.481;  175.625;  185.475;    0.000
354.545;  453.625;  191.475;    0.000
354.608;  468.625;  247.475;    0.000
354.671;  431.625;  176.475;    0.000
354.734;  445.625;  198.475;    0.000
354.797;  426.625;  195.475;    0.000
354.860;  507.625;  212.475;    0.000
354.923;  481.625;  184.475;    0.000
354.986;  466.625;  169.475;    0.000
355.050;  453.625;  206.475;    0.000
355.113;  506.625;  210.475;    0.000
355.176;  526.625;  217.475;    0.000
355.239;  493.625;  201.475;    0.000
355.302;  504.625;  193.475;    0.000
355.365;  521.625;  234.475;    0.000
355.428;  488.625;  182.475;    0.000
355.491;  554.625;  233.475;    0.000
355.554;  511.625;  167.475;    0.000
355.617;  571.625;  195.475;    0.000
355.680;  561.625;  198.475;    0.000
355.743;  569.625;  186.475;    0.000
355.806;  488.625;  171.475;    0.000
355.869;  608.625;  244.475;    0.000
355.932;  536.625;  164.475;    0.000
355.995;  593.625;  220.475;    0.000
356.058;  529.625;  172.475;    0.000
356.121;  593.625;  228.475;    0.000
356.184;  583.625;  225.475;    0.000
356.247;  513.625;  161.475;    0.000
356.310;  525.625;  195.475;    0.000
356.373;  601.625;  191.475;    0.000
356.436;  543.625;  147.475;    0.000
356.498;  542.625;  183.475;    0.000
356.561;  561.625;  137.475;    0.000
356.624;  557.625;  186.475;    0.000
356.687;  587.625;  158.475;    0.000
356.750;  538.625;  194.475;    0.000
356.813;  568.625;  186.475;    0.000
356.876;  603.625;  161.475;    0.000
356.939;  563.625;  188.475;    0.000
357.001;  614.625;  200.475;    0.000
357.064;  598.625;  182.475;    0.000
357.127;  619.625;  168.475;    0.000
357.190;  570.625;  157.475;    0.000
357.253;  588.625;  199.475;    0.000
357.316;  620.625;  187.475;    0.000
357.378;  584.625;  174.475;    0.000
357.441;  568.625;  165.475;    0.000
357.504;  576.625;  189.475;    0.000
357.567;  539.625;  116.475;    0.000
357.629;  593.625;  176.475;    0.000
357.692;  577.625;  134.475;    0.000
357.755;  615.625;  175.475;    0.000
357.818;  563.625;  159.475;    0.000
357.880;  618.625;  185.475;    0.000
357.943;  605.625;  159.475;    0.000
358.006;  623.625;  176.475;    0.000
358.069;  612.625;  156.475;    0.000
358.131;  634.625;  170.475;    0.000
358.194;  608.625;  125.475;    0.000
358.257;  557.625;  186.475;    0.000
358.319;  628.625;  139.475;    0.000
358.382;  635.625;  175.475;    0.000
358.445;  604.625;  170.475;    0.000
358.507;  645.625;  129.475;    0.000
358.570;  649.625;  168.475;    0.000
358.633;  619.625;  152.475;    0.000
358.695;  594.625;  194.475;    0.000
358.758;  579.625;  154.475;    0.000
358.821;  573.625;  147.475;    0.000
358.883;  577.625;  163.475;    0.000
358.946;  582.625;  155.475;    0.000
359.008;  660.625;  208.475;    0.000
359.071;  552.625;  182.475;    0.000
359.134;  601.625;  126.475;    0.000
359.196;  583.625;  142.475;    0.000
359.259;  650.625;  138.475;    0.000
359.321;  631.625;  153.475;    0.000
359.384;  665.625;  186.475;    0.000
359.446;  579.625;  152.475;    0.000
359.509;  602.625;  144.475;    0.000
359.571;  670.625;  164.475;    0.000
359.634;  600.625;  171.475;    0.000
359.696;  591.625;  144.475;    0.000
359.759;  646.625;  171.475;    0.000
359.821;  592.625;  161.475;    0.000
359.884;  596.625;  159.475;    0.000
359.946;  659.625;  186.475;    0.000
360.009;  630.625;  171.475;    0.000
360.071;  614.625;  166.475;    0.000
360.134;  627.625;  215.475;    0.000
360.196;  659.625;  138.475;    0.000
360.259;  638.625;  196.475;    0.000
360.321;  612.625;  148.475;    0.000
360.384;  664.625;  150.475;    0.000
360.446;  584.625;  148.475;    0.000
360.508;  618.625;  172.475;    0.000
360.571;  610.625;  155.475;    0.000
360.633;  639.625;  153.475;    0.000
360.696;  631.625;  142.475;    0.000
360.758;  659.625;  165.475;    0.000
360.820;  640.625;  155.475;    0.000
360.883;  628.625;  156.475;    0.000
360.945;  670.625;  171.475;    0.000
361.007;  614.625;  138.475;    0.000
361.070;  644.625;  129.475;    0.000
361.132;  649.625;  166.475;    0.000
361.194;  677.625;  143.475;    0.000
361.257;  654.625;  154.475;    0.000
361.319;  660.625;  176.475;    0.000
361.381;  679.625;  143.475;    0.000
361.443;  603.625;  136.475;    0.000
361.506;  649.625;  160.475;    0.000
361.568;  644.625;  140.475;    0.000
361.630;  669.625;  159.475;    0.000
361.693;  666.625;  162.475;    0.000
361.755;  694.625;  185.475;    0.000
361.817;  703.625;  209.475;    0.000
361.879;  691.625;  161.475;    0.000
361.941;  675.625;  152.475;    0.000
362.004;  678.625;  132.475;    0.000
362.066;  684.625;  159.475;    0.000
362.128;  676.625;  143.475;    0.000
362.190;  690.625;  131.475;    0.000
362.252;  682.625;  131.475;    0.000
362.315;  628.625;  175.475;    0.000
362.377;  715.625;  140.475;    0.000
362.439;  697.625;  140.475;    0.000
362.501;  670.625;  140.475;    0.000
362.563;  718.625;  152.475;    0.000
362.625;  731.625;  174.475;    0.000
362.688;  684.625;  195.475;    0.000
362.750;  723.625;  221.475;    0.000
362.812;  700.625;  171.475;    0.000
362.874;  696.625;  117.475;    0.000
362.936;  726.625;  162.475;    0.000
362.998;  711.625;  142.475;    0.000
363.060;  774.625;  143.475;    0.000
363.122;  719.625;  148.475;    0.000
363.184;  727.625;  179.475;    0.000
363.246;  784.625;  186.475;    0.000
363.308;  672.625;  180.475;    0.000
363.370;  700.625;  200.475;    0.000
363.432;  650.625;  139.475;    0.000
363.494;  678.625;  138.475;    0.000
363.556;  661.625;  114.475;    0.000
363.618;  715.625;  153.475;    0.000
363.680;  689.625;  153.475;    0.000
363.742;  724.625;  178.475;    0.000
363.804;  690.625;  214.475;    0.000
363.866;  715.625;  170.475;    0.000
363.928;  704.625;  145.475;    0.000
363.990;  707.625;  215.475;    0.000
364.052;  699.625;  166.475;    0.000
364.114;  672.625;  168.475;    0.000
364.176;  774.625;  176.475;    0.000
364.238;  749.625;  203.475;    0.000
364.300;  684.625;  158.475;    0.000
364.362;  682.625;  152.475;    0.000
364.424;  711.625;  119.475;    0.000
364.486;  704.625;  187.475;    0.000
364.548;  697.625;  180.475;    0.000
364.609;  723.625;  212.475;    0.000
364.671;  722.625;  165.475;    0.000
364.733;  686.625;  190.475;    0.000
364.795;  715.625;  148.475;    0.000
364.857;  739.625;  159.475;    0.000
364.919;  712.625;  159.475;    0.000
364.981;  720.625;  191.475;    0.000
365.042;  750.625;  170.475;    0.000
365.104;  732.625;  145.475;    0.000
365.166;  660.625;  134.475;    0.000
365.228;  723.625;  150.475;    0.000
365.290;  693.625;  158.475;    0.000
365.351;  684.625;  168.475;    0.000
365.413;  665.625;  173.475;    0.000
365.475;  709.625;  172.475;    0.000
365.537;  700.625;  126.475;    0.000
365.598;  763.625;  160.475;    0.000
365.660;  745.625;  127.475;    0.000
365.722;  701.625;  189.475;    0.000
365.784;  723.625;  161.475;    0.000
365.845;  749.625;  152.475;    0.000
365.907;  674.625;  117.475;    0.000
365.969;  717.625;  146.475;    0.000
366.030;  723.625;  171.475;    0.000
366.092;  730.625;  155.475;    0.000
366.154;  781.625;  137.475;    0.000
366.215;  724.625;  147.475;    0.000
366.277;  775.625;  148.475;    0.000
366.339;  722.625;  158.475;    0.000
366.400;  692.625;  140.475;    0.000
366.462;  701.625;  159.475;    0.000
366.524;  777.625;  160.475;    0.000
366.585;  684.625;  157.475;    0.000
366.647;  760.625;  170.475;    0.000
366.708;  689.625;  123.475;    0.000
366.770;  711.625;  194.475;    0.000
366.832;  741.625;  191.475;    0.000
366.893;  765.625;  155.475;    0.000
366.955;  679.625;  132.475;    0.000
367.016;  729.625;  126.475;    0.000
367.078;  720.625;  202.475;    0.000
367.139;  725.625;  116.475;    0.000
367.201;  749.625;  134.475;    0.000
367.262;  742.625;  157.475;    0.000
367.324;  739.625;  202.475;    0.000
367.385;  727.625;  118.475;    0.000
367.447;  781.625;  155.475;    0.000
367.508;  721.625;  134.475;    0.000
367.570;  770.625;  165.475;    0.000
367.631;  716.625;  118.475;    0.000
367.693;  762.625;  170.475;    0.000
367.754;  729.625;  154.475;    0.000
367.816;  775.625;  146.475;    0.000
367.877;  802.625;  175.475;    0.000
367.939;  749.625;  200.475;    0.000
368.000;  732.625;  168.475;    0.000
368.062;  749.625;  138.475;    0.000
368.123;  702.625;  170.475;    0.000
368.184;  760.625;  188.475;    0.000
368.246;  773.625;  145.475;    0.000
368.307;  805.625;  163.475;    0.000
368.369;  793.625;  144.475;    0.000
368.430;  732.625;  140.475;    0.000
368.491;  751.625;  133.475;    0.000
368.553;  737.625;  145.475;    0.000
368.614;  747.625;  158.475;    0.000
368.675;  783.625;  147.475;    0.000
368.737;  799.625;  157.475;    0.000
368.798;  766.625;  163.475;    0.000
368.859;  815.625;  173.475;    0.000
368.921;  708.625;  122.475;    0.000
368.982;  772.625;  184.475;    0.000
369.043;  838.625;  169.475;    0.000
369.104;  778.625;  142.475;    0.000
369.166;  818.625;  169.475;    0.000
369.227;  757.625;  156.475;    0.000
369.288;  741.625;  151.475;    0.000
369.349;  750.625;  191.475;    0.000
369.411;  778.625;  168.475;    0.000
369.472;  782.625;  155.475;    0.000
369.533;  749.625;  149.475;    0.000
369.594;  721.625;  174.475;    0.000
369.656;  830.625;  188.475;    0.000
369.717;  728.625;  113.475;    0.000
369.778;  808.625;  184.475;    0.000
369.839;  803.625;  151.475;    0.000
369.900;  789.625;  180.475;    0.000
369.961;  750.625;  171.475;    0.000
370.023;  769.625;  143.475;    0.000
370.084;  807.625;  137.475;    0.000
370.145;  768.625;  152.475;    0.000
370.206;  765.625;  151.475;    0.000
370.267;  750.625;  134.475;    0.000
370.328;  791.625;  178.475;    0.000
370.389;  772.625;  181.475;    0.000
370.451;  787.625;  169.475;    0.000
370.512;  811.625;  172.475;    0.000
370.573;  838.625;  148.475;    0.000
370.634;  806.625;  156.475;    0.000
370.695;  749.625;  151.475;    0.000
370.756;  758.625;  185.475;    0.000
370.817;  814.625;  185.475;    0.000
370.878;  838.625;  191.475;    0.000
370.939;  774.625;  147.475;    0.000
371.000;  749.625;  162.475;    0.000
371.061;  804.625;  145.475;    0.000
371.122;  840.625;  179.475;    0.000
371.183;  756.625;  114.475;    0.000
371.244;  788.625;  180.475;    0.000
371.305;  783.625;  138.475;    0.000
371.366;  823.625;  157.475;    0.000
371.427;  783.625;  148.475;    0.000
371.488;  863.625;  138.475;    0.000
371.549;  849.625;  193.475;    0.000
371.610;  836.625;  158.475;    0.000
371.671;  738.625;  119.475;    0.000
371.732;  792.625;  159.475;    0.000
371.793;  836.625;  178.475;    0.000
371.853;  757.625;  155.475;    0.000
371.914;  835.625;  148.475;    0.000
371.975;  752.625;  124.475;    0.000
372.036;  811.625;  158.475;    0.000
372.097;  757.625;  136.475;    0.000
372.158;  821.625;  116.475;    0.000
372.219;  798.625;  157.475;    0.000
372.280;  777.625;  151.475;    0.000
372.340;  878.625;  190.475;    0.000
372.401;  823.625;  151.475;    0.000
372.462;  823.625;  129.475;    0.000
372.523;  840.625;  121.475;    0.000
372.584;  797.625;  152.475;    0.000
372.645;  782.625;  132.475;    0.000
372.705;  810.625;  190.475;    0.000
372.766;  798.625;  153.475;    0.000
372.827;  833.625;  133.475;    0.000
372.888;  775.625;  161.475;    0.000
372.948;  830.625;  159.475;    0.000
373.009;  816.625;  164.475;    0.000
373.070;  804.625;  139.475;    0.000
373.131;  809.625;  137.475;    0.000
373.191;  894.625;  181.475;    0.000
373.252;  802.625;  154.475;    0.000
373.313;  833.625;  179.475;    0.000
373.373;  851.625;  136.475;    0.000
373.434;  791.625;  169.475;    0.000
373.495;  832.625;   97.475;    0.000
373.555;  876.625;  142.475;    0.000
373.616;  801.625;  178.475;    0.000
373.677;  802.625;  167.475;    0.000
373.737;  800.625;  139.475;    0.000
373.798;  843.625;  155.475;    0.000
373.859;  851.625;  162.475;    0.000
373.919;  823.625;  174.475;    0.000
373.980;  836.625;  172.475;    0.000
374.041;  839.625;  166.475;    0.000
374.101;  782.625;  172.475;    0.000
374.162;  918.625;  188.475;    0.000
374.222;  836.625;  186.475;    0.000
374.283;  809.625;  195.475;    0.000
374.343;  848.625;  204.475;    0.000
374.404;  862.625;  187.475;    0.000
374.465;  882.625;  183.475;    0.000
374.525;  839.625;  136.475;    0.000
374.586;  827.625;  140.475;    0.000
374.646;  865.625;  191.475;    0.000
374.707;  868.625;  208.475;    0.000
374.767;  864.625;  178.475;    0.000
374.828;  948.625;  159.475;    0.000
374.888;  890.625;  143.475;    0.000
374.949;  875.625;  202.475;    0.000
375.009;  871.625;  151.475;    0.000
375.070;  861.625;  160.475;    0.000
375.130;  831.625;  160.475;    0.000
375.190;  856.625;  164.475;    0.000
375.251;  922.625;  196.475;    0.000
375.311;  834.625;  154.475;    0.000
375.372;  893.625;  197.475;    0.000
375.432;  820.625;  159.475;    0.000
375.493;  887.625;  197.475;    0.000
375.553;  890.625;  165.475;    0.000
375.613;  874.625;  174.475;    0.000
375.674;  907.625;  165.475;    0.000
375.734;  867.625;  128.475;    0.000
375.794;  866.625;  169.475;    0.000
375.855;  850.625;  193.475;    0.000
375.915;  828.625;  162.475;    0.000
375.975;  866.625;  181.475;    0.000
376.036;  834.625;  161.475;    0.000
376.096;  846.625;  131.475;    0.000
376.156;  872.625;  165.475;    0.000
376.217;  847.625;  182.475;    0.000
376.277;  874.625;  185.475;    0.000
376.337;  874.625;  177.475;    0.000
376.398;  838.625;  162.475;    0.000
376.458;  849.625;  179.475;    0.000
376.518;  854.625;  150.475;    0.000
376.578;  842.625;  165.475;    0.000
376.639;  872.625;  159.475;    0.000
376.699;  892.625;  180.475;    0.000
376.759;  903.625;  206.475;    0.000
376.819;  900.625;  146.475;    0.000
376.880;  934.625;  177.475;    0.000
376.940;  903.625;  160.475;    0.000
377.000;  885.625;  149.475;    0.000
377.060;  904.625;  180.475;    0.000
377.120;  901.625;  146.475;    0.000
377.180;  912.625;  137.475;    0.000
377.241;  854.625;  163.475;    0.000
377.301;  917.625;  169.475;    0.000
377.361;  841.625;  137.475;    0.000
377.421;  851.625;  184.475;    0.000
377.481;  935.625;  185.475;    0.000
377.541;  916.625;  146.475;    0.000
377.601;  873.625;  179.475;    0.000
377.661;  907.625;  181.475;    0.000
377.722;  936.625;  185.475;    0.000
377.782;  938.625;  147.475;    0.000
377.842;  917.625;  190.475;    0.000
377.902;  981.625;  166.475;    0.000
377.962;  900.625;  153.475;    0.000
378.022;  939.625;  163.475;    0.000
378.082;  968.625;  146.475;    0.000
378.142;  925.625;  152.475;    0.000
378.202;  915.625;  164.475;    0.000
378.262;  981.625;  195.475;    0.000
378.322;  956.625;  190.475;    0.000
378.382;  907.625;  152.475;    0.000
378.442;  939.625;  175.475;    0.000
378.502;  932.625;  153.475;    0.000
378.562;  915.625;  142.475;    0.000
378.622;  973.625;  166.475;    0.000
378.682;  980.625;  173.475;    0.000
378.742; 1008.625;  182.475;    0.000
378.802;  923.625;  145.475;    0.000
378.862; 1020.625;  210.475;    0.000
378.921;  923.625;  182.475;    0.000
378.981; 1005.625;  185.475;    0.000
379.041;  925.625;  130.475;    0.000
379.101;  994.625;  177.475;    0.000
379.161;  999.625;  166.475;    0.000
379.221;  996.625;  162.475;    0.000
379.281; 1039.625;  167.475;    0.000
379.341;  943.625;  136.475;    0.000
379.401;  988.625;  145.475;    0.000
379.460; 1040.625;  176.475;    0.000
379.520; 1041.625;  162.475;    0.000
379.580; 1012.625;  144.475;    0.000
379.640; 1028.625;  163.475;    0.000
379.700; 1025.625;  157.475;    0.000
379.759; 1071.625;  165.475;    0.000
379.819;  997.625;  190.475;    0.000
379.879; 1017.625;  143.475;    0.000
379.939; 1103.625;  188.475;    0.000
379.999; 1025.625;  141.475;    0.000
380.058; 1086.625;  169.475;    0.000
380.118; 1083.625;  158.475;    0.000
380.178; 1065.625;  114.475;    0.000
380.237; 1066.625;  157.475;    0.000
380.297; 1043.625;  177.475;    0.000
380.357; 1028.625;  189.475;    0.000
380.417; 1044.625;  182.475;    0.000
380.476; 1079.625;  178.475;    0.000
380.536; 1008.625;  189.475;    0.000
380.596; 1048.625;  183.475;    0.000
380.655; 1073.625;  195.475;    0.000
380.715; 1085.625;  170.475;    0.000
380.775; 1118.625;  170.475;    0.000
380.834; 1115.625;  179.475;    0.000
380.894; 1129.625;  188.475;    0.000
380.954; 1101.625;  142.475;    0.000
381.013; 1077.625;  178.475;    0.000
381.073; 1086.625;  164.475;    0.000
381.132; 1060.625;  192.475;    0.000
381.192; 1169.625;  187.475;    0.000
381.252; 1109.625;  176.475;    0.000
381.311; 1073.625;  206.475;    0.000
381.371; 1186.625;  167.475;    0.000
381.430; 1137.625;  131.475;    0.000
381.490; 1177.625;  150.475;    0.000
381.549; 1165.625;  129.475;    0.000
381.609; 1085.625;  178.475;    0.000
381.668; 1156.625;  194.475;    0.000
381.728; 1163.625;  210.475;    0.000
381.787; 1157.625;  190.475;    0.000
381.847; 1225.625;  181.475;    0.000
381.906; 1201.625;  156.475;    0.000
381.966; 1203.625;  176.475;    0.000
382.025; 1228.625;  186.475;    0.000
382.085; 1215.625;  192.475;    0.000
382.144; 1243.625;  173.475;    0.000
382.204; 1325.625;  207.475;    0.000
382.263; 1238.625;  193.475;    0.000
382.323; 1271.625;  164.475;    0.000
382.382; 1334.625;  161.475;    0.000
382.441; 1328.625;  199.475;    0.000
382.501; 1349.625;  208.475;    0.000
382.560; 1378.625;  173.475;    0.000
382.619; 1396.625;  179.475;    0.000
382.679; 1490.625;  177.475;    0.000
382.738; 1549.625;  190.475;    0.000
382.798; 1661.625;  213.475;    0.000
382.857; 1850.625;  195.475;    0.000
382.916; 2125.625;  184.475;    0.000
382.976; 2076.625;  169.475;    0.000
383.035; 2015.625;  194.475;    0.000
383.094; 2045.625;  185.475;    0.000
383.154; 2324.625;  198.475;    0.000
383.213; 2651.625;  147.475;    0.000
383.272; 2611.625;  175.475;    0.000
383.331; 2060.625;  122.475;    0.000
383.391; 1871.625;  185.475;    0.000
383.450; 1809.625;  160.475;    0.000
383.509; 1812.625;  168.475;    0.000
383.568; 1936.625;  196.475;    0.000
383.628; 1941.625;  156.475;    0.000
383.687; 2150.625;  171.475;    0.000
383.746; 2479.625;  155.475;    0.000
383.805; 3039.625;  201.475;    0.000
383.864; 2961.625;  125.475;    0.000
383.924; 2341.625;  213.475;    0.000
383.983; 1866.625;  188.475;    0.000
384.042; 1790.625;  162.475;    0.000
384.101; 1584.625;  183.475;    0.000
384.160; 1509.625;  155.475;    0.000
384.219; 1361.625;  155.475;    0.000
384.279; 1416.625;  189.475;    0.000
384.338; 1400.625;  156.475;    0.000
384.397; 1337.625;  148.475;    0.000
384.456; 1313.625;  154.475;    0.000
384.515; 1373.625;  160.475;    0.000
384.574; 1271.625;  223.475;    0.000
384.633; 1257.625;  133.475;    0.000
384.692; 1225.625;  163.475;    0.000
384.751; 1343.625;  186.475;    0.000
384.810; 1301.625;  187.475;    0.000
384.869; 1242.625;  172.475;    0.000
384.929; 1193.625;  153.475;    0.000
384.988; 1315.625;  174.475;    0.000
385.047; 1266.625;  154.475;    0.000
385.106; 1223.625;  164.475;    0.000
385.165; 1162.625;  151.475;    0.000
385.224; 1203.625;  147.475;    0.000
385.283; 1180.625;  176.475;    0.000
385.342; 1210.625;  142.475;    0.000
385.401; 1316.625;  175.475;    0.000
385.459; 1202.625;  150.475;    0.000
385.518; 1186.625;  124.475;    0.000
385.577; 1193.625;  115.475;    0.000
385.636; 1212.625;  174.475;    0.000
385.695; 1233.625;  158.475;    0.000
385.754; 1224.625;  150.475;    0.000
385.813; 1156.625;  129.475;    0.000
385.872; 1255.625;  146.475;    0.000
385.931; 1241.625;  194.475;    0.000
385.990; 1205.625;  174.475;    0.000
386.049; 1241.625;  176.475;    0.000
386.107; 1241.625;  151.475;    0.000
386.166; 1174.625;  178.475;    0.000
386.225; 1223.625;  162.475;    0.000
386.284; 1191.625;  180.475;    0.000
386.343; 1289.625;  171.475;    0.000
386.402; 1195.625;  176.475;    0.000
386.460; 1256.625;  144.475;    0.000
386.519; 1172.625;  140.475;    0.000
386.578; 1270.625;  145.475;    0.000
386.637; 1133.625;  164.475;    0.000
386.696; 1162.625;  189.475;    0.000
386.754; 1171.625;  135.475;    0.000
386.813; 1197.625;  139.475;    0.000
386.872; 1172.625;  121.475;    0.000
386.931; 1175.625;  153.475;    0.000
386.989; 1286.625;  211.475;    0.000
387.048; 1248.625;  156.475;    0.000
387.107; 1177.625;  210.475;    0.000
387.165; 1147.625;  129.475;    0.000
387.224; 1212.625;  205.475;    0.000
387.283; 1200.625;  130.475;    0.000
387.342; 1259.625;  171.475;    0.000
387.400; 1165.625;  156.475;    0.000
387.459; 1218.625;  141.475;    0.000
387.517; 1183.625;  219.475;    0.000
387.576; 1151.625;  166.475;    0.000
387.635; 1198.625;  136.475;    0.000
387.693; 1205.625;  191.475;    0.000
387.752; 1158.625;  165.475;    0.000
387.811; 1136.625;  158.475;    0.000
387.869; 1188.625;  204.475;    0.000
387.928; 1188.625;  149.475;    0.000
387.986; 1251.625;  156.475;    0.000
388.045; 1132.625;  123.475;    0.000
388.103; 1149.625;  150.475;    0.000
388.162; 1179.625;  173.475;    0.000
388.221; 1153.625;  143.475;    0.000
388.279; 1098.625;  129.475;    0.000
388.338; 1157.625;  212.475;    0.000
388.396; 1095.625;  150.475;    0.000
388.455; 1160.625;  167.475;    0.000
388.513; 1097.625;  116.475;    0.000
388.572; 1152.625;  181.475;    0.000
388.630; 1113.625;  187.475;    0.000
388.689; 1200.625;  180.475;    0.000
388.747; 1215.625;  154.475;    0.000
388.806; 1093.625;  161.475;    0.000
388.864; 1123.625;  167.475;    0.000
388.922; 1205.625;  184.475;    0.000
388.981; 1103.625;  169.475;    0.000
389.039; 1192.625;  102.475;    0.000
389.098; 1179.625;  183.475;    0.000
389.156; 1164.625;  182.475;    0.000
389.214; 1211.625;  173.475;    0.000
389.273; 1186.625;  167.475;    0.000
389.331; 1149.625;  170.475;    0.000
389.390; 1112.625;  150.475;    0.000
389.448; 1125.625;  156.475;    0.000
389.506; 1144.625;  149.475;    0.000
389.565; 1222.625;  162.475;    0.000
389.623; 1111.625;  188.475;    0.000
389.681; 1191.625;  204.475;    0.000
389.740; 1127.625;  187.475;    0.000
389.798; 1137.625;  153.475;    0.000
389.856; 1170.625;  214.475;    0.000
389.914; 1088.625;  177.475;    0.000
389.973; 1192.625;  189.475;    0.000
390.031; 1110.625;  178.475;    0.000
390.089; 1157.625;  163.475;    0.000
390.147; 1162.625;  170.475;    0.000
390.206; 1135.625;  183.475;    0.000
390.264; 1183.625;  161.475;    0.000
390.322; 1190.625;  148.475;    0.000
390.380; 1139.625;  138.475;    0.000
390.439; 1150.625;  194.475;    0.000
390.497; 1166.625;  170.475;    0.000
390.555; 1196.625;  165.475;    0.000
390.613; 1208.625;  177.475;    0.000
390.671; 1126.625;  170.475;    0.000
390.729; 1178.625;  158.475;    0.000
390.788; 1168.625;  162.475;    0.000
390.846; 1131.625;  161.475;    0.000
390.904; 1175.625;  197.475;    0.000
390.962; 1210.625;  212.475;    0.000
391.020; 1184.625;  224.475;    0.000
391.078; 1151.625;  184.475;    0.000
391.136; 1184.625;  191.475;    0.000
391.194; 1226.625;  187.475;    0.000
391.253; 1128.625;  197.475;    0.000
391.311; 1121.625;  185.475;    0.000
391.369; 1224.625;  207.475;    0.000
391.427; 1251.625;  222.475;    0.000
391.485; 1212.625;  184.475;    0.000
391.543; 1135.625;  203.475;    0.000
391.601; 1169.625;  151.475;    0.000
391.659; 1157.625;  176.475;    0.000
391.717; 1188.625;  190.475;    0.000
391.775; 1181.625;  159.475;    0.000
391.833; 1214.625;  186.475;    0.000
391.891; 1179.625;  154.475;    0.000
391.949; 1129.625;  181.475;    0.000
392.007; 1231.625;  190.475;    0.000
392.065; 1173.625;  182.475;    0.000
392.123; 1140.625;  158.475;    0.000
392.180; 1256.625;  198.475;    0.000
392.238; 1215.625;  191.475;    0.000
392.296; 1174.625;  164.475;    0.000
392.354; 1173.625;  172.475;    0.000
392.412; 1183.625;  194.475;    0.000
392.470; 1207.625;  154.475;    0.000
392.528; 1134.625;  172.475;    0.000
392.586; 1208.625;  179.475;    0.000
392.644; 1215.625;  173.475;    0.000
392.701; 1182.625;  202.475;    0.000
392.759; 1192.625;  180.475;    0.000
392.817; 1234.625;  181.475;    0.000
392.875; 1171.625;  168.475;    0.000
392.933; 1256.625;  161.475;    0.000
392.991; 1194.625;  216.475;    0.000
393.048; 1193.625;  197.475;    0.000
393.106; 1226.625;  199.475;    0.000
393.164; 1190.625;  173.475;    0.000
393.222; 1161.625;  179.475;    0.000
393.279; 1316.625;  209.475;    0.000
393.337; 1339.625;  185.475;    0.000
393.395; 1300.625;  174.475;    0.000
393.453; 1270.625;  181.475;    0.000
393.510; 1243.625;  188.475;    0.000
393.568; 1263.625;  191.475;    0.000
393.626; 1236.625;  151.475;    0.000
393.684; 1221.625;  208.475;    0.000
393.741; 1236.625;  179.475;    0.000
393.799; 1258.625;  149.475;    0.000
393.857; 1178.625;  136.475;    0.000
393.914; 1225.625;  190.475;    0.000
393.972; 1157.625;  155.475;    0.000
394.030; 1257.625;  170.475;    0.000
394.087; 1216.625;  213.475;    0.000
394.145; 1232.625;  191.475;    0.000
394.202; 1221.625;  188.475;    0.000
394.260; 1229.625;  168.475;    0.000
394.318; 1231.625;  176.475;    0.000
394.375; 1207.625;  159.475;    0.000
394.433; 1261.625;  168.475;    0.000
394.490; 1221.625;  163.475;    0.000
394.548; 1203.625;  163.475;    0.000
394.605; 1216.625;  181.475;    0.000
394.663; 1264.625;  180.475;    0.000
394.720; 1255.625;  193.475;    0.000
394.778; 1261.625;  168.475;    0.000
394.836; 1266.625;  128.475;    0.000
394.893; 1267.625;  151.475;    0.000
394.951; 1211.625;  173.475;    0.000
395.008; 1262.625;  201.475;    0.000
395.065; 1227.625;  139.475;    0.000
395.123; 1274.625;  173.475;    0.000
395.180; 1256.625;  144.475;    0.000
395.238; 1206.625;  135.475;    0.000
395.295; 1274.625;  167.475;    0.000
395.353; 1220.625;  150.475;    0.000
395.410; 1204.625;  165.475;    0.000
395.468; 1253.625;  223.475;    0.000
395.525; 1256.625;  156.475;    0.000
395.582; 1262.625;  178.475;    0.000
395.640; 1279.625;  178.475;    0.000
395.697; 1305.625;  173.475;    0.000
395.754; 1283.625;  154.475;    0.000
395.812; 1313.625;  169.475;    0.000
395.869; 1288.625;  196.475;    0.000
395.927; 1300.625;  190.475;    0.000
395.984; 1273.625;  195.475;    0.000
396.041; 1292.625;  160.475;    0.000
396.098; 1275.625;  161.475;    0.000
396.156; 1313.625;  187.475;    0.000
396.213; 1291.625;  200.475;    0.000
396.270; 1333.625;  160.475;    0.000
396.328; 1261.625;  113.475;    0.000
396.385; 1252.625;  165.475;    0.000
396.442; 1307.625;  168.475;    0.000
396.499; 1276.625;  117.475;    0.000
396.557; 1249.625;  203.475;    0.000
396.614; 1341.625;  155.475;    0.000
396.671; 1307.625;  187.475;    0.000
396.728; 1346.625;  169.475;    0.000
396.785; 1373.625;  167.475;    0.000
396.843; 1427.625;  154.475;    0.000
396.900; 1311.625;  172.475;    0.000
396.957; 1368.625;  176.475;    0.000
397.014; 1388.625;  193.475;    0.000
397.071; 1335.625;  170.475;    0.000
397.128; 1388.625;  172.475;    0.000
397.186; 1406.625;  205.475;    0.000
397.243; 1369.625;  163.475;    0.000
397.300; 1345.625;  193.475;    0.000
397.357; 1366.625;  166.475;    0.000
397.414; 1393.625;  149.475;    0.000
397.471; 1334.625;  157.475;    0.000
397.528; 1331.625;  180.475;    0.000
397.585; 1281.625;  203.475;    0.000
397.642; 1334.625;  156.475;    0.000
397.699; 1343.625;  229.475;    0.000
397.756; 1364.625;  185.475;    0.000
397.814; 1388.625;  191.475;    0.000
397.871; 1403.625;  170.475;    0.000
397.928; 1334.625;  191.475;    0.000
397.985; 1322.625;  183.475;    0.000
398.042; 1377.625;  161.475;    0.000
398.099; 1381.625;  192.475;    0.000
398.156; 1408.625;  176.475;    0.000
398.212; 1380.625;  170.475;    0.000
398.269; 1426.625;  158.475;    0.000
398.326; 1453.625;  175.475;    0.000
398.383; 1385.625;  177.475;    0.000
398.440; 1391.625;  169.475;    0.000
398.497; 1443.625;  184.475;    0.000
398.554; 1396.625;  196.475;    0.000
398.611; 1357.625;  198.475;    0.000
398.668; 1381.625;  135.475;    0.000
398.725; 1406.625;  181.475;    0.000
398.782; 1440.625;  195.475;    0.000
398.839; 1465.625;  179.475;    0.000
398.895; 1421.625;  188.475;    0.000
398.952; 1445.625;  176.475;    0.000
399.009; 1468.625;  183.475;    0.000
399.066; 1399.625;  190.475;    0.000
399.123; 1501.625;  174.475;    0.000
399.180; 1459.625;  191.475;    0.000
399.236; 1527.625;  217.475;    0.000
399.293; 1475.625;  154.475;    0.000
399.350; 1526.625;  210.475;    0.000
399.407; 1479.625;  202.475;    0.000
399.463; 1512.625;  162.475;    0.000
399.520; 1478.625;  207.475;    0.000
399.577; 1532.625;  174.475;    0.000
399.634; 1576.625;  170.475;    0.000
399.690; 1476.625;  186.475;    0.000
399.747; 1591.625;  218.475;    0.000
399.804; 1572.625;  200.475;    0.000
399.861; 1539.625;  190.475;    0.000
399.917; 1543.625;  218.475;    0.000
399.974; 1531.625;  200.475;    0.000
400.031; 1616.625;  200.475;    0.000
400.087; 1541.625;  153.475;    0.000
400.144; 1578.625;  188.475;    0.000
400.201; 1556.625;  198.475;    0.000
400.257; 1472.625;  205.475;    0.000
400.314; 1511.625;  183.475;    0.000
400.370; 1525.625;  227.475;    0.000
400.427; 1566.625;  177.475;    0.000
400.484; 1509.625;  202.475;    0.000
400.540; 1515.625;  173.475;    0.000
400.597; 1472.625;  212.475;    0.000
400.653; 1525.625;  182.475;    0.000
400.710; 1474.625;  201.475;    0.000
400.766; 1529.625;  188.475;    0.000
400.823; 1510.625;  205.475;    0.000
400.879; 1449.625;  165.475;    0.000
400.936; 1535.625;  180.475;    0.000
400.993; 1530.625;  181.475;    0.000
401.049; 1505.625;  147.475;    0.000
401.105; 1514.625;  205.475;    0.000
401.162; 1505.625;  197.475;    0.000
401.218; 1538.625;  177.475;    0.000
401.275; 1486.625;  183.475;    0.000
401.331; 1523.625;  198.475;    0.000
401.388; 1456.625;  209.475;    0.000
401.444; 1449.625;  211.475;    0.000
401.501; 1572.625;  185.475;    0.000
401.557; 1520.625;  190.475;    0.000
401.614; 1480.625;  172.475;    0.000
401.670; 1459.625;  185.475;    0.000
401.726; 1527.625;  196.475;    0.000
401.783; 1487.625;  187.475;    0.000
401.839; 1531.625;  192.475;    0.000
401.895; 1537.625;  173.475;    0.000
401.952; 1500.625;  145.475;    0.000
402.008; 1468.625;  197.475;    0.000
402.064; 1474.625;  146.475;    0.000
402.121; 1506.625;  197.475;    0.000
402.177; 1451.625;  173.475;    0.000
402.233; 1501.625;  185.475;    0.000
402.290; 1517.625;  175.475;    0.000
402.346; 1492.625;  164.475;    0.000
402.402; 1498.625;  173.475;    0.000
402.458; 1514.625;  183.475;    0.000
402.515; 1493.625;  147.475;    0.000
402.571; 1491.625;  210.475;    0.000
402.627; 1531.625;  181.475;    0.000
402.683; 1486.625;  177.475;    0.000
402.740; 1470.625;  162.475;    0.000
402.796; 1517.625;  178.475;    0.000
402.852; 1520.625;  138.475;    0.000
402.908; 1562.625;  181.475;    0.000
402.964; 1526.625;  151.475;    0.000
403.021; 1442.625;  170.475;    0.000
403.077; 1545.625;  204.475;    0.000
403.133; 1471.625;  144.475;    0.000
403.189; 1530.625;  207.475;    0.000
403.245; 1558.625;  184.475;    0.000
403.301; 1590.625;  170.475;    0.000
403.357; 1551.625;  201.475;    0.000
403.414; 1542.625;  205.475;    0.000
403.470; 1574.625;  170.475;    0.000
403.526; 1598.625;  135.475;    0.000
403.582; 1518.625;  180.475;    0.000
403.638; 1574.625;  185.475;    0.000
403.694; 1546.625;  169.475;    0.000
403.750; 1608.625;  210.475;    0.000
403.806; 1528.625;  210.475;    0.000
403.862; 1556.625;  219.475;    0.000
403.918; 1590.625;  191.475;    0.000
403.974; 1580.625;  193.475;    0.000
404.030; 1579.625;  154.475;    0.000
404.086; 1571.625;  170.475;    0.000
404.142; 1633.625;  194.475;    0.000
404.198; 1622.625;  224.475;    0.000
404.254; 1635.625;  177.475;    0.000
404.310; 1618.625;  204.475;    0.000
404.366; 1588.625;  170.475;    0.000
404.422; 1573.625;  172.475;    0.000
404.478; 1554.625;  153.475;    0.000
404.534; 1616.625;  159.475;    0.000
404.590; 1556.625;  203.475;    0.000
404.646; 1553.625;  164.475;    0.000
404.701; 1481.625;  141.475;    0.000
404.757; 1548.625;  195.475;    0.000
404.813; 1589.625;  152.475;    0.000
404.869; 1641.625;  174.475;    0.000
404.925; 1625.625;  167.475;    0.000
404.981; 1643.625;  175.475;    0.000
405.037; 1667.625;  170.475;    0.000
405.092; 1555.625;  155.475;    0.000
405.148; 1615.625;  160.475;    0.000
405.204; 1589.625;  158.475;    0.000
405.260; 1618.625;  128.475;    0.000
405.316; 1528.625;  168.475;    0.000
405.371; 1672.625;  162.475;    0.000
405.427; 1584.625;  187.475;    0.000
405.483; 1593.625;  214.475;    0.000
405.539; 1622.625;  163.475;    0.000
405.594; 1575.625;  191.475;    0.000
405.650; 1559.625;  124.475;    0.000
405.706; 1629.625;  188.475;    0.000
405.761; 1621.625;  204.475;    0.000
405.817; 1580.625;  150.475;    0.000
405.873; 1682.625;  152.475;    0.000
405.928; 1584.625;  135.475;    0.000
405.984; 1665.625;  209.475;    0.000
406.040; 1601.625;  165.475;    0.000
406.095; 1621.625;  146.475;    0.000
406.151; 1652.625;  169.475;    0.000
406.207; 1663.625;  174.475;    0.000
406.262; 1683.625;  189.475;    0.000
406.318; 1683.625;  141.475;    0.000
406.374; 1653.625;  178.475;    0.000
406.429; 1639.625;  197.475;    0.000
406.485; 1700.625;  194.475;    0.000
406.540; 1738.625;  149.475;    0.000
406.596; 1632.625;  173.475;    0.000
406.651; 1731.625;  154.475;    0.000
406.707; 1712.625;  183.475;    0.000
406.763; 1783.625;  156.475;    0.000
406.818; 1686.625;  181.475;    0.000
406.874; 1615.625;  135.475;    0.000
406.929; 1822.625;  194.475;    0.000
406.985; 1719.625;  166.475;    0.000
407.040; 1734.625;  207.475;    0.000
407.095; 1702.625;  213.475;    0.000
407.151; 1684.625;  198.475;    0.000
407.206; 1780.625;  186.475;    0.000
407.262; 1774.625;  148.475;    0.000
407.317; 1844.625;  212.475;    0.000
407.373; 1796.625;  209.475;    0.000
407.428; 1847.625;  218.475;    0.000
407.484; 1847.625;  158.475;    0.000
407.539; 1818.625;  165.475;    0.000
407.594; 1787.625;  197.475;    0.000
407.650; 1781.625;  177.475;    0.000
407.705; 1802.625;  154.475;    0.000
407.760; 1762.625;  198.475;    0.000
407.816; 1870.625;  181.475;    0.000
407.871; 1762.625;  185.475;    0.000
407.926; 1819.625;  167.475;    0.000
407.982; 1770.625;  172.475;    0.000
408.037; 1836.625;  202.475;    0.000
408.092; 1802.625;  201.475;    0.000
408.148; 1788.625;  199.475;    0.000
408.203; 1812.625;  174.475;    0.000
408.258; 1780.625;  157.475;    0.000
408.314; 1817.625;  194.475;    0.000
408.369; 1714.625;  189.475;    0.000
408.424; 1823.625;  204.475;    0.000
408.479; 1733.625;  192.475;    0.000
408.534; 1745.625;  215.475;    0.000
408.590; 1705.625;  190.475;    0.000
408.645; 1764.625;  159.475;    0.000
408.700; 1774.625;  191.475;    0.000
408.755; 1799.625;  217.475;    0.000
408.810; 1781.625;  158.475;    0.000
408.866; 1775.625;  166.475;    0.000
408.921; 1769.625;  214.475;    0.000
408.976; 1768.625;  158.475;    0.000
409.031; 1698.625;  185.475;    0.000
409.086; 1781.625;  158.475;    0.000
409.141; 1824.625;  180.475;    0.000
409.196; 1725.625;  188.475;    0.000
409.252; 1795.625;  186.475;    0.000
409.307; 1772.625;  135.475;    0.000
409.362; 1731.625;  162.475;    0.000
409.417; 1773.625;  149.475;    0.000
409.472; 1755.625;  205.475;    0.000
409.527; 1836.625;  184.475;    0.000
409.582; 1707.625;  174.475;    0.000
409.637; 1830.625;  188.475;    0.000
409.692; 1841.625;  211.475;    0.000
409.747; 1730.625;  159.475;    0.000
409.802; 1807.625;  199.475;    0.000
409.857; 1776.625;  118.475;    0.000
409.912; 1826.625;  177.475;    0.000
409.967; 1751.625;  182.475;    0.000
410.022; 1756.625;  188.475;    0.000
410.077; 1812.625;  204.475;    0.000
410.132; 1759.625;  174.475;    0.000
410.187; 1744.625;  169.475;    0.000
410.242; 1740.625;  178.475;    0.000
410.297; 1861.625;  185.475;    0.000
410.351; 1849.625;  203.475;    0.000
410.406; 1810.625;  180.475;    0.000
410.461; 1755.625;  213.475;    0.000
410.516; 1757.625;  198.475;    0.000
410.571; 1767.625;  171.475;    0.000
410.626; 1759.625;  186.475;    0.000
410.681; 1794.625;  187.475;    0.000
410.736; 1750.625;  147.475;    0.000
410.790; 1747.625;  186.475;    0.000
410.845; 1748.625;  152.475;    0.000
410.900; 1756.625;  202.475;    0.000
410.955; 1800.625;  196.475;    0.000
411.010; 1792.625;  150.475;    0.000
411.064; 1780.625;  200.475;    0.000
411.119; 1761.625;  203.475;    0.000
411.174; 1813.625;  176.475;    0.000
411.229; 1801.625;  203.475;    0.000
411.283; 1779.625;  176.475;    0.000
411.338; 1805.625;  153.475;    0.000
411.393; 1845.625;  168.475;    0.000
411.447; 1781.625;  223.475;    0.000
411.502; 1823.625;  238.475;    0.000
411.557; 1740.625;  179.475;    0.000
411.612; 1723.625;  159.475;    0.000
411.666; 1811.625;  189.475;    0.000
411.721; 1781.625;  212.475;    0.000
411.776; 1820.625;  242.475;    0.000
411.830; 1825.625;  194.475;    0.000
411.885; 1790.625;  188.475;    0.000
411.939; 1884.625;  245.475;    0.000
411.994; 1761.625;  177.475;    0.000
412.049; 1847.625;  170.475;    0.000
412.103; 1811.625;  196.475;    0.000
412.158; 1882.625;  215.475;    0.000
412.212; 1753.625;  199.475;    0.000
412.267; 1745.625;  191.475;    0.000
412.322; 1892.625;  238.475;    0.000
412.376; 1872.625;  243.475;    0.000
412.431; 1772.625;  214.475;    0.000
412.485; 1803.625;  210.475;    0.000
412.540; 1769.625;  200.475;    0.000
412.594; 1757.625;  174.475;    0.000
412.649; 1799.625;  246.475;    0.000
412.703; 1747.625;  182.475;    0.000
412.758; 1864.625;  222.475;    0.000
412.812; 1735.625;  201.475;    0.000
412.866; 1801.625;  162.475;    0.000
412.921; 1752.625;  202.475;    0.000
412.975; 1786.625;  212.475;    0.000
413.030; 1743.625;  238.475;    0.000
413.084; 1806.625;  201.475;    0.000
413.139; 1801.625;  210.475;    0.000
413.193; 1765.625;  218.475;    0.000
413.247; 1768.625;  203.475;    0.000
413.302; 1862.625;  176.475;    0.000
413.356; 1782.625;  215.475;    0.000
413.410; 1767.625;  204.475;    0.000
413.465; 1751.625;  186.475;    0.000
413.519; 1815.625;  196.475;    0.000
413.573; 1760.625;  181.475;    0.000
413.628; 1788.625;  200.475;    0.000
413.682; 1858.625;  157.475;    0.000
413.736; 1808.625;  194.475;    0.000
413.791; 1760.625;  193.475;    0.000
413.845; 1737.625;  225.475;    0.000
413.899; 1811.625;  195.475;    0.000
413.953; 1800.625;  173.475;    0.000
414.008; 1777.625;  186.475;    0.000
414.062; 1811.625;  217.475;    0.000
414.116; 1689.625;  169.475;    0.000
414.170; 1764.625;  228.475;    0.000
414.225; 1703.625;  177.475;    0.000
414.279; 1811.625;  210.475;    0.000
414.333; 1794.625;  207.475;    0.000
414.387; 1807.625;  217.475;    0.000
414.441; 1827.625;  187.475;    0.000
414.496; 1778.625;  215.475;    0.000
414.550; 1770.625;  204.475;    0.000
414.604; 1822.625;  206.475;    0.000
414.658; 1784.625;  139.475;    0.000
414.712; 1760.625;  198.475;    0.000
414.766; 1750.625;  208.475;    0.000
414.820; 1766.625;  199.475;    0.000
414.874; 1768.625;  216.475;    0.000
414.928; 1809.625;  186.475;    0.000
414.982; 1809.625;  176.475;    0.000
415.037; 1778.625;  181.475;    0.000
415.091; 1890.625;  208.475;    0.000
415.145; 1769.625;  209.475;    0.000
415.199; 1761.625;  186.475;    0.000
415.253; 1785.625;  203.475;    0.000
415.307; 1804.625;  197.475;    0.000
415.361; 1808.625;  223.475;    0.000
415.415; 1749.625;  213.475;    0.000
415.469; 1863.625;  226.475;    0.000
415.523; 1763.625;  222.475;    0.000
415.577; 1837.625;  205.475;    0.000
415.631; 1857.625;  224.475;    0.000
415.684; 1861.625;  193.475;    0.000
415.738; 1724.625;  224.475;    0.000
415.792; 1836.625;  204.475;    0.000
415.846; 1815.625;  189.475;    0.000
415.900; 1775.625;  223.475;    0.000
415.954; 1753.625;  187.475;    0.000
416.008; 1867.625;  237.475;    0.000
416.062; 1713.625;  195.475;    0.000
416.116; 1762.625;  223.475;    0.000
416.169; 1790.625;  210.475;    0.000
416.223; 1851.625;  232.475;    0.000
416.277; 1818.625;  227.475;    0.000
416.331; 1733.625;  216.475;    0.000
416.385; 1750.625;  186.475;    0.000
416.439; 1794.625;  226.475;    0.000
416.492; 1832.625;  229.475;    0.000
416.546; 1788.625;  216.475;    0.000
416.600; 1749.625;  211.475;    0.000
416.654; 1790.625;  226.475;    0.000
416.707; 1810.625;  248.475;    0.000
416.761; 1769.625;  217.475;    0.000
416.815; 1819.625;  207.475;    0.000
416.869; 1763.625;  226.475;    0.000
416.922; 1852.625;  192.475;    0.000
416.976; 1820.625;  205.475;    0.000
417.030; 1799.625;  233.475;    0.000
417.083; 1778.625;  226.475;    0.000
417.137; 1884.625;  222.475;    0.000
417.191; 1773.625;  217.475;    0.000
417.244; 1819.625;  221.475;    0.000
417.298; 1806.625;  201.475;    0.000
417.352; 1752.625;  170.475;    0.000
417.405; 1811.625;  234.475;    0.000
417.459; 1729.625;  241.475;    0.000
417.512; 1750.625;  247.475;    0.000
417.566; 1756.625;  219.475;    0.000
417.620; 1737.625;  228.475;    0.000
417.673; 1748.625;  192.475;    0.000
417.727; 1759.625;  203.475;    0.000
417.780; 1778.625;  204.475;    0.000
417.834; 1763.625;  234.475;    0.000
417.887; 1767.625;  245.475;    0.000
417.941; 1769.625;  211.475;    0.000
417.994; 1796.625;  244.475;    0.000
418.048; 1772.625;  203.475;    0.000
418.101; 1708.625;  212.475;    0.000
418.155; 1786.625;  251.475;    0.000
418.208; 1873.625;  286.475;    0.000
418.262; 1847.625;  243.475;    0.000
418.315; 1809.625;  214.475;    0.000
418.369; 1771.625;  269.475;    0.000
418.422; 1728.625;  222.475;    0.000
418.476; 1739.625;  226.475;    0.000
418.529; 1804.625;  238.475;    0.000
418.582; 1845.625;  210.475;    0.000
418.636; 1830.625;  221.475;    0.000
418.689; 1823.625;  224.475;    0.000
418.743; 1818.625;  228.475;    0.000
418.796; 1757.625;  192.475;    0.000
418.849; 1799.625;  230.475;    0.000
418.903; 1698.625;  257.475;    0.000
418.956; 1834.625;  241.475;    0.000
419.009; 1858.625;  247.475;    0.000
419.063; 1793.625;  235.475;    0.000
419.116; 1774.625;  218.475;    0.000
419.169; 1890.625;  219.475;    0.000
419.222; 1826.625;  215.475;    0.000
419.276; 1800.625;  202.475;    0.000
419.329; 1787.625;  210.475;    0.000
419.382; 1760.625;  188.475;    0.000
419.435; 1770.625;  222.475;    0.000
419.489; 1846.625;  232.475;    0.000
419.542; 1779.625;  250.475;    0.000
419.595; 1798.625;  240.475;    0.000
419.648; 1783.625;  261.475;    0.000
419.701; 1686.625;  222.475;    0.000
419.755; 1724.625;  233.475;    0.000
419.808; 1832.625;  178.475;    0.000
419.861; 1798.625;  207.475;    0.000
419.914; 1770.625;  223.475;    0.000
419.967; 1742.625;  216.475;    0.000
420.020; 1785.625;  211.475;    0.000
420.073; 1785.625;  200.475;    0.000
420.127; 1730.625;  248.475;    0.000
420.180; 1764.625;  220.475;    0.000
420.233; 1734.625;  215.475;    0.000
420.286; 1697.625;  222.475;    0.000
420.339; 1761.625;  229.475;    0.000
420.392; 1826.625;  245.475;    0.000
420.445; 1683.625;  221.475;    0.000
420.498; 1740.625;  224.475;    0.000
420.551; 1719.625;  170.475;    0.000
420.604; 1795.625;  237.475;    0.000
420.657; 1764.625;  235.475;    0.000
420.710; 1738.625;  223.475;    0.000
420.763; 1777.625;  219.475;    0.000
420.816; 1704.625;  200.475;    0.000
420.869; 1668.625;  197.475;    0.000
420.922; 1723.625;  212.475;    0.000
420.975; 1778.625;  274.475;    0.000
421.028; 1705.625;  228.475;    0.000
421.081; 1687.625;  243.475;    0.000
421.134; 1683.625;  227.475;    0.000
421.187; 1686.625;  245.475;    0.000
421.239; 1682.625;  210.475;    0.000
421.292; 1741.625;  193.475;    0.000
421.345; 1664.625;  226.475;    0.000
421.398; 1706.625;  226.475;    0.000
421.451; 1746.625;  259.475;    0.000
421.504; 1612.625;  204.475;    0.000
421.557; 1761.625;  215.475;    0.000
421.609; 1703.625;  194.475;    0.000
421.662; 1672.625;  216.475;    0.000
421.715; 1656.625;  226.475;    0.000
421.768; 1685.625;  177.475;    0.000
421.821; 1677.625;  210.475;    0.000
421.873; 1736.625;  208.475;    0.000
421.926; 1695.625;  223.475;    0.000
421.979; 1749.625;  230.475;    0.000
422.032; 1759.625;  227.475;    0.000
422.084; 1643.625;  234.475;    0.000
422.137; 1667.625;  207.475;    0.000
422.190; 1656.625;  228.475;    0.000
422.243; 1717.625;  206.475;    0.000
422.295; 1732.625;  236.475;    0.000
422.348; 1682.625;  232.475;    0.000
422.401; 1708.625;  228.475;    0.000
422.453; 1743.625;  239.475;    0.000
422.506; 1675.625;  226.475;    0.000
422.559; 1693.625;  205.475;    0.000
422.611; 1690.625;  235.475;    0.000
422.664; 1753.625;  231.475;    0.000
422.716; 1762.625;  228.475;    0.000
422.769; 1684.625;  204.475;    0.000
422.822; 1765.625;  205.475;    0.000
422.874; 1680.625;  228.475;    0.000
422.927; 1703.625;  266.475;    0.000
422.979; 1624.625;  223.475;    0.000
423.032; 1717.625;  207.475;    0.000
423.084; 1627.625;  211.475;    0.000
423.137; 1685.625;  205.475;    0.000
423.189; 1658.625;  254.475;    0.000
423.242; 1673.625;  208.475;    0.000
423.294; 1667.625;  240.475;    0.000
423.347; 1670.625;  218.475;    0.000
423.399; 1739.625;  237.475;    0.000
423.452; 1686.625;  242.475;    0.000
423.504; 1643.625;  225.475;    0.000
423.557; 1648.625;  195.475;    0.000
423.609; 1626.625;  206.475;    0.000
423.662; 1676.625;  211.475;    0.000
423.714; 1652.625;  252.475;    0.000
423.766; 1664.625;  181.475;    0.000
423.819; 1679.625;  216.475;    0.000
423.871; 1614.625;  216.475;    0.000
423.923; 1651.625;  222.475;    0.000
423.976; 1661.625;  223.475;    0.000
424.028; 1655.625;  229.475;    0.000
424.081; 1702.625;  267.475;    0.000
424.133; 1652.625;  251.475;    0.000
424.185; 1656.625;  238.475;    0.000
424.238; 1641.625;  220.475;    0.000
424.290; 1664.625;  259.475;    0.000
424.342; 1634.625;  248.475;    0.000
424.394; 1623.625;  234.475;    0.000
424.447; 1643.625;  248.475;    0.000
424.499; 1621.625;  233.475;    0.000
424.551; 1719.625;  236.475;    0.000
424.603; 1688.625;  207.475;    0.000
424.656; 1624.625;  210.475;    0.000
424.708; 1642.625;  251.475;    0.000
424.760; 1609.625;  221.475;    0.000
424.812; 1694.625;  275.475;    0.000
424.864; 1609.625;  206.475;    0.000
424.917; 1639.625;  198.475;    0.000
424.969; 1630.625;  246.475;    0.000
425.021; 1635.625;  209.475;    0.000
425.073; 1666.625;  242.475;    0.000
425.125; 1583.625;  254.475;    0.000
425.177; 1688.625;  224.475;    0.000
425.229; 1640.625;  256.475;    0.000
425.282; 1628.625;  265.475;    0.000
425.334; 1606.625;  266.475;    0.000
425.386; 1662.625;  242.475;    0.000
425.438; 1645.625;  205.475;    0.000
425.490; 1663.625;  227.475;    0.000
425.542; 1635.625;  235.475;    0.000
425.594; 1578.625;  210.475;    0.000
425.646; 1618.625;  232.475;    0.000
425.698; 1645.625;  243.475;    0.000
425.750; 1606.625;  230.475;    0.000
425.802; 1576.625;  218.475;    0.000
425.854; 1628.625;  222.475;    0.000
425.906; 1672.625;  235.475;    0.000
425.958; 1575.625;  220.475;    0.000
426.010; 1594.625;  236.475;    0.000
426.062; 1607.625;  230.475;    0.000
426.114; 1541.625;  216.475;    0.000
426.166; 1623.625;  230.475;    0.000
426.218; 1652.625;  237.475;    0.000
426.270; 1536.625;  217.475;    0.000
426.321; 1522.625;  224.475;    0.000
426.373; 1527.625;  207.475;    0.000
426.425; 1638.625;  278.475;    0.000
426.477; 1607.625;  243.475;    0.000
426.529; 1603.625;  247.475;    0.000
426.581; 1612.625;  229.475;    0.000
426.633; 1672.625;  212.475;    0.000
426.684; 1616.625;  244.475;    0.000
426.736; 1590.625;  250.475;    0.000
426.788; 1552.625;  210.475;    0.000
426.840; 1567.625;  201.475;    0.000
426.892; 1609.625;  225.475;    0.000
426.943; 1583.625;  215.475;    0.000
426.995; 1560.625;  216.475;    0.000
427.047; 1607.625;  216.475;    0.000
427.099; 1574.625;  203.475;    0.000
427.150; 1543.625;  195.475;    0.000
427.202; 1550.625;  212.475;    0.000
427.254; 1515.625;  233.475;    0.000
427.306; 1584.625;  211.475;    0.000
427.357; 1546.625;  210.475;    0.000
427.409; 1584.625;  244.475;    0.000
427.461; 1532.625;  187.475;    0.000
427.512; 1518.625;  227.475;    0.000
427.564; 1591.625;  210.475;    0.000
427.616; 1560.625;  202.475;    0.000
427.667; 1589.625;  185.475;    0.000
427.719; 1487.625;  222.475;    0.000
427.770; 1522.625;  230.475;    0.000
427.822; 1626.625;  254.475;    0.000
427.874; 1587.625;  222.475;    0.000
427.925; 1529.625;  199.475;    0.000
427.977; 1506.625;  228.475;    0.000
428.028; 1494.625;  226.475;    0.000
428.080; 1594.625;  236.475;    0.000
428.131; 1546.625;  220.475;    0.000
428.183; 1543.625;  256.475;    0.000
428.234; 1628.625;  217.475;    0.000
428.286; 1494.625;  234.475;    0.000
428.337; 1520.625;  209.475;    0.000
428.389; 1524.625;  219.475;    0.000
428.440; 1574.625;  249.475;    0.000
428.492; 1585.625;  255.475;    0.000
428.543; 1502.625;  224.475;    0.000
428.595; 1569.625;  225.475;    0.000
428.646; 1505.625;  240.475;    0.000
428.697; 1526.625;  211.475;    0.000
428.749; 1585.625;  200.475;    0.000
428.800; 1594.625;  235.475;    0.000
428.852; 1541.625;  265.475;    0.000
428.903; 1591.625;  201.475;    0.000
428.954; 1542.625;  242.475;    0.000
429.006; 1569.625;  245.475;    0.000
429.057; 1506.625;  252.475;    0.000
429.108; 1569.625;  211.475;    0.000
429.160; 1540.625;  217.475;    0.000
429.211; 1530.625;  234.475;    0.000
429.262; 1565.625;  205.475;    0.000
429.314; 1544.625;  211.475;    0.000
429.365; 1511.625;  240.475;    0.000
429.416; 1521.625;  263.475;    0.000
429.467; 1518.625;  244.475;    0.000
429.519; 1553.625;  223.475;    0.000
429.570; 1505.625;  214.475;    0.000
429.621; 1492.625;  235.475;    0.000
429.672; 1503.625;  202.475;    0.000
429.724; 1486.625;  189.475;    0.000
429.775; 1473.625;  214.475;    0.000
429.826; 1505.625;  178.475;    0.000
429.877; 1493.625;  224.475;    0.000
429.928; 1486.625;  230.475;    0.000
429.980; 1402.625;  199.475;    0.000
430.031; 1491.625;  208.475;    0.000
430.082; 1577.625;  224.475;    0.000
430.133; 1529.625;  193.475;    0.000
430.184; 1520.625;  220.475;    0.000
430.235; 1550.625;  184.475;    0.000
430.286; 1464.625;  197.475;    0.000
430.337; 1461.625;  199.475;    0.000
430.388; 1489.625;  207.475;    0.000
430.439; 1541.625;  227.475;    0.000
430.490; 1484.625;  215.475;    0.000
430.542; 1489.625;  211.475;    0.000
430.593; 1495.625;  230.475;    0.000
430.644; 1467.625;  186.475;    0.000
430.695; 1441.625;  232.475;    0.000
430.746; 1483.625;  214.475;    0.000
430.797; 1463.625;  260.475;    0.000
430.848; 1534.625;  214.475;    0.000
430.898; 1516.625;  204.475;    0.000
430.949; 1479.625;  189.475;    0.000
431.000; 1534.625;  240.475;    0.000
431.051; 1506.625;  201.475;    0.000
431.102; 1434.625;  188.475;    0.000
431.153; 1479.625;  209.475;    0.000
431.204; 1470.625;  187.475;    0.000
431.255; 1546.625;  171.475;    0.000
431.306; 1450.625;  181.475;    0.000
431.357; 1526.625;  221.475;    0.000
431.408; 1532.625;  217.475;    0.000
431.458; 1456.625;  206.475;    0.000
431.509; 1418.625;  194.475;    0.000
431.560; 1488.625;  235.475;    0.000
431.611; 1440.625;  213.475;    0.000
431.662; 1533.625;  237.475;    0.000
431.713; 1475.625;  220.475;    0.000
431.763; 1482.625;  212.475;    0.000
431.814; 1549.625;  238.475;    0.000
431.865; 1481.625;  213.475;    0.000
431.916; 1437.625;  191.475;    0.000
431.966; 1470.625;  171.475;    0.000
432.017; 1510.625;  263.475;    0.000
432.068; 1545.625;  240.475;    0.000
432.118; 1529.625;  235.475;    0.000
432.169; 1487.625;  212.475;    0.000
432.220; 1472.625;  188.475;    0.000
432.271; 1496.625;  216.475;    0.000
432.321; 1489.625;  223.475;    0.000
432.372; 1465.625;  254.475;    0.000
432.423; 1488.625;  193.475;    0.000
432.473; 1413.625;  219.475;    0.000
432.524; 1511.625;  215.475;    0.000
432.574; 1495.625;  234.475;    0.000
432.625; 1421.625;  226.475;    0.000
432.676; 1453.625;  219.475;    0.000
432.726; 1457.625;  254.475;    0.000
432.777; 1530.625;  210.475;    0.000
432.827; 1434.625;  234.475;    0.000
432.878; 1471.625;  212.475;    0.000
432.928; 1413.625;  238.475;    0.000
432.979; 1427.625;  252.475;    0.000
433.029; 1486.625;  222.475;    0.000
433.080; 1442.625;  188.475;    0.000
433.130; 1506.625;  223.475;    0.000
433.181; 1509.625;  254.475;    0.000
433.231; 1478.625;  237.475;    0.000
433.282; 1472.625;  242.475;    0.000
433.332; 1460.625;  261.475;    0.000
433.383; 1584.625;  266.475;    0.000
433.433; 1515.625;  286.475;    0.000
433.484; 1504.625;  231.475;    0.000
433.534; 1449.625;  256.475;    0.000
433.585; 1545.625;  253.475;    0.000
433.635; 1463.625;  228.475;    0.000
433.685; 1458.625;  226.475;    0.000
433.736; 1517.625;  276.475;    0.000
433.786; 1535.625;  253.475;    0.000
433.836; 1567.625;  289.475;    0.000
433.887; 1494.625;  241.475;    0.000
433.937; 1614.625;  252.475;    0.000
433.987; 1483.625;  223.475;    0.000
434.038; 1502.625;  241.475;    0.000
434.088; 1472.625;  231.475;    0.000
434.138; 1568.625;  259.475;    0.000
434.189; 1466.625;  263.475;    0.000
434.239; 1448.625;  194.475;    0.000
434.289; 1570.625;  273.475;    0.000
434.339; 1509.625;  212.475;    0.000
434.389; 1559.625;  248.475;    0.000
434.440; 1548.625;  250.475;    0.000
434.490; 1495.625;  278.475;    0.000
434.540; 1502.625;  241.475;    0.000
434.590; 1505.625;  251.475;    0.000
434.640; 1492.625;  207.475;    0.000
434.691; 1579.625;  242.475;    0.000
434.741; 1514.625;  218.475;    0.000
434.791; 1558.625;  267.475;    0.000
434.841; 1545.625;  272.475;    0.000
434.891; 1557.625;  260.475;    0.000
434.941; 1616.625;  258.475;    0.000
434.991; 1578.625;  264.475;    0.000
435.042; 1536.625;  264.475;    0.000
435.092; 1481.625;  271.475;    0.000
435.142; 1529.625;  229.475;    0.000
435.192; 1483.625;  226.475;    0.000
435.242; 1558.625;  253.475;    0.000
435.292; 1513.625;  215.475;    0.000
435.342; 1501.625;  240.475;    0.000
435.392; 1571.625;  235.475;    0.000
435.442; 1458.625;  230.475;    0.000
435.492; 1518.625;  235.475;    0.000
435.542; 1467.625;  230.475;    0.000
435.592; 1511.625;  239.475;    0.000
435.642; 1484.625;  244.475;    0.000
435.692; 1496.625;  236.475;    0.000
435.742; 1486.625;  236.475;    0.000
435.792; 1452.625;  230.475;    0.000
435.842; 1438.625;  248.475;    0.000
435.891; 1443.625;  233.475;    0.000
435.941; 1431.625;  243.475;    0.000
435.991; 1466.625;  279.475;    0.000
436.041; 1455.625;  204.475;    0.000
436.091; 1462.625;  217.475;    0.000
436.141; 1488.625;  205.475;    0.000
436.191; 1412.625;  220.475;    0.000
436.241; 1410.625;  248.475;    0.000
436.290; 1438.625;  255.475;    0.000
436.340; 1414.625;  235.475;    0.000
436.390; 1453.625;  207.475;    0.000
436.440; 1511.625;  207.475;    0.000
436.490; 1428.625;  251.475;    0.000
436.539; 1446.625;  240.475;    0.000
436.589; 1386.625;  198.475;    0.000
436.639; 1417.625;  240.475;    0.000
436.689; 1436.625;  216.475;    0.000
436.738; 1463.625;  246.475;    0.000
436.788; 1374.625;  203.475;    0.000
436.838; 1444.625;  230.475;    0.000
436.887; 1469.625;  235.475;    0.000
436.937; 1411.625;  249.475;    0.000
436.987; 1440.625;  208.475;    0.000
437.036; 1506.625;  232.475;    0.000
437.086; 1457.625;  238.475;    0.000
437.136; 1433.625;  228.475;    0.000
437.185; 1428.625;  219.475;    0.000
437.235; 1439.625;  227.475;    0.000
437.285; 1378.625;  241.475;    0.000
437.334; 1365.625;  216.475;    0.000
437.384; 1443.625;  243.475;    0.000
437.433; 1487.625;  214.475;    0.000
437.483; 1458.625;  246.475;    0.000
437.532; 1396.625;  261.475;    0.000
437.582; 1443.625;  205.475;    0.000
437.631; 1422.625;  218.475;    0.000
437.681; 1436.625;  240.475;    0.000
437.730; 1464.625;  258.475;    0.000
437.780; 1359.625;  237.475;    0.000
437.829; 1396.625;  209.475;    0.000
437.879; 1326.625;  214.475;    0.000
437.928; 1389.625;  223.475;    0.000
437.978; 1395.625;  220.475;    0.000
438.027; 1476.625;  239.475;    0.000
438.077; 1461.625;  231.475;    0.000
438.126; 1398.625;  266.475;    0.000
438.176; 1391.625;  234.475;    0.000
438.225; 1376.625;  237.475;    0.000
438.274; 1391.625;  234.475;    0.000
438.324; 1403.625;  244.475;    0.000
438.373; 1370.625;  232.475;    0.000
438.422; 1360.625;  218.475;    0.000
438.472; 1397.625;  221.475;    0.000
438.521; 1364.625;  190.475;    0.000
438.570; 1366.625;  243.475;    0.000
438.620; 1410.625;  255.475;    0.000
438.669; 1401.625;  210.475;    0.000
438.718; 1369.625;  237.475;    0.000
438.768; 1389.625;  220.475;    0.000
438.817; 1406.625;  218.475;    0.000
438.866; 1436.625;  198.475;    0.000
438.915; 1437.625;  256.475;    0.000
438.965; 1391.625;  221.475;    0.000
439.014; 1431.625;  255.475;    0.000
439.063; 1454.625;  276.475;    0.000
439.112; 1339.625;  220.475;    0.000
439.162; 1429.625;  253.475;    0.000
439.211; 1440.625;  247.475;    0.000
439.260; 1402.625;  220.475;    0.000
439.309; 1368.625;  235.475;    0.000
439.358; 1360.625;  205.475;    0.000
439.407; 1377.625;  207.475;    0.000
439.456; 1359.625;  216.475;    0.000
439.506; 1394.625;  245.475;    0.000
439.555; 1415.625;  264.475;    0.000
439.604; 1395.625;  227.475;    0.000
439.653; 1399.625;  220.475;    0.000
439.702; 1346.625;  223.475;    0.000
439.751; 1388.625;  197.475;    0.000
439.800; 1442.625;  207.475;    0.000
439.849; 1430.625;  238.475;    0.000
439.898; 1398.625;  209.475;    0.000
439.947; 1320.625;  170.475;    0.000
439.996; 1405.625;  233.475;    0.000
440.045; 1476.625;  222.475;    0.000
440.094; 1398.625;  240.475;    0.000
440.143; 1438.625;  249.475;    0.000
440.192; 1485.625;  252.475;    0.000
440.241; 1431.625;  239.475;    0.000
440.290; 1375.625;  234.475;    0.000
440.339; 1404.625;  241.475;    0.000
440.388; 1416.625;  239.475;    0.000
440.437; 1377.625;  231.475;    0.000
440.486; 1314.625;  254.475;    0.000
440.535; 1386.625;  266.475;    0.000
440.583; 1399.625;  205.475;    0.000
440.632; 1435.625;  234.475;    0.000
440.681; 1401.625;  218.475;    0.000
440.730; 1416.625;  248.475;    0.000
440.779; 1440.625;  246.475;    0.000
440.828; 1442.625;  235.475;    0.000
440.876; 1388.625;  218.475;    0.000
440.925; 1437.625;  228.475;    0.000
440.974; 1419.625;  249.475;    0.000
441.023; 1379.625;  192.475;    0.000
441.072; 1422.625;  226.475;    0.000
441.120; 1439.625;  238.475;    0.000
441.169; 1451.625;  255.475;    0.000
441.218; 1462.625;  233.475;    0.000
441.267; 1488.625;  231.475;    0.000
441.315; 1432.625;  214.475;    0.000
441.364; 1424.625;  250.475;    0.000
441.413; 1452.625;  228.475;    0.000
441.461; 1458.625;  209.475;    0.000
441.510; 1483.625;  260.475;    0.000
441.559; 1431.625;  230.475;    0.000
441.607; 1443.625;  220.475;    0.000
441.656; 1499.625;  251.475;    0.000
441.705; 1444.625;  237.475;    0.000
441.753; 1514.625;  257.475;    0.000
441.802; 1454.625;  256.475;    0.000
441.850; 1494.625;  253.475;    0.000
441.899; 1502.625;  212.475;    0.000
441.948; 1549.625;  251.475;    0.000
441.996; 1444.625;  239.475;    0.000
442.045; 1508.625;  223.475;    0.000
442.093; 1478.625;  211.475;    0.000
442.142; 1498.625;  235.475;    0.000
442.190; 1509.625;  254.475;    0.000
442.239; 1485.625;  226.475;    0.000
442.287; 1397.625;  242.475;    0.000
442.336; 1466.625;  256.475;    0.000
442.384; 1458.625;  252.475;    0.000
442.433; 1467.625;  262.475;    0.000
442.481; 1529.625;  246.475;    0.000
442.529; 1475.625;  290.475;    0.000
442.578; 1506.625;  247.475;    0.000
442.626; 1414.625;  247.475;    0.000
442.675; 1480.625;  272.475;    0.000
442.723; 1477.625;  230.475;    0.000
442.771; 1502.625;  234.475;    0.000
442.820; 1436.625;  224.475;    0.000
442.868; 1484.625;  246.475;    0.000
442.917; 1487.625;  249.475;    0.000
442.965; 1485.625;  260.475;    0.000
443.013; 1458.625;  258.475;    0.000
443.062; 1383.625;  259.475;    0.000
443.110; 1499.625;  226.475;    0.000
443.158; 1470.625;  213.475;    0.000
443.206; 1451.625;  201.475;    0.000
443.255; 1444.625;  280.475;    0.000
443.303; 1514.625;  292.475;    0.000
443.351; 1466.625;  256.475;    0.000
443.399; 1482.625;  215.475;    0.000
443.448; 1478.625;  243.475;    0.000
443.496; 1495.625;  249.475;    0.000
443.544; 1462.625;  231.475;    0.000
443.592; 1596.625;  243.475;    0.000
443.640; 1492.625;  252.475;    0.000
443.689; 1482.625;  220.475;    0.000
443.737; 1538.625;  231.475;    0.000
443.785; 1522.625;  256.475;    0.000
443.833; 1493.625;  268.475;    0.000
443.881; 1417.625;  181.475;    0.000
443.929; 1488.625;  245.475;    0.000
443.977; 1532.625;  278.475;    0.000
444.025; 1540.625;  245.475;    0.000
444.074; 1507.625;  233.475;    0.000
444.122; 1629.625;  267.475;    0.000
444.170; 1503.625;  247.475;    0.000
444.218; 1525.625;  246.475;    0.000
444.266; 1581.625;  275.475;    0.000
444.314; 1494.625;  263.475;    0.000
444.362; 1581.625;  240.475;    0.000
444.410; 1516.625;  220.475;    0.000
444.458; 1551.625;  258.475;    0.000
444.506; 1561.625;  258.475;    0.000
444.554; 1548.625;  224.475;    0.000
444.602; 1565.625;  245.475;    0.000
444.650; 1539.625;  261.475;    0.000
444.698; 1558.625;  232.475;    0.000
444.746; 1585.625;  206.475;    0.000
444.793; 1535.625;  249.475;    0.000
444.841; 1563.625;  261.475;    0.000
444.889; 1542.625;  221.475;    0.000
444.937; 1582.625;  215.475;    0.000
444.985; 1599.625;  244.475;    0.000
445.033; 1612.625;  211.475;    0.000
445.081; 1604.625;  225.475;    0.000
445.129; 1534.625;  217.475;    0.000
445.176; 1580.625;  196.475;    0.000
445.224; 1590.625;  211.475;    0.000
445.272; 1555.625;  242.475;    0.000
445.320; 1613.625;  225.475;    0.000
445.368; 1584.625;  249.475;    0.000
445.415; 1621.625;  243.475;    0.000
445.463; 1584.625;  242.475;    0.000
445.511; 1544.625;  248.475;    0.000
445.559; 1505.625;  219.475;    0.000
445.606; 1529.625;  221.475;    0.000
445.654; 1587.625;  202.475;    0.000
445.702; 1559.625;  210.475;    0.000
445.749; 1543.625;  249.475;    0.000
445.797; 1585.625;  206.475;    0.000
445.845; 1553.625;  213.475;    0.000
445.892; 1560.625;  224.475;    0.000
445.940; 1530.625;  214.475;    0.000
445.988; 1588.625;  247.475;    0.000
446.035; 1621.625;  204.475;    0.000
446.083; 1635.625;  235.475;    0.000
446.130; 1511.625;  195.475;    0.000
446.178; 1520.625;  236.475;    0.000
446.226; 1617.625;  218.475;    0.000
446.273; 1515.625;  215.475;    0.000
446.321; 1584.625;  222.475;    0.000
446.368; 1576.625;  228.475;    0.000
446.416; 1563.625;  223.475;    0.000
446.463; 1615.625;  220.475;    0.000
446.511; 1652.625;  198.475;    0.000
446.558; 1629.625;  208.475;    0.000
446.606; 1677.625;  253.475;    0.000
446.653; 1696.625;  198.475;    0.000
446.701; 1622.625;  231.475;    0.000
446.748; 1575.625;  224.475;    0.000
446.796; 1635.625;  201.475;    0.000
446.843; 1691.625;  257.475;    0.000
446.891; 1611.625;  218.475;    0.000
446.938; 1642.625;  232.475;    0.000
446.985; 1678.625;  229.475;    0.000
447.033; 1712.625;  251.475;    0.000
447.080; 1668.625;  257.475;    0.000
447.128; 1696.625;  232.475;    0.000
447.175; 1730.625;  269.475;    0.000
447.222; 1688.625;  185.475;    0.000
447.270; 1715.625;  264.475;    0.000
447.317; 1737.625;  225.475;    0.000
447.364; 1749.625;  243.475;    0.000
447.411; 1768.625;  263.475;    0.000
447.459; 1749.625;  257.475;    0.000
447.506; 1714.625;  175.475;    0.000
447.553; 1753.625;  203.475;    0.000
447.601; 1827.625;  238.475;    0.000
447.648; 1827.625;  244.475;    0.000
447.695; 1881.625;  249.475;    0.000
447.742; 1854.625;  234.475;    0.000
447.789; 1891.625;  228.475;    0.000
447.837; 1886.625;  258.475;    0.000
447.884; 1896.625;  243.475;    0.000
447.931; 1969.625;  235.475;    0.000
447.978; 1992.625;  224.475;    0.000
448.025; 1948.625;  245.475;    0.000
448.072; 1998.625;  212.475;    0.000
448.120; 2003.625;  256.475;    0.000
448.167; 2039.625;  240.475;    0.000
448.214; 1967.625;  247.475;    0.000
448.261; 1929.625;  245.475;    0.000
448.308; 1974.625;  273.475;    0.000
448.355; 1934.625;  257.475;    0.000
448.402; 1800.625;  259.475;    0.000
448.449; 1762.625;  238.475;    0.000
448.496; 1789.625;  245.475;    0.000
448.543; 1802.625;  217.475;    0.000
448.590; 1856.625;  269.475;    0.000
448.637; 1799.625;  250.475;    0.000
448.684; 1768.625;  250.475;    0.000
448.731; 1761.625;  235.475;    0.000
448.778; 1772.625;  265.475;    0.000
448.825; 1741.625;  257.475;    0.000
448.872; 1662.625;  234.475;    0.000
448.919; 1759.625;  216.475;    0.000
448.966; 1759.625;  274.475;    0.000
449.013; 1675.625;  263.475;    0.000
449.060; 1689.625;  247.475;    0.000
449.107; 1634.625;  218.475;    0.000
449.154; 1646.625;  225.475;    0.000
449.200; 1654.625;  212.475;    0.000
449.247; 1688.625;  242.475;    0.000
449.294; 1631.625;  228.475;    0.000
449.341; 1644.625;  232.475;    0.000
449.388; 1576.625;  247.475;    0.000
449.435; 1584.625;  227.475;    0.000
449.481; 1553.625;  270.475;    0.000
449.528; 1606.625;  265.475;    0.000
449.575; 1643.625;  255.475;    0.000
449.622; 1611.625;  210.475;    0.000
449.668; 1495.625;  234.475;    0.000
449.715; 1563.625;  262.475;    0.000
449.762; 1556.625;  247.475;    0.000
449.809; 1554.625;  286.475;    0.000
449.855; 1592.625;  246.475;    0.000
449.902; 1574.625;  224.475;    0.000
449.949; 1594.625;  244.475;    0.000
449.995; 1555.625;  274.475;    0.000
450.042; 1576.625;  272.475;    0.000
450.089; 1587.625;  274.475;    0.000
450.135; 1560.625;  285.475;    0.000
450.182; 1496.625;  251.475;    0.000
450.229; 1530.625;  242.475;    0.000
450.275; 1515.625;  277.475;    0.000
450.322; 1588.625;  260.475;    0.000
450.368; 1539.625;  257.475;    0.000
450.415; 1557.625;  276.475;    0.000
450.462; 1546.625;  298.475;    0.000
450.508; 1524.625;  255.475;    0.000
450.555; 1439.625;  271.475;    0.000
450.601; 1502.625;  281.475;    0.000
450.648; 1535.625;  249.475;    0.000
450.694; 1592.625;  270.475;    0.000
450.741; 1465.625;  256.475;    0.000
450.787; 1486.625;  292.475;    0.000
450.834; 1512.625;  221.475;    0.000
450.880; 1486.625;  265.475;    0.000
450.927; 1431.625;  242.475;    0.000
450.973; 1465.625;  259.475;    0.000
451.019; 1418.625;  221.475;    0.000
451.066; 1467.625;  257.475;    0.000
451.112; 1472.625;  251.475;    0.000
451.159; 1418.625;  278.475;    0.000
451.205; 1513.625;  274.475;    0.000
451.251; 1460.625;  281.475;    0.000
451.298; 1522.625;  273.475;    0.000
451.344; 1513.625;  246.475;    0.000
451.390; 1516.625;  286.475;    0.000
451.437; 1507.625;  268.475;    0.000
451.483; 1431.625;  315.475;    0.000
451.529; 1498.625;  251.475;    0.000
451.576; 1507.625;  306.475;    0.000
451.622; 1485.625;  234.475;    0.000
451.668; 1406.625;  243.475;    0.000
451.714; 1454.625;  256.475;    0.000
451.761; 1426.625;  264.475;    0.000
451.807; 1476.625;  284.475;    0.000
451.853; 1497.625;  282.475;    0.000
451.899; 1410.625;  240.475;    0.000
451.945; 1396.625;  263.475;    0.000
451.992; 1496.625;  255.475;    0.000
452.038; 1461.625;  273.475;    0.000
452.084; 1481.625;  274.475;    0.000
452.130; 1440.625;  261.475;    0.000
452.176; 1345.625;  246.475;    0.000
452.222; 1383.625;  238.475;    0.000
452.268; 1397.625;  267.475;    0.000
452.315; 1441.625;  274.475;    0.000
452.361; 1333.625;  241.475;    0.000
452.407; 1421.625;  274.475;    0.000
452.453; 1380.625;  260.475;    0.000
452.499; 1463.625;  232.475;    0.000
452.545; 1403.625;  252.475;    0.000
452.591; 1349.625;  263.475;    0.000
452.637; 1359.625;  208.475;    0.000
452.683; 1397.625;  237.475;    0.000
452.729; 1364.625;  263.475;    0.000
452.775; 1454.625;  291.475;    0.000
452.821; 1439.625;  238.475;    0.000
452.867; 1366.625;  223.475;    0.000
452.913; 1369.625;  257.475;    0.000
452.959; 1425.625;  238.475;    0.000
453.005; 1416.625;  252.475;    0.000
453.051; 1394.625;  260.475;    0.000
453.097; 1424.625;  268.475;    0.000
453.142; 1357.625;  231.475;    0.000
453.188; 1393.625;  266.475;    0.000
453.234; 1407.625;  233.475;    0.000
453.280; 1332.625;  219.475;    0.000
453.326; 1373.625;  265.475;    0.000
453.372; 1303.625;  238.475;    0.000
453.418; 1421.625;  240.475;    0.000
453.463; 1352.625;  219.475;    0.000
453.509; 1379.625;  264.475;    0.000
453.555; 1339.625;  247.475;    0.000
453.601; 1420.625;  230.475;    0.000
453.647; 1341.625;  285.475;    0.000
453.692; 1343.625;  240.475;    0.000
453.738; 1388.625;  233.475;    0.000
453.784; 1380.625;  230.475;    0.000
453.829; 1391.625;  246.475;    0.000
453.875; 1363.625;  261.475;    0.000
453.921; 1326.625;  203.475;    0.000
453.967; 1387.625;  241.475;    0.000
454.012; 1419.625;  250.475;    0.000
454.058; 1378.625;  252.475;    0.000
454.104; 1368.625;  239.475;    0.000
454.149; 1380.625;  250.475;    0.000
454.195; 1330.625;  243.475;    0.000
454.240; 1350.625;  252.475;    0.000
454.286; 1404.625;  245.475;    0.000
454.332; 1361.625;  286.475;    0.000
454.377; 1373.625;  254.475;    0.000
454.423; 1304.625;  246.475;    0.000
454.468; 1320.625;  235.475;    0.000
454.514; 1337.625;  231.475;    0.000
454.559; 1363.625;  246.475;    0.000
454.605; 1285.625;  204.475;    0.000
454.650; 1347.625;  272.475;    0.000
454.696; 1345.625;  222.475;    0.000
454.741; 1365.625;  290.475;    0.000
454.787; 1368.625;  262.475;    0.000
454.832; 1325.625;  227.475;    0.000
454.878; 1382.625;  241.475;    0.000
454.923; 1347.625;  272.475;    0.000
454.969; 1381.625;  290.475;    0.000
455.014; 1429.625;  278.475;    0.000
455.060; 1401.625;  246.475;    0.000
455.105; 1390.625;  231.475;    0.000
455.150; 1366.625;  265.475;    0.000
455.196; 1385.625;  266.475;    0.000
455.241; 1315.625;  258.475;    0.000
455.286; 1401.625;  266.475;    0.000
455.332; 1346.625;  252.475;    0.000
455.377; 1338.625;  219.475;    0.000
455.422; 1361.625;  262.475;    0.000
455.468; 1356.625;  260.475;    0.000
455.513; 1337.625;  212.475;    0.000
455.558; 1302.625;  197.475;    0.000
455.604; 1344.625;  262.475;    0.000
455.649; 1343.625;  238.475;    0.000
455.694; 1403.625;  221.475;    0.000
455.739; 1333.625;  251.475;    0.000
455.785; 1422.625;  287.475;    0.000
455.830; 1405.625;  284.475;    0.000
455.875; 1342.625;  234.475;    0.000
455.920; 1366.625;  215.475;    0.000
455.965; 1365.625;  256.475;    0.000
456.010; 1414.625;  266.475;    0.000
456.056; 1403.625;  263.475;    0.000
456.101; 1318.625;  240.475;    0.000
456.146; 1354.625;  258.475;    0.000
456.191; 1317.625;  241.475;    0.000
456.236; 1384.625;  252.475;    0.000
456.281; 1278.625;  218.475;    0.000
456.326; 1370.625;  251.475;    0.000
456.371; 1288.625;  256.475;    0.000
456.416; 1385.625;  301.475;    0.000
456.461; 1347.625;  233.475;    0.000
456.507; 1386.625;  218.475;    0.000
456.552; 1466.625;  278.475;    0.000
456.597; 1301.625;  223.475;    0.000
456.642; 1375.625;  203.475;    0.000
456.687; 1388.625;  245.475;    0.000
456.732; 1412.625;  256.475;    0.000
456.776; 1380.625;  244.475;    0.000
456.821; 1399.625;  276.475;    0.000
456.866; 1330.625;  232.475;    0.000
456.911; 1333.625;  225.475;    0.000
456.956; 1393.625;  237.475;    0.000
457.001; 1385.625;  261.475;    0.000
457.046; 1360.625;  205.475;    0.000
457.091; 1350.625;  241.475;    0.000
457.136; 1333.625;  217.475;    0.000
457.181; 1335.625;  251.475;    0.000
457.225; 1363.625;  241.475;    0.000
457.270; 1325.625;  237.475;    0.000
457.315; 1310.625;  279.475;    0.000
457.360; 1357.625;  245.475;    0.000
457.405; 1358.625;  202.475;    0.000
457.450; 1348.625;  247.475;    0.000
457.494; 1339.625;  243.475;    0.000
457.539; 1322.625;  222.475;    0.000
457.584; 1363.625;  239.475;    0.000
457.629; 1344.625;  236.475;    0.000
457.673; 1375.625;  234.475;    0.000
457.718; 1324.625;  202.475;    0.000
457.763; 1418.625;  274.475;    0.000
457.807; 1346.625;  236.475;    0.000
457.852; 1415.625;  265.475;    0.000
457.897; 1436.625;  252.475;    0.000
457.941; 1431.625;  264.475;    0.000
457.986; 1410.625;  280.475;    0.000
458.031; 1368.625;  217.475;    0.000
458.075; 1402.625;  249.475;    0.000
458.120; 1409.625;  257.475;    0.000
458.165; 1310.625;  183.475;    0.000
458.209; 1400.625;  245.475;    0.000
458.254; 1365.625;  245.475;    0.000
458.298; 1388.625;  265.475;    0.000
458.343; 1391.625;  241.475;    0.000
458.387; 1406.625;  262.475;    0.000
458.432; 1451.625;  245.475;    0.000
458.476; 1443.625;  255.475;    0.000
458.521; 1457.625;  269.475;    0.000
458.565; 1474.625;  265.475;    0.000
458.610; 1390.625;  222.475;    0.000
458.654; 1376.625;  257.475;    0.000
458.699; 1466.625;  296.475;    0.000
458.743; 1299.625;  203.475;    0.000
458.788; 1460.625;  267.475;    0.000
458.832; 1418.625;  274.475;    0.000
458.877; 1395.625;  251.475;    0.000
458.921; 1416.625;  237.475;    0.000
458.965; 1468.625;  264.475;    0.000
459.010; 1497.625;  256.475;    0.000
459.054; 1456.625;  280.475;    0.000
459.099; 1410.625;  240.475;    0.000
459.143; 1507.625;  287.475;    0.000
459.187; 1435.625;  257.475;    0.000
459.231; 1449.625;  273.475;    0.000
459.276; 1479.625;  231.475;    0.000
459.320; 1430.625;  261.475;    0.000
459.364; 1482.625;  278.475;    0.000
459.409; 1418.625;  249.475;    0.000
459.453; 1465.625;  235.475;    0.000
459.497; 1458.625;  262.475;    0.000
459.541; 1516.625;  269.475;    0.000
459.586; 1412.625;  240.475;    0.000
459.630; 1472.625;  261.475;    0.000
459.674; 1461.625;  276.475;    0.000
459.718; 1440.625;  236.475;    0.000
459.762; 1513.625;  263.475;    0.000
459.807; 1537.625;  263.475;    0.000
459.851; 1425.625;  225.475;    0.000
459.895; 1461.625;  247.475;    0.000
459.939; 1475.625;  231.475;    0.000
459.983; 1423.625;  242.475;    0.000
460.027; 1473.625;  248.475;    0.000
460.071; 1511.625;  273.475;    0.000
460.115; 1507.625;  282.475;    0.000
460.159; 1486.625;  264.475;    0.000
460.204; 1526.625;  288.475;    0.000
460.248; 1513.625;  293.475;    0.000
460.292; 1496.625;  277.475;    0.000
460.336; 1478.625;  250.475;    0.000
460.380; 1508.625;  275.475;    0.000
460.424; 1446.625;  243.475;    0.000
460.468; 1553.625;  277.475;    0.000
460.512; 1575.625;  261.475;    0.000
460.556; 1528.625;  266.475;    0.000
460.599; 1523.625;  246.475;    0.000
460.643; 1468.625;  256.475;    0.000
460.687; 1565.625;  257.475;    0.000
460.731; 1448.625;  235.475;    0.000
460.775; 1537.625;  278.475;    0.000
460.819; 1476.625;  268.475;    0.000
460.863; 1545.625;  257.475;    0.000
460.907; 1471.625;  213.475;    0.000
460.951; 1475.625;  274.475;    0.000
460.995; 1497.625;  258.475;    0.000
461.038; 1521.625;  219.475;    0.000
461.082; 1565.625;  253.475;    0.000
461.126; 1538.625;  281.475;    0.000
461.170; 1544.625;  244.475;    0.000
461.214; 1543.625;  262.475;    0.000
461.257; 1623.625;  284.475;    0.000
461.301; 1557.625;  275.475;    0.000
461.345; 1540.625;  267.475;    0.000
461.389; 1455.625;  255.475;    0.000
461.432; 1554.625;  282.475;    0.000
461.476; 1530.625;  263.475;    0.000
461.520; 1511.625;  260.475;    0.000
461.563; 1487.625;  278.475;    0.000
461.607; 1490.625;  236.475;    0.000
461.651; 1532.625;  262.475;    0.000
461.694; 1542.625;  236.475;    0.000
461.738; 1524.625;  295.475;    0.000
461.782; 1548.625;  252.475;    0.000
461.825; 1524.625;  271.475;    0.000
461.869; 1615.625;  278.475;    0.000
461.913; 1550.625;  255.475;    0.000
461.956; 1625.625;  254.475;    0.000
462.000; 1535.625;  299.475;    0.000
462.043; 1571.625;  282.475;    0.000
462.087; 1606.625;  274.475;    0.000
462.130; 1596.625;  270.475;    0.000
462.174; 1559.625;  274.475;    0.000
462.217; 1616.625;  272.475;    0.000
462.261; 1536.625;  286.475;    0.000
462.304; 1550.625;  236.475;    0.000
462.348; 1525.625;  262.475;    0.000
462.391; 1526.625;  244.475;    0.000
462.435; 1571.625;  321.475;    0.000
462.478; 1581.625;  230.475;    0.000
462.522; 1592.625;  245.475;    0.000
462.565; 1573.625;  278.475;    0.000
462.608; 1654.625;  303.475;    0.000
462.652; 1624.625;  275.475;    0.000
462.695; 1667.625;  314.475;    0.000
462.739; 1593.625;  307.475;    0.000
462.782; 1595.625;  286.475;    0.000
462.825; 1718.625;  312.475;    0.000
462.869; 1675.625;  338.475;    0.000
462.912; 1696.625;  304.475;    0.000
462.955; 1613.625;  288.475;    0.000
462.998; 1656.625;  292.475;    0.000
463.042; 1710.625;  309.475;    0.000
463.085; 1694.625;  292.475;    0.000
463.128; 1645.625;  317.475;    0.000
463.172; 1579.625;  287.475;    0.000
463.215;  361.625;  313.475;    0.000
463.258;  316.625;  295.475;    0.000
463.301;  320.625;  275.475;    0.000
463.344;  335.625;  311.475;    0.000
463.388;  320.625;  296.475;    0.000
463.431;  285.625;  277.475;    0.000
463.474;  359.625;  364.475;    0.000
463.517;  319.625;  306.475;    0.000
463.560;  338.625;  308.475;    0.000
463.603;  317.625;  343.475;    0.000
463.646;  323.625;  309.475;    0.000
463.690;  314.625;  309.475;    0.000
463.733;  310.625;  320.475;    0.000
463.776;  272.625;  299.475;    0.000
463.819;  339.625;  320.475;    0.000
463.862;  318.625;  283.475;    0.000

