
Integration time [ms]:   1.000
Averaging Nr. [scans]: 1
Smoothing Nr. [pixels]: 0
Data measured with spectrometer [name]: UV1
Wave   ;Sample   ;Dark     ;Reference
[nm]   ;[counts] ;[counts] ;[counts] 

236.381;  134.700;  175.825;    0.000
236.451;  159.700;  220.825;    0.000
236.520;  173.700;  178.825;    0.000
236.590;  169.700;  182.825;    0.000
236.660;  157.700;  180.825;    0.000
236.730;  183.700;  201.825;    0.000
236.799;  180.700;  168.825;    0.000
236.869;  167.700;  205.825;    0.000
236.939;  171.700;  175.825;    0.000
237.009;  175.700;  186.825;    0.000
237.078;  166.700;  200.825;    0.000
237.148;  150.700;  156.825;    0.000
237.218;  186.700;  190.825;    0.000
237.287;  196.700;  167.825;    0.000
237.357;  204.700;  213.825;    0.000
237.427;  147.700;  164.825;    0.000
237.496;  977.700;  210.825;    0.000
237.566;  957.700;  193.825;    0.000
237.636;  934.700;  179.825;    0.000
237.705; 1004.700;  218.825;    0.000
237.775;  990.700;  160.825;    0.000
237.845;  987.700;  207.825;    0.000
237.914;  883.700;  180.825;    0.000
237.984;  937.700;  207.825;    0.000
238.054;  920.700;  149.825;    0.000
238.123;  923.700;  190.825;    0.000
238.193;  982.700;  167.825;    0.000
238.263;  906.700;  172.825;    0.000
238.332;  965.700;  173.825;    0.000
238.402;  934.700;  214.825;    0.000
238.471;  884.700;  181.825;    0.000
238.541;  947.700;  177.825;    0.000
238.611;  861.700;  138.825;    0.000
238.680;  937.700;  168.825;    0.000
238.750;  929.700;  171.825;    0.000
238.819;  970.700;  156.825;    0.000
238.889;  946.700;  194.825;    0.000
238.958;  941.700;  185.825;    0.000
239.028;  945.700;  170.825;    0.000
239.097;  909.700;  159.825;    0.000
239.167;  969.700;  208.825;    0.000
239.237;  945.700;  167.825;    0.000
239.306;  891.700;  154.825;    0.000
239.376;  973.700;  183.825;    0.000
239.445;  995.700;  221.825;    0.000
239.515;  939.700;  208.825;    0.000
239.584;  939.700;  177.825;    0.000
239.654;  908.700;  133.825;    0.000
239.723;  943.700;  167.825;    0.000
239.793;  918.700;  190.825;    0.000
239.862;  902.700;  192.825;    0.000
239.932;  936.700;  174.825;    0.000
240.001;  942.700;  166.825;    0.000
240.070;  934.700;  179.825;    0.000
240.140;  907.700;  191.825;    0.000
240.209;  881.700;  134.825;    0.000
240.279;  914.700;  185.825;    0.000
240.348;  959.700;  193.825;    0.000
240.418;  907.700;  149.825;    0.000
240.487;  908.700;  197.825;    0.000
240.556; 1003.700;  193.825;    0.000
240.626;  915.700;  178.825;    0.000
240.695;  932.700;  194.825;    0.000
240.765;  960.700;  178.825;    0.000
240.834;  914.700;  190.825;    0.000
240.903;  928.700;  212.825;    0.000
240.973;  942.700;  153.825;    0.000
241.042;  880.700;  177.825;    0.000
241.112;  966.700;  193.825;    0.000
241.181;  899.700;  171.825;    0.000
241.250;  900.700;  152.825;    0.000
241.320; 1001.700;  176.825;    0.000
241.389;  942.700;  186.825;    0.000
241.458;  959.700;  182.825;    0.000
241.528;  920.700;  175.825;    0.000
241.597;  936.700;  180.825;    0.000
241.666;  835.700;  162.825;    0.000
241.736;  947.700;  187.825;    0.000
241.805;  928.700;  173.825;    0.000
241.874;  908.700;  177.825;    0.000
241.943;  914.700;  208.825;    0.000
242.013;  910.700;  183.825;    0.000
242.082;  948.700;  171.825;    0.000
242.151;  932.700;  208.825;    0.000
242.221;  896.700;  160.825;    0.000
242.290;  919.700;  200.825;    0.000
242.359;  909.700;  167.825;    0.000
242.428;  968.700;  213.825;    0.000
242.498;  854.700;  156.825;    0.000
242.567;  934.700;  200.825;    0.000
242.636;  938.700;  178.825;    0.000
242.705;  925.700;  185.825;    0.000
242.774;  932.700;  190.825;    0.000
242.844;  907.700;  194.825;    0.000
242.913;  885.700;  162.825;    0.000
242.982;  871.700;  189.825;    0.000
243.051;  909.700;  176.825;    0.000
243.120;  862.700;  213.825;    0.000
243.190;  952.700;  155.825;    0.000
243.259;  919.700;  183.825;    0.000
243.328;  972.700;  170.825;    0.000
243.397;  867.700;  224.825;    0.000
243.466;  869.700;  172.825;    0.000
243.535;  914.700;  145.825;    0.000
243.605;  852.700;  157.825;    0.000
243.674;  938.700;  199.825;    0.000
243.743;  890.700;  196.825;    0.000
243.812;  899.700;  152.825;    0.000
243.881;  853.700;  188.825;    0.000
243.950;  904.700;  154.825;    0.000
244.019;  861.700;  195.825;    0.000
244.088;  911.700;  164.825;    0.000
244.158;  850.700;  220.825;    0.000
244.227;  851.700;  150.825;    0.000
244.296;  822.700;  153.825;    0.000
244.365;  881.700;  195.825;    0.000
244.434;  896.700;  136.825;    0.000
244.503;  855.700;  172.825;    0.000
244.572;  914.700;  129.825;    0.000
244.641;  851.700;  132.825;    0.000
244.710;  871.700;  185.825;    0.000
244.779;  922.700;  164.825;    0.000
244.848;  822.700;  132.825;    0.000
244.917;  887.700;  196.825;    0.000
244.986;  878.700;  148.825;    0.000
245.055;  898.700;  192.825;    0.000
245.124;  811.700;  170.825;    0.000
245.193;  855.700;  172.825;    0.000
245.262;  796.700;  146.825;    0.000
245.331;  839.700;  178.825;    0.000
245.400;  823.700;  108.825;    0.000
245.469;  806.700;  173.825;    0.000
245.538;  834.700;  180.825;    0.000
245.607;  858.700;  171.825;    0.000
245.676;  826.700;  149.825;    0.000
245.745;  782.700;  194.825;    0.000
245.814;  773.700;  186.825;    0.000
245.883;  819.700;  192.825;    0.000
245.952;  819.700;  169.825;    0.000
246.021;  789.700;  190.825;    0.000
246.090;  743.700;  181.825;    0.000
246.159;  763.700;  179.825;    0.000
246.227;  732.700;  182.825;    0.000
246.296;  764.700;  182.825;    0.000
246.365;  797.700;  171.825;    0.000
246.434;  780.700;  218.825;    0.000
246.503;  796.700;  147.825;    0.000
246.572;  768.700;  227.825;    0.000
246.641;  800.700;  193.825;    0.000
246.710;  789.700;  207.825;    0.000
246.779;  778.700;  181.825;    0.000
246.847;  756.700;  179.825;    0.000
246.916;  744.700;  155.825;    0.000
246.985;  774.700;  168.825;    0.000
247.054;  717.700;  137.825;    0.000
247.123;  717.700;  128.825;    0.000
247.192;  704.700;  163.825;    0.000
247.260;  768.700;  173.825;    0.000
247.329;  707.700;  174.825;    0.000
247.398;  717.700;  238.825;    0.000
247.467;  793.700;  168.825;    0.000
247.536;  796.700;  203.825;    0.000
247.604;  776.700;  194.825;    0.000
247.673;  760.700;  145.825;    0.000
247.742;  701.700;  167.825;    0.000
247.811;  771.700;  180.825;    0.000
247.879;  738.700;  187.825;    0.000
247.948;  748.700;  187.825;    0.000
248.017;  792.700;  170.825;    0.000
248.086;  737.700;  223.825;    0.000
248.154;  740.700;  160.825;    0.000
248.223;  757.700;  163.825;    0.000
248.292;  714.700;  201.825;    0.000
248.361;  748.700;  205.825;    0.000
248.429;  745.700;  191.825;    0.000
248.498;  692.700;  194.825;    0.000
248.567;  813.700;  217.825;    0.000
248.635;  737.700;  224.825;    0.000
248.704;  794.700;  204.825;    0.000
248.773;  761.700;  175.825;    0.000
248.841;  698.700;  157.825;    0.000
248.910;  745.700;  206.825;    0.000
248.979;  733.700;  170.825;    0.000
249.047;  731.700;  178.825;    0.000
249.116;  741.700;  183.825;    0.000
249.185;  785.700;  202.825;    0.000
249.253;  733.700;  159.825;    0.000
249.322;  779.700;  177.825;    0.000
249.390;  726.700;  157.825;    0.000
249.459;  785.700;  211.825;    0.000
249.528;  731.700;  181.825;    0.000
249.596;  691.700;  179.825;    0.000
249.665;  736.700;  176.825;    0.000
249.733;  733.700;  186.825;    0.000
249.802;  707.700;  185.825;    0.000
249.871;  760.700;  166.825;    0.000
249.939;  728.700;  163.825;    0.000
250.008;  726.700;  212.825;    0.000
250.076;  757.700;  227.825;    0.000
250.145;  712.700;  172.825;    0.000
250.213;  618.700;  173.825;    0.000
250.282;  708.700;  189.825;    0.000
250.350;  667.700;  166.825;    0.000
250.419;  711.700;  161.825;    0.000
250.487;  748.700;  178.825;    0.000
250.556;  705.700;  208.825;    0.000
250.624;  704.700;  190.825;    0.000
250.693;  672.700;  163.825;    0.000
250.761;  722.700;  194.825;    0.000
250.830;  754.700;  225.825;    0.000
250.898;  743.700;  140.825;    0.000
250.967;  696.700;  167.825;    0.000
251.035;  688.700;  155.825;    0.000
251.104;  673.700;  189.825;    0.000
251.172;  681.700;  136.825;    0.000
251.241;  690.700;  148.825;    0.000
251.309;  660.700;  201.825;    0.000
251.378;  696.700;  169.825;    0.000
251.446;  641.700;  178.825;    0.000
251.514;  705.700;  206.825;    0.000
251.583;  733.700;  178.825;    0.000
251.651;  684.700;  168.825;    0.000
251.720;  684.700;  190.825;    0.000
251.788;  749.700;  209.825;    0.000
251.856;  699.700;  173.825;    0.000
251.925;  613.700;  171.825;    0.000
251.993;  676.700;  188.825;    0.000
252.062;  654.700;  169.825;    0.000
252.130;  715.700;  196.825;    0.000
252.198;  776.700;  210.825;    0.000
252.267;  647.700;  181.825;    0.000
252.335;  702.700;  164.825;    0.000
252.403;  647.700;  152.825;    0.000
252.472;  682.700;  166.825;    0.000
252.540;  682.700;  189.825;    0.000
252.608;  682.700;  198.825;    0.000
252.677;  653.700;  156.825;    0.000
252.745;  678.700;  184.825;    0.000
252.813;  613.700;  163.825;    0.000
252.881;  629.700;  130.825;    0.000
252.950;  647.700;  189.825;    0.000
253.018;  581.700;  164.825;    0.000
253.086;  637.700;  172.825;    0.000
253.155;  597.700;  205.825;    0.000
253.223;  557.700;  175.825;    0.000
253.291;  540.700;  176.825;    0.000
253.359;  503.700;  182.825;    0.000
253.428;  569.700;  222.825;    0.000
253.496;  473.700;  166.825;    0.000
253.564;  529.700;  135.825;    0.000
253.632;  518.700;  184.825;    0.000
253.700;  540.700;  173.825;    0.000
253.769;  565.700;  163.825;    0.000
253.837;  489.700;  179.825;    0.000
253.905;  491.700;  157.825;    0.000
253.973;  541.700;  164.825;    0.000
254.041;  508.700;  170.825;    0.000
254.110;  457.700;  169.825;    0.000
254.178;  499.700;  165.825;    0.000
254.246;  468.700;  126.825;    0.000
254.314;  511.700;  166.825;    0.000
254.382;  468.700;  169.825;    0.000
254.450;  481.700;  170.825;    0.000
254.518;  512.700;  196.825;    0.000
254.587;  428.700;  161.825;    0.000
254.655;  530.700;  187.825;    0.000
254.723;  528.700;  144.825;    0.000
254.791;  497.700;  175.825;    0.000
254.859;  510.700;  168.825;    0.000
254.927;  520.700;  198.825;    0.000
254.995;  505.700;  165.825;    0.000
255.063;  482.700;  150.825;    0.000
255.131;  495.700;  181.825;    0.000
255.199;  473.700;  160.825;    0.000
255.267;  440.700;  131.825;    0.000
255.336;  495.700;  188.825;    0.000
255.404;  439.700;  163.825;    0.000
255.472;  504.700;  192.825;    0.000
255.540;  477.700;  158.825;    0.000
255.608;  542.700;  147.825;    0.000
255.676;  510.700;  166.825;    0.000
255.744;  532.700;  159.825;    0.000
255.812;  534.700;  164.825;    0.000
255.880;  555.700;  195.825;    0.000
255.948;  537.700;  167.825;    0.000
256.016;  531.700;  185.825;    0.000
256.084;  488.700;  191.825;    0.000
256.152;  527.700;  214.825;    0.000
256.220;  520.700;  195.825;    0.000
256.288;  513.700;  185.825;    0.000
256.356;  544.700;  168.825;    0.000
256.424;  460.700;  161.825;    0.000
256.491;  552.700;  161.825;    0.000
256.559;  568.700;  157.825;    0.000
256.627;  543.700;  164.825;    0.000
256.695;  536.700;  146.825;    0.000
256.763;  562.700;  194.825;    0.000
256.831;  516.700;  182.825;    0.000
256.899;  570.700;  192.825;    0.000
256.967;  568.700;  172.825;    0.000
257.035;  578.700;  169.825;    0.000
257.103;  633.700;  223.825;    0.000
257.171;  570.700;  141.825;    0.000
257.238;  549.700;  146.825;    0.000
257.306;  588.700;  180.825;    0.000
257.374;  605.700;  138.825;    0.000
257.442;  573.700;  135.825;    0.000
257.510;  665.700;  130.825;    0.000
257.578;  583.700;  123.825;    0.000
257.646;  618.700;  162.825;    0.000
257.713;  655.700;  149.825;    0.000
257.781;  593.700;  125.825;    0.000
257.849;  679.700;  149.825;    0.000
257.917;  696.700;  177.825;    0.000
257.985;  673.700;  143.825;    0.000
258.052;  596.700;  154.825;    0.000
258.120;  699.700;  162.825;    0.000
258.188;  684.700;  172.825;    0.000
258.256;  662.700;  160.825;    0.000
258.324;  707.700;  209.825;    0.000
258.391;  670.700;  153.825;    0.000
258.459;  722.700;  133.825;    0.000
258.527;  666.700;  160.825;    0.000
258.595;  747.700;  128.825;    0.000
258.662;  702.700;  114.825;    0.000
258.730;  731.700;  192.825;    0.000
258.798;  713.700;  144.825;    0.000
258.865;  767.700;  140.825;    0.000
258.933;  800.700;  150.825;    0.000
259.001;  797.700;  149.825;    0.000
259.069;  774.700;  110.825;    0.000
259.136;  767.700;  150.825;    0.000
259.204;  790.700;  156.825;    0.000
259.272;  770.700;  185.825;    0.000
259.339;  833.700;  148.825;    0.000
259.407;  823.700;  163.825;    0.000
259.475;  772.700;  129.825;    0.000
259.542;  839.700;  144.825;    0.000
259.610;  811.700;  164.825;    0.000
259.677;  817.700;  188.825;    0.000
259.745;  930.700;  113.825;    0.000
259.813;  908.700;  188.825;    0.000
259.880;  910.700;  174.825;    0.000
259.948;  856.700;  166.825;    0.000
260.016;  825.700;  150.825;    0.000
260.083;  913.700;  178.825;    0.000
260.151;  936.700;  120.825;    0.000
260.218;  945.700;  175.825;    0.000
260.286;  922.700;  155.825;    0.000
260.353;  933.700;  165.825;    0.000
260.421;  915.700;  169.825;    0.000
260.489; 1020.700;  194.825;    0.000
260.556;  941.700;  161.825;    0.000
260.624;  959.700;  179.825;    0.000
260.691;  959.700;  174.825;    0.000
260.759; 1004.700;  164.825;    0.000
260.826;  910.700;  125.825;    0.000
260.894; 1041.700;  164.825;    0.000
260.961;  986.700;  147.825;    0.000
261.029; 1074.700;  167.825;    0.000
261.096; 1020.700;  136.825;    0.000
261.164; 1061.700;  146.825;    0.000
261.231; 1085.700;  190.825;    0.000
261.299; 1067.700;  171.825;    0.000
261.366; 1071.700;  165.825;    0.000
261.434; 1070.700;  160.825;    0.000
261.501; 1025.700;  149.825;    0.000
261.568; 1111.700;  155.825;    0.000
261.636; 1048.700;  137.825;    0.000
261.703; 1112.700;  186.825;    0.000
261.771; 1083.700;  162.825;    0.000
261.838; 1105.700;  190.825;    0.000
261.906; 1038.700;  133.825;    0.000
261.973; 1166.700;  202.825;    0.000
262.040; 1116.700;  179.825;    0.000
262.108; 1192.700;  161.825;    0.000
262.175; 1215.700;  155.825;    0.000
262.243; 1121.700;  158.825;    0.000
262.310; 1165.700;  129.825;    0.000
262.377; 1146.700;  157.825;    0.000
262.445; 1190.700;  132.825;    0.000
262.512; 1236.700;  161.825;    0.000
262.579; 1293.700;  151.825;    0.000
262.647; 1299.700;  174.825;    0.000
262.714; 1235.700;  174.825;    0.000
262.781; 1251.700;  164.825;    0.000
262.849; 1258.700;  168.825;    0.000
262.916; 1219.700;  153.825;    0.000
262.983; 1318.700;  201.825;    0.000
263.051; 1316.700;  117.825;    0.000
263.118; 1266.700;  150.825;    0.000
263.185; 1365.700;  172.825;    0.000
263.252; 1300.700;  154.825;    0.000
263.320; 1325.700;  152.825;    0.000
263.387; 1318.700;  136.825;    0.000
263.454; 1317.700;  167.825;    0.000
263.522; 1345.700;  122.825;    0.000
263.589; 1394.700;  147.825;    0.000
263.656; 1321.700;  130.825;    0.000
263.723; 1349.700;  182.825;    0.000
263.790; 1397.700;  163.825;    0.000
263.858; 1405.700;  161.825;    0.000
263.925; 1435.700;  153.825;    0.000
263.992; 1453.700;  139.825;    0.000
264.059; 1451.700;  141.825;    0.000
264.126; 1477.700;  153.825;    0.000
264.194; 1407.700;  144.825;    0.000
264.261; 1402.700;  188.825;    0.000
264.328; 1457.700;  161.825;    0.000
264.395; 1508.700;  184.825;    0.000
264.462; 1453.700;  162.825;    0.000
264.529; 1486.700;  178.825;    0.000
264.597; 1493.700;  160.825;    0.000
264.664; 1527.700;  158.825;    0.000
264.731; 1456.700;  176.825;    0.000
264.798; 1451.700;  137.825;    0.000
264.865; 1423.700;  175.825;    0.000
264.932; 1481.700;  162.825;    0.000
264.999; 1544.700;  153.825;    0.000
265.066; 1532.700;  168.825;    0.000
265.133; 1540.700;  142.825;    0.000
265.201; 1576.700;  163.825;    0.000
265.268; 1555.700;  143.825;    0.000
265.335; 1596.700;  156.825;    0.000
265.402; 1586.700;  136.825;    0.000
265.469; 1500.700;  127.825;    0.000
265.536; 1642.700;  159.825;    0.000
265.603; 1638.700;  191.825;    0.000
265.670; 1594.700;  136.825;    0.000
265.737; 1573.700;  186.825;    0.000
265.804; 1580.700;  147.825;    0.000
265.871; 1647.700;  147.825;    0.000
265.938; 1611.700;  153.825;    0.000
266.005; 1611.700;  172.825;    0.000
266.072; 1633.700;  151.825;    0.000
266.139; 1694.700;  175.825;    0.000
266.206; 1670.700;  165.825;    0.000
266.273; 1674.700;  162.825;    0.000
266.340; 1680.700;  150.825;    0.000
266.407; 1629.700;  169.825;    0.000
266.474; 1687.700;  151.825;    0.000
266.541; 1731.700;  164.825;    0.000
266.608; 1669.700;  111.825;    0.000
266.675; 1788.700;  173.825;    0.000
266.742; 1735.700;  148.825;    0.000
266.808; 1712.700;  185.825;    0.000
266.875; 1710.700;  188.825;    0.000
266.942; 1743.700;  131.825;    0.000
267.009; 1686.700;  184.825;    0.000
267.076; 1752.700;  200.825;    0.000
267.143; 1794.700;  216.825;    0.000
267.210; 1699.700;  138.825;    0.000
267.277; 1730.700;  143.825;    0.000
267.344; 1737.700;  172.825;    0.000
267.410; 1798.700;  172.825;    0.000
267.477; 1779.700;  160.825;    0.000
267.544; 1738.700;  175.825;    0.000
267.611; 1873.700;  189.825;    0.000
267.678; 1777.700;  162.825;    0.000
267.745; 1867.700;  206.825;    0.000
267.811; 1722.700;  146.825;    0.000
267.878; 1747.700;  147.825;    0.000
267.945; 1817.700;  170.825;    0.000
268.012; 1847.700;  153.825;    0.000
268.079; 1796.700;  185.825;    0.000
268.145; 1779.700;  197.825;    0.000
268.212; 1700.700;  167.825;    0.000
268.279; 1773.700;  145.825;    0.000
268.346; 1830.700;  182.825;    0.000
268.412; 1824.700;  144.825;    0.000
268.479; 1738.700;  186.825;    0.000
268.546; 1782.700;  147.825;    0.000
268.613; 1805.700;  188.825;    0.000
268.679; 1713.700;  173.825;    0.000
268.746; 1786.700;  204.825;    0.000
268.813; 1839.700;  199.825;    0.000
268.879; 1769.700;  157.825;    0.000
268.946; 1817.700;  192.825;    0.000
269.013; 1743.700;  136.825;    0.000
269.079; 1831.700;  166.825;    0.000
269.146; 1814.700;  129.825;    0.000
269.213; 1793.700;  178.825;    0.000
269.280; 1771.700;  148.825;    0.000
269.346; 1830.700;  194.825;    0.000
269.413; 1742.700;  135.825;    0.000
269.479; 1757.700;  180.825;    0.000
269.546; 1775.700;  169.825;    0.000
269.613; 1694.700;  160.825;    0.000
269.679; 1735.700;  161.825;    0.000
269.746; 1721.700;  143.825;    0.000
269.813; 1797.700;  172.825;    0.000
269.879; 1764.700;  152.825;    0.000
269.946; 1759.700;  156.825;    0.000
270.012; 1768.700;  190.825;    0.000
270.079; 1785.700;  143.825;    0.000
270.145; 1775.700;  148.825;    0.000
270.212; 1828.700;  176.825;    0.000
270.279; 1826.700;  168.825;    0.000
270.345; 1752.700;  143.825;    0.000
270.412; 1683.700;  155.825;    0.000
270.478; 1760.700;  176.825;    0.000
270.545; 1802.700;  112.825;    0.000
270.611; 1779.700;  186.825;    0.000
270.678; 1854.700;  141.825;    0.000
270.744; 1792.700;  145.825;    0.000
270.811; 1736.700;  120.825;    0.000
270.877; 1715.700;  118.825;    0.000
270.944; 1658.700;  135.825;    0.000
271.010; 1689.700;  128.825;    0.000
271.077; 1816.700;  176.825;    0.000
271.143; 1830.700;  162.825;    0.000
271.210; 1770.700;  133.825;    0.000
271.276; 1707.700;  107.825;    0.000
271.342; 1783.700;  202.825;    0.000
271.409; 1802.700;  160.825;    0.000
271.475; 1721.700;  165.825;    0.000
271.542; 1845.700;  152.825;    0.000
271.608; 1708.700;  163.825;    0.000
271.675; 1700.700;  149.825;    0.000
271.741; 1751.700;  164.825;    0.000
271.807; 1763.700;  128.825;    0.000
271.874; 1775.700;  148.825;    0.000
271.940; 1790.700;  179.825;    0.000
272.007; 1778.700;  148.825;    0.000
272.073; 1780.700;  146.825;    0.000
272.139; 1774.700;  166.825;    0.000
272.206; 1762.700;  198.825;    0.000
272.272; 1775.700;  201.825;    0.000
272.338; 1817.700;  208.825;    0.000
272.405; 1726.700;  181.825;    0.000
272.471; 1789.700;  167.825;    0.000
272.537; 1751.700;  189.825;    0.000
272.604; 1824.700;  162.825;    0.000
272.670; 1787.700;  194.825;    0.000
272.736; 1699.700;  176.825;    0.000
272.802; 1817.700;  163.825;    0.000
272.869; 1828.700;  170.825;    0.000
272.935; 1746.700;  145.825;    0.000
273.001; 1746.700;  149.825;    0.000
273.068; 1790.700;  172.825;    0.000
273.134; 1785.700;  155.825;    0.000
273.200; 1818.700;  183.825;    0.000
273.266; 1835.700;  160.825;    0.000
273.333; 1859.700;  190.825;    0.000
273.399; 1857.700;  132.825;    0.000
273.465; 1881.700;  179.825;    0.000
273.531; 1891.700;  161.825;    0.000
273.597; 1848.700;  194.825;    0.000
273.664; 1928.700;  193.825;    0.000
273.730; 1867.700;  180.825;    0.000
273.796; 1823.700;  145.825;    0.000
273.862; 1940.700;  176.825;    0.000
273.928; 1874.700;  169.825;    0.000
273.995; 1914.700;  202.825;    0.000
274.061; 1934.700;  176.825;    0.000
274.127; 1950.700;  178.825;    0.000
274.193; 1908.700;  106.825;    0.000
274.259; 1953.700;  186.825;    0.000
274.325; 1971.700;  163.825;    0.000
274.391; 1909.700;  162.825;    0.000
274.457; 1959.700;  145.825;    0.000
274.524; 1922.700;  189.825;    0.000
274.590; 2015.700;  161.825;    0.000
274.656; 2040.700;  157.825;    0.000
274.722; 1993.700;  143.825;    0.000
274.788; 2030.700;  166.825;    0.000
274.854; 2031.700;  200.825;    0.000
274.920; 2086.700;  132.825;    0.000
274.986; 2060.700;  184.825;    0.000
275.052; 2001.700;  169.825;    0.000
275.118; 2009.700;  153.825;    0.000
275.184; 2180.700;  182.825;    0.000
275.250; 2115.700;  124.825;    0.000
275.316; 2200.700;  154.825;    0.000
275.382; 2065.700;  150.825;    0.000
275.448; 2133.700;  180.825;    0.000
275.514; 2170.700;  143.825;    0.000
275.580; 2208.700;  120.825;    0.000
275.646; 2194.700;  127.825;    0.000
275.712; 2131.700;  109.825;    0.000
275.778; 2273.700;  126.825;    0.000
275.844; 2321.700;  155.825;    0.000
275.910; 2374.700;  164.825;    0.000
275.976; 2409.700;  161.825;    0.000
276.042; 2390.700;  152.825;    0.000
276.108; 2375.700;  159.825;    0.000
276.174; 2371.700;  149.825;    0.000
276.240; 2469.700;  112.825;    0.000
276.306; 2543.700;  142.825;    0.000
276.372; 2491.700;  136.825;    0.000
276.437; 2546.700;  141.825;    0.000
276.503; 2558.700;  150.825;    0.000
276.569; 2767.700;  178.825;    0.000
276.635; 2768.700;  117.825;    0.000
276.701; 2878.700;  174.825;    0.000
276.767; 2717.700;  136.825;    0.000
276.833; 2821.700;  119.825;    0.000
276.899; 2938.700;  171.825;    0.000
276.964; 2994.700;  146.825;    0.000
277.030; 3129.700;  157.825;    0.000
277.096; 3123.700;  124.825;    0.000
277.162; 3229.700;  185.825;    0.000
277.228; 3301.700;  125.825;    0.000
277.293; 3487.700;  159.825;    0.000
277.359; 3625.700;  186.825;    0.000
277.425; 3788.700;  176.825;    0.000
277.491; 3999.700;  140.825;    0.000
277.557; 4813.700;  172.825;    0.000
277.622; 6546.700;  187.825;    0.000
277.688; 6411.700;  203.825;    0.000
277.754; 6552.700;  170.825;    0.000
277.820; 7400.700;  142.825;    0.000
277.885; 8935.700;  182.825;    0.000
277.951;11441.700;  171.825;    0.000
278.017; 9584.700;  173.825;    0.000
278.083; 8138.700;  151.825;    0.000
278.148; 7960.700;  159.825;    0.000
278.214; 7994.700;  173.825;    0.000
278.280; 8597.700;  137.825;    0.000
278.345; 7740.700;  190.825;    0.000
278.411; 7083.700;  149.825;    0.000
278.477; 7488.700;  157.825;    0.000
278.542; 8177.700;  136.825;    0.000
278.608; 8875.700;  144.825;    0.000
278.674; 9788.700;  215.825;    0.000
278.739;11084.700;  148.825;    0.000
278.805;12888.700;  152.825;    0.000
278.871;15177.700;  170.825;    0.000
278.936;20184.699;  180.825;    0.000
279.002;31780.699;  177.825;    0.000
279.067;41998.699;  172.825;    0.000
279.133;39736.699;  160.825;    0.000
279.199;34585.699;  165.825;    0.000
279.264;35554.699;  130.825;    0.000
279.330;41952.699;  154.825;    0.000
279.395;54605.699;  170.825;    0.000
279.461;65304.699;  136.825;    0.000
279.527;65304.699;  174.825;    0.000
279.592;65304.699;  179.825;    0.000
279.658;61282.699;  187.825;    0.000
279.723;60819.699;  201.825;    0.000
279.789;63376.699;  194.825;    0.000
279.854;55697.699;  171.825;    0.000
279.920;45281.699;  183.825;    0.000
279.985;41125.699;  173.825;    0.000
280.051;41408.699;  194.825;    0.000
280.116;49968.699;  197.825;    0.000
280.182;65304.699;  171.825;    0.000
280.247;65304.699;  131.825;    0.000
280.313;64069.699;  166.825;    0.000
280.378;44840.699;  159.825;    0.000
280.444;32160.699;  190.825;    0.000
280.509;25107.699;  189.825;    0.000
280.574;20716.699;  171.825;    0.000
280.640;17437.699;  167.825;    0.000
280.705;15476.700;  129.825;    0.000
280.771;13700.700;  193.825;    0.000
280.836;12632.700;  172.825;    0.000
280.902;11674.700;  189.825;    0.000
280.967;10533.700;  143.825;    0.000
281.032;10076.700;  182.825;    0.000
281.098; 9394.700;  172.825;    0.000
281.163; 8822.700;  184.825;    0.000
281.229; 8349.700;  210.825;    0.000
281.294; 7839.700;  223.825;    0.000
281.359; 7594.700;  197.825;    0.000
281.425; 7257.700;  192.825;    0.000
281.490; 7017.700;  162.825;    0.000
281.555; 6625.700;  193.825;    0.000
281.621; 6428.700;  141.825;    0.000
281.686; 6215.700;  166.825;    0.000
281.751; 5937.700;  204.825;    0.000
281.816; 5653.700;  159.825;    0.000
281.882; 5407.700;  146.825;    0.000
281.947; 5454.700;  176.825;    0.000
282.012; 5156.700;  139.825;    0.000
282.078; 4957.700;  186.825;    0.000
282.143; 4963.700;  151.825;    0.000
282.208; 4856.700;  213.825;    0.000
282.273; 4757.700;  160.825;    0.000
282.339; 4614.700;  175.825;    0.000
282.404; 4661.700;  157.825;    0.000
282.469; 4408.700;  185.825;    0.000
282.534; 4340.700;  166.825;    0.000
282.600; 4283.700;  168.825;    0.000
282.665; 4229.700;  167.825;    0.000
282.730; 4113.700;  148.825;    0.000
282.795; 4076.700;  186.825;    0.000
282.860; 4188.700;  161.825;    0.000
282.926; 4002.700;  178.825;    0.000
282.991; 3891.700;  139.825;    0.000
283.056; 3921.700;  158.825;    0.000
283.121; 3810.700;  191.825;    0.000
283.186; 3804.700;  182.825;    0.000
283.251; 3645.700;  181.825;    0.000
283.316; 3748.700;  187.825;    0.000
283.382; 3695.700;  175.825;    0.000
283.447; 3737.700;  183.825;    0.000
283.512; 3606.700;  175.825;    0.000
283.577; 3593.700;  180.825;    0.000
283.642; 3516.700;  193.825;    0.000
283.707; 3456.700;  145.825;    0.000
283.772; 3557.700;  143.825;    0.000
283.837; 3429.700;  143.825;    0.000
283.902; 3497.700;  150.825;    0.000
283.967; 3346.700;  166.825;    0.000
284.032; 3454.700;  126.825;    0.000
284.097; 3541.700;  201.825;    0.000
284.163; 3489.700;  133.825;    0.000
284.228; 3511.700;  193.825;    0.000
284.293; 3385.700;  157.825;    0.000
284.358; 3399.700;  185.825;    0.000
284.423; 3451.700;  142.825;    0.000
284.488; 3537.700;  192.825;    0.000
284.553; 3524.700;  146.825;    0.000
284.618; 3667.700;  154.825;    0.000
284.683; 3760.700;  172.825;    0.000
284.748; 3850.700;  195.825;    0.000
284.812; 4003.700;  190.825;    0.000
284.877; 4404.700;  169.825;    0.000
284.942; 5146.700;  195.825;    0.000
285.007; 6230.700;  204.825;    0.000
285.072; 9625.700;  189.825;    0.000
285.137;19446.699;  149.825;    0.000
285.202;26688.699;  164.825;    0.000
285.267;19837.699;  161.825;    0.000
285.332;11077.700;  140.825;    0.000
285.397; 7791.700;  142.825;    0.000
285.462; 6043.700;  146.825;    0.000
285.527; 5188.700;  132.825;    0.000
285.591; 4727.700;  160.825;    0.000
285.656; 4221.700;  136.825;    0.000
285.721; 4088.700;  135.825;    0.000
285.786; 3906.700;  171.825;    0.000
285.851; 3760.700;  168.825;    0.000
285.916; 3584.700;  178.825;    0.000
285.981; 3571.700;  152.825;    0.000
286.045; 3476.700;  167.825;    0.000
286.110; 3365.700;  187.825;    0.000
286.175; 3338.700;  162.825;    0.000
286.240; 3240.700;  163.825;    0.000
286.305; 3204.700;  190.825;    0.000
286.369; 3192.700;  143.825;    0.000
286.434; 3317.700;  185.825;    0.000
286.499; 3141.700;  195.825;    0.000
286.564; 3136.700;  173.825;    0.000
286.628; 3106.700;  159.825;    0.000
286.693; 3000.700;  175.825;    0.000
286.758; 2959.700;  170.825;    0.000
286.823; 3051.700;  129.825;    0.000
286.887; 3054.700;  172.825;    0.000
286.952; 3009.700;  163.825;    0.000
287.017; 3060.700;  217.825;    0.000
287.082; 3050.700;  165.825;    0.000
287.146; 2912.700;  176.825;    0.000
287.211; 3017.700;  192.825;    0.000
287.276; 2917.700;  147.825;    0.000
287.340; 2840.700;  162.825;    0.000
287.405; 2993.700;  196.825;    0.000
287.470; 2860.700;  148.825;    0.000
287.534; 2921.700;  166.825;    0.000
287.599; 2909.700;  193.825;    0.000
287.663; 2904.700;  191.825;    0.000
287.728; 2985.700;  146.825;    0.000
287.793; 2942.700;  234.825;    0.000
287.857; 2921.700;  177.825;    0.000
287.922; 2941.700;  166.825;    0.000
287.987; 2988.700;  169.825;    0.000
288.051; 2915.700;  169.825;    0.000
288.116; 2929.700;  187.825;    0.000
288.180; 2971.700;  200.825;    0.000
288.245; 2965.700;  201.825;    0.000
288.309; 2918.700;  176.825;    0.000
288.374; 2946.700;  162.825;    0.000
288.439; 2895.700;  195.825;    0.000
288.503; 2844.700;  162.825;    0.000
288.568; 2877.700;  228.825;    0.000
288.632; 2905.700;  194.825;    0.000
288.697; 2831.700;  173.825;    0.000
288.761; 2856.700;  153.825;    0.000
288.826; 2860.700;  151.825;    0.000
288.890; 2837.700;  208.825;    0.000
288.955; 2841.700;  159.825;    0.000
289.019; 2716.700;  198.825;    0.000
289.084; 2700.700;  152.825;    0.000
289.148; 2940.700;  171.825;    0.000
289.212; 2779.700;  184.825;    0.000
289.277; 2841.700;  165.825;    0.000
289.341; 2824.700;  207.825;    0.000
289.406; 2754.700;  156.825;    0.000
289.470; 2878.700;  191.825;    0.000
289.535; 2840.700;  222.825;    0.000
289.599; 2759.700;  214.825;    0.000
289.663; 2774.700;  183.825;    0.000
289.728; 2771.700;  192.825;    0.000
289.792; 2745.700;  197.825;    0.000
289.857; 2858.700;  221.825;    0.000
289.921; 2842.700;  177.825;    0.000
289.985; 2767.700;  177.825;    0.000
290.050; 2718.700;  178.825;    0.000
290.114; 2827.700;  112.825;    0.000
290.178; 2781.700;  170.825;    0.000
290.243; 2697.700;  162.825;    0.000
290.307; 2786.700;  178.825;    0.000
290.371; 2861.700;  141.825;    0.000
290.436; 2740.700;  178.825;    0.000
290.500; 2725.700;  135.825;    0.000
290.564; 2769.700;  199.825;    0.000
290.629; 2731.700;  165.825;    0.000
290.693; 2813.700;  154.825;    0.000
290.757; 2804.700;  159.825;    0.000
290.821; 2789.700;  179.825;    0.000
290.886; 2807.700;  141.825;    0.000
290.950; 2924.700;  166.825;    0.000
291.014; 2777.700;  169.825;    0.000
291.078; 2920.700;  191.825;    0.000
291.143; 2803.700;  169.825;    0.000
291.207; 2982.700;  164.825;    0.000
291.271; 2932.700;  193.825;    0.000
291.335; 2937.700;  150.825;    0.000
291.399; 2994.700;  175.825;    0.000
291.464; 3232.700;  128.825;    0.000
291.528; 3445.700;  162.825;    0.000
291.592; 3270.700;  152.825;    0.000
291.656; 3167.700;  175.825;    0.000
291.720; 3153.700;  173.825;    0.000
291.784; 3040.700;  192.825;    0.000
291.849; 3025.700;  159.825;    0.000
291.913; 3051.700;  174.825;    0.000
291.977; 3052.700;  177.825;    0.000
292.041; 3107.700;  188.825;    0.000
292.105; 3256.700;  174.825;    0.000
292.169; 3129.700;  143.825;    0.000
292.233; 3114.700;  149.825;    0.000
292.297; 3330.700;  176.825;    0.000
292.361; 3376.700;  178.825;    0.000
292.425; 3432.700;  153.825;    0.000
292.490; 3555.700;  185.825;    0.000
292.554; 3787.700;  144.825;    0.000
292.618; 4087.700;  166.825;    0.000
292.682; 4428.700;  181.825;    0.000
292.746; 5366.700;  152.825;    0.000
292.810; 8084.700;  208.825;    0.000
292.874;10452.700;  142.825;    0.000
292.938;10228.700;  195.825;    0.000
293.002; 8656.700;  156.825;    0.000
293.066; 7467.700;  108.825;    0.000
293.130; 6752.700;  136.825;    0.000
293.194; 6342.700;  135.825;    0.000
293.258; 5890.700;  187.825;    0.000
293.322; 5946.700;  148.825;    0.000
293.386; 6056.700;  186.825;    0.000
293.450; 6502.700;  196.825;    0.000
293.514; 7923.700;  175.825;    0.000
293.577;11337.700;  137.825;    0.000
293.641;16429.699;  142.825;    0.000
293.705;17214.699;  201.825;    0.000
293.769;14357.700;  150.825;    0.000
293.833;11770.700;  147.825;    0.000
293.897;10109.700;  170.825;    0.000
293.961; 8571.700;  121.825;    0.000
294.025; 7659.700;  172.825;    0.000
294.089; 6699.700;  167.825;    0.000
294.152; 6393.700;  167.825;    0.000
294.216; 5867.700;  165.825;    0.000
294.280; 5532.700;  168.825;    0.000
294.344; 5114.700;  160.825;    0.000
294.408; 4896.700;  187.825;    0.000
294.472; 4511.700;  141.825;    0.000
294.536; 4492.700;  184.825;    0.000
294.599; 4282.700;  176.825;    0.000
294.663; 4101.700;  120.825;    0.000
294.727; 4098.700;  159.825;    0.000
294.791; 3870.700;  190.825;    0.000
294.855; 3780.700;  148.825;    0.000
294.918; 3625.700;  160.825;    0.000
294.982; 3617.700;  156.825;    0.000
295.046; 3507.700;  177.825;    0.000
295.110; 3465.700;  149.825;    0.000
295.173; 3296.700;  156.825;    0.000
295.237; 3279.700;  174.825;    0.000
295.301; 3143.700;  152.825;    0.000
295.364; 3178.700;  204.825;    0.000
295.428; 3229.700;  196.825;    0.000
295.492; 3118.700;  178.825;    0.000
295.556; 3134.700;  161.825;    0.000
295.619; 3116.700;  178.825;    0.000
295.683; 3011.700;  152.825;    0.000
295.747; 2991.700;  148.825;    0.000
295.810; 2983.700;  177.825;    0.000
295.874; 2951.700;  146.825;    0.000
295.938; 2958.700;  115.825;    0.000
296.001; 2882.700;  172.825;    0.000
296.065; 2842.700;  146.825;    0.000
296.128; 2782.700;  164.825;    0.000
296.192; 2744.700;  137.825;    0.000
296.256; 2833.700;  143.825;    0.000
296.319; 2779.700;  156.825;    0.000
296.383; 2763.700;  165.825;    0.000
296.447; 2791.700;  170.825;    0.000
296.510; 2796.700;  174.825;    0.000
296.574; 2709.700;  127.825;    0.000
296.637; 2740.700;  132.825;    0.000
296.701; 2762.700;  206.825;    0.000
296.764; 2694.700;  179.825;    0.000
296.828; 2710.700;  213.825;    0.000
296.891; 2717.700;  149.825;    0.000
296.955; 2696.700;  170.825;    0.000
297.018; 2565.700;  185.825;    0.000
297.082; 2681.700;  205.825;    0.000
297.145; 2693.700;  154.825;    0.000
297.209; 2595.700;  200.825;    0.000
297.272; 2692.700;  157.825;    0.000
297.336; 2505.700;  164.825;    0.000
297.399; 2653.700;  166.825;    0.000
297.463; 2565.700;  195.825;    0.000
297.526; 2560.700;  176.825;    0.000
297.590; 2534.700;  198.825;    0.000
297.653; 2571.700;  146.825;    0.000
297.717; 2517.700;  175.825;    0.000
297.780; 2507.700;  139.825;    0.000
297.843; 2642.700;  174.825;    0.000
297.907; 2447.700;  149.825;    0.000
297.970; 2526.700;  161.825;    0.000
298.034; 2583.700;  185.825;    0.000
298.097; 2546.700;  167.825;    0.000
298.160; 2511.700;  195.825;    0.000
298.224; 2522.700;  178.825;    0.000
298.287; 2519.700;  164.825;    0.000
298.350; 2554.700;  194.825;    0.000
298.414; 2511.700;  191.825;    0.000
298.477; 2452.700;  155.825;    0.000
298.540; 2525.700;  139.825;    0.000
298.604; 2510.700;  198.825;    0.000
298.667; 2533.700;  183.825;    0.000
298.730; 2472.700;  185.825;    0.000
298.794; 2430.700;  153.825;    0.000
298.857; 2481.700;  169.825;    0.000
298.920; 2453.700;  159.825;    0.000
298.984; 2427.700;  179.825;    0.000
299.047; 2466.700;  174.825;    0.000
299.110; 2321.700;  144.825;    0.000
299.173; 2353.700;  190.825;    0.000
299.237; 2385.700;  163.825;    0.000
299.300; 2290.700;  153.825;    0.000
299.363; 2329.700;  145.825;    0.000
299.426; 2305.700;  160.825;    0.000
299.489; 2369.700;  173.825;    0.000
299.553; 2349.700;  209.825;    0.000
299.616; 2333.700;  172.825;    0.000
299.679; 2385.700;  204.825;    0.000
299.742; 2269.700;  162.825;    0.000
299.805; 2293.700;  198.825;    0.000
299.868; 2231.700;  176.825;    0.000
299.932; 2263.700;  166.825;    0.000
299.995; 2325.700;  162.825;    0.000
300.058; 2317.700;  175.825;    0.000
300.121; 2229.700;  197.825;    0.000
300.184; 2280.700;  188.825;    0.000
300.247; 2212.700;  181.825;    0.000
300.310; 2265.700;  161.825;    0.000
300.374; 2269.700;  201.825;    0.000
300.437; 2323.700;  156.825;    0.000
300.500; 2284.700;  180.825;    0.000
300.563; 2298.700;  174.825;    0.000
300.626; 2307.700;  206.825;    0.000
300.689; 2299.700;  218.825;    0.000
300.752; 2200.700;  192.825;    0.000
300.815; 2252.700;  172.825;    0.000
300.878; 2307.700;  207.825;    0.000
300.941; 2272.700;  163.825;    0.000
301.004; 2220.700;  171.825;    0.000
301.067; 2220.700;  198.825;    0.000
301.130; 2280.700;  156.825;    0.000
301.193; 2304.700;  173.825;    0.000
301.256; 2186.700;  167.825;    0.000
301.319; 2294.700;  211.825;    0.000
301.382; 2288.700;  167.825;    0.000
301.445; 2262.700;  224.825;    0.000
301.508; 2230.700;  168.825;    0.000
301.571; 2209.700;  161.825;    0.000
301.634; 2289.700;  177.825;    0.000
301.697; 2208.700;  203.825;    0.000
301.760; 2241.700;  190.825;    0.000
301.823; 2319.700;  182.825;    0.000
301.885; 2181.700;  202.825;    0.000
301.948; 2243.700;  200.825;    0.000
302.011; 2248.700;  157.825;    0.000
302.074; 2271.700;  205.825;    0.000
302.137; 2138.700;  149.825;    0.000
302.200; 2235.700;  201.825;    0.000
302.263; 2172.700;  178.825;    0.000
302.326; 2200.700;  184.825;    0.000
302.388; 2256.700;  176.825;    0.000
302.451; 2191.700;  146.825;    0.000
302.514; 2148.700;  192.825;    0.000
302.577; 2224.700;  181.825;    0.000
302.640; 2138.700;  186.825;    0.000
302.703; 2146.700;  164.825;    0.000
302.765; 2184.700;  197.825;    0.000
302.828; 2228.700;  208.825;    0.000
302.891; 2184.700;  168.825;    0.000
302.954; 2185.700;  177.825;    0.000
303.016; 2167.700;  190.825;    0.000
303.079; 2162.700;  216.825;    0.000
303.142; 2212.700;  228.825;    0.000
303.205; 2258.700;  192.825;    0.000
303.267; 2177.700;  182.825;    0.000
303.330; 2154.700;  201.825;    0.000
303.393; 2191.700;  196.825;    0.000
303.456; 2274.700;  184.825;    0.000
303.518; 2157.700;  194.825;    0.000
303.581; 2131.700;  195.825;    0.000
303.644; 2183.700;  184.825;    0.000
303.706; 2154.700;  150.825;    0.000
303.769; 2215.700;  182.825;    0.000
303.832; 2167.700;  143.825;    0.000
303.894; 2140.700;  207.825;    0.000
303.957; 2172.700;  178.825;    0.000
304.020; 2213.700;  203.825;    0.000
304.082; 2118.700;  175.825;    0.000
304.145; 2220.700;  171.825;    0.000
304.207; 2166.700;  157.825;    0.000
304.270; 2094.700;  195.825;    0.000
304.333; 2141.700;  195.825;    0.000
304.395; 2207.700;  197.825;    0.000
304.458; 2074.700;  231.825;    0.000
304.520; 2165.700;  218.825;    0.000
304.583; 2161.700;  177.825;    0.000
304.646; 2199.700;  177.825;    0.000
304.708; 2138.700;  178.825;    0.000
304.771; 2153.700;  143.825;    0.000
304.833; 2135.700;  241.825;    0.000
304.896; 2163.700;  200.825;    0.000
304.958; 2128.700;  176.825;    0.000
305.021; 2117.700;  159.825;    0.000
305.083; 2163.700;  159.825;    0.000
305.146; 2088.700;  190.825;    0.000
305.208; 2092.700;  152.825;    0.000
305.271; 2158.700;  162.825;    0.000
305.333; 2175.700;  219.825;    0.000
305.396; 2174.700;  163.825;    0.000
305.458; 2194.700;  215.825;    0.000
305.520; 2132.700;  174.825;    0.000
305.583; 2167.700;  161.825;    0.000
305.645; 2212.700;  203.825;    0.000
305.708; 2197.700;  163.825;    0.000
305.770; 2185.700;  215.825;    0.000
305.833; 2168.700;  207.825;    0.000
305.895; 2112.700;  166.825;    0.000
305.957; 2210.700;  175.825;    0.000
306.020; 2133.700;  169.825;    0.000
306.082; 2279.700;  203.825;    0.000
306.144; 2172.700;  181.825;    0.000
306.207; 2144.700;  199.825;    0.000
306.269; 2249.700;  177.825;    0.000
306.331; 2093.700;  160.825;    0.000
306.394; 2202.700;  193.825;    0.000
306.456; 2128.700;  136.825;    0.000
306.518; 2112.700;  189.825;    0.000
306.581; 2157.700;  156.825;    0.000
306.643; 2241.700;  190.825;    0.000
306.705; 2187.700;  190.825;    0.000
306.768; 2162.700;  172.825;    0.000
306.830; 2272.700;  214.825;    0.000
306.892; 2203.700;  198.825;    0.000
306.954; 2213.700;  177.825;    0.000
307.017; 2190.700;  183.825;    0.000
307.079; 2149.700;  170.825;    0.000
307.141; 2318.700;  173.825;    0.000
307.203; 2288.700;  171.825;    0.000
307.266; 2293.700;  166.825;    0.000
307.328; 2271.700;  207.825;    0.000
307.390; 2241.700;  201.825;    0.000
307.452; 2255.700;  182.825;    0.000
307.514; 2258.700;  213.825;    0.000
307.577; 2385.700;  213.825;    0.000
307.639; 2266.700;  197.825;    0.000
307.701; 2309.700;  174.825;    0.000
307.763; 2298.700;  181.825;    0.000
307.825; 2313.700;  186.825;    0.000
307.887; 2357.700;  198.825;    0.000
307.949; 2303.700;  158.825;    0.000
308.012; 2337.700;  209.825;    0.000
308.074; 2343.700;  176.825;    0.000
308.136; 2295.700;  227.825;    0.000
308.198; 2325.700;  187.825;    0.000
308.260; 2296.700;  211.825;    0.000
308.322; 2319.700;  206.825;    0.000
308.384; 2326.700;  186.825;    0.000
308.446; 2326.700;  175.825;    0.000
308.508; 2335.700;  211.825;    0.000
308.570; 2374.700;  191.825;    0.000
308.632; 2392.700;  195.825;    0.000
308.694; 2365.700;  173.825;    0.000
308.756; 2381.700;  185.825;    0.000
308.818; 2430.700;  195.825;    0.000
308.880; 2433.700;  189.825;    0.000
308.942; 2472.700;  231.825;    0.000
309.004; 2581.700;  188.825;    0.000
309.066; 2487.700;  196.825;    0.000
309.128; 2619.700;  155.825;    0.000
309.190; 2675.700;  176.825;    0.000
309.252; 2828.700;  191.825;    0.000
309.314; 2777.700;  236.825;    0.000
309.376; 2784.700;  212.825;    0.000
309.438; 2674.700;  201.825;    0.000
309.500; 2572.700;  206.825;    0.000
309.562; 2724.700;  213.825;    0.000
309.624; 2891.700;  196.825;    0.000
309.686; 3056.700;  198.825;    0.000
309.747; 2763.700;  186.825;    0.000
309.809; 2742.700;  215.825;    0.000
309.871; 2656.700;  242.825;    0.000
309.933; 2656.700;  162.825;    0.000
309.995; 2622.700;  163.825;    0.000
310.057; 2574.700;  145.825;    0.000
310.119; 2671.700;  205.825;    0.000
310.180; 2518.700;  195.825;    0.000
310.242; 2608.700;  167.825;    0.000
310.304; 2585.700;  213.825;    0.000
310.366; 2619.700;  224.825;    0.000
310.428; 2546.700;  170.825;    0.000
310.489; 2559.700;  195.825;    0.000
310.551; 2582.700;  207.825;    0.000
310.613; 2539.700;  168.825;    0.000
310.675; 2510.700;  188.825;    0.000
310.737; 2459.700;  211.825;    0.000
310.798; 2426.700;  221.825;    0.000
310.860; 2429.700;  201.825;    0.000
310.922; 2520.700;  206.825;    0.000
310.983; 2525.700;  222.825;    0.000
311.045; 2476.700;  235.825;    0.000
311.107; 2463.700;  184.825;    0.000
311.169; 2473.700;  148.825;    0.000
311.230; 2464.700;  211.825;    0.000
311.292; 2495.700;  235.825;    0.000
311.354; 2432.700;  183.825;    0.000
311.415; 2414.700;  196.825;    0.000
311.477; 2435.700;  200.825;    0.000
311.539; 2492.700;  171.825;    0.000
311.600; 2482.700;  169.825;    0.000
311.662; 2410.700;  231.825;    0.000
311.724; 2457.700;  204.825;    0.000
311.785; 2390.700;  214.825;    0.000
311.847; 2394.700;  193.825;    0.000
311.908; 2433.700;  180.825;    0.000
311.970; 2425.700;  233.825;    0.000
312.032; 2433.700;  192.825;    0.000
312.093; 2457.700;  195.825;    0.000
312.155; 2425.700;  194.825;    0.000
312.216; 2439.700;  238.825;    0.000
312.278; 2471.700;  146.825;    0.000
312.339; 2403.700;  184.825;    0.000
312.401; 2425.700;  201.825;    0.000
312.462; 2487.700;  173.825;    0.000
312.524; 2420.700;  205.825;    0.000
312.585; 2396.700;  199.825;    0.000
312.647; 2388.700;  168.825;    0.000
312.708; 2493.700;  180.825;    0.000
312.770; 2450.700;  180.825;    0.000
312.831; 2416.700;  176.825;    0.000
312.893; 2516.700;  211.825;    0.000
312.954; 2416.700;  178.825;    0.000
313.016; 2413.700;  204.825;    0.000
313.077; 2469.700;  216.825;    0.000
313.139; 2444.700;  172.825;    0.000
313.200; 2408.700;  197.825;    0.000
313.261; 2500.700;  227.825;    0.000
313.323; 2419.700;  204.825;    0.000
313.384; 2423.700;  182.825;    0.000
313.446; 2576.700;  204.825;    0.000
313.507; 2444.700;  164.825;    0.000
313.568; 2454.700;  197.825;    0.000
313.630; 2398.700;  190.825;    0.000
313.691; 2478.700;  185.825;    0.000
313.752; 2458.700;  192.825;    0.000
313.814; 2392.700;  176.825;    0.000
313.875; 2479.700;  210.825;    0.000
313.936; 2481.700;  165.825;    0.000
313.998; 2423.700;  162.825;    0.000
314.059; 2381.700;  178.825;    0.000
314.120; 2394.700;  176.825;    0.000
314.182; 2528.700;  167.825;    0.000
314.243; 2497.700;  204.825;    0.000
314.304; 2490.700;  197.825;    0.000
314.365; 2465.700;  183.825;    0.000
314.427; 2373.700;  176.825;    0.000
314.488; 2444.700;  149.825;    0.000
314.549; 2533.700;  218.825;    0.000
314.610; 2493.700;  160.825;    0.000
314.672; 2459.700;  187.825;    0.000
314.733; 2479.700;  184.825;    0.000
314.794; 2472.700;  164.825;    0.000
314.855; 2407.700;  191.825;    0.000
314.917; 2409.700;  172.825;    0.000
314.978; 2426.700;  185.825;    0.000
315.039; 2454.700;  194.825;    0.000
315.100; 2476.700;  190.825;    0.000
315.161; 2542.700;  185.825;    0.000
315.222; 2433.700;  204.825;    0.000
315.283; 2519.700;  166.825;    0.000
315.345; 2391.700;  133.825;    0.000
315.406; 2486.700;  191.825;    0.000
315.467; 2467.700;  166.825;    0.000
315.528; 2403.700;  194.825;    0.000
315.589; 2452.700;  193.825;    0.000
315.650; 2372.700;  190.825;    0.000
315.711; 2437.700;  219.825;    0.000
315.772; 2516.700;  159.825;    0.000
315.833; 2554.700;  191.825;    0.000
315.894; 2444.700;  202.825;    0.000
315.955; 2484.700;  167.825;    0.000
316.016; 2455.700;  177.825;    0.000
316.078; 2406.700;  185.825;    0.000
316.139; 2405.700;  219.825;    0.000
316.200; 2372.700;  163.825;    0.000
316.261; 2330.700;  183.825;    0.000
316.322; 2470.700;  230.825;    0.000
316.383; 2353.700;  198.825;    0.000
316.444; 2521.700;  209.825;    0.000
316.504; 2424.700;  179.825;    0.000
316.565; 2467.700;  185.825;    0.000
316.626; 2375.700;  155.825;    0.000
316.687; 2393.700;  211.825;    0.000
316.748; 2383.700;  192.825;    0.000
316.809; 2368.700;  183.825;    0.000
316.870; 2388.700;  196.825;    0.000
316.931; 2394.700;  173.825;    0.000
316.992; 2439.700;  179.825;    0.000
317.053; 2490.700;  186.825;    0.000
317.114; 2436.700;  189.825;    0.000
317.175; 2426.700;  226.825;    0.000
317.235; 2465.700;  206.825;    0.000
317.296; 2348.700;  191.825;    0.000
317.357; 2353.700;  173.825;    0.000
317.418; 2430.700;  212.825;    0.000
317.479; 2381.700;  247.825;    0.000
317.540; 2359.700;  205.825;    0.000
317.601; 2376.700;  205.825;    0.000
317.661; 2323.700;  150.825;    0.000
317.722; 2425.700;  198.825;    0.000
317.783; 2355.700;  153.825;    0.000
317.844; 2498.700;  202.825;    0.000
317.904; 2450.700;  180.825;    0.000
317.965; 2466.700;  205.825;    0.000
318.026; 2409.700;  223.825;    0.000
318.087; 2452.700;  218.825;    0.000
318.148; 2395.700;  207.825;    0.000
318.208; 2413.700;  212.825;    0.000
318.269; 2329.700;  174.825;    0.000
318.330; 2431.700;  191.825;    0.000
318.390; 2406.700;  197.825;    0.000
318.451; 2378.700;  167.825;    0.000
318.512; 2409.700;  174.825;    0.000
318.572; 2359.700;  199.825;    0.000
318.633; 2384.700;  233.825;    0.000
318.694; 2435.700;  232.825;    0.000
318.754; 2427.700;  181.825;    0.000
318.815; 2309.700;  199.825;    0.000
318.876; 2386.700;  207.825;    0.000
318.936; 2438.700;  202.825;    0.000
318.997; 2318.700;  182.825;    0.000
319.058; 2322.700;  180.825;    0.000
319.118; 2443.700;  199.825;    0.000
319.179; 2441.700;  199.825;    0.000
319.239; 2359.700;  229.825;    0.000
319.300; 2373.700;  223.825;    0.000
319.361; 2375.700;  210.825;    0.000
319.421; 2302.700;  205.825;    0.000
319.482; 2373.700;  205.825;    0.000
319.542; 2336.700;  176.825;    0.000
319.603; 2309.700;  191.825;    0.000
319.663; 2352.700;  183.825;    0.000
319.724; 2347.700;  174.825;    0.000
319.784; 2299.700;  198.825;    0.000
319.845; 2358.700;  218.825;    0.000
319.905; 2369.700;  217.825;    0.000
319.966; 2338.700;  197.825;    0.000
320.026; 2362.700;  209.825;    0.000
320.087; 2420.700;  225.825;    0.000
320.147; 2393.700;  201.825;    0.000
320.208; 2353.700;  176.825;    0.000
320.268; 2325.700;  168.825;    0.000
320.329; 2343.700;  238.825;    0.000
320.389; 2328.700;  220.825;    0.000
320.449; 2353.700;  230.825;    0.000
320.510; 2363.700;  234.825;    0.000
320.570; 2373.700;  210.825;    0.000
320.631; 2430.700;  207.825;    0.000
320.691; 2322.700;  222.825;    0.000
320.751; 2381.700;  195.825;    0.000
320.812; 2396.700;  193.825;    0.000
320.872; 2431.700;  237.825;    0.000
320.932; 2391.700;  213.825;    0.000
320.993; 2285.700;  185.825;    0.000
321.053; 2391.700;  245.825;    0.000
321.113; 2302.700;  206.825;    0.000
321.174; 2330.700;  202.825;    0.000
321.234; 2422.700;  244.825;    0.000
321.294; 2293.700;  228.825;    0.000
321.355; 2360.700;  208.825;    0.000
321.415; 2337.700;  223.825;    0.000
321.475; 2367.700;  203.825;    0.000
321.535; 2343.700;  230.825;    0.000
321.596; 2309.700;  186.825;    0.000
321.656; 2410.700;  216.825;    0.000
321.716; 2369.700;  207.825;    0.000
321.776; 2372.700;  181.825;    0.000
321.837; 2400.700;  207.825;    0.000
321.897; 2385.700;  225.825;    0.000
321.957; 2319.700;  222.825;    0.000
322.017; 2265.700;  215.825;    0.000
322.077; 2328.700;  250.825;    0.000
322.138; 2426.700;  189.825;    0.000
322.198; 2353.700;  200.825;    0.000
322.258; 2390.700;  217.825;    0.000
322.318; 2289.700;  183.825;    0.000
322.378; 2416.700;  231.825;    0.000
322.438; 2301.700;  228.825;    0.000
322.499; 2411.700;  248.825;    0.000
322.559; 2277.700;  198.825;    0.000
322.619; 2319.700;  221.825;    0.000
322.679; 2302.700;  217.825;    0.000
322.739; 2239.700;  204.825;    0.000
322.799; 2318.700;  236.825;    0.000
322.859; 2311.700;  213.825;    0.000
322.919; 2284.700;  210.825;    0.000
322.979; 2337.700;  244.825;    0.000
323.039; 2350.700;  218.825;    0.000
323.099; 2217.700;  232.825;    0.000
323.159; 2390.700;  216.825;    0.000
323.219; 2292.700;  169.825;    0.000
323.279; 2311.700;  236.825;    0.000
323.339; 2421.700;  243.825;    0.000
323.399; 2389.700;  208.825;    0.000
323.459; 2397.700;  220.825;    0.000
323.519; 2348.700;  228.825;    0.000
323.579; 2286.700;  164.825;    0.000
323.639; 2359.700;  209.825;    0.000
323.699; 2349.700;  188.825;    0.000
323.759; 2351.700;  206.825;    0.000
323.819; 2426.700;  204.825;    0.000
323.879; 2385.700;  222.825;    0.000
323.939; 2270.700;  206.825;    0.000
323.999; 2321.700;  202.825;    0.000
324.059; 2318.700;  245.825;    0.000
324.119; 2409.700;  214.825;    0.000
324.178; 2377.700;  183.825;    0.000
324.238; 2303.700;  193.825;    0.000
324.298; 2271.700;  207.825;    0.000
324.358; 2329.700;  196.825;    0.000
324.418; 2241.700;  193.825;    0.000
324.478; 2291.700;  191.825;    0.000
324.538; 2318.700;  224.825;    0.000
324.597; 2334.700;  187.825;    0.000
324.657; 2315.700;  208.825;    0.000
324.717; 2341.700;  198.825;    0.000
324.777; 2302.700;  159.825;    0.000
324.837; 2357.700;  180.825;    0.000
324.896; 2375.700;  215.825;    0.000
324.956; 2314.700;  210.825;    0.000
325.016; 2341.700;  187.825;    0.000
325.076; 2333.700;  197.825;    0.000
325.135; 2237.700;  226.825;    0.000
325.195; 2304.700;  201.825;    0.000
325.255; 2277.700;  167.825;    0.000
325.315; 2315.700;  217.825;    0.000
325.374; 2287.700;  196.825;    0.000
325.434; 2307.700;  167.825;    0.000
325.494; 2268.700;  214.825;    0.000
325.553; 2297.700;  203.825;    0.000
325.613; 2382.700;  206.825;    0.000
325.673; 2268.700;  148.825;    0.000
325.732; 2354.700;  207.825;    0.000
325.792; 2312.700;  151.825;    0.000
325.852; 2331.700;  195.825;    0.000
325.911; 2259.700;  201.825;    0.000
325.971; 2324.700;  224.825;    0.000
326.031; 2363.700;  201.825;    0.000
326.090; 2344.700;  203.825;    0.000
326.150; 2234.700;  183.825;    0.000
326.209; 2366.700;  226.825;    0.000
326.269; 2336.700;  194.825;    0.000
326.328; 2236.700;  200.825;    0.000
326.388; 2282.700;  177.825;    0.000
326.448; 2355.700;  239.825;    0.000
326.507; 2245.700;  197.825;    0.000
326.567; 2172.700;  161.825;    0.000
326.626; 2294.700;  220.825;    0.000
326.686; 2203.700;  178.825;    0.000
326.745; 2262.700;  167.825;    0.000
326.805; 2259.700;  176.825;    0.000
326.864; 2346.700;  204.825;    0.000
326.924; 2237.700;  218.825;    0.000
326.983; 2208.700;  201.825;    0.000
327.043; 2235.700;  219.825;    0.000
327.102; 2358.700;  202.825;    0.000
327.161; 2287.700;  228.825;    0.000
327.221; 2337.700;  217.825;    0.000
327.280; 2208.700;  188.825;    0.000
327.340; 2224.700;  209.825;    0.000
327.399; 2287.700;  189.825;    0.000
327.459; 2186.700;  216.825;    0.000
327.518; 2341.700;  200.825;    0.000
327.577; 2188.700;  194.825;    0.000
327.637; 2218.700;  180.825;    0.000
327.696; 2308.700;  208.825;    0.000
327.755; 2295.700;  218.825;    0.000
327.815; 2301.700;  234.825;    0.000
327.874; 2278.700;  259.825;    0.000
327.933; 2257.700;  192.825;    0.000
327.993; 2234.700;  208.825;    0.000
328.052; 2186.700;  221.825;    0.000
328.111; 2185.700;  203.825;    0.000
328.171; 2185.700;  221.825;    0.000
328.230; 2279.700;  222.825;    0.000
328.289; 2267.700;  254.825;    0.000
328.349; 2241.700;  232.825;    0.000
328.408; 2283.700;  223.825;    0.000
328.467; 2247.700;  198.825;    0.000
328.526; 2198.700;  217.825;    0.000
328.586; 2150.700;  185.825;    0.000
328.645; 2131.700;  210.825;    0.000
328.704; 2174.700;  211.825;    0.000
328.763; 2150.700;  231.825;    0.000
328.822; 2213.700;  254.825;    0.000
328.882; 2271.700;  216.825;    0.000
328.941; 2144.700;  239.825;    0.000
329.000; 2225.700;  251.825;    0.000
329.059; 2187.700;  227.825;    0.000
329.118; 2211.700;  233.825;    0.000
329.177; 2170.700;  188.825;    0.000
329.237; 2174.700;  257.825;    0.000
329.296; 2315.700;  265.825;    0.000
329.355; 2260.700;  245.825;    0.000
329.414; 2180.700;  236.825;    0.000
329.473; 2203.700;  242.825;    0.000
329.532; 2289.700;  228.825;    0.000
329.591; 2238.700;  206.825;    0.000
329.650; 2188.700;  250.825;    0.000
329.709; 2288.700;  278.825;    0.000
329.768; 2184.700;  219.825;    0.000
329.827; 2307.700;  254.825;    0.000
329.886; 2229.700;  221.825;    0.000
329.945; 2240.700;  239.825;    0.000
330.004; 2228.700;  245.825;    0.000
330.063; 2192.700;  201.825;    0.000
330.122; 2250.700;  227.825;    0.000
330.181; 2337.700;  196.825;    0.000
330.240; 2350.700;  203.825;    0.000
330.299; 2300.700;  214.825;    0.000
330.358; 2184.700;  196.825;    0.000
330.417; 2183.700;  201.825;    0.000
330.476; 2223.700;  248.825;    0.000
330.535; 2197.700;  253.825;    0.000
330.594; 2140.700;  231.825;    0.000
330.653; 2126.700;  210.825;    0.000
330.712; 2150.700;  242.825;    0.000
330.771; 2156.700;  240.825;    0.000
330.830; 2105.700;  230.825;    0.000
330.889; 2170.700;  217.825;    0.000
330.948; 2147.700;  211.825;    0.000
331.006; 2145.700;  217.825;    0.000
331.065; 2174.700;  170.825;    0.000
331.124; 2163.700;  211.825;    0.000
331.183; 2145.700;  192.825;    0.000
331.242; 2128.700;  227.825;    0.000
331.301; 2183.700;  240.825;    0.000
331.359; 2205.700;  223.825;    0.000
331.418; 2198.700;  215.825;    0.000
331.477; 2177.700;  230.825;    0.000
331.536; 2170.700;  221.825;    0.000
331.595; 2078.700;  198.825;    0.000
331.653; 2105.700;  207.825;    0.000
331.712; 2073.700;  217.825;    0.000
331.771; 2119.700;  221.825;    0.000
331.830; 2141.700;  222.825;    0.000
331.888; 2107.700;  213.825;    0.000
331.947; 2185.700;  233.825;    0.000
332.006; 2147.700;  212.825;    0.000
332.065; 2116.700;  200.825;    0.000
332.123; 2135.700;  223.825;    0.000
332.182; 2172.700;  180.825;    0.000
332.241; 2211.700;  192.825;    0.000
332.299; 2216.700;  172.825;    0.000
332.358; 2164.700;  216.825;    0.000
332.417; 2160.700;  211.825;    0.000
332.475; 2192.700;  222.825;    0.000
332.534; 2162.700;  238.825;    0.000
332.592; 2176.700;  216.825;    0.000
332.651; 2196.700;  196.825;    0.000
332.710; 2162.700;  215.825;    0.000
332.768; 2222.700;  193.825;    0.000
332.827; 2167.700;  201.825;    0.000
332.885; 2244.700;  226.825;    0.000
332.944; 2268.700;  174.825;    0.000
333.003; 2239.700;  187.825;    0.000
333.061; 2225.700;  208.825;    0.000
333.120; 2356.700;  202.825;    0.000
333.178; 2394.700;  227.825;    0.000
333.237; 2398.700;  215.825;    0.000
333.295; 2318.700;  245.825;    0.000
333.354; 2307.700;  194.825;    0.000
333.412; 2386.700;  165.825;    0.000
333.471; 2311.700;  219.825;    0.000
333.529; 2391.700;  255.825;    0.000
333.588; 2423.700;  264.825;    0.000
333.646; 2476.700;  231.825;    0.000
333.705; 2451.700;  232.825;    0.000
333.763; 2468.700;  233.825;    0.000
333.822; 2430.700;  221.825;    0.000
333.880; 2300.700;  180.825;    0.000
333.938; 2376.700;  229.825;    0.000
333.997; 2296.700;  194.825;    0.000
334.055; 2390.700;  230.825;    0.000
334.114; 2367.700;  230.825;    0.000
334.172; 2206.700;  170.825;    0.000
334.230; 2294.700;  192.825;    0.000
334.289; 2300.700;  225.825;    0.000
334.347; 2345.700;  233.825;    0.000
334.405; 2372.700;  207.825;    0.000
334.464; 2253.700;  175.825;    0.000
334.522; 2279.700;  180.825;    0.000
334.580; 2246.700;  172.825;    0.000
334.639; 2289.700;  230.825;    0.000
334.697; 2204.700;  217.825;    0.000
334.755; 2237.700;  217.825;    0.000
334.814; 2260.700;  210.825;    0.000
334.872; 2309.700;  170.825;    0.000
334.930; 2303.700;  167.825;    0.000
334.988; 2288.700;  244.825;    0.000
335.047; 2331.700;  202.825;    0.000
335.105; 2298.700;  181.825;    0.000
335.163; 2311.700;  195.825;    0.000
335.221; 2180.700;  203.825;    0.000
335.280; 2302.700;  216.825;    0.000
335.338; 2278.700;  197.825;    0.000
335.396; 2243.700;  232.825;    0.000
335.454; 2302.700;  211.825;    0.000
335.512; 2344.700;  221.825;    0.000
335.570; 2283.700;  216.825;    0.000
335.629; 2267.700;  244.825;    0.000
335.687; 2346.700;  244.825;    0.000
335.745; 2321.700;  189.825;    0.000
335.803; 2330.700;  198.825;    0.000
335.861; 2314.700;  236.825;    0.000
335.919; 2332.700;  234.825;    0.000
335.977; 2355.700;  214.825;    0.000
336.035; 2315.700;  242.825;    0.000
336.094; 2273.700;  219.825;    0.000
336.152; 2209.700;  196.825;    0.000
336.210; 2326.700;  221.825;    0.000
336.268; 2320.700;  257.825;    0.000
336.326; 2378.700;  211.825;    0.000
336.384; 2301.700;  217.825;    0.000
336.442; 2291.700;  176.825;    0.000
336.500; 2215.700;  242.825;    0.000
336.558; 2320.700;  238.825;    0.000
336.616; 2273.700;  261.825;    0.000
336.674; 2243.700;  200.825;    0.000
336.732; 2296.700;  208.825;    0.000
336.790; 2158.700;  183.825;    0.000
336.848; 2268.700;  199.825;    0.000
336.906; 2249.700;  240.825;    0.000
336.964; 2294.700;  234.825;    0.000
337.022; 2306.700;  282.825;    0.000
337.080; 2333.700;  265.825;    0.000
337.138; 2284.700;  255.825;    0.000
337.195; 2277.700;  200.825;    0.000
337.253; 2277.700;  199.825;    0.000
337.311; 2137.700;  233.825;    0.000
337.369; 2189.700;  250.825;    0.000
337.427; 2198.700;  201.825;    0.000
337.485; 2133.700;  228.825;    0.000
337.543; 2261.700;  221.825;    0.000
337.601; 2227.700;  232.825;    0.000
337.658; 2219.700;  215.825;    0.000
337.716; 2127.700;  198.825;    0.000
337.774; 2221.700;  262.825;    0.000
337.832; 2201.700;  220.825;    0.000
337.890; 2166.700;  194.825;    0.000
337.947; 2148.700;  205.825;    0.000
338.005; 2148.700;  229.825;    0.000
338.063; 2223.700;  237.825;    0.000
338.121; 2143.700;  220.825;    0.000
338.178; 2205.700;  227.825;    0.000
338.236; 2160.700;  238.825;    0.000
338.294; 2178.700;  242.825;    0.000
338.352; 2152.700;  230.825;    0.000
338.409; 2198.700;  222.825;    0.000
338.467; 2115.700;  233.825;    0.000
338.525; 2156.700;  253.825;    0.000
338.583; 2121.700;  221.825;    0.000
338.640; 2116.700;  225.825;    0.000
338.698; 2107.700;  229.825;    0.000
338.756; 2076.700;  238.825;    0.000
338.813; 2148.700;  260.825;    0.000
338.871; 2193.700;  246.825;    0.000
338.928; 2206.700;  240.825;    0.000
338.986; 2130.700;  228.825;    0.000
339.044; 2226.700;  265.825;    0.000
339.101; 2126.700;  224.825;    0.000
339.159; 2133.700;  235.825;    0.000
339.216; 2201.700;  244.825;    0.000
339.274; 2149.700;  266.825;    0.000
339.332; 2161.700;  248.825;    0.000
339.389; 2239.700;  246.825;    0.000
339.447; 2245.700;  237.825;    0.000
339.504; 2167.700;  244.825;    0.000
339.562; 2177.700;  249.825;    0.000
339.619; 2193.700;  266.825;    0.000
339.677; 2126.700;  263.825;    0.000
339.734; 2101.700;  216.825;    0.000
339.792; 2124.700;  276.825;    0.000
339.849; 2155.700;  240.825;    0.000
339.907; 2203.700;  275.825;    0.000
339.964; 2059.700;  243.825;    0.000
340.022; 2145.700;  224.825;    0.000
340.079; 2092.700;  230.825;    0.000
340.137; 2094.700;  232.825;    0.000
340.194; 2162.700;  261.825;    0.000
340.252; 2146.700;  219.825;    0.000
340.309; 2091.700;  212.825;    0.000
340.366; 2124.700;  231.825;    0.000
340.424; 2123.700;  244.825;    0.000
340.481; 2067.700;  238.825;    0.000
340.538; 2059.700;  217.825;    0.000
340.596; 2176.700;  224.825;    0.000
340.653; 2118.700;  225.825;    0.000
340.711; 2208.700;  276.825;    0.000
340.768; 2062.700;  239.825;    0.000
340.825; 2158.700;  216.825;    0.000
340.883; 2148.700;  264.825;    0.000
340.940; 2109.700;  256.825;    0.000
340.997; 2180.700;  230.825;    0.000
341.054; 2137.700;  229.825;    0.000
341.112; 2205.700;  220.825;    0.000
341.169; 2186.700;  276.825;    0.000
341.226; 2199.700;  224.825;    0.000
341.284; 2130.700;  235.825;    0.000
341.341; 2179.700;  226.825;    0.000
341.398; 2153.700;  200.825;    0.000
341.455; 2175.700;  242.825;    0.000
341.512; 2198.700;  226.825;    0.000
341.570; 2117.700;  299.825;    0.000
341.627; 2162.700;  221.825;    0.000
341.684; 2189.700;  204.825;    0.000
341.741; 2240.700;  285.825;    0.000
341.798; 2143.700;  237.825;    0.000
341.856; 2183.700;  223.825;    0.000
341.913; 2209.700;  232.825;    0.000
341.970; 2095.700;  250.825;    0.000
342.027; 2150.700;  272.825;    0.000
342.084; 2232.700;  242.825;    0.000
342.141; 2088.700;  207.825;    0.000
342.198; 2151.700;  252.825;    0.000
342.255; 2166.700;  189.825;    0.000
342.313; 2153.700;  222.825;    0.000
342.370; 2080.700;  203.825;    0.000
342.427; 2186.700;  261.825;    0.000
342.484; 2162.700;  230.825;    0.000
342.541; 2163.700;  224.825;    0.000
342.598; 2093.700;  245.825;    0.000
342.655; 2158.700;  235.825;    0.000
342.712; 2177.700;  238.825;    0.000
342.769; 2097.700;  235.825;    0.000
342.826; 2184.700;  232.825;    0.000
342.883; 2253.700;  212.825;    0.000
342.940; 2067.700;  189.825;    0.000
342.997; 2125.700;  241.825;    0.000
343.054; 2137.700;  235.825;    0.000
343.111; 2106.700;  216.825;    0.000
343.168; 2201.700;  202.825;    0.000
343.225; 2248.700;  228.825;    0.000
343.282; 2241.700;  208.825;    0.000
343.339; 2273.700;  241.825;    0.000
343.395; 2199.700;  206.825;    0.000
343.452; 2189.700;  227.825;    0.000
343.509; 2258.700;  212.825;    0.000
343.566; 2257.700;  266.825;    0.000
343.623; 2311.700;  240.825;    0.000
343.680; 2292.700;  215.825;    0.000
343.737; 2315.700;  231.825;    0.000
343.794; 2355.700;  256.825;    0.000
343.850; 2283.700;  235.825;    0.000
343.907; 2380.700;  246.825;    0.000
343.964; 2386.700;  241.825;    0.000
344.021; 2416.700;  237.825;    0.000
344.078; 2374.700;  248.825;    0.000
344.134; 2316.700;  225.825;    0.000
344.191; 2350.700;  209.825;    0.000
344.248; 2329.700;  234.825;    0.000
344.305; 2408.700;  224.825;    0.000
344.361; 2405.700;  194.825;    0.000
344.418; 2424.700;  240.825;    0.000
344.475; 2337.700;  252.825;    0.000
344.532; 2395.700;  251.825;    0.000
344.588; 2384.700;  240.825;    0.000
344.645; 2411.700;  253.825;    0.000
344.702; 2312.700;  216.825;    0.000
344.758; 2367.700;  258.825;    0.000
344.815; 2342.700;  239.825;    0.000
344.872; 2346.700;  216.825;    0.000
344.928; 2274.700;  236.825;    0.000
344.985; 2354.700;  238.825;    0.000
345.042; 2252.700;  211.825;    0.000
345.098; 2267.700;  223.825;    0.000
345.155; 2287.700;  266.825;    0.000
345.212; 2293.700;  266.825;    0.000
345.268; 2271.700;  245.825;    0.000
345.325; 2194.700;  225.825;    0.000
345.381; 2350.700;  223.825;    0.000
345.438; 2406.700;  259.825;    0.000
345.495; 2363.700;  233.825;    0.000
345.551; 2352.700;  254.825;    0.000
345.608; 2243.700;  212.825;    0.000
345.664; 2269.700;  225.825;    0.000
345.721; 2281.700;  223.825;    0.000
345.777; 2222.700;  226.825;    0.000
345.834; 2240.700;  215.825;    0.000
345.890; 2242.700;  230.825;    0.000
345.947; 2287.700;  232.825;    0.000
346.003; 2319.700;  241.825;    0.000
346.060; 2249.700;  241.825;    0.000
346.116; 2262.700;  231.825;    0.000
346.173; 2349.700;  229.825;    0.000
346.229; 2240.700;  262.825;    0.000
346.285; 2278.700;  232.825;    0.000
346.342; 2285.700;  228.825;    0.000
346.398; 2321.700;  203.825;    0.000
346.455; 2373.700;  214.825;    0.000
346.511; 2396.700;  245.825;    0.000
346.567; 2317.700;  192.825;    0.000
346.624; 2271.700;  206.825;    0.000
346.680; 2273.700;  209.825;    0.000
346.737; 2293.700;  239.825;    0.000
346.793; 2338.700;  234.825;    0.000
346.849; 2389.700;  252.825;    0.000
346.906; 2342.700;  247.825;    0.000
346.962; 2493.700;  274.825;    0.000
347.018; 2321.700;  225.825;    0.000
347.074; 2393.700;  261.825;    0.000
347.131; 2267.700;  230.825;    0.000
347.187; 2373.700;  269.825;    0.000
347.243; 2331.700;  261.825;    0.000
347.300; 2311.700;  236.825;    0.000
347.356; 2281.700;  284.825;    0.000
347.412; 2322.700;  243.825;    0.000
347.468; 2309.700;  276.825;    0.000
347.524; 2288.700;  232.825;    0.000
347.581; 2248.700;  242.825;    0.000
347.637; 2373.700;  270.825;    0.000
347.693; 2287.700;  269.825;    0.000
347.749; 2393.700;  278.825;    0.000
347.805; 2264.700;  224.825;    0.000
347.862; 2306.700;  207.825;    0.000
347.918; 2265.700;  259.825;    0.000
347.974; 2324.700;  244.825;    0.000
348.030; 2281.700;  219.825;    0.000
348.086; 2328.700;  250.825;    0.000
348.142; 2371.700;  251.825;    0.000
348.198; 2271.700;  267.825;    0.000
348.254; 2364.700;  230.825;    0.000
348.311; 2335.700;  261.825;    0.000
348.367; 2342.700;  259.825;    0.000
348.423; 2280.700;  251.825;    0.000
348.479; 2334.700;  251.825;    0.000
348.535; 2308.700;  269.825;    0.000
348.591; 2276.700;  238.825;    0.000
348.647; 2245.700;  273.825;    0.000
348.703; 2274.700;  291.825;    0.000
348.759; 2317.700;  231.825;    0.000
348.815; 2406.700;  286.825;    0.000
348.871; 2300.700;  265.825;    0.000
348.927; 2387.700;  234.825;    0.000
348.983; 2361.700;  267.825;    0.000
349.039; 2381.700;  233.825;    0.000
349.095; 2305.700;  225.825;    0.000
349.151; 2328.700;  242.825;    0.000
349.207; 2352.700;  223.825;    0.000
349.263; 2343.700;  219.825;    0.000
349.319; 2325.700;  226.825;    0.000
349.374; 2383.700;  232.825;    0.000
349.430; 2406.700;  235.825;    0.000
349.486; 2388.700;  227.825;    0.000
349.542; 2372.700;  253.825;    0.000
349.598; 2405.700;  227.825;    0.000
349.654; 2356.700;  270.825;    0.000
349.710; 2409.700;  233.825;    0.000
349.766; 2374.700;  245.825;    0.000
349.821; 2392.700;  242.825;    0.000
349.877; 2411.700;  229.825;    0.000
349.933; 2398.700;  229.825;    0.000
349.989; 2405.700;  230.825;    0.000
350.045; 2375.700;  236.825;    0.000
350.100; 2342.700;  237.825;    0.000
350.156; 2318.700;  230.825;    0.000
350.212; 2351.700;  254.825;    0.000
350.268; 2321.700;  239.825;    0.000
350.323; 2430.700;  204.825;    0.000
350.379; 2385.700;  246.825;    0.000
350.435; 2305.700;  249.825;    0.000
350.491; 2374.700;  217.825;    0.000
350.546; 2433.700;  231.825;    0.000
350.602; 2399.700;  240.825;    0.000
350.658; 2341.700;  235.825;    0.000
350.713; 2349.700;  234.825;    0.000
350.769; 2259.700;  218.825;    0.000
350.825; 2355.700;  227.825;    0.000
350.880; 2340.700;  226.825;    0.000
350.936; 2361.700;  247.825;    0.000
350.992; 2379.700;  213.825;    0.000
351.047; 2388.700;  207.825;    0.000
351.103; 2338.700;  271.825;    0.000
351.158; 2388.700;  251.825;    0.000
351.214; 2417.700;  199.825;    0.000
351.270; 2308.700;  214.825;    0.000
351.325; 2328.700;  235.825;    0.000
351.381; 2419.700;  223.825;    0.000
351.436; 2344.700;  237.825;    0.000
351.492; 2435.700;  221.825;    0.000
351.547; 2400.700;  237.825;    0.000
351.603; 2474.700;  239.825;    0.000
351.658; 2412.700;  209.825;    0.000
351.714; 2436.700;  226.825;    0.000
351.769; 2368.700;  238.825;    0.000
351.825; 2410.700;  226.825;    0.000
351.880; 2483.700;  217.825;    0.000
351.936; 2384.700;  246.825;    0.000
351.991; 2444.700;  233.825;    0.000
352.047; 2386.700;  215.825;    0.000
352.102; 2361.700;  243.825;    0.000
352.158; 2350.700;  234.825;    0.000
352.213; 2360.700;  201.825;    0.000
352.268; 2392.700;  234.825;    0.000
352.324; 2319.700;  211.825;    0.000
352.379; 2403.700;  221.825;    0.000
352.434; 2397.700;  259.825;    0.000
352.490; 2446.700;  250.825;    0.000
352.545; 2444.700;  251.825;    0.000
352.601; 2410.700;  283.825;    0.000
352.656; 2440.700;  236.825;    0.000
352.711; 2319.700;  237.825;    0.000
352.767; 2359.700;  201.825;    0.000
352.822; 2362.700;  209.825;    0.000
352.877; 2451.700;  239.825;    0.000
352.932; 2408.700;  228.825;    0.000
352.988; 2274.700;  202.825;    0.000
353.043; 2470.700;  268.825;    0.000
353.098; 2435.700;  208.825;    0.000
353.153; 2308.700;  219.825;    0.000
353.209; 2442.700;  252.825;    0.000
353.264; 2405.700;  225.825;    0.000
353.319; 2325.700;  234.825;    0.000
353.374; 2398.700;  236.825;    0.000
353.430; 2426.700;  245.825;    0.000
353.485; 2353.700;  238.825;    0.000
353.540; 2417.700;  238.825;    0.000
353.595; 2407.700;  215.825;    0.000
353.650; 2353.700;  238.825;    0.000
353.705; 2377.700;  274.825;    0.000
353.761; 2503.700;  229.825;    0.000
353.816; 2379.700;  275.825;    0.000
353.871; 2398.700;  245.825;    0.000
353.926; 2479.700;  253.825;    0.000
353.981; 2425.700;  269.825;    0.000
354.036; 2374.700;  246.825;    0.000
354.091; 2432.700;  257.825;    0.000
354.146; 2431.700;  278.825;    0.000
354.201; 2452.700;  276.825;    0.000
354.256; 2413.700;  224.825;    0.000
354.311; 2451.700;  287.825;    0.000
354.367; 2390.700;  210.825;    0.000
354.422; 2376.700;  231.825;    0.000
354.477; 2454.700;  226.825;    0.000
354.532; 2401.700;  262.825;    0.000
354.587; 2452.700;  275.825;    0.000
354.642; 2471.700;  247.825;    0.000
354.697; 2452.700;  251.825;    0.000
354.751; 2455.700;  249.825;    0.000
354.806; 2461.700;  217.825;    0.000
354.861; 2444.700;  247.825;    0.000
354.916; 2360.700;  259.825;    0.000
354.971; 2504.700;  241.825;    0.000
355.026; 2450.700;  250.825;    0.000
355.081; 2419.700;  244.825;    0.000
355.136; 2332.700;  203.825;    0.000
355.191; 2374.700;  241.825;    0.000
355.246; 2420.700;  248.825;    0.000
355.301; 2503.700;  259.825;    0.000
355.355; 2422.700;  236.825;    0.000
355.410; 2438.700;  221.825;    0.000
355.465; 2469.700;  206.825;    0.000
355.520; 2484.700;  258.825;    0.000
355.575; 2498.700;  273.825;    0.000
355.630; 2449.700;  252.825;    0.000
355.684; 2457.700;  246.825;    0.000
355.739; 2379.700;  251.825;    0.000
355.794; 2444.700;  247.825;    0.000
355.849; 2409.700;  246.825;    0.000
355.904; 2433.700;  262.825;    0.000
355.958; 2375.700;  249.825;    0.000
356.013; 2394.700;  213.825;    0.000
356.068; 2360.700;  255.825;    0.000
356.123; 2343.700;  205.825;    0.000
356.177; 2485.700;  239.825;    0.000
356.232; 2498.700;  258.825;    0.000
356.287; 2479.700;  248.825;    0.000
356.341; 2524.700;  221.825;    0.000
356.396; 2372.700;  220.825;    0.000
356.451; 2475.700;  231.825;    0.000
356.505; 2435.700;  231.825;    0.000
356.560; 2472.700;  254.825;    0.000
356.615; 2394.700;  234.825;    0.000
356.669; 2434.700;  250.825;    0.000
356.724; 2430.700;  261.825;    0.000
356.778; 2400.700;  207.825;    0.000
356.833; 2456.700;  205.825;    0.000
356.888; 2365.700;  235.825;    0.000
356.942; 2477.700;  205.825;    0.000
356.997; 2465.700;  276.825;    0.000
357.051; 2356.700;  243.825;    0.000
357.106; 2446.700;  242.825;    0.000
357.160; 2379.700;  241.825;    0.000
357.215; 2311.700;  212.825;    0.000
357.269; 2441.700;  238.825;    0.000
357.324; 2364.700;  223.825;    0.000
357.378; 2443.700;  221.825;    0.000
357.433; 2486.700;  262.825;    0.000
357.487; 2468.700;  246.825;    0.000
357.542; 2457.700;  221.825;    0.000
357.596; 2394.700;  225.825;    0.000
357.651; 2488.700;  244.825;    0.000
357.705; 2391.700;  269.825;    0.000
357.760; 2400.700;  209.825;    0.000
357.814; 2433.700;  250.825;    0.000
357.868; 2365.700;  266.825;    0.000
357.923; 2370.700;  248.825;    0.000
357.977; 2382.700;  262.825;    0.000
358.032; 2398.700;  228.825;    0.000
358.086; 2395.700;  257.825;    0.000
358.140; 2385.700;  217.825;    0.000
358.195; 2469.700;  246.825;    0.000
358.249; 2465.700;  255.825;    0.000
358.303; 2411.700;  252.825;    0.000
358.358; 2462.700;  278.825;    0.000
358.412; 2399.700;  276.825;    0.000
358.466; 2447.700;  275.825;    0.000
358.521; 2327.700;  229.825;    0.000
358.575; 2420.700;  270.825;    0.000
358.629; 2447.700;  239.825;    0.000
358.683; 2320.700;  254.825;    0.000
358.738; 2414.700;  239.825;    0.000
358.792; 2404.700;  272.825;    0.000
358.846; 2372.700;  289.825;    0.000
358.900; 2382.700;  299.825;    0.000
358.954; 2370.700;  247.825;    0.000
359.009; 2389.700;  245.825;    0.000
359.063; 2354.700;  272.825;    0.000
359.117; 2410.700;  242.825;    0.000
359.171; 2407.700;  279.825;    0.000
359.225; 2395.700;  221.825;    0.000
359.280; 2417.700;  238.825;    0.000
359.334; 2467.700;  264.825;    0.000
359.388; 2431.700;  273.825;    0.000
359.442; 2378.700;  233.825;    0.000
359.496; 2330.700;  226.825;    0.000
359.550; 2379.700;  271.825;    0.000
359.604; 2434.700;  296.825;    0.000
359.658; 2340.700;  252.825;    0.000
359.712; 2445.700;  256.825;    0.000
359.766; 2339.700;  257.825;    0.000
359.820; 2336.700;  239.825;    0.000
359.875; 2439.700;  252.825;    0.000
359.929; 2438.700;  258.825;    0.000
359.983; 2287.700;  232.825;    0.000
360.037; 2428.700;  268.825;    0.000
360.091; 2432.700;  303.825;    0.000
360.145; 2306.700;  232.825;    0.000
360.199; 2429.700;  255.825;    0.000
360.253; 2384.700;  252.825;    0.000
360.306; 2412.700;  278.825;    0.000
360.360; 2394.700;  249.825;    0.000
360.414; 2269.700;  274.825;    0.000
360.468; 2399.700;  247.825;    0.000
360.522; 2296.700;  268.825;    0.000
360.576; 2404.700;  263.825;    0.000
360.630; 2475.700;  296.825;    0.000
360.684; 2341.700;  253.825;    0.000
360.738; 2452.700;  301.825;    0.000
360.792; 2444.700;  282.825;    0.000
360.846; 2370.700;  277.825;    0.000
360.899; 2418.700;  292.825;    0.000
360.953; 2441.700;  266.825;    0.000
361.007; 2348.700;  240.825;    0.000
361.061; 2362.700;  247.825;    0.000
361.115; 2349.700;  276.825;    0.000
361.168; 2447.700;  288.825;    0.000
361.222; 2359.700;  271.825;    0.000
361.276; 2350.700;  270.825;    0.000
361.330; 2333.700;  295.825;    0.000
361.384; 2281.700;  276.825;    0.000
361.437; 2420.700;  280.825;    0.000
361.491; 2410.700;  261.825;    0.000
361.545; 2423.700;  273.825;    0.000
361.599; 2421.700;  269.825;    0.000
361.652; 2459.700;  258.825;    0.000
361.706; 2378.700;  270.825;    0.000
361.760; 2397.700;  294.825;    0.000
361.813; 2468.700;  244.825;    0.000
361.867; 2385.700;  294.825;    0.000
361.921; 2380.700;  285.825;    0.000
361.974; 2439.700;  269.825;    0.000
362.028; 2351.700;  275.825;    0.000
362.082; 2350.700;  270.825;    0.000
362.135; 2337.700;  259.825;    0.000
362.189; 2386.700;  302.825;    0.000
362.242; 2336.700;  296.825;    0.000
362.296; 2396.700;  285.825;    0.000
362.350; 2447.700;  303.825;    0.000
362.403; 2401.700;  271.825;    0.000
362.457; 2351.700;  285.825;    0.000
362.510; 2334.700;  288.825;    0.000
362.564; 2350.700;  268.825;    0.000
362.617; 2386.700;  285.825;    0.000
362.671; 2267.700;  277.825;    0.000
362.724; 2306.700;  242.825;    0.000
362.778; 2353.700;  274.825;    0.000
362.831; 2353.700;  280.825;    0.000
362.885; 2369.700;  284.825;    0.000
362.938; 2220.700;  276.825;    0.000
362.992;  339.700;  289.825;    0.000
363.045;  251.700;  247.825;    0.000
363.099;  257.700;  260.825;    0.000
363.152;  287.700;  258.825;    0.000
363.205;  262.700;  286.825;    0.000
363.259;  298.700;  236.825;    0.000
363.312;  346.700;  297.825;    0.000
363.366;  285.700;  266.825;    0.000
363.419;  294.700;  309.825;    0.000
363.472;  317.700;  293.825;    0.000
363.526;  317.700;  270.825;    0.000
363.579;  277.700;  276.825;    0.000
363.632;  279.700;  279.825;    0.000
363.686;  265.700;  292.825;    0.000
363.739;  251.700;  248.825;    0.000
363.792;  293.700;  287.825;    0.000

