
Integration time [ms]:   1.000
Averaging Nr. [scans]: 1
Smoothing Nr. [pixels]: 0
Data measured with spectrometer [name]: VIS
Wave   ;Sample   ;Dark     ;Reference
[nm]   ;[counts] ;[counts] ;[counts] 

450.961;  215.150;  200.375;    0.000
451.100;  211.150;  241.375;    0.000
451.239;  199.150;  201.375;    0.000
451.377;  220.150;  262.375;    0.000
451.516;  188.150;  229.375;    0.000
451.655;  195.150;  211.375;    0.000
451.794;  221.150;  225.375;    0.000
451.932;  231.150;  247.375;    0.000
452.071;  248.150;  260.375;    0.000
452.210;  220.150;  235.375;    0.000
452.348;  219.150;  276.375;    0.000
452.487;  254.150;  259.375;    0.000
452.626;  217.150;  254.375;    0.000
452.764;  228.150;  233.375;    0.000
452.903;  220.150;  202.375;    0.000
453.042;  281.150;  211.375;    0.000
453.180; 4211.150;  240.375;    0.000
453.319; 4276.150;  238.375;    0.000
453.458; 4274.150;  215.375;    0.000
453.596; 4314.150;  252.375;    0.000
453.735; 4256.150;  240.375;    0.000
453.873; 4481.150;  257.375;    0.000
454.012; 4410.150;  228.375;    0.000
454.150; 4429.150;  270.375;    0.000
454.289; 4621.150;  233.375;    0.000
454.427; 4564.150;  243.375;    0.000
454.566; 4632.150;  257.375;    0.000
454.704; 4551.150;  243.375;    0.000
454.843; 4706.150;  190.375;    0.000
454.981; 4716.150;  271.375;    0.000
455.120; 4640.150;  210.375;    0.000
455.258; 4894.150;  235.375;    0.000
455.397; 4755.150;  214.375;    0.000
455.535; 4925.150;  214.375;    0.000
455.674; 4858.150;  184.375;    0.000
455.812; 5052.150;  228.375;    0.000
455.951; 5117.150;  204.375;    0.000
456.089; 5027.150;  220.375;    0.000
456.227; 5032.150;  196.375;    0.000
456.366; 5135.150;  261.375;    0.000
456.504; 5192.150;  249.375;    0.000
456.642; 5182.150;  245.375;    0.000
456.781; 5223.150;  183.375;    0.000
456.919; 5348.150;  203.375;    0.000
457.057; 5339.150;  177.375;    0.000
457.196; 5566.150;  191.375;    0.000
457.334; 5631.150;  233.375;    0.000
457.472; 5701.150;  214.375;    0.000
457.610; 5786.150;  230.375;    0.000
457.749; 5917.150;  247.375;    0.000
457.887; 5897.150;  220.375;    0.000
458.025; 5963.150;  195.375;    0.000
458.163; 6116.150;  224.375;    0.000
458.301; 6255.150;  228.375;    0.000
458.440; 6156.150;  200.375;    0.000
458.578; 6342.150;  233.375;    0.000
458.716; 6407.150;  182.375;    0.000
458.854; 6452.150;  251.375;    0.000
458.992; 6575.150;  187.375;    0.000
459.130; 6626.150;  229.375;    0.000
459.269; 6739.150;  237.375;    0.000
459.407; 7001.150;  228.375;    0.000
459.545; 6860.150;  216.375;    0.000
459.683; 7125.150;  204.375;    0.000
459.821; 7167.150;  191.375;    0.000
459.959; 7151.150;  227.375;    0.000
460.097; 7362.150;  221.375;    0.000
460.235; 7266.150;  241.375;    0.000
460.373; 7484.150;  231.375;    0.000
460.511; 7517.150;  214.375;    0.000
460.649; 7579.150;  172.375;    0.000
460.787; 7645.150;  275.375;    0.000
460.925; 7687.150;  175.375;    0.000
461.063; 7698.150;  252.375;    0.000
461.201; 7698.150;  210.375;    0.000
461.339; 7713.150;  237.375;    0.000
461.477; 7880.150;  210.375;    0.000
461.615; 7845.150;  236.375;    0.000
461.753; 8011.150;  215.375;    0.000
461.891; 8051.150;  222.375;    0.000
462.029; 8306.150;  227.375;    0.000
462.166; 8346.150;  202.375;    0.000
462.304; 8424.150;  191.375;    0.000
462.442; 8525.150;  210.375;    0.000
462.580; 8673.150;  184.375;    0.000
462.718; 8697.150;  220.375;    0.000
462.856; 9033.150;  226.375;    0.000
462.993; 8888.150;  254.375;    0.000
463.131; 8880.150;  200.375;    0.000
463.269; 8750.150;  215.375;    0.000
463.407; 8388.150;  213.375;    0.000
463.545; 8392.150;  242.375;    0.000
463.682; 8530.150;  212.375;    0.000
463.820; 8798.150;  185.375;    0.000
463.958; 9153.150;  212.375;    0.000
464.095; 9266.150;  181.375;    0.000
464.233; 9280.150;  192.375;    0.000
464.371; 9373.150;  247.375;    0.000
464.509; 9357.150;  151.375;    0.000
464.646; 9268.150;  207.375;    0.000
464.784; 9097.150;  199.375;    0.000
464.921; 8988.150;  253.375;    0.000
465.059; 8856.150;  214.375;    0.000
465.197; 8694.150;  200.375;    0.000
465.334; 8360.150;  180.375;    0.000
465.472; 8112.150;  204.375;    0.000
465.609; 8072.150;  203.375;    0.000
465.747; 8106.150;  214.375;    0.000
465.885; 7979.150;  233.375;    0.000
466.022; 7938.150;  215.375;    0.000
466.160; 7994.150;  201.375;    0.000
466.297; 7812.150;  196.375;    0.000
466.435; 7831.150;  230.375;    0.000
466.572; 7839.150;  227.375;    0.000
466.710; 7567.150;  218.375;    0.000
466.847; 7689.150;  245.375;    0.000
466.985; 7634.150;  223.375;    0.000
467.122; 7691.150;  168.375;    0.000
467.260; 7661.150;  196.375;    0.000
467.397; 7755.150;  198.375;    0.000
467.534; 7608.150;  219.375;    0.000
467.672; 7695.150;  214.375;    0.000
467.809; 7539.150;  185.375;    0.000
467.947; 7854.150;  247.375;    0.000
468.084; 7743.150;  196.375;    0.000
468.221; 7736.150;  238.375;    0.000
468.359; 7591.150;  236.375;    0.000
468.496; 7707.150;  235.375;    0.000
468.633; 7853.150;  218.375;    0.000
468.771; 7565.150;  223.375;    0.000
468.908; 7696.150;  208.375;    0.000
469.045; 7793.150;  249.375;    0.000
469.183; 7799.150;  222.375;    0.000
469.320; 7904.150;  216.375;    0.000
469.457; 8042.150;  224.375;    0.000
469.594; 8022.150;  259.375;    0.000
469.732; 8196.150;  223.375;    0.000
469.869; 8273.150;  234.375;    0.000
470.006; 8370.150;  225.375;    0.000
470.143; 8279.150;  243.375;    0.000
470.280; 8459.150;  208.375;    0.000
470.417; 8590.150;  232.375;    0.000
470.555; 8348.150;  218.375;    0.000
470.692; 8285.150;  223.375;    0.000
470.829; 8347.150;  238.375;    0.000
470.966; 8293.150;  205.375;    0.000
471.103; 8303.150;  259.375;    0.000
471.240; 8276.150;  214.375;    0.000
471.377; 8226.150;  226.375;    0.000
471.514; 8311.150;  250.375;    0.000
471.651; 8182.150;  221.375;    0.000
471.789; 8093.150;  242.375;    0.000
471.926; 8080.150;  190.375;    0.000
472.063; 8187.150;  234.375;    0.000
472.200; 8061.150;  252.375;    0.000
472.337; 8035.150;  241.375;    0.000
472.474; 7908.150;  244.375;    0.000
472.611; 8122.150;  268.375;    0.000
472.748; 7975.150;  222.375;    0.000
472.884; 7896.150;  271.375;    0.000
473.021; 7943.150;  195.375;    0.000
473.158; 7860.150;  205.375;    0.000
473.295; 8013.150;  223.375;    0.000
473.432; 8011.150;  216.375;    0.000
473.569; 7940.150;  196.375;    0.000
473.706; 7761.150;  190.375;    0.000
473.843; 7894.150;  211.375;    0.000
473.980; 7994.150;  254.375;    0.000
474.117; 7985.150;  185.375;    0.000
474.253; 7860.150;  229.375;    0.000
474.390; 8056.150;  238.375;    0.000
474.527; 7903.150;  220.375;    0.000
474.664; 7981.150;  242.375;    0.000
474.801; 7932.150;  229.375;    0.000
474.937; 7904.150;  229.375;    0.000
475.074; 8014.150;  210.375;    0.000
475.211; 7991.150;  219.375;    0.000
475.348; 8028.150;  226.375;    0.000
475.484; 8144.150;  207.375;    0.000
475.621; 8048.150;  233.375;    0.000
475.758; 8123.150;  230.375;    0.000
475.894; 8275.150;  234.375;    0.000
476.031; 8106.150;  202.375;    0.000
476.168; 8168.150;  222.375;    0.000
476.304; 8214.150;  237.375;    0.000
476.441; 8219.150;  238.375;    0.000
476.578; 8291.150;  216.375;    0.000
476.714; 8303.150;  212.375;    0.000
476.851; 8250.150;  210.375;    0.000
476.987; 8493.150;  239.375;    0.000
477.124; 8279.150;  250.375;    0.000
477.261; 8413.150;  227.375;    0.000
477.397; 8501.150;  189.375;    0.000
477.534; 8473.150;  204.375;    0.000
477.670; 8546.150;  190.375;    0.000
477.807; 8683.150;  198.375;    0.000
477.943; 9036.150;  216.375;    0.000
478.080; 8896.150;  213.375;    0.000
478.216; 8888.150;  239.375;    0.000
478.353; 8923.150;  218.375;    0.000
478.489; 9085.150;  184.375;    0.000
478.626; 9076.150;  223.375;    0.000
478.762; 9248.150;  213.375;    0.000
478.898; 9320.150;  216.375;    0.000
479.035; 9413.150;  250.375;    0.000
479.171; 9372.150;  201.375;    0.000
479.308; 9242.150;  242.375;    0.000
479.444; 9174.150;  205.375;    0.000
479.580; 9272.150;  203.375;    0.000
479.717; 9390.150;  260.375;    0.000
479.853; 9326.150;  225.375;    0.000
479.989; 9473.150;  226.375;    0.000
480.126; 9515.150;  211.375;    0.000
480.262; 9660.150;  220.375;    0.000
480.398; 9535.150;  207.375;    0.000
480.535; 9365.150;  179.375;    0.000
480.671; 9584.150;  200.375;    0.000
480.807; 9457.150;  190.375;    0.000
480.943; 9290.150;  165.375;    0.000
481.080; 9401.150;  210.375;    0.000
481.216; 9416.150;  232.375;    0.000
481.352; 9340.150;  235.375;    0.000
481.488; 9374.150;  208.375;    0.000
481.624; 9323.150;  245.375;    0.000
481.760; 9260.150;  210.375;    0.000
481.897; 9138.150;  189.375;    0.000
482.033; 9110.150;  256.375;    0.000
482.169; 9303.150;  257.375;    0.000
482.305; 9197.150;  199.375;    0.000
482.441; 9216.150;  182.375;    0.000
482.577; 9275.150;  223.375;    0.000
482.713; 9107.150;  243.375;    0.000
482.849; 9111.150;  197.375;    0.000
482.985; 9202.150;  240.375;    0.000
483.121; 9330.150;  210.375;    0.000
483.258; 9381.150;  248.375;    0.000
483.394; 9325.150;  224.375;    0.000
483.530; 9217.150;  209.375;    0.000
483.665; 9355.150;  225.375;    0.000
483.801; 9205.150;  216.375;    0.000
483.937; 9260.150;  211.375;    0.000
484.073; 9450.150;  259.375;    0.000
484.209; 9498.150;  191.375;    0.000
484.345; 9569.150;  239.375;    0.000
484.481; 9532.150;  231.375;    0.000
484.617; 9488.150;  216.375;    0.000
484.753; 9591.150;  180.375;    0.000
484.889; 9711.150;  252.375;    0.000
485.025; 9634.150;  244.375;    0.000
485.161; 9652.150;  242.375;    0.000
485.296; 9796.150;  235.375;    0.000
485.432; 9689.150;  247.375;    0.000
485.568; 9575.150;  203.375;    0.000
485.704; 9657.150;  229.375;    0.000
485.840; 9720.150;  230.375;    0.000
485.975; 9790.150;  266.375;    0.000
486.111; 9754.150;  220.375;    0.000
486.247; 9801.150;  264.375;    0.000
486.383; 9644.150;  213.375;    0.000
486.518; 9748.150;  222.375;    0.000
486.654; 9521.150;  244.375;    0.000
486.790; 9711.150;  273.375;    0.000
486.926; 9614.150;  203.375;    0.000
487.061; 9678.150;  227.375;    0.000
487.197; 9804.150;  210.375;    0.000
487.333; 9630.150;  209.375;    0.000
487.468; 9529.150;  197.375;    0.000
487.604; 9501.150;  230.375;    0.000
487.740; 9533.150;  254.375;    0.000
487.875; 9652.150;  286.375;    0.000
488.011; 9645.150;  225.375;    0.000
488.146; 9516.150;  251.375;    0.000
488.282; 9468.150;  242.375;    0.000
488.417; 9572.150;  230.375;    0.000
488.553; 9652.150;  260.375;    0.000
488.688; 9554.150;  207.375;    0.000
488.824; 9482.150;  204.375;    0.000
488.960; 9594.150;  248.375;    0.000
489.095; 9492.150;  204.375;    0.000
489.230; 9470.150;  227.375;    0.000
489.366; 9589.150;  226.375;    0.000
489.501; 9701.150;  199.375;    0.000
489.637; 9587.150;  233.375;    0.000
489.772; 9552.150;  249.375;    0.000
489.908; 9525.150;  200.375;    0.000
490.043; 9516.150;  246.375;    0.000
490.178; 9592.150;  222.375;    0.000
490.314; 9615.150;  219.375;    0.000
490.449; 9644.150;  227.375;    0.000
490.585; 9562.150;  209.375;    0.000
490.720; 9516.150;  238.375;    0.000
490.855; 9542.150;  222.375;    0.000
490.991; 9387.150;  202.375;    0.000
491.126; 9634.150;  272.375;    0.000
491.261; 9407.150;  261.375;    0.000
491.396; 9430.150;  190.375;    0.000
491.532; 9423.150;  202.375;    0.000
491.667; 9469.150;  208.375;    0.000
491.802; 9557.150;  203.375;    0.000
491.937; 9557.150;  253.375;    0.000
492.073; 9493.150;  242.375;    0.000
492.208; 9639.150;  230.375;    0.000
492.343; 9568.150;  183.375;    0.000
492.478; 9570.150;  246.375;    0.000
492.613; 9614.150;  223.375;    0.000
492.749; 9358.150;  230.375;    0.000
492.884; 9391.150;  190.375;    0.000
493.019; 9464.150;  234.375;    0.000
493.154; 9499.150;  218.375;    0.000
493.289; 9509.150;  222.375;    0.000
493.424; 9607.150;  196.375;    0.000
493.559; 9521.150;  202.375;    0.000
493.694; 9396.150;  180.375;    0.000
493.829; 9469.150;  224.375;    0.000
493.964; 9602.150;  218.375;    0.000
494.099; 9597.150;  275.375;    0.000
494.234; 9426.150;  226.375;    0.000
494.369; 9642.150;  225.375;    0.000
494.504; 9458.150;  219.375;    0.000
494.639; 9509.150;  296.375;    0.000
494.774; 9524.150;  228.375;    0.000
494.909; 9529.150;  222.375;    0.000
495.044; 9371.150;  215.375;    0.000
495.179; 9493.150;  200.375;    0.000
495.314; 9478.150;  235.375;    0.000
495.449; 9508.150;  249.375;    0.000
495.584; 9622.150;  228.375;    0.000
495.719; 9601.150;  212.375;    0.000
495.854; 9666.150;  201.375;    0.000
495.988; 9637.150;  248.375;    0.000
496.123; 9598.150;  209.375;    0.000
496.258; 9557.150;  249.375;    0.000
496.393; 9792.150;  223.375;    0.000
496.528; 9689.150;  209.375;    0.000
496.663; 9886.150;  207.375;    0.000
496.797; 9837.150;  229.375;    0.000
496.932;10048.150;  225.375;    0.000
497.067;10038.150;  218.375;    0.000
497.202;10140.150;  163.375;    0.000
497.336;10319.150;  246.375;    0.000
497.471;10188.150;  229.375;    0.000
497.606;10528.150;  251.375;    0.000
497.740;10705.150;  220.375;    0.000
497.875;10868.150;  216.375;    0.000
498.010;10945.150;  226.375;    0.000
498.144;11186.150;  237.375;    0.000
498.279;11332.150;  196.375;    0.000
498.414;11588.150;  219.375;    0.000
498.548;11768.150;  205.375;    0.000
498.683;11980.150;  206.375;    0.000
498.817;12409.150;  225.375;    0.000
498.952;12612.150;  221.375;    0.000
499.087;13156.150;  220.375;    0.000
499.221;13720.150;  233.375;    0.000
499.356;13922.150;  230.375;    0.000
499.490;14364.150;  229.375;    0.000
499.625;15100.150;  231.375;    0.000
499.759;15594.150;  243.375;    0.000
499.894;16178.150;  241.375;    0.000
500.028;16847.150;  264.375;    0.000
500.162;17350.150;  287.375;    0.000
500.297;17624.150;  234.375;    0.000
500.431;17957.150;  230.375;    0.000
500.566;17983.150;  213.375;    0.000
500.700;17541.150;  243.375;    0.000
500.835;17135.150;  272.375;    0.000
500.969;16386.150;  188.375;    0.000
501.103;15768.150;  200.375;    0.000
501.238;15123.150;  257.375;    0.000
501.372;14506.150;  224.375;    0.000
501.506;13957.150;  225.375;    0.000
501.641;13683.150;  271.375;    0.000
501.775;13050.150;  199.375;    0.000
501.909;12631.150;  249.375;    0.000
502.043;12215.150;  211.375;    0.000
502.178;12030.150;  269.375;    0.000
502.312;11721.150;  198.375;    0.000
502.446;11503.150;  256.375;    0.000
502.580;11419.150;  195.375;    0.000
502.715;11007.150;  224.375;    0.000
502.849;10869.150;  245.375;    0.000
502.983;10700.150;  250.375;    0.000
503.117;10619.150;  193.375;    0.000
503.251;10337.150;  242.375;    0.000
503.385;10053.150;  227.375;    0.000
503.520;10086.150;  235.375;    0.000
503.654; 9838.150;  220.375;    0.000
503.788; 9813.150;  267.375;    0.000
503.922; 9646.150;  220.375;    0.000
504.056; 9738.150;  238.375;    0.000
504.190; 9675.150;  212.375;    0.000
504.324; 9811.150;  265.375;    0.000
504.458; 9578.150;  228.375;    0.000
504.592; 9551.150;  231.375;    0.000
504.726; 9351.150;  218.375;    0.000
504.860; 9189.150;  253.375;    0.000
504.994; 9075.150;  217.375;    0.000
505.128; 8995.150;  243.375;    0.000
505.262; 8761.150;  194.375;    0.000
505.396; 8563.150;  210.375;    0.000
505.530; 8478.150;  211.375;    0.000
505.664; 8349.150;  219.375;    0.000
505.798; 8169.150;  240.375;    0.000
505.932; 8228.150;  240.375;    0.000
506.066; 8107.150;  252.375;    0.000
506.199; 8063.150;  242.375;    0.000
506.333; 7990.150;  244.375;    0.000
506.467; 7826.150;  223.375;    0.000
506.601; 7692.150;  183.375;    0.000
506.735; 7579.150;  249.375;    0.000
506.869; 7711.150;  270.375;    0.000
507.002; 7603.150;  207.375;    0.000
507.136; 7613.150;  242.375;    0.000
507.270; 7546.150;  232.375;    0.000
507.404; 7671.150;  195.375;    0.000
507.537; 7535.150;  218.375;    0.000
507.671; 7547.150;  246.375;    0.000
507.805; 7552.150;  244.375;    0.000
507.939; 7371.150;  251.375;    0.000
508.072; 7339.150;  212.375;    0.000
508.206; 7251.150;  198.375;    0.000
508.340; 7323.150;  234.375;    0.000
508.473; 7226.150;  217.375;    0.000
508.607; 7219.150;  224.375;    0.000
508.740; 7157.150;  207.375;    0.000
508.874; 7173.150;  230.375;    0.000
509.008; 7257.150;  246.375;    0.000
509.141; 7221.150;  239.375;    0.000
509.275; 7017.150;  229.375;    0.000
509.408; 7090.150;  234.375;    0.000
509.542; 7012.150;  212.375;    0.000
509.675; 7130.150;  256.375;    0.000
509.809; 7122.150;  232.375;    0.000
509.942; 6872.150;  237.375;    0.000
510.076; 6981.150;  226.375;    0.000
510.209; 6998.150;  251.375;    0.000
510.343; 6931.150;  229.375;    0.000
510.476; 6881.150;  285.375;    0.000
510.610; 6866.150;  211.375;    0.000
510.743; 6888.150;  258.375;    0.000
510.877; 6867.150;  244.375;    0.000
511.010; 6855.150;  235.375;    0.000
511.143; 6784.150;  251.375;    0.000
511.277; 6843.150;  228.375;    0.000
511.410; 6870.150;  216.375;    0.000
511.543; 6747.150;  231.375;    0.000
511.677; 6809.150;  244.375;    0.000
511.810; 6788.150;  186.375;    0.000
511.943; 6773.150;  211.375;    0.000
512.077; 6843.150;  201.375;    0.000
512.210; 6691.150;  194.375;    0.000
512.343; 6640.150;  233.375;    0.000
512.476; 6798.150;  234.375;    0.000
512.610; 6772.150;  224.375;    0.000
512.743; 6871.150;  255.375;    0.000
512.876; 6779.150;  264.375;    0.000
513.009; 6692.150;  283.375;    0.000
513.142; 6723.150;  246.375;    0.000
513.276; 6560.150;  217.375;    0.000
513.409; 6715.150;  222.375;    0.000
513.542; 6811.150;  237.375;    0.000
513.675; 6624.150;  238.375;    0.000
513.808; 6685.150;  220.375;    0.000
513.941; 6646.150;  233.375;    0.000
514.074; 6775.150;  248.375;    0.000
514.207; 6679.150;  233.375;    0.000
514.340; 6826.150;  190.375;    0.000
514.474; 6688.150;  221.375;    0.000
514.607; 6769.150;  213.375;    0.000
514.740; 6849.150;  251.375;    0.000
514.873; 6801.150;  257.375;    0.000
515.006; 6909.150;  268.375;    0.000
515.139; 6844.150;  257.375;    0.000
515.272; 6902.150;  227.375;    0.000
515.404; 6914.150;  238.375;    0.000
515.537; 7052.150;  275.375;    0.000
515.670; 6976.150;  239.375;    0.000
515.803; 7066.150;  223.375;    0.000
515.936; 7123.150;  202.375;    0.000
516.069; 7167.150;  188.375;    0.000
516.202; 7308.150;  240.375;    0.000
516.335; 7420.150;  252.375;    0.000
516.468; 7819.150;  254.375;    0.000
516.600; 9379.150;  254.375;    0.000
516.733;11713.150;  255.375;    0.000
516.866;11358.150;  265.375;    0.000
516.999;10072.150;  251.375;    0.000
517.132;12345.150;  256.375;    0.000
517.264;17787.150;  202.375;    0.000
517.397;16892.150;  248.375;    0.000
517.530;12197.150;  221.375;    0.000
517.663;10312.150;  244.375;    0.000
517.795; 9558.150;  245.375;    0.000
517.928; 9335.150;  236.375;    0.000
518.061; 9558.150;  219.375;    0.000
518.193;12380.150;  251.375;    0.000
518.326;20200.150;  271.375;    0.000
518.459;21435.150;  207.375;    0.000
518.591;15029.150;  217.375;    0.000
518.724;11055.150;  200.375;    0.000
518.857; 9644.150;  204.375;    0.000
518.989; 8732.150;  242.375;    0.000
519.122; 8373.150;  254.375;    0.000
519.254; 7932.150;  239.375;    0.000
519.387; 7739.150;  235.375;    0.000
519.519; 7588.150;  227.375;    0.000
519.652; 7382.150;  178.375;    0.000
519.784; 7206.150;  226.375;    0.000
519.917; 7000.150;  256.375;    0.000
520.049; 6959.150;  234.375;    0.000
520.182; 6854.150;  258.375;    0.000
520.314; 6995.150;  298.375;    0.000
520.447; 7127.150;  204.375;    0.000
520.579; 7400.150;  235.375;    0.000
520.712; 7345.150;  208.375;    0.000
520.844; 7353.150;  272.375;    0.000
520.976; 6797.150;  234.375;    0.000
521.109; 6497.150;  235.375;    0.000
521.241; 6348.150;  250.375;    0.000
521.373; 6270.150;  233.375;    0.000
521.506; 6170.150;  231.375;    0.000
521.638; 6228.150;  258.375;    0.000
521.770; 6188.150;  226.375;    0.000
521.903; 6150.150;  258.375;    0.000
522.035; 6053.150;  263.375;    0.000
522.167; 6195.150;  214.375;    0.000
522.300; 6092.150;  212.375;    0.000
522.432; 6098.150;  220.375;    0.000
522.564; 6085.150;  228.375;    0.000
522.696; 6122.150;  272.375;    0.000
522.828; 6095.150;  222.375;    0.000
522.961; 5982.150;  205.375;    0.000
523.093; 5887.150;  253.375;    0.000
523.225; 5888.150;  239.375;    0.000
523.357; 5939.150;  263.375;    0.000
523.489; 5769.150;  264.375;    0.000
523.621; 5785.150;  259.375;    0.000
523.753; 5877.150;  233.375;    0.000
523.885; 5770.150;  232.375;    0.000
524.018; 5819.150;  214.375;    0.000
524.150; 5850.150;  235.375;    0.000
524.282; 5632.150;  242.375;    0.000
524.414; 5812.150;  261.375;    0.000
524.546; 5603.150;  233.375;    0.000
524.678; 5509.150;  242.375;    0.000
524.810; 5551.150;  216.375;    0.000
524.942; 5610.150;  220.375;    0.000
525.074; 5440.150;  249.375;    0.000
525.206; 5605.150;  227.375;    0.000
525.338; 5604.150;  250.375;    0.000
525.469; 5529.150;  231.375;    0.000
525.601; 5521.150;  245.375;    0.000
525.733; 5462.150;  187.375;    0.000
525.865; 5404.150;  280.375;    0.000
525.997; 5558.150;  216.375;    0.000
526.129; 5472.150;  228.375;    0.000
526.261; 5498.150;  187.375;    0.000
526.393; 5617.150;  228.375;    0.000
526.524; 5434.150;  201.375;    0.000
526.656; 5465.150;  199.375;    0.000
526.788; 5484.150;  233.375;    0.000
526.920; 5489.150;  256.375;    0.000
527.052; 5496.150;  219.375;    0.000
527.183; 5453.150;  227.375;    0.000
527.315; 5372.150;  266.375;    0.000
527.447; 5334.150;  239.375;    0.000
527.578; 5390.150;  213.375;    0.000
527.710; 5444.150;  216.375;    0.000
527.842; 5410.150;  240.375;    0.000
527.973; 5446.150;  286.375;    0.000
528.105; 5245.150;  222.375;    0.000
528.237; 5293.150;  223.375;    0.000
528.368; 5278.150;  211.375;    0.000
528.500; 5307.150;  215.375;    0.000
528.632; 5265.150;  216.375;    0.000
528.763; 5242.150;  234.375;    0.000
528.895; 5244.150;  196.375;    0.000
529.026; 5237.150;  202.375;    0.000
529.158; 5241.150;  226.375;    0.000
529.289; 5288.150;  229.375;    0.000
529.421; 5301.150;  264.375;    0.000
529.552; 5244.150;  265.375;    0.000
529.684; 5282.150;  260.375;    0.000
529.815; 5452.150;  284.375;    0.000
529.947; 5346.150;  237.375;    0.000
530.078; 5322.150;  223.375;    0.000
530.210; 5226.150;  223.375;    0.000
530.341; 5277.150;  209.375;    0.000
530.472; 5192.150;  203.375;    0.000
530.604; 5359.150;  223.375;    0.000
530.735; 5307.150;  218.375;    0.000
530.867; 5159.150;  222.375;    0.000
530.998; 5354.150;  239.375;    0.000
531.129; 5300.150;  250.375;    0.000
531.260; 5247.150;  224.375;    0.000
531.392; 5389.150;  216.375;    0.000
531.523; 5295.150;  234.375;    0.000
531.654; 5271.150;  256.375;    0.000
531.786; 5320.150;  226.375;    0.000
531.917; 5507.150;  239.375;    0.000
532.048; 5388.150;  205.375;    0.000
532.179; 5347.150;  244.375;    0.000
532.311; 5491.150;  235.375;    0.000
532.442; 5350.150;  258.375;    0.000
532.573; 5245.150;  220.375;    0.000
532.704; 5474.150;  213.375;    0.000
532.835; 5329.150;  249.375;    0.000
532.966; 5247.150;  226.375;    0.000
533.097; 5345.150;  246.375;    0.000
533.229; 5212.150;  237.375;    0.000
533.360; 5293.150;  225.375;    0.000
533.491; 5322.150;  241.375;    0.000
533.622; 5333.150;  242.375;    0.000
533.753; 5264.150;  264.375;    0.000
533.884; 5314.150;  245.375;    0.000
534.015; 5188.150;  269.375;    0.000
534.146; 5395.150;  267.375;    0.000
534.277; 5392.150;  282.375;    0.000
534.408; 5400.150;  229.375;    0.000
534.539; 5391.150;  269.375;    0.000
534.670; 5414.150;  231.375;    0.000
534.801; 5243.150;  260.375;    0.000
534.932; 5196.150;  232.375;    0.000
535.063; 5288.150;  227.375;    0.000
535.194; 5267.150;  281.375;    0.000
535.324; 5173.150;  206.375;    0.000
535.455; 5317.150;  257.375;    0.000
535.586; 5266.150;  275.375;    0.000
535.717; 5192.150;  206.375;    0.000
535.848; 5045.150;  271.375;    0.000
535.979; 5192.150;  250.375;    0.000
536.109; 5238.150;  253.375;    0.000
536.240; 5197.150;  234.375;    0.000
536.371; 5116.150;  230.375;    0.000
536.502; 5178.150;  270.375;    0.000
536.632; 5162.150;  228.375;    0.000
536.763; 5239.150;  249.375;    0.000
536.894; 5194.150;  262.375;    0.000
537.025; 5080.150;  258.375;    0.000
537.155; 5113.150;  278.375;    0.000
537.286; 5135.150;  209.375;    0.000
537.417; 5159.150;  255.375;    0.000
537.547; 5009.150;  208.375;    0.000
537.678; 5144.150;  224.375;    0.000
537.808; 5036.150;  224.375;    0.000
537.939; 4977.150;  257.375;    0.000
538.070; 5031.150;  240.375;    0.000
538.200; 5114.150;  259.375;    0.000
538.331; 5138.150;  235.375;    0.000
538.461; 5130.150;  251.375;    0.000
538.592; 5134.150;  245.375;    0.000
538.722; 5075.150;  239.375;    0.000
538.853; 5017.150;  216.375;    0.000
538.983; 5045.150;  226.375;    0.000
539.114; 5123.150;  240.375;    0.000
539.244; 5067.150;  237.375;    0.000
539.375; 5035.150;  198.375;    0.000
539.505; 5024.150;  263.375;    0.000
539.636; 5064.150;  226.375;    0.000
539.766; 5111.150;  229.375;    0.000
539.896; 5061.150;  219.375;    0.000
540.027; 5061.150;  246.375;    0.000
540.157; 5010.150;  218.375;    0.000
540.287; 5068.150;  216.375;    0.000
540.418; 5079.150;  267.375;    0.000
540.548; 5184.150;  260.375;    0.000
540.678; 5156.150;  242.375;    0.000
540.809; 5095.150;  260.375;    0.000
540.939; 5112.150;  257.375;    0.000
541.069; 5133.150;  226.375;    0.000
541.200; 5024.150;  227.375;    0.000
541.330; 5014.150;  218.375;    0.000
541.460; 5111.150;  223.375;    0.000
541.590; 5194.150;  237.375;    0.000
541.720; 5020.150;  222.375;    0.000
541.851; 5108.150;  250.375;    0.000
541.981; 5159.150;  222.375;    0.000
542.111; 5121.150;  212.375;    0.000
542.241; 5045.150;  205.375;    0.000
542.371; 5204.150;  202.375;    0.000
542.501; 5320.150;  218.375;    0.000
542.631; 5255.150;  222.375;    0.000
542.761; 5338.150;  249.375;    0.000
542.891; 5270.150;  173.375;    0.000
543.021; 5418.150;  218.375;    0.000
543.151; 5238.150;  222.375;    0.000
543.281; 5237.150;  188.375;    0.000
543.411; 5237.150;  239.375;    0.000
543.542; 5171.150;  215.375;    0.000
543.671; 5131.150;  250.375;    0.000
543.801; 5299.150;  212.375;    0.000
543.931; 5162.150;  233.375;    0.000
544.061; 5176.150;  194.375;    0.000
544.191; 5129.150;  218.375;    0.000
544.321; 5253.150;  220.375;    0.000
544.451; 5229.150;  183.375;    0.000
544.581; 5217.150;  221.375;    0.000
544.711; 5284.150;  224.375;    0.000
544.841; 5254.150;  214.375;    0.000
544.970; 5318.150;  227.375;    0.000
545.100; 5462.150;  186.375;    0.000
545.230; 5412.150;  205.375;    0.000
545.360; 5490.150;  211.375;    0.000
545.490; 5349.150;  202.375;    0.000
545.619; 5325.150;  182.375;    0.000
545.749; 5417.150;  174.375;    0.000
545.879; 5342.150;  169.375;    0.000
546.009; 5347.150;  182.375;    0.000
546.138; 5340.150;  200.375;    0.000
546.268; 5308.150;  204.375;    0.000
546.398; 5234.150;  200.375;    0.000
546.527; 5277.150;  179.375;    0.000
546.657; 5253.150;  162.375;    0.000
546.786; 5318.150;  179.375;    0.000
546.916; 5256.150;  221.375;    0.000
547.046; 5381.150;  179.375;    0.000
547.175; 5284.150;  168.375;    0.000
547.305; 5234.150;  200.375;    0.000
547.434; 5279.150;  166.375;    0.000
547.564; 5286.150;  177.375;    0.000
547.693; 5268.150;  152.375;    0.000
547.823; 5296.150;  171.375;    0.000
547.953; 5341.150;  195.375;    0.000
548.082; 5397.150;  214.375;    0.000
548.211; 5295.150;  177.375;    0.000
548.341; 5304.150;  189.375;    0.000
548.470; 5298.150;  194.375;    0.000
548.600; 5364.150;  172.375;    0.000
548.729; 5304.150;  158.375;    0.000
548.859; 5285.150;  193.375;    0.000
548.988; 5366.150;  131.375;    0.000
549.117; 5273.150;  204.375;    0.000
549.247; 5546.150;  191.375;    0.000
549.376; 5422.150;  202.375;    0.000
549.505; 5414.150;  187.375;    0.000
549.635; 5591.150;  198.375;    0.000
549.764; 5330.150;  155.375;    0.000
549.893; 5467.150;  176.375;    0.000
550.023; 5449.150;  202.375;    0.000
550.152; 5421.150;  168.375;    0.000
550.281; 5493.150;  180.375;    0.000
550.410; 5601.150;  180.375;    0.000
550.539; 5629.150;  181.375;    0.000
550.669; 5388.150;  168.375;    0.000
550.798; 5512.150;  223.375;    0.000
550.927; 5558.150;  179.375;    0.000
551.056; 5420.150;  159.375;    0.000
551.185; 5402.150;  199.375;    0.000
551.314; 5492.150;  185.375;    0.000
551.443; 5520.150;  172.375;    0.000
551.573; 5507.150;  158.375;    0.000
551.702; 5560.150;  210.375;    0.000
551.831; 5721.150;  238.375;    0.000
551.960; 5482.150;  191.375;    0.000
552.089; 5716.150;  195.375;    0.000
552.218; 5651.150;  196.375;    0.000
552.347; 5612.150;  194.375;    0.000
552.476; 5826.150;  192.375;    0.000
552.605; 5683.150;  172.375;    0.000
552.734; 6070.150;  214.375;    0.000
552.863; 6185.150;  177.375;    0.000
552.992; 6196.150;  190.375;    0.000
553.121; 6017.150;  185.375;    0.000
553.249; 6011.150;  175.375;    0.000
553.378; 5963.150;  192.375;    0.000
553.507; 5978.150;  193.375;    0.000
553.636; 5886.150;  182.375;    0.000
553.765; 5748.150;  187.375;    0.000
553.894; 5823.150;  214.375;    0.000
554.023; 5697.150;  217.375;    0.000
554.151; 5725.150;  223.375;    0.000
554.280; 5695.150;  170.375;    0.000
554.409; 5562.150;  172.375;    0.000
554.538; 5603.150;  182.375;    0.000
554.666; 5642.150;  195.375;    0.000
554.795; 5558.150;  176.375;    0.000
554.924; 5503.150;  164.375;    0.000
555.052; 5569.150;  171.375;    0.000
555.181; 5545.150;  208.375;    0.000
555.310; 5509.150;  214.375;    0.000
555.439; 5479.150;  193.375;    0.000
555.567; 5461.150;  189.375;    0.000
555.696; 5400.150;  196.375;    0.000
555.824; 5376.150;  183.375;    0.000
555.953; 5388.150;  234.375;    0.000
556.082; 5329.150;  183.375;    0.000
556.210; 5340.150;  199.375;    0.000
556.339; 5368.150;  201.375;    0.000
556.467; 5242.150;  208.375;    0.000
556.596; 5340.150;  194.375;    0.000
556.724; 5346.150;  170.375;    0.000
556.853; 5360.150;  166.375;    0.000
556.981; 5206.150;  185.375;    0.000
557.110; 5379.150;  213.375;    0.000
557.238; 5264.150;  188.375;    0.000
557.367; 5145.150;  176.375;    0.000
557.495; 5294.150;  180.375;    0.000
557.623; 5219.150;  193.375;    0.000
557.752; 5171.150;  207.375;    0.000
557.880; 5272.150;  189.375;    0.000
558.008; 5128.150;  169.375;    0.000
558.137; 5237.150;  203.375;    0.000
558.265; 5117.150;  167.375;    0.000
558.393; 5311.150;  204.375;    0.000
558.522; 5098.150;  203.375;    0.000
558.650; 5324.150;  215.375;    0.000
558.778; 5330.150;  190.375;    0.000
558.906; 5302.150;  186.375;    0.000
559.035; 5167.150;  193.375;    0.000
559.163; 5207.150;  198.375;    0.000
559.291; 5372.150;  222.375;    0.000
559.419; 5179.150;  192.375;    0.000
559.548; 5305.150;  186.375;    0.000
559.676; 5153.150;  199.375;    0.000
559.804; 5445.150;  186.375;    0.000
559.932; 5302.150;  202.375;    0.000
560.060; 5331.150;  183.375;    0.000
560.188; 5408.150;  212.375;    0.000
560.316; 5294.150;  192.375;    0.000
560.444; 5348.150;  180.375;    0.000
560.572; 5365.150;  206.375;    0.000
560.700; 5437.150;  184.375;    0.000
560.828; 5396.150;  177.375;    0.000
560.956; 5429.150;  221.375;    0.000
561.085; 5390.150;  227.375;    0.000
561.212; 5436.150;  208.375;    0.000
561.340; 5472.150;  189.375;    0.000
561.468; 5406.150;  189.375;    0.000
561.596; 5390.150;  183.375;    0.000
561.724; 5519.150;  188.375;    0.000
561.852; 5404.150;  183.375;    0.000
561.980; 5518.150;  209.375;    0.000
562.108; 5465.150;  165.375;    0.000
562.236; 5599.150;  188.375;    0.000
562.364; 5457.150;  177.375;    0.000
562.492; 5526.150;  192.375;    0.000
562.619; 5525.150;  187.375;    0.000
562.747; 5520.150;  217.375;    0.000
562.875; 5621.150;  221.375;    0.000
563.003; 5546.150;  199.375;    0.000
563.130; 5711.150;  191.375;    0.000
563.258; 5728.150;  186.375;    0.000
563.386; 5814.150;  191.375;    0.000
563.514; 5820.150;  217.375;    0.000
563.641; 5807.150;  220.375;    0.000
563.769; 5855.150;  186.375;    0.000
563.897; 5996.150;  158.375;    0.000
564.024; 6023.150;  192.375;    0.000
564.152; 6222.150;  217.375;    0.000
564.280; 6091.150;  203.375;    0.000
564.407; 6041.150;  190.375;    0.000
564.535; 6132.150;  188.375;    0.000
564.662; 6209.150;  199.375;    0.000
564.790; 6327.150;  227.375;    0.000
564.917; 6269.150;  160.375;    0.000
565.045; 6304.150;  222.375;    0.000
565.173; 6404.150;  169.375;    0.000
565.300; 6456.150;  208.375;    0.000
565.428; 6489.150;  174.375;    0.000
565.555; 6690.150;  201.375;    0.000
565.682; 6668.150;  180.375;    0.000
565.810; 6988.150;  165.375;    0.000
565.937; 7024.150;  167.375;    0.000
566.065; 7354.150;  190.375;    0.000
566.192; 7263.150;  169.375;    0.000
566.320; 7552.150;  167.375;    0.000
566.447; 7796.150;  151.375;    0.000
566.574; 7882.150;  176.375;    0.000
566.702; 8083.150;  198.375;    0.000
566.829; 8019.150;  209.375;    0.000
566.956; 8146.150;  186.375;    0.000
567.083; 8096.150;  188.375;    0.000
567.211; 8229.150;  159.375;    0.000
567.338; 8325.150;  204.375;    0.000
567.465; 8525.150;  141.375;    0.000
567.593; 8633.150;  168.375;    0.000
567.720; 8750.150;  177.375;    0.000
567.847; 8830.150;  160.375;    0.000
567.974; 8632.150;  139.375;    0.000
568.101; 8466.150;  153.375;    0.000
568.228; 8642.150;  173.375;    0.000
568.356; 8473.150;  149.375;    0.000
568.483; 7991.150;  185.375;    0.000
568.610; 7770.150;  170.375;    0.000
568.737; 8081.150;  223.375;    0.000
568.864; 8293.150;  167.375;    0.000
568.991; 7672.150;  177.375;    0.000
569.118; 7231.150;  169.375;    0.000
569.245; 6969.150;  128.375;    0.000
569.372; 6670.150;  160.375;    0.000
569.499; 6696.150;  156.375;    0.000
569.626; 6604.150;  191.375;    0.000
569.753; 6275.150;  163.375;    0.000
569.880; 6416.150;  167.375;    0.000
570.007; 6313.150;  143.375;    0.000
570.134; 6284.150;  191.375;    0.000
570.261; 6246.150;  164.375;    0.000
570.388; 6175.150;  162.375;    0.000
570.515; 6200.150;  220.375;    0.000
570.642; 6168.150;  184.375;    0.000
570.768; 6174.150;  174.375;    0.000
570.895; 6111.150;  177.375;    0.000
571.022; 6191.150;  152.375;    0.000
571.149; 5998.150;  183.375;    0.000
571.276; 5982.150;  153.375;    0.000
571.402; 5943.150;  190.375;    0.000
571.529; 5843.150;  187.375;    0.000
571.656; 5777.150;  167.375;    0.000
571.783; 5677.150;  186.375;    0.000
571.909; 5733.150;  183.375;    0.000
572.036; 5667.150;  162.375;    0.000
572.163; 5585.150;  196.375;    0.000
572.289; 5472.150;  180.375;    0.000
572.416; 5534.150;  190.375;    0.000
572.543; 5566.150;  174.375;    0.000
572.669; 5471.150;  186.375;    0.000
572.796; 5538.150;  205.375;    0.000
572.922; 5468.150;  185.375;    0.000
573.049; 5449.150;  178.375;    0.000
573.176; 5505.150;  196.375;    0.000
573.302; 5327.150;  202.375;    0.000
573.429; 5449.150;  189.375;    0.000
573.555; 5382.150;  145.375;    0.000
573.682; 5320.150;  228.375;    0.000
573.808; 5384.150;  197.375;    0.000
573.935; 5383.150;  216.375;    0.000
574.061; 5386.150;  173.375;    0.000
574.188; 5355.150;  151.375;    0.000
574.314; 5290.150;  181.375;    0.000
574.440; 5356.150;  167.375;    0.000
574.567; 5253.150;  185.375;    0.000
574.693; 5325.150;  173.375;    0.000
574.820; 5393.150;  164.375;    0.000
574.946; 5207.150;  199.375;    0.000
575.072; 5362.150;  162.375;    0.000
575.198; 5246.150;  225.375;    0.000
575.325; 5280.150;  171.375;    0.000
575.451; 5176.150;  183.375;    0.000
575.577; 5287.150;  190.375;    0.000
575.704; 5285.150;  210.375;    0.000
575.830; 5201.150;  185.375;    0.000
575.956; 5228.150;  168.375;    0.000
576.082; 5272.150;  158.375;    0.000
576.208; 5163.150;  158.375;    0.000
576.335; 5152.150;  196.375;    0.000
576.461; 5192.150;  187.375;    0.000
576.587; 5238.150;  157.375;    0.000
576.713; 5222.150;  156.375;    0.000
576.839; 5245.150;  196.375;    0.000
576.965; 5208.150;  187.375;    0.000
577.091; 5174.150;  204.375;    0.000
577.217; 5297.150;  207.375;    0.000
577.343; 5157.150;  175.375;    0.000
577.469; 5172.150;  197.375;    0.000
577.596; 5154.150;  182.375;    0.000
577.722; 5153.150;  159.375;    0.000
577.848; 5024.150;  162.375;    0.000
577.974; 5132.150;  180.375;    0.000
578.099; 5096.150;  161.375;    0.000
578.225; 5089.150;  180.375;    0.000
578.351; 5194.150;  190.375;    0.000
578.477; 5110.150;  212.375;    0.000
578.603; 5158.150;  179.375;    0.000
578.729; 4920.150;  195.375;    0.000
578.855; 5154.150;  153.375;    0.000
578.981; 5153.150;  162.375;    0.000
579.107; 5031.150;  149.375;    0.000
579.232; 5079.150;  164.375;    0.000
579.358; 5102.150;  162.375;    0.000
579.484; 5205.150;  181.375;    0.000
579.610; 5106.150;  190.375;    0.000
579.735; 4965.150;  191.375;    0.000
579.861; 5059.150;  189.375;    0.000
579.987; 5099.150;  202.375;    0.000
580.113; 5038.150;  197.375;    0.000
580.238; 5197.150;  228.375;    0.000
580.364; 5248.150;  212.375;    0.000
580.490; 5203.150;  225.375;    0.000
580.615; 5019.150;  218.375;    0.000
580.741; 5157.150;  167.375;    0.000
580.867; 5054.150;  215.375;    0.000
580.992; 5106.150;  191.375;    0.000
581.118; 5141.150;  171.375;    0.000
581.243; 4993.150;  204.375;    0.000
581.369; 5036.150;  186.375;    0.000
581.494; 5073.150;  184.375;    0.000
581.620; 5079.150;  212.375;    0.000
581.745; 5232.150;  192.375;    0.000
581.871; 5204.150;  195.375;    0.000
581.996; 5078.150;  160.375;    0.000
582.122; 5072.150;  217.375;    0.000
582.247; 5049.150;  213.375;    0.000
582.373; 5038.150;  187.375;    0.000
582.498; 5212.150;  208.375;    0.000
582.624; 5285.150;  189.375;    0.000
582.749; 5174.150;  185.375;    0.000
582.874; 5156.150;  195.375;    0.000
583.000; 5073.150;  208.375;    0.000
583.125; 5164.150;  147.375;    0.000
583.250; 5238.150;  201.375;    0.000
583.376; 5281.150;  191.375;    0.000
583.501; 5118.150;  206.375;    0.000
583.626; 5150.150;  167.375;    0.000
583.751; 5066.150;  180.375;    0.000
583.877; 5199.150;  185.375;    0.000
584.002; 5292.150;  186.375;    0.000
584.127; 5213.150;  176.375;    0.000
584.252; 5155.150;  214.375;    0.000
584.377; 5229.150;  225.375;    0.000
584.503; 5335.150;  195.375;    0.000
584.628; 5230.150;  206.375;    0.000
584.753; 5270.150;  181.375;    0.000
584.878; 5315.150;  136.375;    0.000
585.003; 5354.150;  215.375;    0.000
585.128; 5515.150;  206.375;    0.000
585.253; 5459.150;  200.375;    0.000
585.378; 5395.150;  169.375;    0.000
585.503; 5475.150;  191.375;    0.000
585.628; 5407.150;  182.375;    0.000
585.753; 5503.150;  164.375;    0.000
585.878; 5425.150;  123.375;    0.000
586.003; 5541.150;  187.375;    0.000
586.128; 5539.150;  198.375;    0.000
586.253; 5489.150;  172.375;    0.000
586.378; 5555.150;  191.375;    0.000
586.503; 5596.150;  190.375;    0.000
586.628; 5754.150;  178.375;    0.000
586.753; 5757.150;  184.375;    0.000
586.878; 5776.150;  169.375;    0.000
587.003; 6011.150;  186.375;    0.000
587.127; 6018.150;  170.375;    0.000
587.252; 6089.150;  170.375;    0.000
587.377; 6314.150;  181.375;    0.000
587.502; 6388.150;  209.375;    0.000
587.627; 6667.150;  210.375;    0.000
587.751; 6867.150;  212.375;    0.000
587.876; 7202.150;  198.375;    0.000
588.001; 7503.150;  161.375;    0.000
588.125; 7842.150;  191.375;    0.000
588.250; 8683.150;  132.375;    0.000
588.375; 9691.150;  183.375;    0.000
588.499;11195.150;  176.375;    0.000
588.624;13985.150;  173.375;    0.000
588.749;20441.150;  204.375;    0.000
588.873;37219.148;  179.375;    0.000
588.998;53343.148;  182.375;    0.000
589.122;46513.148;  165.375;    0.000
589.247;29724.150;  185.375;    0.000
589.372;24952.150;  199.375;    0.000
589.496;36173.148;  182.375;    0.000
589.621;44227.148;  158.375;    0.000
589.745;33926.148;  213.375;    0.000
589.870;19988.150;  175.375;    0.000
589.994;14258.150;  194.375;    0.000
590.118;11606.150;  218.375;    0.000
590.243;10217.150;  170.375;    0.000
590.367; 9233.150;  189.375;    0.000
590.492; 8670.150;  196.375;    0.000
590.616; 7961.150;  182.375;    0.000
590.740; 7519.150;  210.375;    0.000
590.865; 7402.150;  242.375;    0.000
590.989; 7158.150;  191.375;    0.000
591.114; 7047.150;  167.375;    0.000
591.238; 6754.150;  194.375;    0.000
591.362; 6761.150;  236.375;    0.000
591.486; 6705.150;  194.375;    0.000
591.611; 6471.150;  154.375;    0.000
591.735; 6541.150;  186.375;    0.000
591.859; 6427.150;  148.375;    0.000
591.983; 6536.150;  211.375;    0.000
592.107; 6424.150;  204.375;    0.000
592.232; 6523.150;  194.375;    0.000
592.356; 6524.150;  238.375;    0.000
592.480; 6473.150;  179.375;    0.000
592.604; 6346.150;  192.375;    0.000
592.728; 6386.150;  201.375;    0.000
592.852; 6443.150;  158.375;    0.000
592.976; 6454.150;  152.375;    0.000
593.100; 6528.150;  194.375;    0.000
593.224; 6451.150;  235.375;    0.000
593.349; 6467.150;  233.375;    0.000
593.473; 6405.150;  194.375;    0.000
593.597; 6675.150;  215.375;    0.000
593.721; 6456.150;  212.375;    0.000
593.844; 6443.150;  220.375;    0.000
593.968; 6455.150;  221.375;    0.000
594.092; 6364.150;  150.375;    0.000
594.216; 6217.150;  212.375;    0.000
594.340; 6294.150;  209.375;    0.000
594.464; 6127.150;  207.375;    0.000
594.588; 6237.150;  195.375;    0.000
594.712; 6056.150;  176.375;    0.000
594.836; 5890.150;  219.375;    0.000
594.959; 5851.150;  215.375;    0.000
595.083; 5851.150;  200.375;    0.000
595.207; 5830.150;  206.375;    0.000
595.331; 5702.150;  207.375;    0.000
595.455; 5705.150;  206.375;    0.000
595.578; 5757.150;  204.375;    0.000
595.702; 5711.150;  225.375;    0.000
595.826; 5597.150;  186.375;    0.000
595.949; 5603.150;  196.375;    0.000
596.073; 5446.150;  188.375;    0.000
596.197; 5466.150;  217.375;    0.000
596.320; 5347.150;  225.375;    0.000
596.444; 5492.150;  220.375;    0.000
596.568; 5341.150;  155.375;    0.000
596.691; 5291.150;  195.375;    0.000
596.815; 5235.150;  163.375;    0.000
596.938; 5297.150;  181.375;    0.000
597.062; 5210.150;  201.375;    0.000
597.186; 5196.150;  200.375;    0.000
597.309; 5103.150;  214.375;    0.000
597.433; 5129.150;  176.375;    0.000
597.556; 5130.150;  193.375;    0.000
597.680; 5181.150;  241.375;    0.000
597.803; 5132.150;  185.375;    0.000
597.926; 5143.150;  200.375;    0.000
598.050; 5062.150;  193.375;    0.000
598.173; 5025.150;  219.375;    0.000
598.297; 4964.150;  223.375;    0.000
598.420; 5006.150;  187.375;    0.000
598.543; 4955.150;  205.375;    0.000
598.667; 4917.150;  177.375;    0.000
598.790; 5018.150;  208.375;    0.000
598.913; 5004.150;  170.375;    0.000
599.037; 4931.150;  212.375;    0.000
599.160; 4933.150;  165.375;    0.000
599.283; 5012.150;  211.375;    0.000
599.406; 4883.150;  207.375;    0.000
599.530; 5036.150;  182.375;    0.000
599.653; 4935.150;  215.375;    0.000
599.776; 4850.150;  167.375;    0.000
599.899; 4888.150;  190.375;    0.000
600.022; 4893.150;  182.375;    0.000
600.145; 4896.150;  180.375;    0.000
600.269; 4853.150;  208.375;    0.000
600.392; 4929.150;  214.375;    0.000
600.515; 4802.150;  196.375;    0.000
600.638; 4882.150;  204.375;    0.000
600.761; 4752.150;  209.375;    0.000
600.884; 4802.150;  207.375;    0.000
601.007; 4824.150;  234.375;    0.000
601.130; 4823.150;  183.375;    0.000
601.253; 4841.150;  211.375;    0.000
601.376; 4710.150;  199.375;    0.000
601.499; 4787.150;  190.375;    0.000
601.622; 4860.150;  210.375;    0.000
601.745; 4701.150;  180.375;    0.000
601.868; 4784.150;  204.375;    0.000
601.991; 4791.150;  188.375;    0.000
602.113; 4839.150;  210.375;    0.000
602.236; 4778.150;  194.375;    0.000
602.359; 4788.150;  213.375;    0.000
602.482; 4742.150;  169.375;    0.000
602.605; 4631.150;  189.375;    0.000
602.728; 4813.150;  236.375;    0.000
602.850; 4737.150;  230.375;    0.000
602.973; 4758.150;  187.375;    0.000
603.096; 4767.150;  201.375;    0.000
603.219; 4685.150;  209.375;    0.000
603.341; 4692.150;  209.375;    0.000
603.464; 4698.150;  194.375;    0.000
603.587; 4691.150;  166.375;    0.000
603.709; 4645.150;  175.375;    0.000
603.832; 4832.150;  239.375;    0.000
603.955; 4744.150;  205.375;    0.000
604.077; 4621.150;  196.375;    0.000
604.200; 4699.150;  188.375;    0.000
604.323; 4710.150;  224.375;    0.000
604.445; 4676.150;  182.375;    0.000
604.568; 4684.150;  199.375;    0.000
604.690; 4620.150;  175.375;    0.000
604.813; 4681.150;  211.375;    0.000
604.935; 4581.150;  171.375;    0.000
605.058; 4628.150;  196.375;    0.000
605.180; 4538.150;  194.375;    0.000
605.303; 4750.150;  198.375;    0.000
605.425; 4638.150;  212.375;    0.000
605.547; 4788.150;  238.375;    0.000
605.670; 4630.150;  207.375;    0.000
605.792; 4657.150;  204.375;    0.000
605.915; 4687.150;  198.375;    0.000
606.037; 4753.150;  215.375;    0.000
606.159; 4618.150;  170.375;    0.000
606.282; 4665.150;  194.375;    0.000
606.404; 4642.150;  207.375;    0.000
606.526; 4645.150;  208.375;    0.000
606.648; 4608.150;  174.375;    0.000
606.771; 4559.150;  170.375;    0.000
606.893; 4564.150;  182.375;    0.000
607.015; 4581.150;  180.375;    0.000
607.137; 4606.150;  187.375;    0.000
607.260; 4696.150;  202.375;    0.000
607.382; 4717.150;  226.375;    0.000
607.504; 4642.150;  208.375;    0.000
607.626; 4686.150;  229.375;    0.000
607.748; 4687.150;  170.375;    0.000
607.870; 4576.150;  208.375;    0.000
607.992; 4536.150;  184.375;    0.000
608.114; 4585.150;  213.375;    0.000
608.237; 4645.150;  237.375;    0.000
608.359; 4587.150;  176.375;    0.000
608.481; 4512.150;  173.375;    0.000
608.603; 4684.150;  189.375;    0.000
608.725; 4528.150;  185.375;    0.000
608.847; 4616.150;  239.375;    0.000
608.969; 4597.150;  237.375;    0.000
609.090; 4656.150;  189.375;    0.000
609.212; 4508.150;  147.375;    0.000
609.334; 4570.150;  177.375;    0.000
609.456; 4610.150;  196.375;    0.000
609.578; 4486.150;  199.375;    0.000
609.700; 4542.150;  167.375;    0.000
609.822; 4550.150;  140.375;    0.000
609.944; 4555.150;  225.375;    0.000
610.065; 4571.150;  183.375;    0.000
610.187; 4555.150;  170.375;    0.000
610.309; 4617.150;  210.375;    0.000
610.431; 4545.150;  185.375;    0.000
610.552; 4585.150;  197.375;    0.000
610.674; 4581.150;  188.375;    0.000
610.796; 4529.150;  162.375;    0.000
610.918; 4542.150;  200.375;    0.000
611.039; 4492.150;  209.375;    0.000
611.161; 4598.150;  201.375;    0.000
611.282; 4558.150;  197.375;    0.000
611.404; 4536.150;  220.375;    0.000
611.526; 4547.150;  159.375;    0.000
611.647; 4502.150;  205.375;    0.000
611.769; 4495.150;  161.375;    0.000
611.890; 4439.150;  173.375;    0.000
612.012; 4560.150;  225.375;    0.000
612.133; 4561.150;  188.375;    0.000
612.255; 4565.150;  217.375;    0.000
612.377; 4535.150;  219.375;    0.000
612.498; 4491.150;  177.375;    0.000
612.619; 4510.150;  211.375;    0.000
612.741; 4518.150;  185.375;    0.000
612.862; 4502.150;  191.375;    0.000
612.984; 4429.150;  190.375;    0.000
613.105; 4577.150;  211.375;    0.000
613.226; 4589.150;  174.375;    0.000
613.348; 4527.150;  235.375;    0.000
613.469; 4451.150;  230.375;    0.000
613.590; 4420.150;  208.375;    0.000
613.712; 4530.150;  244.375;    0.000
613.833; 4604.150;  202.375;    0.000
613.954; 4431.150;  228.375;    0.000
614.076; 4459.150;  220.375;    0.000
614.197; 4454.150;  191.375;    0.000
614.318; 4507.150;  201.375;    0.000
614.439; 4448.150;  212.375;    0.000
614.560; 4459.150;  219.375;    0.000
614.682; 4445.150;  189.375;    0.000
614.803; 4413.150;  188.375;    0.000
614.924; 4593.150;  225.375;    0.000
615.045; 4568.150;  227.375;    0.000
615.166; 4541.150;  200.375;    0.000
615.287; 4568.150;  195.375;    0.000
615.408; 4674.150;  199.375;    0.000
615.529; 4602.150;  227.375;    0.000
615.650; 4572.150;  176.375;    0.000
615.771; 4576.150;  211.375;    0.000
615.892; 4628.150;  212.375;    0.000
616.013; 4777.150;  172.375;    0.000
616.134; 4969.150;  220.375;    0.000
616.255; 4878.150;  251.375;    0.000
616.376; 4762.150;  186.375;    0.000
616.497; 4596.150;  201.375;    0.000
616.618; 4472.150;  149.375;    0.000
616.739; 4598.150;  213.375;    0.000
616.860; 4581.150;  224.375;    0.000
616.981; 4555.150;  224.375;    0.000
617.102; 4596.150;  217.375;    0.000
617.222; 4542.150;  237.375;    0.000
617.343; 4505.150;  205.375;    0.000
617.464; 4610.150;  229.375;    0.000
617.585; 4445.150;  227.375;    0.000
617.705; 4526.150;  191.375;    0.000
617.826; 4523.150;  237.375;    0.000
617.947; 4562.150;  223.375;    0.000
618.068; 4421.150;  189.375;    0.000
618.188; 4476.150;  194.375;    0.000
618.309; 4483.150;  206.375;    0.000
618.430; 4505.150;  229.375;    0.000
618.550; 4477.150;  250.375;    0.000
618.671; 4450.150;  201.375;    0.000
618.791; 4466.150;  226.375;    0.000
618.912; 4449.150;  246.375;    0.000
619.033; 4416.150;  243.375;    0.000
619.153; 4334.150;  208.375;    0.000
619.274; 4529.150;  223.375;    0.000
619.394; 4519.150;  226.375;    0.000
619.515; 4326.150;  188.375;    0.000
619.635; 4392.150;  216.375;    0.000
619.756; 4445.150;  229.375;    0.000
619.876; 4340.150;  216.375;    0.000
619.996; 4353.150;  244.375;    0.000
620.117; 4433.150;  225.375;    0.000
620.237; 4404.150;  207.375;    0.000
620.358; 4360.150;  239.375;    0.000
620.478; 4418.150;  237.375;    0.000
620.598; 4420.150;  237.375;    0.000
620.719; 4444.150;  223.375;    0.000
620.839; 4392.150;  254.375;    0.000
620.959; 4362.150;  244.375;    0.000
621.079; 4311.150;  193.375;    0.000
621.200; 4306.150;  233.375;    0.000
621.320; 4362.150;  270.375;    0.000
621.440; 4324.150;  206.375;    0.000
621.560; 4295.150;  241.375;    0.000
621.681; 4341.150;  231.375;    0.000
621.801; 4275.150;  235.375;    0.000
621.921; 4411.150;  240.375;    0.000
622.041; 4392.150;  244.375;    0.000
622.161; 4275.150;  225.375;    0.000
622.281; 4434.150;  222.375;    0.000
622.401; 4325.150;  238.375;    0.000
622.521; 4385.150;  233.375;    0.000
622.641; 4314.150;  241.375;    0.000
622.761; 4303.150;  233.375;    0.000
622.882; 4283.150;  230.375;    0.000
623.002; 4314.150;  206.375;    0.000
623.121; 4216.150;  217.375;    0.000
623.241; 4291.150;  263.375;    0.000
623.361; 4243.150;  245.375;    0.000
623.481; 4093.150;  194.375;    0.000
623.601; 4289.150;  228.375;    0.000
623.721; 4332.150;  219.375;    0.000
623.841; 4313.150;  234.375;    0.000
623.961; 4227.150;  235.375;    0.000
624.081; 4244.150;  166.375;    0.000
624.201; 4198.150;  229.375;    0.000
624.320; 4292.150;  224.375;    0.000
624.440; 4228.150;  200.375;    0.000
624.560; 4295.150;  220.375;    0.000
624.680; 4218.150;  214.375;    0.000
624.799; 4247.150;  179.375;    0.000
624.919; 4302.150;  199.375;    0.000
625.039; 4178.150;  211.375;    0.000
625.159; 4185.150;  213.375;    0.000
625.278; 4179.150;  178.375;    0.000
625.398; 4125.150;  206.375;    0.000
625.518; 4049.150;  182.375;    0.000
625.637; 4199.150;  206.375;    0.000
625.757; 4260.150;  197.375;    0.000
625.876; 4211.150;  204.375;    0.000
625.996; 4106.150;  222.375;    0.000
626.115; 4190.150;  222.375;    0.000
626.235; 4121.150;  222.375;    0.000
626.354; 4228.150;  211.375;    0.000
626.474; 4083.150;  217.375;    0.000
626.594; 4149.150;  190.375;    0.000
626.713; 4183.150;  200.375;    0.000
626.832; 4224.150;  234.375;    0.000
626.952; 4188.150;  214.375;    0.000
627.071; 4187.150;  243.375;    0.000
627.191; 4134.150;  192.375;    0.000
627.310; 4105.150;  211.375;    0.000
627.429; 4200.150;  218.375;    0.000
627.549; 4170.150;  214.375;    0.000
627.668; 4103.150;  208.375;    0.000
627.787; 4109.150;  199.375;    0.000
627.907; 4106.150;  208.375;    0.000
628.026; 4220.150;  216.375;    0.000
628.145; 4063.150;  170.375;    0.000
628.264; 4219.150;  217.375;    0.000
628.384; 4174.150;  190.375;    0.000
628.503; 4125.150;  203.375;    0.000
628.622; 4078.150;  197.375;    0.000
628.741; 4105.150;  186.375;    0.000
628.860; 4137.150;  191.375;    0.000
628.980; 4173.150;  196.375;    0.000
629.099; 4070.150;  190.375;    0.000
629.218; 4175.150;  165.375;    0.000
629.337; 4124.150;  190.375;    0.000
629.456; 4156.150;  222.375;    0.000
629.575; 4130.150;  197.375;    0.000
629.694; 3967.150;  210.375;    0.000
629.813; 4133.150;  187.375;    0.000
629.932; 4082.150;  224.375;    0.000
630.051; 4164.150;  216.375;    0.000
630.170; 4119.150;  203.375;    0.000
630.289; 4001.150;  178.375;    0.000
630.408; 4122.150;  192.375;    0.000
630.527; 4159.150;  223.375;    0.000
630.646; 4000.150;  177.375;    0.000
630.764; 4005.150;  224.375;    0.000
630.883; 4054.150;  220.375;    0.000
631.002; 4113.150;  187.375;    0.000
631.121; 4141.150;  208.375;    0.000
631.240; 4110.150;  217.375;    0.000
631.359; 4092.150;  241.375;    0.000
631.477; 4015.150;  189.375;    0.000
631.596; 4040.150;  244.375;    0.000
631.715; 4200.150;  241.375;    0.000
631.834; 4089.150;  219.375;    0.000
631.952; 3998.150;  231.375;    0.000
632.071; 4129.150;  197.375;    0.000
632.190; 4070.150;  193.375;    0.000
632.308; 4124.150;  185.375;    0.000
632.427; 4006.150;  188.375;    0.000
632.546; 4147.150;  208.375;    0.000
632.664; 3888.150;  191.375;    0.000
632.783; 4061.150;  201.375;    0.000
632.901; 4020.150;  239.375;    0.000
633.020; 3985.150;  197.375;    0.000
633.138; 3935.150;  189.375;    0.000
633.257; 3974.150;  210.375;    0.000
633.375; 4040.150;  213.375;    0.000
633.494; 4066.150;  206.375;    0.000
633.612; 3998.150;  231.375;    0.000
633.731; 4043.150;  213.375;    0.000
633.849; 4003.150;  244.375;    0.000
633.968; 4026.150;  251.375;    0.000
634.086; 4085.150;  224.375;    0.000
634.204; 4053.150;  212.375;    0.000
634.323; 4071.150;  213.375;    0.000
634.441; 4009.150;  219.375;    0.000
634.559; 4005.150;  198.375;    0.000
634.678; 4050.150;  201.375;    0.000
634.796; 4084.150;  179.375;    0.000
634.914; 4037.150;  255.375;    0.000
635.032; 3996.150;  264.375;    0.000
635.151; 3974.150;  228.375;    0.000
635.269; 4027.150;  223.375;    0.000
635.387; 4100.150;  228.375;    0.000
635.505; 3892.150;  214.375;    0.000
635.623; 4062.150;  279.375;    0.000
635.742; 4049.150;  237.375;    0.000
635.860; 3985.150;  244.375;    0.000
635.978; 4046.150;  213.375;    0.000
636.096; 4042.150;  230.375;    0.000
636.214; 4067.150;  252.375;    0.000
636.332; 4044.150;  221.375;    0.000
636.450; 3962.150;  227.375;    0.000
636.568; 4103.150;  193.375;    0.000
636.686; 3965.150;  208.375;    0.000
636.804; 3981.150;  213.375;    0.000
636.922; 4086.150;  199.375;    0.000
637.040; 4047.150;  202.375;    0.000
637.158; 3935.150;  239.375;    0.000
637.276; 4090.150;  225.375;    0.000
637.394; 4010.150;  217.375;    0.000
637.512; 3959.150;  192.375;    0.000
637.629; 4073.150;  216.375;    0.000
637.747; 4029.150;  198.375;    0.000
637.865; 3989.150;  265.375;    0.000
637.983; 4087.150;  245.375;    0.000
638.101; 4005.150;  199.375;    0.000
638.218; 4030.150;  197.375;    0.000
638.336; 4038.150;  212.375;    0.000
638.454; 3910.150;  227.375;    0.000
638.572; 4011.150;  215.375;    0.000
638.689; 4024.150;  214.375;    0.000
638.807; 4029.150;  233.375;    0.000
638.925; 4037.150;  217.375;    0.000
639.042; 4035.150;  180.375;    0.000
639.160; 3971.150;  220.375;    0.000
639.278; 3898.150;  180.375;    0.000
639.395; 4000.150;  243.375;    0.000
639.513; 3954.150;  207.375;    0.000
639.630; 4017.150;  183.375;    0.000
639.748; 4013.150;  231.375;    0.000
639.865; 3915.150;  215.375;    0.000
639.983; 3986.150;  182.375;    0.000
640.100; 3991.150;  190.375;    0.000
640.218; 4012.150;  224.375;    0.000
640.335; 3984.150;  214.375;    0.000
640.453; 3957.150;  212.375;    0.000
640.570; 3989.150;  224.375;    0.000
640.688; 3919.150;  220.375;    0.000
640.805; 3984.150;  189.375;    0.000
640.922; 4046.150;  256.375;    0.000
641.040; 4028.150;  209.375;    0.000
641.157; 3982.150;  195.375;    0.000
641.274; 4033.150;  195.375;    0.000
641.391; 4060.150;  231.375;    0.000
641.509; 3973.150;  207.375;    0.000
641.626; 4000.150;  227.375;    0.000
641.743; 4021.150;  188.375;    0.000
641.860; 3928.150;  208.375;    0.000
641.978; 3912.150;  222.375;    0.000
642.095; 4002.150;  194.375;    0.000
642.212; 4044.150;  202.375;    0.000
642.329; 4042.150;  241.375;    0.000
642.446; 3906.150;  261.375;    0.000
642.563; 3892.150;  236.375;    0.000
642.681; 4013.150;  228.375;    0.000
642.798; 4012.150;  242.375;    0.000
642.915; 4141.150;  197.375;    0.000
643.032; 4061.150;  239.375;    0.000
643.149; 4042.150;  241.375;    0.000
643.266; 4056.150;  199.375;    0.000
643.383; 4074.150;  200.375;    0.000
643.500; 4056.150;  221.375;    0.000
643.617; 4136.150;  196.375;    0.000
643.734; 4153.150;  207.375;    0.000
643.850; 4220.150;  222.375;    0.000
643.967; 4235.150;  235.375;    0.000
644.084; 4248.150;  233.375;    0.000
644.201; 4138.150;  229.375;    0.000
644.318; 4074.150;  210.375;    0.000
644.435; 4146.150;  234.375;    0.000
644.552; 4207.150;  220.375;    0.000
644.668; 4164.150;  231.375;    0.000
644.785; 4251.150;  231.375;    0.000
644.902; 4253.150;  238.375;    0.000
645.019; 4303.150;  226.375;    0.000
645.135; 4279.150;  179.375;    0.000
645.252; 4208.150;  224.375;    0.000
645.369; 4241.150;  206.375;    0.000
645.485; 4314.150;  200.375;    0.000
645.602; 4319.150;  210.375;    0.000
645.719; 4341.150;  206.375;    0.000
645.835; 4310.150;  247.375;    0.000
645.952; 4440.150;  222.375;    0.000
646.068; 4389.150;  205.375;    0.000
646.185; 4419.150;  230.375;    0.000
646.302; 4484.150;  254.375;    0.000
646.418; 4471.150;  230.375;    0.000
646.535; 4488.150;  214.375;    0.000
646.651; 4482.150;  179.375;    0.000
646.768; 4489.150;  190.375;    0.000
646.884; 4578.150;  208.375;    0.000
647.000; 4557.150;  262.375;    0.000
647.117; 4578.150;  212.375;    0.000
647.233; 4617.150;  228.375;    0.000
647.350; 4658.150;  208.375;    0.000
647.466; 4661.150;  211.375;    0.000
647.582; 4568.150;  196.375;    0.000
647.699; 4759.150;  217.375;    0.000
647.815; 4686.150;  203.375;    0.000
647.931; 4773.150;  201.375;    0.000
648.047; 4838.150;  182.375;    0.000
648.164; 4900.150;  219.375;    0.000
648.280; 4887.150;  213.375;    0.000
648.396; 4799.150;  202.375;    0.000
648.512; 4944.150;  233.375;    0.000
648.629; 4927.150;  206.375;    0.000
648.745; 4878.150;  188.375;    0.000
648.861; 4899.150;  209.375;    0.000
648.977; 5009.150;  218.375;    0.000
649.093; 4908.150;  225.375;    0.000
649.209; 4889.150;  240.375;    0.000
649.325; 5025.150;  253.375;    0.000
649.441; 4977.150;  263.375;    0.000
649.557; 5008.150;  256.375;    0.000
649.673; 4988.150;  211.375;    0.000
649.789; 5104.150;  237.375;    0.000
649.905; 4884.150;  183.375;    0.000
650.021; 5144.150;  238.375;    0.000
650.137; 5106.150;  241.375;    0.000
650.253; 5154.150;  228.375;    0.000
650.369; 5148.150;  221.375;    0.000
650.485; 5230.150;  240.375;    0.000
650.601; 5266.150;  254.375;    0.000
650.717; 5333.150;  201.375;    0.000
650.833; 5177.150;  257.375;    0.000
650.948; 5406.150;  213.375;    0.000
651.064; 5427.150;  223.375;    0.000
651.180; 5319.150;  230.375;    0.000
651.296; 5606.150;  235.375;    0.000
651.411; 5548.150;  221.375;    0.000
651.527; 5577.150;  233.375;    0.000
651.643; 5717.150;  236.375;    0.000
651.759; 5673.150;  268.375;    0.000
651.874; 5683.150;  214.375;    0.000
651.990; 5774.150;  251.375;    0.000
652.105; 5694.150;  217.375;    0.000
652.221; 5914.150;  243.375;    0.000
652.337; 5882.150;  231.375;    0.000
652.452; 6011.150;  238.375;    0.000
652.568; 6071.150;  188.375;    0.000
652.683; 6061.150;  197.375;    0.000
652.799; 6121.150;  194.375;    0.000
652.914; 6271.150;  222.375;    0.000
653.030; 6335.150;  200.375;    0.000
653.145; 6439.150;  235.375;    0.000
653.261; 6522.150;  261.375;    0.000
653.376; 6664.150;  228.375;    0.000
653.492; 6703.150;  222.375;    0.000
653.607; 6953.150;  227.375;    0.000
653.722; 7137.150;  250.375;    0.000
653.838; 7339.150;  255.375;    0.000
653.953; 7308.150;  235.375;    0.000
654.068; 7497.150;  266.375;    0.000
654.184; 7796.150;  210.375;    0.000
654.299; 7918.150;  240.375;    0.000
654.414; 8173.150;  222.375;    0.000
654.530; 8152.150;  222.375;    0.000
654.645; 8492.150;  256.375;    0.000
654.760; 8626.150;  244.375;    0.000
654.875; 8999.150;  229.375;    0.000
654.990; 9418.150;  226.375;    0.000
655.106; 9822.150;  254.375;    0.000
655.221;10076.150;  251.375;    0.000
655.336;10469.150;  245.375;    0.000
655.451;10907.150;  199.375;    0.000
655.566;11425.150;  228.375;    0.000
655.681;12089.150;  208.375;    0.000
655.796;12766.150;  218.375;    0.000
655.911;13424.150;  233.375;    0.000
656.026;14339.150;  232.375;    0.000
656.141;15116.150;  223.375;    0.000
656.256;15798.150;  247.375;    0.000
656.371;16199.150;  220.375;    0.000
656.486;15742.150;  225.375;    0.000
656.601;15119.150;  257.375;    0.000
656.716;14660.150;  248.375;    0.000
656.831;13977.150;  262.375;    0.000
656.946;13651.150;  249.375;    0.000
657.060;13139.150;  245.375;    0.000
657.175;12497.150;  245.375;    0.000
657.290;12076.150;  219.375;    0.000
657.405;11648.150;  286.375;    0.000
657.520;11337.150;  259.375;    0.000
657.634;10871.150;  239.375;    0.000
657.749;10672.150;  227.375;    0.000
657.864;10236.150;  210.375;    0.000
657.979;10034.150;  236.375;    0.000
658.093; 9602.150;  210.375;    0.000
658.208; 9383.150;  248.375;    0.000
658.323; 9038.150;  216.375;    0.000
658.437; 8770.150;  248.375;    0.000
658.552; 8637.150;  249.375;    0.000
658.666; 8541.150;  256.375;    0.000
658.781; 8297.150;  247.375;    0.000
658.895; 8167.150;  209.375;    0.000
659.010; 7961.150;  219.375;    0.000
659.125; 7850.150;  215.375;    0.000
659.239; 7652.150;  205.375;    0.000
659.353; 7628.150;  246.375;    0.000
659.468; 7271.150;  245.375;    0.000
659.582; 7272.150;  244.375;    0.000
659.697; 7195.150;  242.375;    0.000
659.811; 6860.150;  239.375;    0.000
659.926; 6928.150;  226.375;    0.000
660.040; 6963.150;  255.375;    0.000
660.154; 6752.150;  225.375;    0.000
660.269; 6659.150;  200.375;    0.000
660.383; 6526.150;  192.375;    0.000
660.497; 6382.150;  218.375;    0.000
660.612; 6469.150;  236.375;    0.000
660.726; 6480.150;  263.375;    0.000
660.840; 6195.150;  205.375;    0.000
660.954; 6307.150;  219.375;    0.000
661.068; 6061.150;  240.375;    0.000
661.183; 6048.150;  221.375;    0.000
661.297; 5936.150;  194.375;    0.000
661.411; 5841.150;  253.375;    0.000
661.525; 5787.150;  246.375;    0.000
661.639; 5596.150;  217.375;    0.000
661.753; 5516.150;  241.375;    0.000
661.867; 5510.150;  276.375;    0.000
661.981; 5446.150;  203.375;    0.000
662.095; 5403.150;  224.375;    0.000
662.209; 5296.150;  217.375;    0.000
662.323; 5180.150;  251.375;    0.000
662.437; 5203.150;  243.375;    0.000
662.551; 5203.150;  244.375;    0.000
662.665; 5063.150;  247.375;    0.000
662.779; 5080.150;  251.375;    0.000
662.893; 5046.150;  254.375;    0.000
663.007; 4985.150;  222.375;    0.000
663.121; 4909.150;  253.375;    0.000
663.235; 4861.150;  270.375;    0.000
663.349; 4838.150;  242.375;    0.000
663.462; 4761.150;  230.375;    0.000
663.576; 4710.150;  230.375;    0.000
663.690; 4584.150;  249.375;    0.000
663.804; 4532.150;  200.375;    0.000
663.917; 4543.150;  204.375;    0.000
664.031; 4436.150;  206.375;    0.000
664.145; 4607.150;  202.375;    0.000
664.258; 4434.150;  221.375;    0.000
664.372; 4446.150;  215.375;    0.000
664.486; 4405.150;  179.375;    0.000
664.599; 4364.150;  208.375;    0.000
664.713; 4357.150;  268.375;    0.000
664.827; 4409.150;  225.375;    0.000
664.940; 4363.150;  222.375;    0.000
665.054; 4296.150;  208.375;    0.000
665.167; 4332.150;  253.375;    0.000
665.281; 4248.150;  237.375;    0.000
665.394; 4162.150;  227.375;    0.000
665.508; 4205.150;  192.375;    0.000
665.621; 4162.150;  175.375;    0.000
665.735; 4212.150;  249.375;    0.000
665.848; 4128.150;  197.375;    0.000
665.961; 4111.150;  206.375;    0.000
666.075; 4012.150;  245.375;    0.000
666.188; 4161.150;  230.375;    0.000
666.301; 4074.150;  219.375;    0.000
666.415; 4026.150;  231.375;    0.000
666.528; 4079.150;  258.375;    0.000
666.641; 3960.150;  243.375;    0.000
666.755; 3926.150;  208.375;    0.000
666.868; 3877.150;  228.375;    0.000
666.981; 3941.150;  244.375;    0.000
667.094; 3949.150;  244.375;    0.000
667.207; 3872.150;  226.375;    0.000
667.321; 3727.150;  175.375;    0.000
667.434; 3804.150;  211.375;    0.000
667.547; 3866.150;  249.375;    0.000
667.660; 3718.150;  225.375;    0.000
667.773; 3816.150;  242.375;    0.000
667.886; 3657.150;  246.375;    0.000
667.999; 3742.150;  244.375;    0.000
668.112; 3681.150;  227.375;    0.000
668.225; 3725.150;  231.375;    0.000
668.338; 3662.150;  256.375;    0.000
668.451; 3634.150;  216.375;    0.000
668.564; 3623.150;  261.375;    0.000
668.677; 3626.150;  230.375;    0.000
668.790; 3614.150;  192.375;    0.000
668.903; 3541.150;  243.375;    0.000
669.016; 3461.150;  201.375;    0.000
669.129; 3485.150;  249.375;    0.000
669.242; 3507.150;  190.375;    0.000
669.354; 3493.150;  219.375;    0.000
669.467; 3530.150;  242.375;    0.000
669.580; 3516.150;  237.375;    0.000
669.693; 3450.150;  243.375;    0.000
669.806; 3521.150;  234.375;    0.000
669.918; 3430.150;  206.375;    0.000
670.031; 3421.150;  258.375;    0.000
670.144; 3406.150;  231.375;    0.000
670.256; 3387.150;  244.375;    0.000
670.369; 3392.150;  262.375;    0.000
670.482; 3435.150;  264.375;    0.000
670.594; 3450.150;  256.375;    0.000
670.707; 3387.150;  224.375;    0.000
670.820; 3395.150;  261.375;    0.000
670.932; 3448.150;  226.375;    0.000
671.045; 3345.150;  243.375;    0.000
671.157; 3359.150;  235.375;    0.000
671.270; 3275.150;  217.375;    0.000
671.382; 3329.150;  267.375;    0.000
671.495; 3272.150;  258.375;    0.000
671.607; 3288.150;  236.375;    0.000
671.720; 3293.150;  200.375;    0.000
671.832; 3243.150;  219.375;    0.000
671.944; 3288.150;  234.375;    0.000
672.057; 3248.150;  226.375;    0.000
672.169; 3268.150;  225.375;    0.000
672.281; 3296.150;  253.375;    0.000
672.394; 3245.150;  238.375;    0.000
672.506; 3240.150;  244.375;    0.000
672.618; 3260.150;  272.375;    0.000
672.731; 3282.150;  247.375;    0.000
672.843; 3170.150;  261.375;    0.000
672.955; 3194.150;  262.375;    0.000
673.067; 3234.150;  253.375;    0.000
673.180; 3232.150;  239.375;    0.000
673.292; 3103.150;  240.375;    0.000
673.404; 3173.150;  243.375;    0.000
673.516; 3189.150;  258.375;    0.000
673.628; 3119.150;  263.375;    0.000
673.740; 3096.150;  250.375;    0.000
673.852; 3231.150;  285.375;    0.000
673.964; 3212.150;  264.375;    0.000
674.076; 3108.150;  260.375;    0.000
674.188; 3055.150;  226.375;    0.000
674.300; 3176.150;  272.375;    0.000
674.412; 2983.150;  259.375;    0.000
674.524; 3130.150;  283.375;    0.000
674.636; 3096.150;  259.375;    0.000
674.748; 3083.150;  238.375;    0.000
674.860; 3030.150;  277.375;    0.000
674.972; 3127.150;  272.375;    0.000
675.084; 3079.150;  244.375;    0.000
675.196; 3076.150;  272.375;    0.000
675.307; 3057.150;  244.375;    0.000
675.419; 2941.150;  219.375;    0.000
675.531; 3115.150;  275.375;    0.000
675.643; 3081.150;  215.375;    0.000
675.755; 3018.150;  243.375;    0.000
675.866; 2984.150;  223.375;    0.000
675.978; 2974.150;  216.375;    0.000
676.090; 2995.150;  242.375;    0.000
676.201; 3030.150;  276.375;    0.000
676.313; 2921.150;  226.375;    0.000
676.425; 2916.150;  234.375;    0.000
676.536; 2975.150;  231.375;    0.000
676.648; 2959.150;  254.375;    0.000
676.759; 3011.150;  273.375;    0.000
676.871; 2880.150;  250.375;    0.000
676.983; 2982.150;  256.375;    0.000
677.094; 3015.150;  210.375;    0.000
677.206; 2999.150;  248.375;    0.000
677.317; 2927.150;  263.375;    0.000
677.429; 2880.150;  238.375;    0.000
677.540; 2903.150;  247.375;    0.000
677.651; 2857.150;  224.375;    0.000
677.763; 2857.150;  217.375;    0.000
677.874; 2801.150;  234.375;    0.000
677.986; 2940.150;  238.375;    0.000
678.097; 2903.150;  226.375;    0.000
678.208; 2976.150;  253.375;    0.000
678.320; 2848.150;  217.375;    0.000
678.431; 2804.150;  238.375;    0.000
678.542; 2774.150;  236.375;    0.000
678.653; 2789.150;  218.375;    0.000
678.765; 2824.150;  275.375;    0.000
678.876; 2836.150;  213.375;    0.000
678.987; 2794.150;  182.375;    0.000
679.098; 2797.150;  221.375;    0.000
679.209; 2868.150;  238.375;    0.000
679.320; 2740.150;  212.375;    0.000
679.432; 2858.150;  231.375;    0.000
679.543; 2791.150;  198.375;    0.000
679.654; 2764.150;  191.375;    0.000
679.765; 2802.150;  214.375;    0.000
679.876; 2820.150;  221.375;    0.000
679.987; 2699.150;  162.375;    0.000
680.098; 2845.150;  230.375;    0.000
680.209; 2794.150;  206.375;    0.000
680.320; 2773.150;  196.375;    0.000
680.431; 2726.150;  191.375;    0.000
680.542; 2761.150;  214.375;    0.000
680.653; 2806.150;  238.375;    0.000
680.763; 2707.150;  182.375;    0.000
680.874; 2828.150;  213.375;    0.000
680.985; 2681.150;  224.375;    0.000
681.096; 2742.150;  222.375;    0.000
681.207; 2687.150;  220.375;    0.000
681.318; 2685.150;  216.375;    0.000
681.428; 2732.150;  229.375;    0.000
681.539; 2630.150;  183.375;    0.000
681.650; 2695.150;  202.375;    0.000
681.760; 2757.150;  223.375;    0.000
681.871; 2680.150;  211.375;    0.000
681.982; 2640.150;  189.375;    0.000
682.093; 2663.150;  222.375;    0.000
682.203; 2667.150;  220.375;    0.000
682.314; 2680.150;  214.375;    0.000
682.424; 2564.150;  208.375;    0.000
682.535; 2672.150;  213.375;    0.000
682.646; 2849.150;  302.375;    0.000
682.756; 2685.150;  255.375;    0.000
682.867; 2672.150;  244.375;    0.000
682.977; 2684.150;  221.375;    0.000
683.088; 2680.150;  259.375;    0.000
683.198; 2678.150;  212.375;    0.000
683.308; 2562.150;  202.375;    0.000
683.419; 2780.150;  255.375;    0.000
683.529; 2642.150;  217.375;    0.000
683.640; 2648.150;  240.375;    0.000
683.750; 2655.150;  181.375;    0.000
683.860; 2593.150;  246.375;    0.000
683.971; 2666.150;  254.375;    0.000
684.081; 2709.150;  235.375;    0.000
684.191; 2694.150;  251.375;    0.000
684.301; 2665.150;  233.375;    0.000
684.412; 2536.150;  202.375;    0.000
684.522; 2609.150;  232.375;    0.000
684.632; 2628.150;  202.375;    0.000
684.742; 2631.150;  254.375;    0.000
684.852; 2596.150;  219.375;    0.000
684.963; 2564.150;  256.375;    0.000
685.073; 2554.150;  253.375;    0.000
685.183; 2562.150;  254.375;    0.000
685.293; 2599.150;  232.375;    0.000
685.403; 2626.150;  242.375;    0.000
685.513; 2722.150;  261.375;    0.000
685.623; 2693.150;  245.375;    0.000
685.733; 2597.150;  254.375;    0.000
685.843; 2623.150;  249.375;    0.000
685.953; 2571.150;  252.375;    0.000
686.063; 2569.150;  227.375;    0.000
686.173; 2660.150;  223.375;    0.000
686.283; 2660.150;  234.375;    0.000
686.393; 2573.150;  239.375;    0.000
686.503; 2653.150;  231.375;    0.000
686.612; 2596.150;  232.375;    0.000
686.722; 2588.150;  258.375;    0.000
686.832; 2594.150;  256.375;    0.000
686.942; 2588.150;  230.375;    0.000
687.052; 2630.150;  274.375;    0.000
687.161; 2596.150;  269.375;    0.000
687.271; 2558.150;  218.375;    0.000
687.381; 2559.150;  235.375;    0.000
687.491; 2630.150;  262.375;    0.000
687.600; 2565.150;  256.375;    0.000
687.710; 2540.150;  225.375;    0.000
687.820; 2611.150;  230.375;    0.000
687.929; 2559.150;  226.375;    0.000
688.039; 2609.150;  228.375;    0.000
688.148; 2552.150;  249.375;    0.000
688.258; 2510.150;  237.375;    0.000
688.367; 2613.150;  260.375;    0.000
688.477; 2591.150;  200.375;    0.000
688.586; 2596.150;  223.375;    0.000
688.696; 2528.150;  223.375;    0.000
688.805; 2507.150;  257.375;    0.000
688.915; 2558.150;  185.375;    0.000
689.024; 2499.150;  227.375;    0.000
689.134; 2638.150;  224.375;    0.000
689.243; 2460.150;  206.375;    0.000
689.352; 2543.150;  275.375;    0.000
689.462; 2473.150;  233.375;    0.000
689.571; 2489.150;  244.375;    0.000
689.680; 2517.150;  261.375;    0.000
689.790; 2498.150;  192.375;    0.000
689.899; 2445.150;  214.375;    0.000
690.008; 2500.150;  255.375;    0.000
690.117; 2580.150;  219.375;    0.000
690.227; 2570.150;  241.375;    0.000
690.336; 2553.150;  231.375;    0.000
690.445; 2470.150;  212.375;    0.000
690.554; 2504.150;  234.375;    0.000
690.663; 2522.150;  210.375;    0.000
690.772; 2495.150;  221.375;    0.000
690.881; 2548.150;  244.375;    0.000
690.990; 2493.150;  247.375;    0.000
691.099; 2538.150;  222.375;    0.000
691.209; 2443.150;  240.375;    0.000
691.318; 2549.150;  223.375;    0.000
691.427; 2452.150;  217.375;    0.000
691.536; 2450.150;  216.375;    0.000
691.644; 2445.150;  194.375;    0.000
691.753; 2443.150;  221.375;    0.000
691.862; 2496.150;  224.375;    0.000
691.971; 2466.150;  191.375;    0.000
692.080; 2533.150;  247.375;    0.000
692.189; 2488.150;  208.375;    0.000
692.298; 2467.150;  203.375;    0.000
692.406; 2514.150;  239.375;    0.000
692.515; 2537.150;  250.375;    0.000
692.624; 2436.150;  226.375;    0.000
692.733; 2418.150;  229.375;    0.000
692.842; 2421.150;  254.375;    0.000
692.950; 2469.150;  242.375;    0.000
693.059; 2444.150;  204.375;    0.000
693.168; 2502.150;  252.375;    0.000
693.276; 2463.150;  195.375;    0.000
693.385; 2520.150;  228.375;    0.000
693.494; 2526.150;  282.375;    0.000
693.602; 2444.150;  221.375;    0.000
693.711; 2447.150;  225.375;    0.000
693.819; 2517.150;  234.375;    0.000
693.928; 2466.150;  229.375;    0.000
694.036; 2443.150;  192.375;    0.000
694.145; 2484.150;  233.375;    0.000
694.253; 2481.150;  277.375;    0.000
694.362; 2456.150;  188.375;    0.000
694.470; 2517.150;  263.375;    0.000
694.579; 2383.150;  253.375;    0.000
694.687; 2470.150;  281.375;    0.000
694.795; 2460.150;  233.375;    0.000
694.904; 2442.150;  223.375;    0.000
695.012; 2496.150;  296.375;    0.000
695.120; 2567.150;  227.375;    0.000
695.229; 2467.150;  269.375;    0.000
695.337; 2386.150;  229.375;    0.000
695.445; 2433.150;  244.375;    0.000
695.553; 2404.150;  259.375;    0.000
695.662; 2453.150;  208.375;    0.000
695.770; 2467.150;  241.375;    0.000
695.878; 2431.150;  239.375;    0.000
695.986; 2476.150;  247.375;    0.000
696.094; 2416.150;  224.375;    0.000
696.202; 2356.150;  205.375;    0.000
696.310; 2485.150;  217.375;    0.000
696.419; 2395.150;  228.375;    0.000
696.527; 2458.150;  246.375;    0.000
696.635; 2508.150;  245.375;    0.000
696.743; 2424.150;  233.375;    0.000
696.851; 2446.150;  251.375;    0.000
696.959; 2489.150;  257.375;    0.000
697.067; 2481.150;  260.375;    0.000
697.174; 2406.150;  223.375;    0.000
697.282; 2366.150;  239.375;    0.000
697.390; 2437.150;  264.375;    0.000
697.498; 2488.150;  227.375;    0.000
697.606; 2406.150;  243.375;    0.000
697.714; 2353.150;  256.375;    0.000
697.822; 2417.150;  278.375;    0.000
697.929; 2384.150;  227.375;    0.000
698.037; 2492.150;  232.375;    0.000
698.145; 2361.150;  256.375;    0.000
698.253; 2432.150;  245.375;    0.000
698.360; 2402.150;  282.375;    0.000
698.468; 2380.150;  244.375;    0.000
698.576; 2476.150;  279.375;    0.000
698.683; 2394.150;  259.375;    0.000
698.791; 2420.150;  265.375;    0.000
698.899; 2469.150;  250.375;    0.000
699.006; 2366.150;  245.375;    0.000
699.114; 2444.150;  280.375;    0.000
699.221; 2403.150;  240.375;    0.000
699.329; 2514.150;  293.375;    0.000
699.436; 2374.150;  216.375;    0.000
699.544; 2415.150;  269.375;    0.000
699.651; 2420.150;  219.375;    0.000
699.759; 2363.150;  245.375;    0.000
699.866; 2357.150;  261.375;    0.000
699.974; 2315.150;  245.375;    0.000
700.081; 2403.150;  257.375;    0.000
700.188; 2382.150;  268.375;    0.000
700.296; 2413.150;  225.375;    0.000
700.403; 2322.150;  257.375;    0.000
700.510; 2331.150;  267.375;    0.000
700.618; 2387.150;  299.375;    0.000
700.725; 2401.150;  223.375;    0.000
700.832; 2378.150;  233.375;    0.000
700.940; 2383.150;  255.375;    0.000
701.047; 2351.150;  244.375;    0.000
701.154; 2347.150;  248.375;    0.000
701.261; 2382.150;  264.375;    0.000
701.368; 2403.150;  299.375;    0.000
701.475; 2323.150;  264.375;    0.000
701.582; 2281.150;  275.375;    0.000
701.690; 2339.150;  261.375;    0.000
701.797; 2413.150;  273.375;    0.000
701.904; 2431.150;  320.375;    0.000
702.011; 2405.150;  299.375;    0.000
702.118; 2442.150;  292.375;    0.000
702.225; 2433.150;  317.375;    0.000
702.332; 2472.150;  307.375;    0.000
702.439; 2455.150;  313.375;    0.000
702.546; 2332.150;  312.375;    0.000
702.652; 2417.150;  297.375;    0.000
702.759; 2430.150;  345.375;    0.000
702.866; 2458.150;  330.375;    0.000
702.973; 2377.150;  303.375;    0.000
703.080; 2432.150;  303.375;    0.000
703.187; 2234.150;  327.375;    0.000
703.294; 2383.150;  325.375;    0.000
703.400; 2197.150;  302.375;    0.000
703.507;  538.150;  344.375;    0.000
703.614;  290.150;  294.375;    0.000
703.720;  327.150;  322.375;    0.000
703.827;  331.150;  329.375;    0.000
703.934;  300.150;  318.375;    0.000
704.040;  275.150;  299.375;    0.000
704.147;  285.150;  352.375;    0.000
704.254;  321.150;  350.375;    0.000
704.360;  297.150;  347.375;    0.000
704.467;  332.150;  336.375;    0.000
704.573;  321.150;  344.375;    0.000
704.680;  330.150;  365.375;    0.000
704.786;  310.150;  332.375;    0.000
704.893;  330.150;  304.375;    0.000
704.999;  310.150;  299.375;    0.000
705.106;  370.150;  365.375;    0.000

