
Integration time [ms]:   1.000
Averaging Nr. [scans]: 1
Smoothing Nr. [pixels]: 0
Data measured with spectrometer [name]: VIS
Wave   ;Sample   ;Dark     ;Reference
[nm]   ;[counts] ;[counts] ;[counts] 

450.961;  215.100;  200.375;    0.000
451.100;  213.100;  241.375;    0.000
451.239;  197.100;  201.375;    0.000
451.377;  268.100;  262.375;    0.000
451.516;  206.100;  229.375;    0.000
451.655;  226.100;  211.375;    0.000
451.794;  231.100;  225.375;    0.000
451.932;  221.100;  247.375;    0.000
452.071;  255.100;  260.375;    0.000
452.210;  252.100;  235.375;    0.000
452.348;  212.100;  276.375;    0.000
452.487;  210.100;  259.375;    0.000
452.626;  229.100;  254.375;    0.000
452.764;  212.100;  233.375;    0.000
452.903;  231.100;  202.375;    0.000
453.042;  263.100;  211.375;    0.000
453.180; 2902.100;  240.375;    0.000
453.319; 2983.100;  238.375;    0.000
453.458; 2925.100;  215.375;    0.000
453.596; 2940.100;  252.375;    0.000
453.735; 2862.100;  240.375;    0.000
453.873; 2962.100;  257.375;    0.000
454.012; 2958.100;  228.375;    0.000
454.150; 2999.100;  270.375;    0.000
454.289; 3059.100;  233.375;    0.000
454.427; 3154.100;  243.375;    0.000
454.566; 3134.100;  257.375;    0.000
454.704; 3102.100;  243.375;    0.000
454.843; 3182.100;  190.375;    0.000
454.981; 3266.100;  271.375;    0.000
455.120; 3200.100;  210.375;    0.000
455.258; 3306.100;  235.375;    0.000
455.397; 3344.100;  214.375;    0.000
455.535; 3344.100;  214.375;    0.000
455.674; 3328.100;  184.375;    0.000
455.812; 3421.100;  228.375;    0.000
455.951; 3316.100;  204.375;    0.000
456.089; 3439.100;  220.375;    0.000
456.227; 3435.100;  196.375;    0.000
456.366; 3549.100;  261.375;    0.000
456.504; 3499.100;  249.375;    0.000
456.642; 3611.100;  245.375;    0.000
456.781; 3564.100;  183.375;    0.000
456.919; 3674.100;  203.375;    0.000
457.057; 3699.100;  177.375;    0.000
457.196; 3676.100;  191.375;    0.000
457.334; 3796.100;  233.375;    0.000
457.472; 3793.100;  214.375;    0.000
457.610; 3916.100;  230.375;    0.000
457.749; 3992.100;  247.375;    0.000
457.887; 3869.100;  220.375;    0.000
458.025; 4101.100;  195.375;    0.000
458.163; 4031.100;  224.375;    0.000
458.301; 4169.100;  228.375;    0.000
458.440; 4119.100;  200.375;    0.000
458.578; 4261.100;  233.375;    0.000
458.716; 4207.100;  182.375;    0.000
458.854; 4412.100;  251.375;    0.000
458.992; 4417.100;  187.375;    0.000
459.130; 4482.100;  229.375;    0.000
459.269; 4543.100;  237.375;    0.000
459.407; 4452.100;  228.375;    0.000
459.545; 4637.100;  216.375;    0.000
459.683; 4697.100;  204.375;    0.000
459.821; 4672.100;  191.375;    0.000
459.959; 4788.100;  227.375;    0.000
460.097; 4741.100;  221.375;    0.000
460.235; 4889.100;  241.375;    0.000
460.373; 4839.100;  231.375;    0.000
460.511; 4975.100;  214.375;    0.000
460.649; 5073.100;  172.375;    0.000
460.787; 4977.100;  275.375;    0.000
460.925; 5125.100;  175.375;    0.000
461.063; 5172.100;  252.375;    0.000
461.201; 5046.100;  210.375;    0.000
461.339; 5125.100;  237.375;    0.000
461.477; 5067.100;  210.375;    0.000
461.615; 5171.100;  236.375;    0.000
461.753; 5259.100;  215.375;    0.000
461.891; 5290.100;  222.375;    0.000
462.029; 5433.100;  227.375;    0.000
462.166; 5476.100;  202.375;    0.000
462.304; 5458.100;  191.375;    0.000
462.442; 5688.100;  210.375;    0.000
462.580; 5650.100;  184.375;    0.000
462.718; 5835.100;  220.375;    0.000
462.856; 5709.100;  226.375;    0.000
462.993; 5804.100;  254.375;    0.000
463.131; 5697.100;  200.375;    0.000
463.269; 5764.100;  215.375;    0.000
463.407; 5646.100;  213.375;    0.000
463.545; 5527.100;  242.375;    0.000
463.682; 5497.100;  212.375;    0.000
463.820; 5675.100;  185.375;    0.000
463.958; 5907.100;  212.375;    0.000
464.095; 6028.100;  181.375;    0.000
464.233; 6034.100;  192.375;    0.000
464.371; 6093.100;  247.375;    0.000
464.509; 5966.100;  151.375;    0.000
464.646; 5968.100;  207.375;    0.000
464.784; 6019.100;  199.375;    0.000
464.921; 5888.100;  253.375;    0.000
465.059; 5787.100;  214.375;    0.000
465.197; 5750.100;  200.375;    0.000
465.334; 5545.100;  180.375;    0.000
465.472; 5460.100;  204.375;    0.000
465.609; 5319.100;  203.375;    0.000
465.747; 5388.100;  214.375;    0.000
465.885; 5328.100;  233.375;    0.000
466.022; 5387.100;  215.375;    0.000
466.160; 5415.100;  201.375;    0.000
466.297; 5308.100;  196.375;    0.000
466.435; 5083.100;  230.375;    0.000
466.572; 5299.100;  227.375;    0.000
466.710; 5164.100;  218.375;    0.000
466.847; 5196.100;  245.375;    0.000
466.985; 5181.100;  223.375;    0.000
467.122; 5204.100;  168.375;    0.000
467.260; 5156.100;  196.375;    0.000
467.397; 5195.100;  198.375;    0.000
467.534; 5235.100;  219.375;    0.000
467.672; 5107.100;  214.375;    0.000
467.809; 5187.100;  185.375;    0.000
467.947; 5235.100;  247.375;    0.000
468.084; 5098.100;  196.375;    0.000
468.221; 5128.100;  238.375;    0.000
468.359; 5032.100;  236.375;    0.000
468.496; 5130.100;  235.375;    0.000
468.633; 5080.100;  218.375;    0.000
468.771; 5172.100;  223.375;    0.000
468.908; 5181.100;  208.375;    0.000
469.045; 5277.100;  249.375;    0.000
469.183; 5166.100;  222.375;    0.000
469.320; 5277.100;  216.375;    0.000
469.457; 5393.100;  224.375;    0.000
469.594; 5357.100;  259.375;    0.000
469.732; 5473.100;  223.375;    0.000
469.869; 5462.100;  234.375;    0.000
470.006; 5495.100;  225.375;    0.000
470.143; 5509.100;  243.375;    0.000
470.280; 5573.100;  208.375;    0.000
470.417; 5683.100;  232.375;    0.000
470.555; 5502.100;  218.375;    0.000
470.692; 5562.100;  223.375;    0.000
470.829; 5609.100;  238.375;    0.000
470.966; 5629.100;  205.375;    0.000
471.103; 5464.100;  259.375;    0.000
471.240; 5486.100;  214.375;    0.000
471.377; 5606.100;  226.375;    0.000
471.514; 5517.100;  250.375;    0.000
471.651; 5369.100;  221.375;    0.000
471.789; 5485.100;  242.375;    0.000
471.926; 5414.100;  190.375;    0.000
472.063; 5420.100;  234.375;    0.000
472.200; 5415.100;  252.375;    0.000
472.337; 5353.100;  241.375;    0.000
472.474; 5269.100;  244.375;    0.000
472.611; 5342.100;  268.375;    0.000
472.748; 5333.100;  222.375;    0.000
472.884; 5358.100;  271.375;    0.000
473.021; 5283.100;  195.375;    0.000
473.158; 5377.100;  205.375;    0.000
473.295; 5242.100;  223.375;    0.000
473.432; 5249.100;  216.375;    0.000
473.569; 5270.100;  196.375;    0.000
473.706; 5278.100;  190.375;    0.000
473.843; 5327.100;  211.375;    0.000
473.980; 5270.100;  254.375;    0.000
474.117; 5235.100;  185.375;    0.000
474.253; 5330.100;  229.375;    0.000
474.390; 5310.100;  238.375;    0.000
474.527; 5376.100;  220.375;    0.000
474.664; 5294.100;  242.375;    0.000
474.801; 5350.100;  229.375;    0.000
474.937; 5430.100;  229.375;    0.000
475.074; 5292.100;  210.375;    0.000
475.211; 5295.100;  219.375;    0.000
475.348; 5366.100;  226.375;    0.000
475.484; 5352.100;  207.375;    0.000
475.621; 5404.100;  233.375;    0.000
475.758; 5401.100;  230.375;    0.000
475.894; 5486.100;  234.375;    0.000
476.031; 5476.100;  202.375;    0.000
476.168; 5409.100;  222.375;    0.000
476.304; 5473.100;  237.375;    0.000
476.441; 5619.100;  238.375;    0.000
476.578; 5470.100;  216.375;    0.000
476.714; 5549.100;  212.375;    0.000
476.851; 5475.100;  210.375;    0.000
476.987; 5645.100;  239.375;    0.000
477.124; 5700.100;  250.375;    0.000
477.261; 5640.100;  227.375;    0.000
477.397; 5681.100;  189.375;    0.000
477.534; 5738.100;  204.375;    0.000
477.670; 5721.100;  190.375;    0.000
477.807; 5773.100;  198.375;    0.000
477.943; 5899.100;  216.375;    0.000
478.080; 5907.100;  213.375;    0.000
478.216; 5948.100;  239.375;    0.000
478.353; 5977.100;  218.375;    0.000
478.489; 6005.100;  184.375;    0.000
478.626; 6018.100;  223.375;    0.000
478.762; 6114.100;  213.375;    0.000
478.898; 6039.100;  216.375;    0.000
479.035; 6065.100;  250.375;    0.000
479.171; 5989.100;  201.375;    0.000
479.308; 6206.100;  242.375;    0.000
479.444; 6178.100;  205.375;    0.000
479.580; 6050.100;  203.375;    0.000
479.717; 6053.100;  260.375;    0.000
479.853; 6181.100;  225.375;    0.000
479.989; 6278.100;  226.375;    0.000
480.126; 6328.100;  211.375;    0.000
480.262; 6270.100;  220.375;    0.000
480.398; 6353.100;  207.375;    0.000
480.535; 6263.100;  179.375;    0.000
480.671; 6272.100;  200.375;    0.000
480.807; 6309.100;  190.375;    0.000
480.943; 6188.100;  165.375;    0.000
481.080; 6135.100;  210.375;    0.000
481.216; 6052.100;  232.375;    0.000
481.352; 6131.100;  235.375;    0.000
481.488; 6143.100;  208.375;    0.000
481.624; 6135.100;  245.375;    0.000
481.760; 6118.100;  210.375;    0.000
481.897; 6183.100;  189.375;    0.000
482.033; 6082.100;  256.375;    0.000
482.169; 6254.100;  257.375;    0.000
482.305; 6080.100;  199.375;    0.000
482.441; 6098.100;  182.375;    0.000
482.577; 6074.100;  223.375;    0.000
482.713; 6138.100;  243.375;    0.000
482.849; 6078.100;  197.375;    0.000
482.985; 6105.100;  240.375;    0.000
483.121; 6092.100;  210.375;    0.000
483.258; 6198.100;  248.375;    0.000
483.394; 6094.100;  224.375;    0.000
483.530; 6118.100;  209.375;    0.000
483.665; 6235.100;  225.375;    0.000
483.801; 6177.100;  216.375;    0.000
483.937; 6202.100;  211.375;    0.000
484.073; 6258.100;  259.375;    0.000
484.209; 6196.100;  191.375;    0.000
484.345; 6214.100;  239.375;    0.000
484.481; 6265.100;  231.375;    0.000
484.617; 6310.100;  216.375;    0.000
484.753; 6276.100;  180.375;    0.000
484.889; 6397.100;  252.375;    0.000
485.025; 6300.100;  244.375;    0.000
485.161; 6393.100;  242.375;    0.000
485.296; 6494.100;  235.375;    0.000
485.432; 6413.100;  247.375;    0.000
485.568; 6361.100;  203.375;    0.000
485.704; 6455.100;  229.375;    0.000
485.840; 6409.100;  230.375;    0.000
485.975; 6350.100;  266.375;    0.000
486.111; 6375.100;  220.375;    0.000
486.247; 6405.100;  264.375;    0.000
486.383; 6518.100;  213.375;    0.000
486.518; 6439.100;  222.375;    0.000
486.654; 6364.100;  244.375;    0.000
486.790; 6510.100;  273.375;    0.000
486.926; 6409.100;  203.375;    0.000
487.061; 6508.100;  227.375;    0.000
487.197; 6364.100;  210.375;    0.000
487.333; 6217.100;  209.375;    0.000
487.468; 6386.100;  197.375;    0.000
487.604; 6235.100;  230.375;    0.000
487.740; 6375.100;  254.375;    0.000
487.875; 6413.100;  286.375;    0.000
488.011; 6379.100;  225.375;    0.000
488.146; 6300.100;  251.375;    0.000
488.282; 6362.100;  242.375;    0.000
488.417; 6380.100;  230.375;    0.000
488.553; 6309.100;  260.375;    0.000
488.688; 6336.100;  207.375;    0.000
488.824; 6217.100;  204.375;    0.000
488.960; 6290.100;  248.375;    0.000
489.095; 6253.100;  204.375;    0.000
489.230; 6337.100;  227.375;    0.000
489.366; 6381.100;  226.375;    0.000
489.501; 6377.100;  199.375;    0.000
489.637; 6268.100;  233.375;    0.000
489.772; 6309.100;  249.375;    0.000
489.908; 6247.100;  200.375;    0.000
490.043; 6425.100;  246.375;    0.000
490.178; 6387.100;  222.375;    0.000
490.314; 6349.100;  219.375;    0.000
490.449; 6287.100;  227.375;    0.000
490.585; 6186.100;  209.375;    0.000
490.720; 6339.100;  238.375;    0.000
490.855; 6270.100;  222.375;    0.000
490.991; 6221.100;  202.375;    0.000
491.126; 6330.100;  272.375;    0.000
491.261; 6294.100;  261.375;    0.000
491.396; 6250.100;  190.375;    0.000
491.532; 6320.100;  202.375;    0.000
491.667; 6439.100;  208.375;    0.000
491.802; 6208.100;  203.375;    0.000
491.937; 6314.100;  253.375;    0.000
492.073; 6328.100;  242.375;    0.000
492.208; 6337.100;  230.375;    0.000
492.343; 6318.100;  183.375;    0.000
492.478; 6417.100;  246.375;    0.000
492.613; 6320.100;  223.375;    0.000
492.749; 6325.100;  230.375;    0.000
492.884; 6367.100;  190.375;    0.000
493.019; 6356.100;  234.375;    0.000
493.154; 6415.100;  218.375;    0.000
493.289; 6227.100;  222.375;    0.000
493.424; 6215.100;  196.375;    0.000
493.559; 6340.100;  202.375;    0.000
493.694; 6431.100;  180.375;    0.000
493.829; 6380.100;  224.375;    0.000
493.964; 6214.100;  218.375;    0.000
494.099; 6348.100;  275.375;    0.000
494.234; 6233.100;  226.375;    0.000
494.369; 6374.100;  225.375;    0.000
494.504; 6235.100;  219.375;    0.000
494.639; 6280.100;  296.375;    0.000
494.774; 6331.100;  228.375;    0.000
494.909; 6383.100;  222.375;    0.000
495.044; 6326.100;  215.375;    0.000
495.179; 6288.100;  200.375;    0.000
495.314; 6345.100;  235.375;    0.000
495.449; 6348.100;  249.375;    0.000
495.584; 6268.100;  228.375;    0.000
495.719; 6406.100;  212.375;    0.000
495.854; 6375.100;  201.375;    0.000
495.988; 6397.100;  248.375;    0.000
496.123; 6343.100;  209.375;    0.000
496.258; 6417.100;  249.375;    0.000
496.393; 6366.100;  223.375;    0.000
496.528; 6326.100;  209.375;    0.000
496.663; 6565.100;  207.375;    0.000
496.797; 6462.100;  229.375;    0.000
496.932; 6751.100;  225.375;    0.000
497.067; 6546.100;  218.375;    0.000
497.202; 6580.100;  163.375;    0.000
497.336; 6773.100;  246.375;    0.000
497.471; 6854.100;  229.375;    0.000
497.606; 6844.100;  251.375;    0.000
497.740; 6912.100;  220.375;    0.000
497.875; 7077.100;  216.375;    0.000
498.010; 7123.100;  226.375;    0.000
498.144; 7262.100;  237.375;    0.000
498.279; 7395.100;  196.375;    0.000
498.414; 7515.100;  219.375;    0.000
498.548; 7585.100;  205.375;    0.000
498.683; 7726.100;  206.375;    0.000
498.817; 8050.100;  225.375;    0.000
498.952; 8184.100;  221.375;    0.000
499.087; 8416.100;  220.375;    0.000
499.221; 8567.100;  233.375;    0.000
499.356; 8846.100;  230.375;    0.000
499.490; 9080.100;  229.375;    0.000
499.625; 9417.100;  231.375;    0.000
499.759; 9653.100;  243.375;    0.000
499.894;10076.100;  241.375;    0.000
500.028;10526.100;  264.375;    0.000
500.162;10755.100;  287.375;    0.000
500.297;10943.100;  234.375;    0.000
500.431;11089.100;  230.375;    0.000
500.566;10921.100;  213.375;    0.000
500.700;10716.100;  243.375;    0.000
500.835;10374.100;  272.375;    0.000
500.969;10158.100;  188.375;    0.000
501.103; 9907.100;  200.375;    0.000
501.238; 9603.100;  257.375;    0.000
501.372; 9221.100;  224.375;    0.000
501.506; 8902.100;  225.375;    0.000
501.641; 8660.100;  271.375;    0.000
501.775; 8352.100;  199.375;    0.000
501.909; 8008.100;  249.375;    0.000
502.043; 7919.100;  211.375;    0.000
502.178; 7804.100;  269.375;    0.000
502.312; 7595.100;  198.375;    0.000
502.446; 7581.100;  256.375;    0.000
502.580; 7283.100;  195.375;    0.000
502.715; 7070.100;  224.375;    0.000
502.849; 7021.100;  245.375;    0.000
502.983; 7062.100;  250.375;    0.000
503.117; 6939.100;  193.375;    0.000
503.251; 6722.100;  242.375;    0.000
503.385; 6666.100;  227.375;    0.000
503.520; 6743.100;  235.375;    0.000
503.654; 6462.100;  220.375;    0.000
503.788; 6470.100;  267.375;    0.000
503.922; 6370.100;  220.375;    0.000
504.056; 6406.100;  238.375;    0.000
504.190; 6316.100;  212.375;    0.000
504.324; 6374.100;  265.375;    0.000
504.458; 6240.100;  228.375;    0.000
504.592; 6362.100;  231.375;    0.000
504.726; 6112.100;  218.375;    0.000
504.860; 6131.100;  253.375;    0.000
504.994; 6042.100;  217.375;    0.000
505.128; 5881.100;  243.375;    0.000
505.262; 5674.100;  194.375;    0.000
505.396; 5611.100;  210.375;    0.000
505.530; 5566.100;  211.375;    0.000
505.664; 5444.100;  219.375;    0.000
505.798; 5473.100;  240.375;    0.000
505.932; 5440.100;  240.375;    0.000
506.066; 5528.100;  252.375;    0.000
506.199; 5442.100;  242.375;    0.000
506.333; 5301.100;  244.375;    0.000
506.467; 5305.100;  223.375;    0.000
506.601; 5209.100;  183.375;    0.000
506.735; 5293.100;  249.375;    0.000
506.869; 5168.100;  270.375;    0.000
507.002; 5157.100;  207.375;    0.000
507.136; 5087.100;  242.375;    0.000
507.270; 5081.100;  232.375;    0.000
507.404; 5051.100;  195.375;    0.000
507.537; 5163.100;  218.375;    0.000
507.671; 5075.100;  246.375;    0.000
507.805; 4978.100;  244.375;    0.000
507.939; 4945.100;  251.375;    0.000
508.072; 5000.100;  212.375;    0.000
508.206; 4796.100;  198.375;    0.000
508.340; 4936.100;  234.375;    0.000
508.473; 4942.100;  217.375;    0.000
508.607; 4891.100;  224.375;    0.000
508.740; 4891.100;  207.375;    0.000
508.874; 4887.100;  230.375;    0.000
509.008; 4717.100;  246.375;    0.000
509.141; 4762.100;  239.375;    0.000
509.275; 4744.100;  229.375;    0.000
509.408; 4800.100;  234.375;    0.000
509.542; 4658.100;  212.375;    0.000
509.675; 4757.100;  256.375;    0.000
509.809; 4608.100;  232.375;    0.000
509.942; 4725.100;  237.375;    0.000
510.076; 4479.100;  226.375;    0.000
510.209; 4784.100;  251.375;    0.000
510.343; 4731.100;  229.375;    0.000
510.476; 4633.100;  285.375;    0.000
510.610; 4551.100;  211.375;    0.000
510.743; 4612.100;  258.375;    0.000
510.877; 4555.100;  244.375;    0.000
511.010; 4606.100;  235.375;    0.000
511.143; 4419.100;  251.375;    0.000
511.277; 4548.100;  228.375;    0.000
511.410; 4547.100;  216.375;    0.000
511.543; 4582.100;  231.375;    0.000
511.677; 4478.100;  244.375;    0.000
511.810; 4576.100;  186.375;    0.000
511.943; 4655.100;  211.375;    0.000
512.077; 4576.100;  201.375;    0.000
512.210; 4474.100;  194.375;    0.000
512.343; 4624.100;  233.375;    0.000
512.476; 4569.100;  234.375;    0.000
512.610; 4508.100;  224.375;    0.000
512.743; 4493.100;  255.375;    0.000
512.876; 4626.100;  264.375;    0.000
513.009; 4555.100;  283.375;    0.000
513.142; 4565.100;  246.375;    0.000
513.276; 4535.100;  217.375;    0.000
513.409; 4499.100;  222.375;    0.000
513.542; 4470.100;  237.375;    0.000
513.675; 4478.100;  238.375;    0.000
513.808; 4431.100;  220.375;    0.000
513.941; 4508.100;  233.375;    0.000
514.074; 4542.100;  248.375;    0.000
514.207; 4558.100;  233.375;    0.000
514.340; 4484.100;  190.375;    0.000
514.474; 4536.100;  221.375;    0.000
514.607; 4603.100;  213.375;    0.000
514.740; 4670.100;  251.375;    0.000
514.873; 4660.100;  257.375;    0.000
515.006; 4503.100;  268.375;    0.000
515.139; 4567.100;  257.375;    0.000
515.272; 4530.100;  227.375;    0.000
515.404; 4620.100;  238.375;    0.000
515.537; 4715.100;  275.375;    0.000
515.670; 4668.100;  239.375;    0.000
515.803; 4646.100;  223.375;    0.000
515.936; 4686.100;  202.375;    0.000
516.069; 4681.100;  188.375;    0.000
516.202; 4912.100;  240.375;    0.000
516.335; 4965.100;  252.375;    0.000
516.468; 5254.100;  254.375;    0.000
516.600; 6248.100;  254.375;    0.000
516.733; 7865.100;  255.375;    0.000
516.866; 7423.100;  265.375;    0.000
516.999; 6581.100;  251.375;    0.000
517.132; 8552.100;  256.375;    0.000
517.264;12209.100;  202.375;    0.000
517.397;11251.100;  248.375;    0.000
517.530; 8220.100;  221.375;    0.000
517.663; 6791.100;  244.375;    0.000
517.795; 6449.100;  245.375;    0.000
517.928; 6273.100;  236.375;    0.000
518.061; 6296.100;  219.375;    0.000
518.193; 8615.100;  251.375;    0.000
518.326;13926.100;  271.375;    0.000
518.459;14633.100;  207.375;    0.000
518.591;10371.100;  217.375;    0.000
518.724; 7707.100;  200.375;    0.000
518.857; 6532.100;  204.375;    0.000
518.989; 6172.100;  242.375;    0.000
519.122; 5623.100;  254.375;    0.000
519.254; 5310.100;  239.375;    0.000
519.387; 5278.100;  235.375;    0.000
519.519; 5085.100;  227.375;    0.000
519.652; 4965.100;  178.375;    0.000
519.784; 4968.100;  226.375;    0.000
519.917; 4712.100;  256.375;    0.000
520.049; 4660.100;  234.375;    0.000
520.182; 4683.100;  258.375;    0.000
520.314; 4607.100;  298.375;    0.000
520.447; 4645.100;  204.375;    0.000
520.579; 4571.100;  235.375;    0.000
520.712; 4515.100;  208.375;    0.000
520.844; 4604.100;  272.375;    0.000
520.976; 4470.100;  234.375;    0.000
521.109; 4427.100;  235.375;    0.000
521.241; 4330.100;  250.375;    0.000
521.373; 4380.100;  233.375;    0.000
521.506; 4205.100;  231.375;    0.000
521.638; 4288.100;  258.375;    0.000
521.770; 4156.100;  226.375;    0.000
521.903; 4178.100;  258.375;    0.000
522.035; 4105.100;  263.375;    0.000
522.167; 4119.100;  214.375;    0.000
522.300; 4087.100;  212.375;    0.000
522.432; 4011.100;  220.375;    0.000
522.564; 4198.100;  228.375;    0.000
522.696; 4171.100;  272.375;    0.000
522.828; 4112.100;  222.375;    0.000
522.961; 4020.100;  205.375;    0.000
523.093; 4034.100;  253.375;    0.000
523.225; 4142.100;  239.375;    0.000
523.357; 3896.100;  263.375;    0.000
523.489; 3913.100;  264.375;    0.000
523.621; 4029.100;  259.375;    0.000
523.753; 3856.100;  233.375;    0.000
523.885; 3992.100;  232.375;    0.000
524.018; 3949.100;  214.375;    0.000
524.150; 3883.100;  235.375;    0.000
524.282; 3887.100;  242.375;    0.000
524.414; 3895.100;  261.375;    0.000
524.546; 3963.100;  233.375;    0.000
524.678; 3833.100;  242.375;    0.000
524.810; 3818.100;  216.375;    0.000
524.942; 3748.100;  220.375;    0.000
525.074; 3814.100;  249.375;    0.000
525.206; 3784.100;  227.375;    0.000
525.338; 3787.100;  250.375;    0.000
525.469; 3748.100;  231.375;    0.000
525.601; 3797.100;  245.375;    0.000
525.733; 3718.100;  187.375;    0.000
525.865; 3727.100;  280.375;    0.000
525.997; 3784.100;  216.375;    0.000
526.129; 3659.100;  228.375;    0.000
526.261; 3705.100;  187.375;    0.000
526.393; 3634.100;  228.375;    0.000
526.524; 3646.100;  201.375;    0.000
526.656; 3593.100;  199.375;    0.000
526.788; 3596.100;  233.375;    0.000
526.920; 3621.100;  256.375;    0.000
527.052; 3566.100;  219.375;    0.000
527.183; 3738.100;  227.375;    0.000
527.315; 3671.100;  266.375;    0.000
527.447; 3657.100;  239.375;    0.000
527.578; 3703.100;  213.375;    0.000
527.710; 3664.100;  216.375;    0.000
527.842; 3590.100;  240.375;    0.000
527.973; 3750.100;  286.375;    0.000
528.105; 3643.100;  222.375;    0.000
528.237; 3490.100;  223.375;    0.000
528.368; 3591.100;  211.375;    0.000
528.500; 3612.100;  215.375;    0.000
528.632; 3580.100;  216.375;    0.000
528.763; 3526.100;  234.375;    0.000
528.895; 3588.100;  196.375;    0.000
529.026; 3588.100;  202.375;    0.000
529.158; 3591.100;  226.375;    0.000
529.289; 3651.100;  229.375;    0.000
529.421; 3684.100;  264.375;    0.000
529.552; 3625.100;  265.375;    0.000
529.684; 3531.100;  260.375;    0.000
529.815; 3574.100;  284.375;    0.000
529.947; 3634.100;  237.375;    0.000
530.078; 3627.100;  223.375;    0.000
530.210; 3543.100;  223.375;    0.000
530.341; 3566.100;  209.375;    0.000
530.472; 3560.100;  203.375;    0.000
530.604; 3506.100;  223.375;    0.000
530.735; 3638.100;  218.375;    0.000
530.867; 3668.100;  222.375;    0.000
530.998; 3562.100;  239.375;    0.000
531.129; 3545.100;  250.375;    0.000
531.260; 3692.100;  224.375;    0.000
531.392; 3634.100;  216.375;    0.000
531.523; 3655.100;  234.375;    0.000
531.654; 3620.100;  256.375;    0.000
531.786; 3749.100;  226.375;    0.000
531.917; 3633.100;  239.375;    0.000
532.048; 3660.100;  205.375;    0.000
532.179; 3674.100;  244.375;    0.000
532.311; 3601.100;  235.375;    0.000
532.442; 3703.100;  258.375;    0.000
532.573; 3537.100;  220.375;    0.000
532.704; 3543.100;  213.375;    0.000
532.835; 3598.100;  249.375;    0.000
532.966; 3529.100;  226.375;    0.000
533.097; 3644.100;  246.375;    0.000
533.229; 3577.100;  237.375;    0.000
533.360; 3566.100;  225.375;    0.000
533.491; 3624.100;  241.375;    0.000
533.622; 3573.100;  242.375;    0.000
533.753; 3621.100;  264.375;    0.000
533.884; 3601.100;  245.375;    0.000
534.015; 3626.100;  269.375;    0.000
534.146; 3669.100;  267.375;    0.000
534.277; 3637.100;  282.375;    0.000
534.408; 3623.100;  229.375;    0.000
534.539; 3661.100;  269.375;    0.000
534.670; 3646.100;  231.375;    0.000
534.801; 3607.100;  260.375;    0.000
534.932; 3489.100;  232.375;    0.000
535.063; 3562.100;  227.375;    0.000
535.194; 3577.100;  281.375;    0.000
535.324; 3546.100;  206.375;    0.000
535.455; 3502.100;  257.375;    0.000
535.586; 3635.100;  275.375;    0.000
535.717; 3424.100;  206.375;    0.000
535.848; 3577.100;  271.375;    0.000
535.979; 3518.100;  250.375;    0.000
536.109; 3530.100;  253.375;    0.000
536.240; 3534.100;  234.375;    0.000
536.371; 3545.100;  230.375;    0.000
536.502; 3537.100;  270.375;    0.000
536.632; 3518.100;  228.375;    0.000
536.763; 3512.100;  249.375;    0.000
536.894; 3478.100;  262.375;    0.000
537.025; 3449.100;  258.375;    0.000
537.155; 3453.100;  278.375;    0.000
537.286; 3408.100;  209.375;    0.000
537.417; 3521.100;  255.375;    0.000
537.547; 3390.100;  208.375;    0.000
537.678; 3509.100;  224.375;    0.000
537.808; 3457.100;  224.375;    0.000
537.939; 3401.100;  257.375;    0.000
538.070; 3427.100;  240.375;    0.000
538.200; 3478.100;  259.375;    0.000
538.331; 3461.100;  235.375;    0.000
538.461; 3371.100;  251.375;    0.000
538.592; 3395.100;  245.375;    0.000
538.722; 3510.100;  239.375;    0.000
538.853; 3364.100;  216.375;    0.000
538.983; 3435.100;  226.375;    0.000
539.114; 3482.100;  240.375;    0.000
539.244; 3266.100;  237.375;    0.000
539.375; 3318.100;  198.375;    0.000
539.505; 3417.100;  263.375;    0.000
539.636; 3328.100;  226.375;    0.000
539.766; 3478.100;  229.375;    0.000
539.896; 3222.100;  219.375;    0.000
540.027; 3432.100;  246.375;    0.000
540.157; 3415.100;  218.375;    0.000
540.287; 3413.100;  216.375;    0.000
540.418; 3362.100;  267.375;    0.000
540.548; 3284.100;  260.375;    0.000
540.678; 3449.100;  242.375;    0.000
540.809; 3486.100;  260.375;    0.000
540.939; 3443.100;  257.375;    0.000
541.069; 3402.100;  226.375;    0.000
541.200; 3337.100;  227.375;    0.000
541.330; 3341.100;  218.375;    0.000
541.460; 3504.100;  223.375;    0.000
541.590; 3442.100;  237.375;    0.000
541.720; 3398.100;  222.375;    0.000
541.851; 3413.100;  250.375;    0.000
541.981; 3473.100;  222.375;    0.000
542.111; 3499.100;  212.375;    0.000
542.241; 3388.100;  205.375;    0.000
542.371; 3478.100;  202.375;    0.000
542.501; 3595.100;  218.375;    0.000
542.631; 3597.100;  222.375;    0.000
542.761; 3598.100;  249.375;    0.000
542.891; 3677.100;  173.375;    0.000
543.021; 3424.100;  218.375;    0.000
543.151; 3626.100;  222.375;    0.000
543.281; 3599.100;  188.375;    0.000
543.411; 3602.100;  239.375;    0.000
543.542; 3505.100;  215.375;    0.000
543.671; 3641.100;  250.375;    0.000
543.801; 3518.100;  212.375;    0.000
543.931; 3522.100;  233.375;    0.000
544.061; 3638.100;  194.375;    0.000
544.191; 3495.100;  218.375;    0.000
544.321; 3563.100;  220.375;    0.000
544.451; 3566.100;  183.375;    0.000
544.581; 3538.100;  221.375;    0.000
544.711; 3676.100;  224.375;    0.000
544.841; 3646.100;  214.375;    0.000
544.970; 3712.100;  227.375;    0.000
545.100; 3748.100;  186.375;    0.000
545.230; 3730.100;  205.375;    0.000
545.360; 3705.100;  211.375;    0.000
545.490; 3752.100;  202.375;    0.000
545.619; 3601.100;  182.375;    0.000
545.749; 3655.100;  174.375;    0.000
545.879; 3520.100;  169.375;    0.000
546.009; 3601.100;  182.375;    0.000
546.138; 3463.100;  200.375;    0.000
546.268; 3583.100;  204.375;    0.000
546.398; 3670.100;  200.375;    0.000
546.527; 3527.100;  179.375;    0.000
546.657; 3501.100;  162.375;    0.000
546.786; 3558.100;  179.375;    0.000
546.916; 3626.100;  221.375;    0.000
547.046; 3528.100;  179.375;    0.000
547.175; 3548.100;  168.375;    0.000
547.305; 3561.100;  200.375;    0.000
547.434; 3640.100;  166.375;    0.000
547.564; 3558.100;  177.375;    0.000
547.693; 3485.100;  152.375;    0.000
547.823; 3511.100;  171.375;    0.000
547.953; 3629.100;  195.375;    0.000
548.082; 3525.100;  214.375;    0.000
548.211; 3612.100;  177.375;    0.000
548.341; 3457.100;  189.375;    0.000
548.470; 3566.100;  194.375;    0.000
548.600; 3583.100;  172.375;    0.000
548.729; 3577.100;  158.375;    0.000
548.859; 3529.100;  193.375;    0.000
548.988; 3589.100;  131.375;    0.000
549.117; 3618.100;  204.375;    0.000
549.247; 3578.100;  191.375;    0.000
549.376; 3677.100;  202.375;    0.000
549.505; 3575.100;  187.375;    0.000
549.635; 3665.100;  198.375;    0.000
549.764; 3636.100;  155.375;    0.000
549.893; 3656.100;  176.375;    0.000
550.023; 3635.100;  202.375;    0.000
550.152; 3602.100;  168.375;    0.000
550.281; 3593.100;  180.375;    0.000
550.410; 3607.100;  180.375;    0.000
550.539; 3673.100;  181.375;    0.000
550.669; 3702.100;  168.375;    0.000
550.798; 3718.100;  223.375;    0.000
550.927; 3649.100;  179.375;    0.000
551.056; 3626.100;  159.375;    0.000
551.185; 3733.100;  199.375;    0.000
551.314; 3694.100;  185.375;    0.000
551.443; 3630.100;  172.375;    0.000
551.573; 3725.100;  158.375;    0.000
551.702; 3590.100;  210.375;    0.000
551.831; 3859.100;  238.375;    0.000
551.960; 3802.100;  191.375;    0.000
552.089; 3746.100;  195.375;    0.000
552.218; 3773.100;  196.375;    0.000
552.347; 3792.100;  194.375;    0.000
552.476; 3798.100;  192.375;    0.000
552.605; 3876.100;  172.375;    0.000
552.734; 3946.100;  214.375;    0.000
552.863; 4183.100;  177.375;    0.000
552.992; 4083.100;  190.375;    0.000
553.121; 4072.100;  185.375;    0.000
553.249; 3953.100;  175.375;    0.000
553.378; 4050.100;  192.375;    0.000
553.507; 3946.100;  193.375;    0.000
553.636; 3888.100;  182.375;    0.000
553.765; 3833.100;  187.375;    0.000
553.894; 3805.100;  214.375;    0.000
554.023; 3886.100;  217.375;    0.000
554.151; 3758.100;  223.375;    0.000
554.280; 3753.100;  170.375;    0.000
554.409; 3721.100;  172.375;    0.000
554.538; 3853.100;  182.375;    0.000
554.666; 3692.100;  195.375;    0.000
554.795; 3670.100;  176.375;    0.000
554.924; 3685.100;  164.375;    0.000
555.052; 3731.100;  171.375;    0.000
555.181; 3747.100;  208.375;    0.000
555.310; 3653.100;  214.375;    0.000
555.439; 3716.100;  193.375;    0.000
555.567; 3619.100;  189.375;    0.000
555.696; 3612.100;  196.375;    0.000
555.824; 3530.100;  183.375;    0.000
555.953; 3639.100;  234.375;    0.000
556.082; 3575.100;  183.375;    0.000
556.210; 3616.100;  199.375;    0.000
556.339; 3495.100;  201.375;    0.000
556.467; 3524.100;  208.375;    0.000
556.596; 3558.100;  194.375;    0.000
556.724; 3622.100;  170.375;    0.000
556.853; 3543.100;  166.375;    0.000
556.981; 3626.100;  185.375;    0.000
557.110; 3565.100;  213.375;    0.000
557.238; 3522.100;  188.375;    0.000
557.367; 3470.100;  176.375;    0.000
557.495; 3540.100;  180.375;    0.000
557.623; 3498.100;  193.375;    0.000
557.752; 3525.100;  207.375;    0.000
557.880; 3490.100;  189.375;    0.000
558.008; 3516.100;  169.375;    0.000
558.137; 3545.100;  203.375;    0.000
558.265; 3506.100;  167.375;    0.000
558.393; 3529.100;  204.375;    0.000
558.522; 3488.100;  203.375;    0.000
558.650; 3619.100;  215.375;    0.000
558.778; 3521.100;  190.375;    0.000
558.906; 3498.100;  186.375;    0.000
559.035; 3567.100;  193.375;    0.000
559.163; 3497.100;  198.375;    0.000
559.291; 3506.100;  222.375;    0.000
559.419; 3527.100;  192.375;    0.000
559.548; 3404.100;  186.375;    0.000
559.676; 3394.100;  199.375;    0.000
559.804; 3517.100;  186.375;    0.000
559.932; 3578.100;  202.375;    0.000
560.060; 3480.100;  183.375;    0.000
560.188; 3633.100;  212.375;    0.000
560.316; 3468.100;  192.375;    0.000
560.444; 3545.100;  180.375;    0.000
560.572; 3650.100;  206.375;    0.000
560.700; 3691.100;  184.375;    0.000
560.828; 3659.100;  177.375;    0.000
560.956; 3625.100;  221.375;    0.000
561.085; 3701.100;  227.375;    0.000
561.212; 3728.100;  208.375;    0.000
561.340; 3600.100;  189.375;    0.000
561.468; 3656.100;  189.375;    0.000
561.596; 3681.100;  183.375;    0.000
561.724; 3655.100;  188.375;    0.000
561.852; 3629.100;  183.375;    0.000
561.980; 3669.100;  209.375;    0.000
562.108; 3693.100;  165.375;    0.000
562.236; 3749.100;  188.375;    0.000
562.364; 3808.100;  177.375;    0.000
562.492; 3805.100;  192.375;    0.000
562.619; 3687.100;  187.375;    0.000
562.747; 3763.100;  217.375;    0.000
562.875; 3751.100;  221.375;    0.000
563.003; 3821.100;  199.375;    0.000
563.130; 3799.100;  191.375;    0.000
563.258; 3852.100;  186.375;    0.000
563.386; 3802.100;  191.375;    0.000
563.514; 3934.100;  217.375;    0.000
563.641; 3975.100;  220.375;    0.000
563.769; 3986.100;  186.375;    0.000
563.897; 4075.100;  158.375;    0.000
564.024; 4110.100;  192.375;    0.000
564.152; 4104.100;  217.375;    0.000
564.280; 3968.100;  203.375;    0.000
564.407; 4160.100;  190.375;    0.000
564.535; 4190.100;  188.375;    0.000
564.662; 4172.100;  199.375;    0.000
564.790; 4181.100;  227.375;    0.000
564.917; 4087.100;  160.375;    0.000
565.045; 4209.100;  222.375;    0.000
565.173; 4244.100;  169.375;    0.000
565.300; 4345.100;  208.375;    0.000
565.428; 4243.100;  174.375;    0.000
565.555; 4330.100;  201.375;    0.000
565.682; 4415.100;  180.375;    0.000
565.810; 4579.100;  165.375;    0.000
565.937; 4661.100;  167.375;    0.000
566.065; 4774.100;  190.375;    0.000
566.192; 4850.100;  169.375;    0.000
566.320; 4856.100;  167.375;    0.000
566.447; 4850.100;  151.375;    0.000
566.574; 5045.100;  176.375;    0.000
566.702; 5060.100;  198.375;    0.000
566.829; 5136.100;  209.375;    0.000
566.956; 5111.100;  186.375;    0.000
567.083; 5166.100;  188.375;    0.000
567.211; 5263.100;  159.375;    0.000
567.338; 5283.100;  204.375;    0.000
567.465; 5385.100;  141.375;    0.000
567.593; 5560.100;  168.375;    0.000
567.720; 5484.100;  177.375;    0.000
567.847; 5428.100;  160.375;    0.000
567.974; 5408.100;  139.375;    0.000
568.101; 5279.100;  153.375;    0.000
568.228; 5299.100;  173.375;    0.000
568.356; 5139.100;  149.375;    0.000
568.483; 4971.100;  185.375;    0.000
568.610; 4897.100;  170.375;    0.000
568.737; 4994.100;  223.375;    0.000
568.864; 5052.100;  167.375;    0.000
568.991; 4848.100;  177.375;    0.000
569.118; 4612.100;  169.375;    0.000
569.245; 4437.100;  128.375;    0.000
569.372; 4330.100;  160.375;    0.000
569.499; 4297.100;  156.375;    0.000
569.626; 4167.100;  191.375;    0.000
569.753; 4195.100;  163.375;    0.000
569.880; 4167.100;  167.375;    0.000
570.007; 4174.100;  143.375;    0.000
570.134; 4037.100;  191.375;    0.000
570.261; 4226.100;  164.375;    0.000
570.388; 4078.100;  162.375;    0.000
570.515; 4038.100;  220.375;    0.000
570.642; 4048.100;  184.375;    0.000
570.768; 4081.100;  174.375;    0.000
570.895; 3990.100;  177.375;    0.000
571.022; 4010.100;  152.375;    0.000
571.149; 4030.100;  183.375;    0.000
571.276; 3889.100;  153.375;    0.000
571.402; 4003.100;  190.375;    0.000
571.529; 3888.100;  187.375;    0.000
571.656; 3878.100;  167.375;    0.000
571.783; 3796.100;  186.375;    0.000
571.909; 3887.100;  183.375;    0.000
572.036; 3788.100;  162.375;    0.000
572.163; 3763.100;  196.375;    0.000
572.289; 3804.100;  180.375;    0.000
572.416; 3667.100;  190.375;    0.000
572.543; 3728.100;  174.375;    0.000
572.669; 3735.100;  186.375;    0.000
572.796; 3744.100;  205.375;    0.000
572.922; 3599.100;  185.375;    0.000
573.049; 3568.100;  178.375;    0.000
573.176; 3725.100;  196.375;    0.000
573.302; 3618.100;  202.375;    0.000
573.429; 3711.100;  189.375;    0.000
573.555; 3626.100;  145.375;    0.000
573.682; 3665.100;  228.375;    0.000
573.808; 3603.100;  197.375;    0.000
573.935; 3714.100;  216.375;    0.000
574.061; 3614.100;  173.375;    0.000
574.188; 3628.100;  151.375;    0.000
574.314; 3563.100;  181.375;    0.000
574.440; 3502.100;  167.375;    0.000
574.567; 3686.100;  185.375;    0.000
574.693; 3486.100;  173.375;    0.000
574.820; 3543.100;  164.375;    0.000
574.946; 3466.100;  199.375;    0.000
575.072; 3638.100;  162.375;    0.000
575.198; 3590.100;  225.375;    0.000
575.325; 3574.100;  171.375;    0.000
575.451; 3598.100;  183.375;    0.000
575.577; 3610.100;  190.375;    0.000
575.704; 3546.100;  210.375;    0.000
575.830; 3482.100;  185.375;    0.000
575.956; 3516.100;  168.375;    0.000
576.082; 3512.100;  158.375;    0.000
576.208; 3502.100;  158.375;    0.000
576.335; 3526.100;  196.375;    0.000
576.461; 3530.100;  187.375;    0.000
576.587; 3469.100;  157.375;    0.000
576.713; 3477.100;  156.375;    0.000
576.839; 3498.100;  196.375;    0.000
576.965; 3438.100;  187.375;    0.000
577.091; 3400.100;  204.375;    0.000
577.217; 3521.100;  207.375;    0.000
577.343; 3439.100;  175.375;    0.000
577.469; 3492.100;  197.375;    0.000
577.596; 3420.100;  182.375;    0.000
577.722; 3465.100;  159.375;    0.000
577.848; 3413.100;  162.375;    0.000
577.974; 3352.100;  180.375;    0.000
578.099; 3345.100;  161.375;    0.000
578.225; 3489.100;  180.375;    0.000
578.351; 3429.100;  190.375;    0.000
578.477; 3517.100;  212.375;    0.000
578.603; 3465.100;  179.375;    0.000
578.729; 3343.100;  195.375;    0.000
578.855; 3479.100;  153.375;    0.000
578.981; 3429.100;  162.375;    0.000
579.107; 3475.100;  149.375;    0.000
579.232; 3391.100;  164.375;    0.000
579.358; 3302.100;  162.375;    0.000
579.484; 3434.100;  181.375;    0.000
579.610; 3477.100;  190.375;    0.000
579.735; 3410.100;  191.375;    0.000
579.861; 3420.100;  189.375;    0.000
579.987; 3522.100;  202.375;    0.000
580.113; 3420.100;  197.375;    0.000
580.238; 3465.100;  228.375;    0.000
580.364; 3448.100;  212.375;    0.000
580.490; 3403.100;  225.375;    0.000
580.615; 3520.100;  218.375;    0.000
580.741; 3505.100;  167.375;    0.000
580.867; 3445.100;  215.375;    0.000
580.992; 3481.100;  191.375;    0.000
581.118; 3412.100;  171.375;    0.000
581.243; 3485.100;  204.375;    0.000
581.369; 3457.100;  186.375;    0.000
581.494; 3347.100;  184.375;    0.000
581.620; 3439.100;  212.375;    0.000
581.745; 3453.100;  192.375;    0.000
581.871; 3473.100;  195.375;    0.000
581.996; 3417.100;  160.375;    0.000
582.122; 3490.100;  217.375;    0.000
582.247; 3424.100;  213.375;    0.000
582.373; 3499.100;  187.375;    0.000
582.498; 3489.100;  208.375;    0.000
582.624; 3555.100;  189.375;    0.000
582.749; 3522.100;  185.375;    0.000
582.874; 3515.100;  195.375;    0.000
583.000; 3520.100;  208.375;    0.000
583.125; 3491.100;  147.375;    0.000
583.250; 3574.100;  201.375;    0.000
583.376; 3472.100;  191.375;    0.000
583.501; 3516.100;  206.375;    0.000
583.626; 3507.100;  167.375;    0.000
583.751; 3512.100;  180.375;    0.000
583.877; 3448.100;  185.375;    0.000
584.002; 3537.100;  186.375;    0.000
584.127; 3337.100;  176.375;    0.000
584.252; 3494.100;  214.375;    0.000
584.377; 3363.100;  225.375;    0.000
584.503; 3453.100;  195.375;    0.000
584.628; 3491.100;  206.375;    0.000
584.753; 3523.100;  181.375;    0.000
584.878; 3394.100;  136.375;    0.000
585.003; 3572.100;  215.375;    0.000
585.128; 3531.100;  206.375;    0.000
585.253; 3666.100;  200.375;    0.000
585.378; 3614.100;  169.375;    0.000
585.503; 3564.100;  191.375;    0.000
585.628; 3527.100;  182.375;    0.000
585.753; 3510.100;  164.375;    0.000
585.878; 3528.100;  123.375;    0.000
586.003; 3568.100;  187.375;    0.000
586.128; 3581.100;  198.375;    0.000
586.253; 3606.100;  172.375;    0.000
586.378; 3592.100;  191.375;    0.000
586.503; 3617.100;  190.375;    0.000
586.628; 3709.100;  178.375;    0.000
586.753; 3695.100;  184.375;    0.000
586.878; 3784.100;  169.375;    0.000
587.003; 3707.100;  186.375;    0.000
587.127; 3843.100;  170.375;    0.000
587.252; 3749.100;  170.375;    0.000
587.377; 3832.100;  181.375;    0.000
587.502; 3925.100;  209.375;    0.000
587.627; 4146.100;  210.375;    0.000
587.751; 4090.100;  212.375;    0.000
587.876; 4133.100;  198.375;    0.000
588.001; 4353.100;  161.375;    0.000
588.125; 4463.100;  191.375;    0.000
588.250; 4710.100;  132.375;    0.000
588.375; 5156.100;  183.375;    0.000
588.499; 5825.100;  176.375;    0.000
588.624; 6833.100;  173.375;    0.000
588.749; 9626.100;  204.375;    0.000
588.873;19206.100;  179.375;    0.000
588.998;29699.100;  182.375;    0.000
589.122;24917.100;  165.375;    0.000
589.247;15033.100;  185.375;    0.000
589.372;12310.100;  199.375;    0.000
589.496;18402.100;  182.375;    0.000
589.621;23712.100;  158.375;    0.000
589.745;17487.100;  213.375;    0.000
589.870; 9937.100;  175.375;    0.000
589.994; 7432.100;  194.375;    0.000
590.118; 6314.100;  218.375;    0.000
590.243; 5683.100;  170.375;    0.000
590.367; 5302.100;  189.375;    0.000
590.492; 4919.100;  196.375;    0.000
590.616; 4745.100;  182.375;    0.000
590.740; 4442.100;  210.375;    0.000
590.865; 4536.100;  242.375;    0.000
590.989; 4330.100;  191.375;    0.000
591.114; 4320.100;  167.375;    0.000
591.238; 4199.100;  194.375;    0.000
591.362; 4118.100;  236.375;    0.000
591.486; 4175.100;  194.375;    0.000
591.611; 4170.100;  154.375;    0.000
591.735; 4123.100;  186.375;    0.000
591.859; 4018.100;  148.375;    0.000
591.983; 4222.100;  211.375;    0.000
592.107; 4092.100;  204.375;    0.000
592.232; 4050.100;  194.375;    0.000
592.356; 4092.100;  238.375;    0.000
592.480; 4020.100;  179.375;    0.000
592.604; 4118.100;  192.375;    0.000
592.728; 4101.100;  201.375;    0.000
592.852; 4108.100;  158.375;    0.000
592.976; 4111.100;  152.375;    0.000
593.100; 4163.100;  194.375;    0.000
593.224; 4188.100;  235.375;    0.000
593.349; 4159.100;  233.375;    0.000
593.473; 4189.100;  194.375;    0.000
593.597; 4142.100;  215.375;    0.000
593.721; 4182.100;  212.375;    0.000
593.844; 4043.100;  220.375;    0.000
593.968; 4062.100;  221.375;    0.000
594.092; 4045.100;  150.375;    0.000
594.216; 4058.100;  212.375;    0.000
594.340; 4116.100;  209.375;    0.000
594.464; 4108.100;  207.375;    0.000
594.588; 3920.100;  195.375;    0.000
594.712; 4029.100;  176.375;    0.000
594.836; 3994.100;  219.375;    0.000
594.959; 3897.100;  215.375;    0.000
595.083; 3807.100;  200.375;    0.000
595.207; 3857.100;  206.375;    0.000
595.331; 3717.100;  207.375;    0.000
595.455; 3716.100;  206.375;    0.000
595.578; 3733.100;  204.375;    0.000
595.702; 3724.100;  225.375;    0.000
595.826; 3699.100;  186.375;    0.000
595.949; 3669.100;  196.375;    0.000
596.073; 3713.100;  188.375;    0.000
596.197; 3639.100;  217.375;    0.000
596.320; 3623.100;  225.375;    0.000
596.444; 3652.100;  220.375;    0.000
596.568; 3515.100;  155.375;    0.000
596.691; 3517.100;  195.375;    0.000
596.815; 3598.100;  163.375;    0.000
596.938; 3588.100;  181.375;    0.000
597.062; 3495.100;  201.375;    0.000
597.186; 3512.100;  200.375;    0.000
597.309; 3423.100;  214.375;    0.000
597.433; 3384.100;  176.375;    0.000
597.556; 3451.100;  193.375;    0.000
597.680; 3576.100;  241.375;    0.000
597.803; 3455.100;  185.375;    0.000
597.926; 3390.100;  200.375;    0.000
598.050; 3369.100;  193.375;    0.000
598.173; 3294.100;  219.375;    0.000
598.297; 3353.100;  223.375;    0.000
598.420; 3432.100;  187.375;    0.000
598.543; 3358.100;  205.375;    0.000
598.667; 3389.100;  177.375;    0.000
598.790; 3404.100;  208.375;    0.000
598.913; 3329.100;  170.375;    0.000
599.037; 3335.100;  212.375;    0.000
599.160; 3348.100;  165.375;    0.000
599.283; 3425.100;  211.375;    0.000
599.406; 3331.100;  207.375;    0.000
599.530; 3447.100;  182.375;    0.000
599.653; 3334.100;  215.375;    0.000
599.776; 3235.100;  167.375;    0.000
599.899; 3211.100;  190.375;    0.000
600.022; 3226.100;  182.375;    0.000
600.145; 3338.100;  180.375;    0.000
600.269; 3394.100;  208.375;    0.000
600.392; 3354.100;  214.375;    0.000
600.515; 3370.100;  196.375;    0.000
600.638; 3316.100;  204.375;    0.000
600.761; 3324.100;  209.375;    0.000
600.884; 3188.100;  207.375;    0.000
601.007; 3294.100;  234.375;    0.000
601.130; 3248.100;  183.375;    0.000
601.253; 3345.100;  211.375;    0.000
601.376; 3345.100;  199.375;    0.000
601.499; 3265.100;  190.375;    0.000
601.622; 3294.100;  210.375;    0.000
601.745; 3207.100;  180.375;    0.000
601.868; 3293.100;  204.375;    0.000
601.991; 3213.100;  188.375;    0.000
602.113; 3337.100;  210.375;    0.000
602.236; 3238.100;  194.375;    0.000
602.359; 3278.100;  213.375;    0.000
602.482; 3281.100;  169.375;    0.000
602.605; 3273.100;  189.375;    0.000
602.728; 3225.100;  236.375;    0.000
602.850; 3260.100;  230.375;    0.000
602.973; 3220.100;  187.375;    0.000
603.096; 3261.100;  201.375;    0.000
603.219; 3289.100;  209.375;    0.000
603.341; 3247.100;  209.375;    0.000
603.464; 3251.100;  194.375;    0.000
603.587; 3263.100;  166.375;    0.000
603.709; 3187.100;  175.375;    0.000
603.832; 3225.100;  239.375;    0.000
603.955; 3164.100;  205.375;    0.000
604.077; 3218.100;  196.375;    0.000
604.200; 3224.100;  188.375;    0.000
604.323; 3202.100;  224.375;    0.000
604.445; 3143.100;  182.375;    0.000
604.568; 3273.100;  199.375;    0.000
604.690; 3166.100;  175.375;    0.000
604.813; 3199.100;  211.375;    0.000
604.935; 3158.100;  171.375;    0.000
605.058; 3122.100;  196.375;    0.000
605.180; 3173.100;  194.375;    0.000
605.303; 3254.100;  198.375;    0.000
605.425; 3226.100;  212.375;    0.000
605.547; 3172.100;  238.375;    0.000
605.670; 3140.100;  207.375;    0.000
605.792; 3225.100;  204.375;    0.000
605.915; 3192.100;  198.375;    0.000
606.037; 3158.100;  215.375;    0.000
606.159; 3211.100;  170.375;    0.000
606.282; 3247.100;  194.375;    0.000
606.404; 3213.100;  207.375;    0.000
606.526; 3239.100;  208.375;    0.000
606.648; 3138.100;  174.375;    0.000
606.771; 3136.100;  170.375;    0.000
606.893; 3060.100;  182.375;    0.000
607.015; 3203.100;  180.375;    0.000
607.137; 3088.100;  187.375;    0.000
607.260; 3124.100;  202.375;    0.000
607.382; 3109.100;  226.375;    0.000
607.504; 3121.100;  208.375;    0.000
607.626; 3122.100;  229.375;    0.000
607.748; 3141.100;  170.375;    0.000
607.870; 3091.100;  208.375;    0.000
607.992; 3085.100;  184.375;    0.000
608.114; 3133.100;  213.375;    0.000
608.237; 3140.100;  237.375;    0.000
608.359; 3051.100;  176.375;    0.000
608.481; 3122.100;  173.375;    0.000
608.603; 3093.100;  189.375;    0.000
608.725; 3131.100;  185.375;    0.000
608.847; 3167.100;  239.375;    0.000
608.969; 3126.100;  237.375;    0.000
609.090; 3082.100;  189.375;    0.000
609.212; 3069.100;  147.375;    0.000
609.334; 3104.100;  177.375;    0.000
609.456; 3124.100;  196.375;    0.000
609.578; 3106.100;  199.375;    0.000
609.700; 3020.100;  167.375;    0.000
609.822; 3105.100;  140.375;    0.000
609.944; 3185.100;  225.375;    0.000
610.065; 3111.100;  183.375;    0.000
610.187; 3096.100;  170.375;    0.000
610.309; 3167.100;  210.375;    0.000
610.431; 3121.100;  185.375;    0.000
610.552; 3071.100;  197.375;    0.000
610.674; 3158.100;  188.375;    0.000
610.796; 3049.100;  162.375;    0.000
610.918; 3086.100;  200.375;    0.000
611.039; 3139.100;  209.375;    0.000
611.161; 3022.100;  201.375;    0.000
611.282; 3048.100;  197.375;    0.000
611.404; 3185.100;  220.375;    0.000
611.526; 3080.100;  159.375;    0.000
611.647; 3066.100;  205.375;    0.000
611.769; 2988.100;  161.375;    0.000
611.890; 3111.100;  173.375;    0.000
612.012; 3123.100;  225.375;    0.000
612.133; 3131.100;  188.375;    0.000
612.255; 3110.100;  217.375;    0.000
612.377; 3053.100;  219.375;    0.000
612.498; 3112.100;  177.375;    0.000
612.619; 3106.100;  211.375;    0.000
612.741; 3162.100;  185.375;    0.000
612.862; 3148.100;  191.375;    0.000
612.984; 3011.100;  190.375;    0.000
613.105; 3111.100;  211.375;    0.000
613.226; 2982.100;  174.375;    0.000
613.348; 3164.100;  235.375;    0.000
613.469; 3025.100;  230.375;    0.000
613.590; 3072.100;  208.375;    0.000
613.712; 3060.100;  244.375;    0.000
613.833; 3110.100;  202.375;    0.000
613.954; 3123.100;  228.375;    0.000
614.076; 2979.100;  220.375;    0.000
614.197; 3019.100;  191.375;    0.000
614.318; 3019.100;  201.375;    0.000
614.439; 3012.100;  212.375;    0.000
614.560; 3022.100;  219.375;    0.000
614.682; 3008.100;  189.375;    0.000
614.803; 3046.100;  188.375;    0.000
614.924; 3004.100;  225.375;    0.000
615.045; 3087.100;  227.375;    0.000
615.166; 3010.100;  200.375;    0.000
615.287; 3029.100;  195.375;    0.000
615.408; 3170.100;  199.375;    0.000
615.529; 3149.100;  227.375;    0.000
615.650; 3124.100;  176.375;    0.000
615.771; 3068.100;  211.375;    0.000
615.892; 3043.100;  212.375;    0.000
616.013; 3130.100;  172.375;    0.000
616.134; 3227.100;  220.375;    0.000
616.255; 3183.100;  251.375;    0.000
616.376; 3125.100;  186.375;    0.000
616.497; 3118.100;  201.375;    0.000
616.618; 3094.100;  149.375;    0.000
616.739; 3118.100;  213.375;    0.000
616.860; 3112.100;  224.375;    0.000
616.981; 2997.100;  224.375;    0.000
617.102; 3038.100;  217.375;    0.000
617.222; 3116.100;  237.375;    0.000
617.343; 3142.100;  205.375;    0.000
617.464; 3131.100;  229.375;    0.000
617.585; 2999.100;  227.375;    0.000
617.705; 3002.100;  191.375;    0.000
617.826; 2993.100;  237.375;    0.000
617.947; 3024.100;  223.375;    0.000
618.068; 2960.100;  189.375;    0.000
618.188; 3046.100;  194.375;    0.000
618.309; 3108.100;  206.375;    0.000
618.430; 3071.100;  229.375;    0.000
618.550; 3123.100;  250.375;    0.000
618.671; 3087.100;  201.375;    0.000
618.791; 2978.100;  226.375;    0.000
618.912; 3097.100;  246.375;    0.000
619.033; 2994.100;  243.375;    0.000
619.153; 3112.100;  208.375;    0.000
619.274; 3120.100;  223.375;    0.000
619.394; 2990.100;  226.375;    0.000
619.515; 2879.100;  188.375;    0.000
619.635; 2922.100;  216.375;    0.000
619.756; 2997.100;  229.375;    0.000
619.876; 3017.100;  216.375;    0.000
619.996; 3062.100;  244.375;    0.000
620.117; 3036.100;  225.375;    0.000
620.237; 3042.100;  207.375;    0.000
620.358; 3001.100;  239.375;    0.000
620.478; 3043.100;  237.375;    0.000
620.598; 2990.100;  237.375;    0.000
620.719; 2971.100;  223.375;    0.000
620.839; 2970.100;  254.375;    0.000
620.959; 2841.100;  244.375;    0.000
621.079; 2950.100;  193.375;    0.000
621.200; 2872.100;  233.375;    0.000
621.320; 3042.100;  270.375;    0.000
621.440; 2988.100;  206.375;    0.000
621.560; 2871.100;  241.375;    0.000
621.681; 2944.100;  231.375;    0.000
621.801; 2927.100;  235.375;    0.000
621.921; 2960.100;  240.375;    0.000
622.041; 2929.100;  244.375;    0.000
622.161; 2950.100;  225.375;    0.000
622.281; 2891.100;  222.375;    0.000
622.401; 2942.100;  238.375;    0.000
622.521; 2983.100;  233.375;    0.000
622.641; 2897.100;  241.375;    0.000
622.761; 2964.100;  233.375;    0.000
622.882; 3038.100;  230.375;    0.000
623.002; 2950.100;  206.375;    0.000
623.121; 2950.100;  217.375;    0.000
623.241; 2985.100;  263.375;    0.000
623.361; 2883.100;  245.375;    0.000
623.481; 2860.100;  194.375;    0.000
623.601; 2874.100;  228.375;    0.000
623.721; 3008.100;  219.375;    0.000
623.841; 2991.100;  234.375;    0.000
623.961; 3022.100;  235.375;    0.000
624.081; 2895.100;  166.375;    0.000
624.201; 2918.100;  229.375;    0.000
624.320; 2807.100;  224.375;    0.000
624.440; 2838.100;  200.375;    0.000
624.560; 2806.100;  220.375;    0.000
624.680; 2844.100;  214.375;    0.000
624.799; 2888.100;  179.375;    0.000
624.919; 2842.100;  199.375;    0.000
625.039; 2858.100;  211.375;    0.000
625.159; 2896.100;  213.375;    0.000
625.278; 2863.100;  178.375;    0.000
625.398; 2919.100;  206.375;    0.000
625.518; 2864.100;  182.375;    0.000
625.637; 2874.100;  206.375;    0.000
625.757; 2847.100;  197.375;    0.000
625.876; 2822.100;  204.375;    0.000
625.996; 2880.100;  222.375;    0.000
626.115; 2771.100;  222.375;    0.000
626.235; 2762.100;  222.375;    0.000
626.354; 2846.100;  211.375;    0.000
626.474; 2878.100;  217.375;    0.000
626.594; 2893.100;  190.375;    0.000
626.713; 2894.100;  200.375;    0.000
626.832; 2876.100;  234.375;    0.000
626.952; 2888.100;  214.375;    0.000
627.071; 2860.100;  243.375;    0.000
627.191; 2809.100;  192.375;    0.000
627.310; 2834.100;  211.375;    0.000
627.429; 2891.100;  218.375;    0.000
627.549; 2849.100;  214.375;    0.000
627.668; 2835.100;  208.375;    0.000
627.787; 2821.100;  199.375;    0.000
627.907; 2820.100;  208.375;    0.000
628.026; 2824.100;  216.375;    0.000
628.145; 2785.100;  170.375;    0.000
628.264; 2896.100;  217.375;    0.000
628.384; 2773.100;  190.375;    0.000
628.503; 2795.100;  203.375;    0.000
628.622; 2771.100;  197.375;    0.000
628.741; 2865.100;  186.375;    0.000
628.860; 2781.100;  191.375;    0.000
628.980; 2867.100;  196.375;    0.000
629.099; 2804.100;  190.375;    0.000
629.218; 2830.100;  165.375;    0.000
629.337; 2805.100;  190.375;    0.000
629.456; 2903.100;  222.375;    0.000
629.575; 2712.100;  197.375;    0.000
629.694; 2855.100;  210.375;    0.000
629.813; 2840.100;  187.375;    0.000
629.932; 2747.100;  224.375;    0.000
630.051; 2802.100;  216.375;    0.000
630.170; 2849.100;  203.375;    0.000
630.289; 2800.100;  178.375;    0.000
630.408; 2807.100;  192.375;    0.000
630.527; 2876.100;  223.375;    0.000
630.646; 2742.100;  177.375;    0.000
630.764; 2737.100;  224.375;    0.000
630.883; 2713.100;  220.375;    0.000
631.002; 2784.100;  187.375;    0.000
631.121; 2759.100;  208.375;    0.000
631.240; 2818.100;  217.375;    0.000
631.359; 2681.100;  241.375;    0.000
631.477; 2783.100;  189.375;    0.000
631.596; 2865.100;  244.375;    0.000
631.715; 2892.100;  241.375;    0.000
631.834; 2782.100;  219.375;    0.000
631.952; 2807.100;  231.375;    0.000
632.071; 2810.100;  197.375;    0.000
632.190; 2759.100;  193.375;    0.000
632.308; 2747.100;  185.375;    0.000
632.427; 2846.100;  188.375;    0.000
632.546; 2798.100;  208.375;    0.000
632.664; 2772.100;  191.375;    0.000
632.783; 2748.100;  201.375;    0.000
632.901; 2750.100;  239.375;    0.000
633.020; 2748.100;  197.375;    0.000
633.138; 2812.100;  189.375;    0.000
633.257; 2703.100;  210.375;    0.000
633.375; 2831.100;  213.375;    0.000
633.494; 2784.100;  206.375;    0.000
633.612; 2803.100;  231.375;    0.000
633.731; 2839.100;  213.375;    0.000
633.849; 2822.100;  244.375;    0.000
633.968; 2724.100;  251.375;    0.000
634.086; 2701.100;  224.375;    0.000
634.204; 2770.100;  212.375;    0.000
634.323; 2800.100;  213.375;    0.000
634.441; 2772.100;  219.375;    0.000
634.559; 2839.100;  198.375;    0.000
634.678; 2711.100;  201.375;    0.000
634.796; 2804.100;  179.375;    0.000
634.914; 2805.100;  255.375;    0.000
635.032; 2821.100;  264.375;    0.000
635.151; 2684.100;  228.375;    0.000
635.269; 2762.100;  223.375;    0.000
635.387; 2791.100;  228.375;    0.000
635.505; 2685.100;  214.375;    0.000
635.623; 2801.100;  279.375;    0.000
635.742; 2717.100;  237.375;    0.000
635.860; 2780.100;  244.375;    0.000
635.978; 2818.100;  213.375;    0.000
636.096; 2725.100;  230.375;    0.000
636.214; 2801.100;  252.375;    0.000
636.332; 2681.100;  221.375;    0.000
636.450; 2731.100;  227.375;    0.000
636.568; 2682.100;  193.375;    0.000
636.686; 2727.100;  208.375;    0.000
636.804; 2753.100;  213.375;    0.000
636.922; 2681.100;  199.375;    0.000
637.040; 2764.100;  202.375;    0.000
637.158; 2728.100;  239.375;    0.000
637.276; 2834.100;  225.375;    0.000
637.394; 2761.100;  217.375;    0.000
637.512; 2759.100;  192.375;    0.000
637.629; 2739.100;  216.375;    0.000
637.747; 2717.100;  198.375;    0.000
637.865; 2750.100;  265.375;    0.000
637.983; 2767.100;  245.375;    0.000
638.101; 2620.100;  199.375;    0.000
638.218; 2726.100;  197.375;    0.000
638.336; 2731.100;  212.375;    0.000
638.454; 2708.100;  227.375;    0.000
638.572; 2714.100;  215.375;    0.000
638.689; 2693.100;  214.375;    0.000
638.807; 2780.100;  233.375;    0.000
638.925; 2734.100;  217.375;    0.000
639.042; 2727.100;  180.375;    0.000
639.160; 2814.100;  220.375;    0.000
639.278; 2719.100;  180.375;    0.000
639.395; 2759.100;  243.375;    0.000
639.513; 2746.100;  207.375;    0.000
639.630; 2766.100;  183.375;    0.000
639.748; 2700.100;  231.375;    0.000
639.865; 2830.100;  215.375;    0.000
639.983; 2740.100;  182.375;    0.000
640.100; 2794.100;  190.375;    0.000
640.218; 2796.100;  224.375;    0.000
640.335; 2705.100;  214.375;    0.000
640.453; 2852.100;  212.375;    0.000
640.570; 2661.100;  224.375;    0.000
640.688; 2704.100;  220.375;    0.000
640.805; 2749.100;  189.375;    0.000
640.922; 2737.100;  256.375;    0.000
641.040; 2761.100;  209.375;    0.000
641.157; 2705.100;  195.375;    0.000
641.274; 2763.100;  195.375;    0.000
641.391; 2785.100;  231.375;    0.000
641.509; 2809.100;  207.375;    0.000
641.626; 2759.100;  227.375;    0.000
641.743; 2751.100;  188.375;    0.000
641.860; 2816.100;  208.375;    0.000
641.978; 2741.100;  222.375;    0.000
642.095; 2777.100;  194.375;    0.000
642.212; 2712.100;  202.375;    0.000
642.329; 2746.100;  241.375;    0.000
642.446; 2717.100;  261.375;    0.000
642.563; 2787.100;  236.375;    0.000
642.681; 2771.100;  228.375;    0.000
642.798; 2815.100;  242.375;    0.000
642.915; 2724.100;  197.375;    0.000
643.032; 2831.100;  239.375;    0.000
643.149; 2796.100;  241.375;    0.000
643.266; 2820.100;  199.375;    0.000
643.383; 2772.100;  200.375;    0.000
643.500; 2725.100;  221.375;    0.000
643.617; 2796.100;  196.375;    0.000
643.734; 2777.100;  207.375;    0.000
643.850; 2743.100;  222.375;    0.000
643.967; 2797.100;  235.375;    0.000
644.084; 2893.100;  233.375;    0.000
644.201; 2857.100;  229.375;    0.000
644.318; 2779.100;  210.375;    0.000
644.435; 2884.100;  234.375;    0.000
644.552; 2847.100;  220.375;    0.000
644.668; 2903.100;  231.375;    0.000
644.785; 2809.100;  231.375;    0.000
644.902; 2882.100;  238.375;    0.000
645.019; 2881.100;  226.375;    0.000
645.135; 2930.100;  179.375;    0.000
645.252; 2892.100;  224.375;    0.000
645.369; 2859.100;  206.375;    0.000
645.485; 2946.100;  200.375;    0.000
645.602; 3057.100;  210.375;    0.000
645.719; 2958.100;  206.375;    0.000
645.835; 2885.100;  247.375;    0.000
645.952; 3014.100;  222.375;    0.000
646.068; 3028.100;  205.375;    0.000
646.185; 2989.100;  230.375;    0.000
646.302; 3024.100;  254.375;    0.000
646.418; 3091.100;  230.375;    0.000
646.535; 2956.100;  214.375;    0.000
646.651; 3053.100;  179.375;    0.000
646.768; 3051.100;  190.375;    0.000
646.884; 3151.100;  208.375;    0.000
647.000; 2948.100;  262.375;    0.000
647.117; 3083.100;  212.375;    0.000
647.233; 3169.100;  228.375;    0.000
647.350; 3180.100;  208.375;    0.000
647.466; 3068.100;  211.375;    0.000
647.582; 3147.100;  196.375;    0.000
647.699; 3158.100;  217.375;    0.000
647.815; 3171.100;  203.375;    0.000
647.931; 3319.100;  201.375;    0.000
648.047; 3117.100;  182.375;    0.000
648.164; 3264.100;  219.375;    0.000
648.280; 3228.100;  213.375;    0.000
648.396; 3334.100;  202.375;    0.000
648.512; 3222.100;  233.375;    0.000
648.629; 3315.100;  206.375;    0.000
648.745; 3277.100;  188.375;    0.000
648.861; 3291.100;  209.375;    0.000
648.977; 3342.100;  218.375;    0.000
649.093; 3212.100;  225.375;    0.000
649.209; 3320.100;  240.375;    0.000
649.325; 3257.100;  253.375;    0.000
649.441; 3370.100;  263.375;    0.000
649.557; 3344.100;  256.375;    0.000
649.673; 3341.100;  211.375;    0.000
649.789; 3367.100;  237.375;    0.000
649.905; 3353.100;  183.375;    0.000
650.021; 3442.100;  238.375;    0.000
650.137; 3531.100;  241.375;    0.000
650.253; 3515.100;  228.375;    0.000
650.369; 3354.100;  221.375;    0.000
650.485; 3453.100;  240.375;    0.000
650.601; 3430.100;  254.375;    0.000
650.717; 3562.100;  201.375;    0.000
650.833; 3578.100;  257.375;    0.000
650.948; 3558.100;  213.375;    0.000
651.064; 3511.100;  223.375;    0.000
651.180; 3558.100;  230.375;    0.000
651.296; 3506.100;  235.375;    0.000
651.411; 3632.100;  221.375;    0.000
651.527; 3760.100;  233.375;    0.000
651.643; 3604.100;  236.375;    0.000
651.759; 3722.100;  268.375;    0.000
651.874; 3750.100;  214.375;    0.000
651.990; 3763.100;  251.375;    0.000
652.105; 3757.100;  217.375;    0.000
652.221; 3981.100;  243.375;    0.000
652.337; 3860.100;  231.375;    0.000
652.452; 4052.100;  238.375;    0.000
652.568; 3922.100;  188.375;    0.000
652.683; 4057.100;  197.375;    0.000
652.799; 4147.100;  194.375;    0.000
652.914; 4177.100;  222.375;    0.000
653.030; 4271.100;  200.375;    0.000
653.145; 4328.100;  235.375;    0.000
653.261; 4329.100;  261.375;    0.000
653.376; 4358.100;  228.375;    0.000
653.492; 4313.100;  222.375;    0.000
653.607; 4508.100;  227.375;    0.000
653.722; 4525.100;  250.375;    0.000
653.838; 4745.100;  255.375;    0.000
653.953; 4798.100;  235.375;    0.000
654.068; 4891.100;  266.375;    0.000
654.184; 4987.100;  210.375;    0.000
654.299; 5019.100;  240.375;    0.000
654.414; 5167.100;  222.375;    0.000
654.530; 5346.100;  222.375;    0.000
654.645; 5554.100;  256.375;    0.000
654.760; 5562.100;  244.375;    0.000
654.875; 5806.100;  229.375;    0.000
654.990; 5948.100;  226.375;    0.000
655.106; 6126.100;  254.375;    0.000
655.221; 6364.100;  251.375;    0.000
655.336; 6610.100;  245.375;    0.000
655.451; 6790.100;  199.375;    0.000
655.566; 7107.100;  228.375;    0.000
655.681; 7386.100;  208.375;    0.000
655.796; 7761.100;  218.375;    0.000
655.911; 8320.100;  233.375;    0.000
656.026; 8768.100;  232.375;    0.000
656.141; 9260.100;  223.375;    0.000
656.256; 9610.100;  247.375;    0.000
656.371; 9769.100;  220.375;    0.000
656.486; 9707.100;  225.375;    0.000
656.601; 9319.100;  257.375;    0.000
656.716; 9015.100;  248.375;    0.000
656.831; 8580.100;  262.375;    0.000
656.946; 8401.100;  249.375;    0.000
657.060; 8108.100;  245.375;    0.000
657.175; 7704.100;  245.375;    0.000
657.290; 7436.100;  219.375;    0.000
657.405; 7353.100;  286.375;    0.000
657.520; 7251.100;  259.375;    0.000
657.634; 6877.100;  239.375;    0.000
657.749; 6703.100;  227.375;    0.000
657.864; 6491.100;  210.375;    0.000
657.979; 6289.100;  236.375;    0.000
658.093; 6178.100;  210.375;    0.000
658.208; 6061.100;  248.375;    0.000
658.323; 5922.100;  216.375;    0.000
658.437; 5630.100;  248.375;    0.000
658.552; 5659.100;  249.375;    0.000
658.666; 5496.100;  256.375;    0.000
658.781; 5427.100;  247.375;    0.000
658.895; 5236.100;  209.375;    0.000
659.010; 5218.100;  219.375;    0.000
659.125; 5076.100;  215.375;    0.000
659.239; 4871.100;  205.375;    0.000
659.353; 4830.100;  246.375;    0.000
659.468; 4811.100;  245.375;    0.000
659.582; 4730.100;  244.375;    0.000
659.697; 4733.100;  242.375;    0.000
659.811; 4636.100;  239.375;    0.000
659.926; 4480.100;  226.375;    0.000
660.040; 4454.100;  255.375;    0.000
660.154; 4436.100;  225.375;    0.000
660.269; 4371.100;  200.375;    0.000
660.383; 4313.100;  192.375;    0.000
660.497; 4237.100;  218.375;    0.000
660.612; 4216.100;  236.375;    0.000
660.726; 4115.100;  263.375;    0.000
660.840; 4062.100;  205.375;    0.000
660.954; 4053.100;  219.375;    0.000
661.068; 4015.100;  240.375;    0.000
661.183; 3979.100;  221.375;    0.000
661.297; 3868.100;  194.375;    0.000
661.411; 3854.100;  253.375;    0.000
661.525; 3819.100;  246.375;    0.000
661.639; 3758.100;  217.375;    0.000
661.753; 3706.100;  241.375;    0.000
661.867; 3681.100;  276.375;    0.000
661.981; 3570.100;  203.375;    0.000
662.095; 3548.100;  224.375;    0.000
662.209; 3582.100;  217.375;    0.000
662.323; 3518.100;  251.375;    0.000
662.437; 3423.100;  243.375;    0.000
662.551; 3410.100;  244.375;    0.000
662.665; 3405.100;  247.375;    0.000
662.779; 3410.100;  251.375;    0.000
662.893; 3406.100;  254.375;    0.000
663.007; 3328.100;  222.375;    0.000
663.121; 3334.100;  253.375;    0.000
663.235; 3311.100;  270.375;    0.000
663.349; 3234.100;  242.375;    0.000
663.462; 3216.100;  230.375;    0.000
663.576; 3153.100;  230.375;    0.000
663.690; 3160.100;  249.375;    0.000
663.804; 3096.100;  200.375;    0.000
663.917; 3068.100;  204.375;    0.000
664.031; 3105.100;  206.375;    0.000
664.145; 3027.100;  202.375;    0.000
664.258; 2965.100;  221.375;    0.000
664.372; 2947.100;  215.375;    0.000
664.486; 2857.100;  179.375;    0.000
664.599; 2935.100;  208.375;    0.000
664.713; 2986.100;  268.375;    0.000
664.827; 2961.100;  225.375;    0.000
664.940; 2926.100;  222.375;    0.000
665.054; 2969.100;  208.375;    0.000
665.167; 2862.100;  253.375;    0.000
665.281; 2808.100;  237.375;    0.000
665.394; 2821.100;  227.375;    0.000
665.508; 2728.100;  192.375;    0.000
665.621; 2837.100;  175.375;    0.000
665.735; 2792.100;  249.375;    0.000
665.848; 2755.100;  197.375;    0.000
665.961; 2791.100;  206.375;    0.000
666.075; 2771.100;  245.375;    0.000
666.188; 2715.100;  230.375;    0.000
666.301; 2749.100;  219.375;    0.000
666.415; 2716.100;  231.375;    0.000
666.528; 2752.100;  258.375;    0.000
666.641; 2722.100;  243.375;    0.000
666.755; 2704.100;  208.375;    0.000
666.868; 2663.100;  228.375;    0.000
666.981; 2747.100;  244.375;    0.000
667.094; 2635.100;  244.375;    0.000
667.207; 2700.100;  226.375;    0.000
667.321; 2517.100;  175.375;    0.000
667.434; 2556.100;  211.375;    0.000
667.547; 2638.100;  249.375;    0.000
667.660; 2598.100;  225.375;    0.000
667.773; 2651.100;  242.375;    0.000
667.886; 2529.100;  246.375;    0.000
667.999; 2599.100;  244.375;    0.000
668.112; 2484.100;  227.375;    0.000
668.225; 2492.100;  231.375;    0.000
668.338; 2530.100;  256.375;    0.000
668.451; 2563.100;  216.375;    0.000
668.564; 2554.100;  261.375;    0.000
668.677; 2437.100;  230.375;    0.000
668.790; 2467.100;  192.375;    0.000
668.903; 2438.100;  243.375;    0.000
669.016; 2418.100;  201.375;    0.000
669.129; 2394.100;  249.375;    0.000
669.242; 2417.100;  190.375;    0.000
669.354; 2474.100;  219.375;    0.000
669.467; 2400.100;  242.375;    0.000
669.580; 2438.100;  237.375;    0.000
669.693; 2314.100;  243.375;    0.000
669.806; 2331.100;  234.375;    0.000
669.918; 2350.100;  206.375;    0.000
670.031; 2407.100;  258.375;    0.000
670.144; 2322.100;  231.375;    0.000
670.256; 2318.100;  244.375;    0.000
670.369; 2418.100;  262.375;    0.000
670.482; 2344.100;  264.375;    0.000
670.594; 2362.100;  256.375;    0.000
670.707; 2412.100;  224.375;    0.000
670.820; 2348.100;  261.375;    0.000
670.932; 2238.100;  226.375;    0.000
671.045; 2327.100;  243.375;    0.000
671.157; 2334.100;  235.375;    0.000
671.270; 2277.100;  217.375;    0.000
671.382; 2369.100;  267.375;    0.000
671.495; 2282.100;  258.375;    0.000
671.607; 2316.100;  236.375;    0.000
671.720; 2230.100;  200.375;    0.000
671.832; 2205.100;  219.375;    0.000
671.944; 2275.100;  234.375;    0.000
672.057; 2238.100;  226.375;    0.000
672.169; 2165.100;  225.375;    0.000
672.281; 2326.100;  253.375;    0.000
672.394; 2277.100;  238.375;    0.000
672.506; 2292.100;  244.375;    0.000
672.618; 2316.100;  272.375;    0.000
672.731; 2205.100;  247.375;    0.000
672.843; 2300.100;  261.375;    0.000
672.955; 2259.100;  262.375;    0.000
673.067; 2237.100;  253.375;    0.000
673.180; 2175.100;  239.375;    0.000
673.292; 2181.100;  240.375;    0.000
673.404; 2237.100;  243.375;    0.000
673.516; 2250.100;  258.375;    0.000
673.628; 2251.100;  263.375;    0.000
673.740; 2202.100;  250.375;    0.000
673.852; 2227.100;  285.375;    0.000
673.964; 2173.100;  264.375;    0.000
674.076; 2184.100;  260.375;    0.000
674.188; 2090.100;  226.375;    0.000
674.300; 2126.100;  272.375;    0.000
674.412; 2130.100;  259.375;    0.000
674.524; 2141.100;  283.375;    0.000
674.636; 2161.100;  259.375;    0.000
674.748; 2100.100;  238.375;    0.000
674.860; 2150.100;  277.375;    0.000
674.972; 2152.100;  272.375;    0.000
675.084; 2111.100;  244.375;    0.000
675.196; 2177.100;  272.375;    0.000
675.307; 2193.100;  244.375;    0.000
675.419; 2118.100;  219.375;    0.000
675.531; 2149.100;  275.375;    0.000
675.643; 2110.100;  215.375;    0.000
675.755; 2099.100;  243.375;    0.000
675.866; 2053.100;  223.375;    0.000
675.978; 2156.100;  216.375;    0.000
676.090; 2079.100;  242.375;    0.000
676.201; 2094.100;  276.375;    0.000
676.313; 2056.100;  226.375;    0.000
676.425; 2139.100;  234.375;    0.000
676.536; 2051.100;  231.375;    0.000
676.648; 2148.100;  254.375;    0.000
676.759; 2050.100;  273.375;    0.000
676.871; 2011.100;  250.375;    0.000
676.983; 2010.100;  256.375;    0.000
677.094; 1994.100;  210.375;    0.000
677.206; 2059.100;  248.375;    0.000
677.317; 2034.100;  263.375;    0.000
677.429; 2020.100;  238.375;    0.000
677.540; 2054.100;  247.375;    0.000
677.651; 1962.100;  224.375;    0.000
677.763; 1980.100;  217.375;    0.000
677.874; 2004.100;  234.375;    0.000
677.986; 2013.100;  238.375;    0.000
678.097; 2014.100;  226.375;    0.000
678.208; 2004.100;  253.375;    0.000
678.320; 1949.100;  217.375;    0.000
678.431; 1939.100;  238.375;    0.000
678.542; 1989.100;  236.375;    0.000
678.653; 2018.100;  218.375;    0.000
678.765; 1905.100;  275.375;    0.000
678.876; 1913.100;  213.375;    0.000
678.987; 1868.100;  182.375;    0.000
679.098; 1945.100;  221.375;    0.000
679.209; 1948.100;  238.375;    0.000
679.320; 1949.100;  212.375;    0.000
679.432; 1999.100;  231.375;    0.000
679.543; 1849.100;  198.375;    0.000
679.654; 1941.100;  191.375;    0.000
679.765; 1901.100;  214.375;    0.000
679.876; 1895.100;  221.375;    0.000
679.987; 1908.100;  162.375;    0.000
680.098; 1977.100;  230.375;    0.000
680.209; 1941.100;  206.375;    0.000
680.320; 1807.100;  196.375;    0.000
680.431; 1946.100;  191.375;    0.000
680.542; 1891.100;  214.375;    0.000
680.653; 1925.100;  238.375;    0.000
680.763; 1853.100;  182.375;    0.000
680.874; 1908.100;  213.375;    0.000
680.985; 1852.100;  224.375;    0.000
681.096; 1942.100;  222.375;    0.000
681.207; 1867.100;  220.375;    0.000
681.318; 1885.100;  216.375;    0.000
681.428; 1831.100;  229.375;    0.000
681.539; 1881.100;  183.375;    0.000
681.650; 1856.100;  202.375;    0.000
681.760; 1884.100;  223.375;    0.000
681.871; 1847.100;  211.375;    0.000
681.982; 1920.100;  189.375;    0.000
682.093; 1889.100;  222.375;    0.000
682.203; 1883.100;  220.375;    0.000
682.314; 1855.100;  214.375;    0.000
682.424; 1876.100;  208.375;    0.000
682.535; 1893.100;  213.375;    0.000
682.646; 1939.100;  302.375;    0.000
682.756; 1934.100;  255.375;    0.000
682.867; 1910.100;  244.375;    0.000
682.977; 1875.100;  221.375;    0.000
683.088; 1863.100;  259.375;    0.000
683.198; 1846.100;  212.375;    0.000
683.308; 1814.100;  202.375;    0.000
683.419; 1868.100;  255.375;    0.000
683.529; 1906.100;  217.375;    0.000
683.640; 1822.100;  240.375;    0.000
683.750; 1848.100;  181.375;    0.000
683.860; 1912.100;  246.375;    0.000
683.971; 1867.100;  254.375;    0.000
684.081; 1812.100;  235.375;    0.000
684.191; 1914.100;  251.375;    0.000
684.301; 1859.100;  233.375;    0.000
684.412; 1869.100;  202.375;    0.000
684.522; 1800.100;  232.375;    0.000
684.632; 1841.100;  202.375;    0.000
684.742; 1958.100;  254.375;    0.000
684.852; 1796.100;  219.375;    0.000
684.963; 1807.100;  256.375;    0.000
685.073; 1793.100;  253.375;    0.000
685.183; 1859.100;  254.375;    0.000
685.293; 1798.100;  232.375;    0.000
685.403; 1853.100;  242.375;    0.000
685.513; 1892.100;  261.375;    0.000
685.623; 1833.100;  245.375;    0.000
685.733; 1812.100;  254.375;    0.000
685.843; 1818.100;  249.375;    0.000
685.953; 1821.100;  252.375;    0.000
686.063; 1865.100;  227.375;    0.000
686.173; 1801.100;  223.375;    0.000
686.283; 1915.100;  234.375;    0.000
686.393; 1772.100;  239.375;    0.000
686.503; 1797.100;  231.375;    0.000
686.612; 1823.100;  232.375;    0.000
686.722; 1821.100;  258.375;    0.000
686.832; 1792.100;  256.375;    0.000
686.942; 1803.100;  230.375;    0.000
687.052; 1799.100;  274.375;    0.000
687.161; 1818.100;  269.375;    0.000
687.271; 1801.100;  218.375;    0.000
687.381; 1787.100;  235.375;    0.000
687.491; 1746.100;  262.375;    0.000
687.600; 1842.100;  256.375;    0.000
687.710; 1796.100;  225.375;    0.000
687.820; 1865.100;  230.375;    0.000
687.929; 1814.100;  226.375;    0.000
688.039; 1806.100;  228.375;    0.000
688.148; 1808.100;  249.375;    0.000
688.258; 1763.100;  237.375;    0.000
688.367; 1801.100;  260.375;    0.000
688.477; 1876.100;  200.375;    0.000
688.586; 1778.100;  223.375;    0.000
688.696; 1807.100;  223.375;    0.000
688.805; 1820.100;  257.375;    0.000
688.915; 1813.100;  185.375;    0.000
689.024; 1801.100;  227.375;    0.000
689.134; 1800.100;  224.375;    0.000
689.243; 1744.100;  206.375;    0.000
689.352; 1737.100;  275.375;    0.000
689.462; 1795.100;  233.375;    0.000
689.571; 1791.100;  244.375;    0.000
689.680; 1799.100;  261.375;    0.000
689.790; 1737.100;  192.375;    0.000
689.899; 1773.100;  214.375;    0.000
690.008; 1798.100;  255.375;    0.000
690.117; 1722.100;  219.375;    0.000
690.227; 1806.100;  241.375;    0.000
690.336; 1749.100;  231.375;    0.000
690.445; 1723.100;  212.375;    0.000
690.554; 1784.100;  234.375;    0.000
690.663; 1768.100;  210.375;    0.000
690.772; 1710.100;  221.375;    0.000
690.881; 1741.100;  244.375;    0.000
690.990; 1760.100;  247.375;    0.000
691.099; 1715.100;  222.375;    0.000
691.209; 1709.100;  240.375;    0.000
691.318; 1770.100;  223.375;    0.000
691.427; 1759.100;  217.375;    0.000
691.536; 1745.100;  216.375;    0.000
691.644; 1732.100;  194.375;    0.000
691.753; 1789.100;  221.375;    0.000
691.862; 1706.100;  224.375;    0.000
691.971; 1726.100;  191.375;    0.000
692.080; 1743.100;  247.375;    0.000
692.189; 1791.100;  208.375;    0.000
692.298; 1783.100;  203.375;    0.000
692.406; 1768.100;  239.375;    0.000
692.515; 1762.100;  250.375;    0.000
692.624; 1798.100;  226.375;    0.000
692.733; 1750.100;  229.375;    0.000
692.842; 1740.100;  254.375;    0.000
692.950; 1723.100;  242.375;    0.000
693.059; 1732.100;  204.375;    0.000
693.168; 1800.100;  252.375;    0.000
693.276; 1740.100;  195.375;    0.000
693.385; 1697.100;  228.375;    0.000
693.494; 1724.100;  282.375;    0.000
693.602; 1693.100;  221.375;    0.000
693.711; 1707.100;  225.375;    0.000
693.819; 1745.100;  234.375;    0.000
693.928; 1701.100;  229.375;    0.000
694.036; 1743.100;  192.375;    0.000
694.145; 1771.100;  233.375;    0.000
694.253; 1718.100;  277.375;    0.000
694.362; 1691.100;  188.375;    0.000
694.470; 1779.100;  263.375;    0.000
694.579; 1768.100;  253.375;    0.000
694.687; 1788.100;  281.375;    0.000
694.795; 1822.100;  233.375;    0.000
694.904; 1684.100;  223.375;    0.000
695.012; 1680.100;  296.375;    0.000
695.120; 1731.100;  227.375;    0.000
695.229; 1783.100;  269.375;    0.000
695.337; 1740.100;  229.375;    0.000
695.445; 1775.100;  244.375;    0.000
695.553; 1681.100;  259.375;    0.000
695.662; 1670.100;  208.375;    0.000
695.770; 1748.100;  241.375;    0.000
695.878; 1741.100;  239.375;    0.000
695.986; 1732.100;  247.375;    0.000
696.094; 1655.100;  224.375;    0.000
696.202; 1692.100;  205.375;    0.000
696.310; 1709.100;  217.375;    0.000
696.419; 1721.100;  228.375;    0.000
696.527; 1723.100;  246.375;    0.000
696.635; 1682.100;  245.375;    0.000
696.743; 1749.100;  233.375;    0.000
696.851; 1745.100;  251.375;    0.000
696.959; 1799.100;  257.375;    0.000
697.067; 1654.100;  260.375;    0.000
697.174; 1732.100;  223.375;    0.000
697.282; 1657.100;  239.375;    0.000
697.390; 1733.100;  264.375;    0.000
697.498; 1680.100;  227.375;    0.000
697.606; 1730.100;  243.375;    0.000
697.714; 1589.100;  256.375;    0.000
697.822; 1765.100;  278.375;    0.000
697.929; 1647.100;  227.375;    0.000
698.037; 1667.100;  232.375;    0.000
698.145; 1690.100;  256.375;    0.000
698.253; 1669.100;  245.375;    0.000
698.360; 1715.100;  282.375;    0.000
698.468; 1778.100;  244.375;    0.000
698.576; 1800.100;  279.375;    0.000
698.683; 1700.100;  259.375;    0.000
698.791; 1655.100;  265.375;    0.000
698.899; 1790.100;  250.375;    0.000
699.006; 1706.100;  245.375;    0.000
699.114; 1781.100;  280.375;    0.000
699.221; 1759.100;  240.375;    0.000
699.329; 1744.100;  293.375;    0.000
699.436; 1694.100;  216.375;    0.000
699.544; 1732.100;  269.375;    0.000
699.651; 1651.100;  219.375;    0.000
699.759; 1686.100;  245.375;    0.000
699.866; 1709.100;  261.375;    0.000
699.974; 1642.100;  245.375;    0.000
700.081; 1689.100;  257.375;    0.000
700.188; 1708.100;  268.375;    0.000
700.296; 1668.100;  225.375;    0.000
700.403; 1723.100;  257.375;    0.000
700.510; 1658.100;  267.375;    0.000
700.618; 1651.100;  299.375;    0.000
700.725; 1629.100;  223.375;    0.000
700.832; 1717.100;  233.375;    0.000
700.940; 1728.100;  255.375;    0.000
701.047; 1658.100;  244.375;    0.000
701.154; 1632.100;  248.375;    0.000
701.261; 1627.100;  264.375;    0.000
701.368; 1739.100;  299.375;    0.000
701.475; 1671.100;  264.375;    0.000
701.582; 1696.100;  275.375;    0.000
701.690; 1731.100;  261.375;    0.000
701.797; 1706.100;  273.375;    0.000
701.904; 1694.100;  320.375;    0.000
702.011; 1722.100;  299.375;    0.000
702.118; 1717.100;  292.375;    0.000
702.225; 1744.100;  317.375;    0.000
702.332; 1740.100;  307.375;    0.000
702.439; 1758.100;  313.375;    0.000
702.546; 1764.100;  312.375;    0.000
702.652; 1767.100;  297.375;    0.000
702.759; 1827.100;  345.375;    0.000
702.866; 1719.100;  330.375;    0.000
702.973; 1742.100;  303.375;    0.000
703.080; 1687.100;  303.375;    0.000
703.187; 1730.100;  327.375;    0.000
703.294; 1710.100;  325.375;    0.000
703.400; 1546.100;  302.375;    0.000
703.507;  484.100;  344.375;    0.000
703.614;  330.100;  294.375;    0.000
703.720;  288.100;  322.375;    0.000
703.827;  306.100;  329.375;    0.000
703.934;  354.100;  318.375;    0.000
704.040;  305.100;  299.375;    0.000
704.147;  304.100;  352.375;    0.000
704.254;  347.100;  350.375;    0.000
704.360;  304.100;  347.375;    0.000
704.467;  338.100;  336.375;    0.000
704.573;  343.100;  344.375;    0.000
704.680;  327.100;  365.375;    0.000
704.786;  322.100;  332.375;    0.000
704.893;  325.100;  304.375;    0.000
704.999;  310.100;  299.375;    0.000
705.106;  352.100;  365.375;    0.000

