
Integration time [ms]:   0.300
Averaging Nr. [scans]: 1
Smoothing Nr. [pixels]: 0
Data measured with spectrometer [name]: VIS
Wave   ;Sample   ;Dark     ;Reference
[nm]   ;[counts] ;[counts] ;[counts] 

450.961;  196.725;  204.350;    0.000
451.100;  240.725;  243.350;    0.000
451.239;  246.725;  228.350;    0.000
451.377;  246.725;  250.350;    0.000
451.516;  222.725;  189.350;    0.000
451.655;  256.725;  235.350;    0.000
451.794;  268.725;  223.350;    0.000
451.932;  257.725;  269.350;    0.000
452.071;  271.725;  250.350;    0.000
452.210;  221.725;  262.350;    0.000
452.348;  262.725;  259.350;    0.000
452.487;  236.725;  231.350;    0.000
452.626;  234.725;  220.350;    0.000
452.764;  271.725;  252.350;    0.000
452.903;  216.725;  236.350;    0.000
453.042;  309.725;  217.350;    0.000
453.180; 1240.725;  273.350;    0.000
453.319; 1403.725;  261.350;    0.000
453.458; 1469.725;  219.350;    0.000
453.596; 1372.725;  307.350;    0.000
453.735; 1394.725;  246.350;    0.000
453.873; 1414.725;  270.350;    0.000
454.012; 1451.725;  232.350;    0.000
454.150; 1390.725;  211.350;    0.000
454.289; 1396.725;  245.350;    0.000
454.427; 1437.725;  224.350;    0.000
454.566; 1441.725;  252.350;    0.000
454.704; 1481.725;  225.350;    0.000
454.843; 1497.725;  195.350;    0.000
454.981; 1440.725;  258.350;    0.000
455.120; 1372.725;  191.350;    0.000
455.258; 1586.725;  243.350;    0.000
455.397; 1412.725;  188.350;    0.000
455.535; 1576.725;  219.350;    0.000
455.674; 1428.725;  184.350;    0.000
455.812; 1554.725;  225.350;    0.000
455.951; 1419.725;  201.350;    0.000
456.089; 1676.725;  187.350;    0.000
456.227; 1516.725;  199.350;    0.000
456.366; 1508.725;  235.350;    0.000
456.504; 1475.725;  216.350;    0.000
456.642; 1711.725;  256.350;    0.000
456.781; 1574.725;  201.350;    0.000
456.919; 1548.725;  231.350;    0.000
457.057; 1672.725;  181.350;    0.000
457.196; 1559.725;  231.350;    0.000
457.334; 1577.725;  229.350;    0.000
457.472; 1693.725;  242.350;    0.000
457.610; 1644.725;  221.350;    0.000
457.749; 1694.725;  218.350;    0.000
457.887; 1663.725;  213.350;    0.000
458.025; 1890.725;  228.350;    0.000
458.163; 1846.725;  204.350;    0.000
458.301; 1860.725;  230.350;    0.000
458.440; 1719.725;  200.350;    0.000
458.578; 2095.725;  222.350;    0.000
458.716; 1881.725;  137.350;    0.000
458.854; 1841.725;  259.350;    0.000
458.992; 2008.725;  172.350;    0.000
459.130; 1843.725;  253.350;    0.000
459.269; 1893.725;  212.350;    0.000
459.407; 2016.725;  212.350;    0.000
459.545; 2040.725;  225.350;    0.000
459.683; 2052.725;  225.350;    0.000
459.821; 1985.725;  192.350;    0.000
459.959; 2128.725;  205.350;    0.000
460.097; 1996.725;  199.350;    0.000
460.235; 1962.725;  232.350;    0.000
460.373; 1902.725;  248.350;    0.000
460.511; 2062.725;  225.350;    0.000
460.649; 2104.725;  204.350;    0.000
460.787; 1904.725;  221.350;    0.000
460.925; 2089.725;  181.350;    0.000
461.063; 1981.725;  243.350;    0.000
461.201; 1987.725;  212.350;    0.000
461.339; 2204.725;  229.350;    0.000
461.477; 2146.725;  162.350;    0.000
461.615; 2066.725;  232.350;    0.000
461.753; 2230.725;  193.350;    0.000
461.891; 2117.725;  217.350;    0.000
462.029; 2112.725;  224.350;    0.000
462.166; 2293.725;  222.350;    0.000
462.304; 2095.725;  185.350;    0.000
462.442; 2323.725;  246.350;    0.000
462.580; 2148.725;  246.350;    0.000
462.718; 2266.725;  235.350;    0.000
462.856; 2122.725;  230.350;    0.000
462.993; 2047.725;  266.350;    0.000
463.131; 2119.725;  208.350;    0.000
463.269; 2004.725;  218.350;    0.000
463.407; 2033.725;  215.350;    0.000
463.545; 2105.725;  200.350;    0.000
463.682; 2129.725;  206.350;    0.000
463.820; 2193.725;  211.350;    0.000
463.958; 2268.725;  206.350;    0.000
464.095; 2406.725;  193.350;    0.000
464.233; 2388.725;  203.350;    0.000
464.371; 2306.725;  258.350;    0.000
464.509; 2428.725;  219.350;    0.000
464.646; 2446.725;  210.350;    0.000
464.784; 2373.725;  206.350;    0.000
464.921; 2484.725;  233.350;    0.000
465.059; 2261.725;  186.350;    0.000
465.197; 2316.725;  213.350;    0.000
465.334; 2185.725;  202.350;    0.000
465.472; 2308.725;  236.350;    0.000
465.609; 2378.725;  206.350;    0.000
465.747; 2302.725;  208.350;    0.000
465.885; 2306.725;  198.350;    0.000
466.022; 2328.725;  210.350;    0.000
466.160; 2402.725;  245.350;    0.000
466.297; 2357.725;  226.350;    0.000
466.435; 2249.725;  235.350;    0.000
466.572; 2345.725;  226.350;    0.000
466.710; 2370.725;  266.350;    0.000
466.847; 2383.725;  258.350;    0.000
466.985; 2366.725;  228.350;    0.000
467.122; 2372.725;  201.350;    0.000
467.260; 2214.725;  170.350;    0.000
467.397; 2205.725;  174.350;    0.000
467.534; 2325.725;  244.350;    0.000
467.672; 2381.725;  247.350;    0.000
467.809; 2144.725;  182.350;    0.000
467.947; 2499.725;  208.350;    0.000
468.084; 2320.725;  206.350;    0.000
468.221; 2438.725;  249.350;    0.000
468.359; 2370.725;  253.350;    0.000
468.496; 2166.725;  208.350;    0.000
468.633; 2077.725;  189.350;    0.000
468.771; 2444.725;  216.350;    0.000
468.908; 2305.725;  240.350;    0.000
469.045; 2377.725;  234.350;    0.000
469.183; 2307.725;  203.350;    0.000
469.320; 2192.725;  230.350;    0.000
469.457; 2270.725;  219.350;    0.000
469.594; 2196.725;  233.350;    0.000
469.732; 2268.725;  230.350;    0.000
469.869; 2345.725;  239.350;    0.000
470.006; 2288.725;  224.350;    0.000
470.143; 2357.725;  241.350;    0.000
470.280; 2530.725;  234.350;    0.000
470.417; 2372.725;  236.350;    0.000
470.555; 2358.725;  207.350;    0.000
470.692; 2224.725;  251.350;    0.000
470.829; 2334.725;  238.350;    0.000
470.966; 2317.725;  242.350;    0.000
471.103; 2362.725;  215.350;    0.000
471.240; 2085.725;  237.350;    0.000
471.377; 2278.725;  235.350;    0.000
471.514; 2325.725;  256.350;    0.000
471.651; 2372.725;  198.350;    0.000
471.789; 2165.725;  215.350;    0.000
471.926; 2332.725;  210.350;    0.000
472.063; 2211.725;  237.350;    0.000
472.200; 2316.725;  265.350;    0.000
472.337; 2178.725;  240.350;    0.000
472.474; 2172.725;  195.350;    0.000
472.611; 2120.725;  228.350;    0.000
472.748; 2191.725;  234.350;    0.000
472.884; 2220.725;  230.350;    0.000
473.021; 2183.725;  219.350;    0.000
473.158; 2298.725;  253.350;    0.000
473.295; 2292.725;  207.350;    0.000
473.432; 2463.725;  238.350;    0.000
473.569; 2184.725;  236.350;    0.000
473.706; 2245.725;  203.350;    0.000
473.843; 2201.725;  232.350;    0.000
473.980; 2220.725;  207.350;    0.000
474.117; 2253.725;  182.350;    0.000
474.253; 2272.725;  261.350;    0.000
474.390; 2060.725;  211.350;    0.000
474.527; 2152.725;  229.350;    0.000
474.664; 2114.725;  181.350;    0.000
474.801; 2336.725;  250.350;    0.000
474.937; 2478.725;  196.350;    0.000
475.074; 2468.725;  213.350;    0.000
475.211; 2322.725;  232.350;    0.000
475.348; 2273.725;  228.350;    0.000
475.484; 2364.725;  240.350;    0.000
475.621; 2351.725;  235.350;    0.000
475.758; 2166.725;  232.350;    0.000
475.894; 2231.725;  227.350;    0.000
476.031; 2412.725;  233.350;    0.000
476.168; 2114.725;  205.350;    0.000
476.304; 2263.725;  263.350;    0.000
476.441; 2403.725;  255.350;    0.000
476.578; 2093.725;  191.350;    0.000
476.714; 2410.725;  218.350;    0.000
476.851; 2181.725;  224.350;    0.000
476.987; 2335.725;  225.350;    0.000
477.124; 2171.725;  231.350;    0.000
477.261; 2254.725;  291.350;    0.000
477.397; 2303.725;  218.350;    0.000
477.534; 2314.725;  209.350;    0.000
477.670; 2141.725;  210.350;    0.000
477.807; 2139.725;  199.350;    0.000
477.943; 2609.725;  219.350;    0.000
478.080; 2221.725;  234.350;    0.000
478.216; 2437.725;  196.350;    0.000
478.353; 2232.725;  234.350;    0.000
478.489; 2311.725;  219.350;    0.000
478.626; 2358.725;  209.350;    0.000
478.762; 2404.725;  206.350;    0.000
478.898; 2404.725;  209.350;    0.000
479.035; 2384.725;  232.350;    0.000
479.171; 2235.725;  219.350;    0.000
479.308; 2431.725;  226.350;    0.000
479.444; 2424.725;  184.350;    0.000
479.580; 2192.725;  192.350;    0.000
479.717; 2354.725;  247.350;    0.000
479.853; 2377.725;  181.350;    0.000
479.989; 2433.725;  212.350;    0.000
480.126; 2410.725;  187.350;    0.000
480.262; 2452.725;  217.350;    0.000
480.398; 2491.725;  249.350;    0.000
480.535; 2546.725;  196.350;    0.000
480.671; 2292.725;  199.350;    0.000
480.807; 2563.725;  231.350;    0.000
480.943; 2292.725;  192.350;    0.000
481.080; 2331.725;  206.350;    0.000
481.216; 2345.725;  189.350;    0.000
481.352; 2398.725;  215.350;    0.000
481.488; 2437.725;  223.350;    0.000
481.624; 2552.725;  235.350;    0.000
481.760; 2399.725;  218.350;    0.000
481.897; 2284.725;  204.350;    0.000
482.033; 2445.725;  243.350;    0.000
482.169; 2492.725;  239.350;    0.000
482.305; 2276.725;  221.350;    0.000
482.441; 2515.725;  162.350;    0.000
482.577; 2444.725;  241.350;    0.000
482.713; 2346.725;  223.350;    0.000
482.849; 2378.725;  195.350;    0.000
482.985; 2358.725;  230.350;    0.000
483.121; 2419.725;  230.350;    0.000
483.258; 2346.725;  254.350;    0.000
483.394; 2601.725;  199.350;    0.000
483.530; 2491.725;  209.350;    0.000
483.665; 2463.725;  196.350;    0.000
483.801; 2479.725;  208.350;    0.000
483.937; 2329.725;  202.350;    0.000
484.073; 2336.725;  247.350;    0.000
484.209; 2381.725;  188.350;    0.000
484.345; 2473.725;  241.350;    0.000
484.481; 2589.725;  247.350;    0.000
484.617; 2422.725;  248.350;    0.000
484.753; 2502.725;  255.350;    0.000
484.889; 2510.725;  253.350;    0.000
485.025; 2354.725;  226.350;    0.000
485.161; 2572.725;  207.350;    0.000
485.296; 2303.725;  247.350;    0.000
485.432; 2573.725;  255.350;    0.000
485.568; 2327.725;  216.350;    0.000
485.704; 2533.725;  232.350;    0.000
485.840; 2486.725;  231.350;    0.000
485.975; 2657.725;  233.350;    0.000
486.111; 2378.725;  207.350;    0.000
486.247; 2603.725;  211.350;    0.000
486.383; 2440.725;  219.350;    0.000
486.518; 2415.725;  213.350;    0.000
486.654; 2450.725;  216.350;    0.000
486.790; 2569.725;  253.350;    0.000
486.926; 2641.725;  229.350;    0.000
487.061; 2512.725;  241.350;    0.000
487.197; 2449.725;  218.350;    0.000
487.333; 2387.725;  221.350;    0.000
487.468; 2362.725;  206.350;    0.000
487.604; 2484.725;  254.350;    0.000
487.740; 2484.725;  240.350;    0.000
487.875; 2660.725;  260.350;    0.000
488.011; 2463.725;  232.350;    0.000
488.146; 2529.725;  206.350;    0.000
488.282; 2422.725;  236.350;    0.000
488.417; 2548.725;  255.350;    0.000
488.553; 2460.725;  221.350;    0.000
488.688; 2373.725;  233.350;    0.000
488.824; 2524.725;  246.350;    0.000
488.960; 2589.725;  267.350;    0.000
489.095; 2536.725;  217.350;    0.000
489.230; 2442.725;  226.350;    0.000
489.366; 2434.725;  232.350;    0.000
489.501; 2578.725;  220.350;    0.000
489.637; 2446.725;  245.350;    0.000
489.772; 2526.725;  228.350;    0.000
489.908; 2733.725;  250.350;    0.000
490.043; 2585.725;  239.350;    0.000
490.178; 2519.725;  213.350;    0.000
490.314; 2717.725;  270.350;    0.000
490.449; 2329.725;  245.350;    0.000
490.585; 2722.725;  218.350;    0.000
490.720; 2476.725;  243.350;    0.000
490.855; 2553.725;  196.350;    0.000
490.991; 2644.725;  208.350;    0.000
491.126; 2738.725;  268.350;    0.000
491.261; 2753.725;  226.350;    0.000
491.396; 2740.725;  201.350;    0.000
491.532; 2630.725;  213.350;    0.000
491.667; 2688.725;  183.350;    0.000
491.802; 2691.725;  239.350;    0.000
491.937; 2730.725;  228.350;    0.000
492.073; 2698.725;  258.350;    0.000
492.208; 2701.725;  218.350;    0.000
492.343; 2584.725;  205.350;    0.000
492.478; 2793.725;  247.350;    0.000
492.613; 2663.725;  217.350;    0.000
492.749; 2611.725;  258.350;    0.000
492.884; 2628.725;  208.350;    0.000
493.019; 2556.725;  248.350;    0.000
493.154; 2546.725;  231.350;    0.000
493.289; 2699.725;  226.350;    0.000
493.424; 2719.725;  216.350;    0.000
493.559; 2522.725;  205.350;    0.000
493.694; 2686.725;  203.350;    0.000
493.829; 2759.725;  231.350;    0.000
493.964; 2581.725;  200.350;    0.000
494.099; 2553.725;  253.350;    0.000
494.234; 2819.725;  244.350;    0.000
494.369; 2767.725;  239.350;    0.000
494.504; 2559.725;  223.350;    0.000
494.639; 2558.725;  263.350;    0.000
494.774; 2728.725;  240.350;    0.000
494.909; 2739.725;  231.350;    0.000
495.044; 2745.725;  195.350;    0.000
495.179; 2669.725;  231.350;    0.000
495.314; 2609.725;  231.350;    0.000
495.449; 2748.725;  239.350;    0.000
495.584; 2585.725;  201.350;    0.000
495.719; 2772.725;  201.350;    0.000
495.854; 2778.725;  201.350;    0.000
495.988; 2860.725;  239.350;    0.000
496.123; 2798.725;  199.350;    0.000
496.258; 2940.725;  256.350;    0.000
496.393; 2736.725;  214.350;    0.000
496.528; 2931.725;  220.350;    0.000
496.663; 2754.725;  207.350;    0.000
496.797; 2927.725;  241.350;    0.000
496.932; 3088.725;  215.350;    0.000
497.067; 3112.725;  240.350;    0.000
497.202; 3023.725;  177.350;    0.000
497.336; 3281.725;  221.350;    0.000
497.471; 3493.725;  228.350;    0.000
497.606; 3314.725;  213.350;    0.000
497.740; 3548.725;  217.350;    0.000
497.875; 3727.725;  182.350;    0.000
498.010; 3904.725;  230.350;    0.000
498.144; 4050.725;  217.350;    0.000
498.279; 4385.725;  194.350;    0.000
498.414; 4382.725;  270.350;    0.000
498.548; 4063.725;  184.350;    0.000
498.683; 4070.725;  188.350;    0.000
498.817; 3909.725;  216.350;    0.000
498.952; 3754.725;  208.350;    0.000
499.087; 3805.725;  236.350;    0.000
499.221; 3629.725;  219.350;    0.000
499.356; 3607.725;  263.350;    0.000
499.490; 3918.725;  221.350;    0.000
499.625; 3989.725;  233.350;    0.000
499.759; 3724.725;  245.350;    0.000
499.894; 4160.725;  241.350;    0.000
500.028; 4093.725;  237.350;    0.000
500.162; 3779.725;  282.350;    0.000
500.297; 3982.725;  232.350;    0.000
500.431; 3714.725;  266.350;    0.000
500.566; 4014.725;  254.350;    0.000
500.700; 3998.725;  238.350;    0.000
500.835; 3661.725;  264.350;    0.000
500.969; 3773.725;  165.350;    0.000
501.103; 3681.725;  190.350;    0.000
501.238; 3705.725;  274.350;    0.000
501.372; 3705.725;  270.350;    0.000
501.506; 3290.725;  231.350;    0.000
501.641; 3404.725;  224.350;    0.000
501.775; 3428.725;  224.350;    0.000
501.909; 3282.725;  218.350;    0.000
502.043; 2904.725;  238.350;    0.000
502.178; 3203.725;  289.350;    0.000
502.312; 3014.725;  225.350;    0.000
502.446; 2808.725;  295.350;    0.000
502.580; 2847.725;  200.350;    0.000
502.715; 2968.725;  256.350;    0.000
502.849; 2937.725;  226.350;    0.000
502.983; 2923.725;  250.350;    0.000
503.117; 2804.725;  229.350;    0.000
503.251; 2833.725;  267.350;    0.000
503.385; 2868.725;  237.350;    0.000
503.520; 2802.725;  210.350;    0.000
503.654; 2783.725;  204.350;    0.000
503.788; 2840.725;  236.350;    0.000
503.922; 2764.725;  225.350;    0.000
504.056; 2544.725;  222.350;    0.000
504.190; 2519.725;  220.350;    0.000
504.324; 2607.725;  257.350;    0.000
504.458; 2712.725;  223.350;    0.000
504.592; 2618.725;  252.350;    0.000
504.726; 2490.725;  216.350;    0.000
504.860; 2507.725;  231.350;    0.000
504.994; 2443.725;  228.350;    0.000
505.128; 2484.725;  239.350;    0.000
505.262; 2535.725;  245.350;    0.000
505.396; 2551.725;  231.350;    0.000
505.530; 2195.725;  211.350;    0.000
505.664; 2497.725;  223.350;    0.000
505.798; 2202.725;  239.350;    0.000
505.932; 2323.725;  232.350;    0.000
506.066; 2455.725;  263.350;    0.000
506.199; 2211.725;  231.350;    0.000
506.333; 2112.725;  213.350;    0.000
506.467; 2245.725;  241.350;    0.000
506.601; 2365.725;  233.350;    0.000
506.735; 2371.725;  235.350;    0.000
506.869; 2189.725;  269.350;    0.000
507.002; 2328.725;  244.350;    0.000
507.136; 2112.725;  258.350;    0.000
507.270; 2292.725;  218.350;    0.000
507.404; 2255.725;  191.350;    0.000
507.537; 2302.725;  226.350;    0.000
507.671; 2166.725;  243.350;    0.000
507.805; 2196.725;  234.350;    0.000
507.939; 2246.725;  234.350;    0.000
508.072; 2185.725;  261.350;    0.000
508.206; 2123.725;  220.350;    0.000
508.340; 2187.725;  241.350;    0.000
508.473; 2268.725;  214.350;    0.000
508.607; 2149.725;  232.350;    0.000
508.740; 2210.725;  222.350;    0.000
508.874; 2123.725;  225.350;    0.000
509.008; 2061.725;  258.350;    0.000
509.141; 2430.725;  210.350;    0.000
509.275; 2196.725;  199.350;    0.000
509.408; 2093.725;  260.350;    0.000
509.542; 2033.725;  252.350;    0.000
509.675; 2120.725;  276.350;    0.000
509.809; 2043.725;  266.350;    0.000
509.942; 2154.725;  227.350;    0.000
510.076; 1988.725;  243.350;    0.000
510.209; 2130.725;  221.350;    0.000
510.343; 1996.725;  229.350;    0.000
510.476; 1989.725;  246.350;    0.000
510.610; 2017.725;  211.350;    0.000
510.743; 2100.725;  279.350;    0.000
510.877; 2083.725;  274.350;    0.000
511.010; 2008.725;  252.350;    0.000
511.143; 1868.725;  228.350;    0.000
511.277; 1986.725;  261.350;    0.000
511.410; 2110.725;  217.350;    0.000
511.543; 1993.725;  230.350;    0.000
511.677; 2150.725;  245.350;    0.000
511.810; 2016.725;  237.350;    0.000
511.943; 2067.725;  224.350;    0.000
512.077; 2023.725;  194.350;    0.000
512.210; 2044.725;  212.350;    0.000
512.343; 2067.725;  236.350;    0.000
512.476; 2060.725;  248.350;    0.000
512.610; 1987.725;  249.350;    0.000
512.743; 1969.725;  224.350;    0.000
512.876; 2236.725;  277.350;    0.000
513.009; 2055.725;  261.350;    0.000
513.142; 2082.725;  213.350;    0.000
513.276; 2053.725;  192.350;    0.000
513.409; 1958.725;  267.350;    0.000
513.542; 1944.725;  224.350;    0.000
513.675; 2023.725;  244.350;    0.000
513.808; 1853.725;  218.350;    0.000
513.941; 2158.725;  237.350;    0.000
514.074; 1939.725;  257.350;    0.000
514.207; 2026.725;  245.350;    0.000
514.340; 2081.725;  195.350;    0.000
514.474; 2226.725;  244.350;    0.000
514.607; 2075.725;  230.350;    0.000
514.740; 2177.725;  246.350;    0.000
514.873; 2357.725;  268.350;    0.000
515.006; 2438.725;  253.350;    0.000
515.139; 2355.725;  235.350;    0.000
515.272; 2347.725;  214.350;    0.000
515.404; 2652.725;  228.350;    0.000
515.537; 2664.725;  263.350;    0.000
515.670; 2385.725;  270.350;    0.000
515.803; 2343.725;  243.350;    0.000
515.936; 2263.725;  226.350;    0.000
516.069; 2300.725;  227.350;    0.000
516.202; 2362.725;  259.350;    0.000
516.335; 2134.725;  260.350;    0.000
516.468; 2409.725;  243.350;    0.000
516.600; 2701.725;  258.350;    0.000
516.733; 3240.725;  235.350;    0.000
516.866; 3389.725;  267.350;    0.000
516.999; 2823.725;  251.350;    0.000
517.132; 3480.725;  261.350;    0.000
517.264; 5096.725;  260.350;    0.000
517.397; 5174.725;  231.350;    0.000
517.530; 3666.725;  257.350;    0.000
517.663; 2907.725;  263.350;    0.000
517.795; 2740.725;  250.350;    0.000
517.928; 2454.725;  257.350;    0.000
518.061; 2629.725;  227.350;    0.000
518.193; 3397.725;  252.350;    0.000
518.326; 6185.725;  227.350;    0.000
518.459; 7064.725;  210.350;    0.000
518.591; 4909.725;  214.350;    0.000
518.724; 3132.725;  269.350;    0.000
518.857; 2636.725;  215.350;    0.000
518.989; 2518.725;  259.350;    0.000
519.122; 2370.725;  238.350;    0.000
519.254; 2402.725;  248.350;    0.000
519.387; 2162.725;  246.350;    0.000
519.519; 2264.725;  239.350;    0.000
519.652; 2313.725;  249.350;    0.000
519.784; 2179.725;  238.350;    0.000
519.917; 2065.725;  231.350;    0.000
520.049; 2043.725;  244.350;    0.000
520.182; 2138.725;  205.350;    0.000
520.314; 2050.725;  262.350;    0.000
520.447; 2021.725;  234.350;    0.000
520.579; 2096.725;  273.350;    0.000
520.712; 1857.725;  215.350;    0.000
520.844; 2095.725;  258.350;    0.000
520.976; 1957.725;  242.350;    0.000
521.109; 1958.725;  232.350;    0.000
521.241; 1860.725;  236.350;    0.000
521.373; 1874.725;  227.350;    0.000
521.506; 1943.725;  212.350;    0.000
521.638; 1886.725;  292.350;    0.000
521.770; 2075.725;  259.350;    0.000
521.903; 1976.725;  263.350;    0.000
522.035; 1781.725;  269.350;    0.000
522.167; 2025.725;  289.350;    0.000
522.300; 1859.725;  255.350;    0.000
522.432; 1773.725;  247.350;    0.000
522.564; 1820.725;  239.350;    0.000
522.696; 1794.725;  246.350;    0.000
522.828; 1906.725;  230.350;    0.000
522.961; 1729.725;  239.350;    0.000
523.093; 1878.725;  269.350;    0.000
523.225; 1764.725;  251.350;    0.000
523.357; 1837.725;  244.350;    0.000
523.489; 1721.725;  266.350;    0.000
523.621; 1816.725;  267.350;    0.000
523.753; 1973.725;  234.350;    0.000
523.885; 1754.725;  229.350;    0.000
524.018; 1984.725;  221.350;    0.000
524.150; 1780.725;  264.350;    0.000
524.282; 1780.725;  283.350;    0.000
524.414; 1890.725;  258.350;    0.000
524.546; 1781.725;  286.350;    0.000
524.678; 1710.725;  274.350;    0.000
524.810; 1872.725;  253.350;    0.000
524.942; 1712.725;  183.350;    0.000
525.074; 1709.725;  232.350;    0.000
525.206; 1720.725;  250.350;    0.000
525.338; 1603.725;  228.350;    0.000
525.469; 1662.725;  224.350;    0.000
525.601; 1726.725;  247.350;    0.000
525.733; 1668.725;  199.350;    0.000
525.865; 1774.725;  230.350;    0.000
525.997; 1731.725;  209.350;    0.000
526.129; 1797.725;  211.350;    0.000
526.261; 1819.725;  233.350;    0.000
526.393; 1744.725;  261.350;    0.000
526.524; 1667.725;  206.350;    0.000
526.656; 1839.725;  260.350;    0.000
526.788; 1668.725;  293.350;    0.000
526.920; 1719.725;  208.350;    0.000
527.052; 1622.725;  204.350;    0.000
527.183; 1597.725;  244.350;    0.000
527.315; 1701.725;  237.350;    0.000
527.447; 1678.725;  236.350;    0.000
527.578; 1689.725;  235.350;    0.000
527.710; 1789.725;  253.350;    0.000
527.842; 1630.725;  231.350;    0.000
527.973; 1672.725;  224.350;    0.000
528.105; 1719.725;  237.350;    0.000
528.237; 1732.725;  213.350;    0.000
528.368; 1624.725;  194.350;    0.000
528.500; 1565.725;  195.350;    0.000
528.632; 1652.725;  201.350;    0.000
528.763; 1623.725;  196.350;    0.000
528.895; 1722.725;  204.350;    0.000
529.026; 1730.725;  214.350;    0.000
529.158; 1602.725;  197.350;    0.000
529.289; 1592.725;  230.350;    0.000
529.421; 1777.725;  247.350;    0.000
529.552; 1843.725;  255.350;    0.000
529.684; 1535.725;  270.350;    0.000
529.815; 1823.725;  248.350;    0.000
529.947; 1694.725;  234.350;    0.000
530.078; 1798.725;  223.350;    0.000
530.210; 1713.725;  243.350;    0.000
530.341; 1687.725;  222.350;    0.000
530.472; 1719.725;  217.350;    0.000
530.604; 1803.725;  242.350;    0.000
530.735; 1755.725;  249.350;    0.000
530.867; 1642.725;  257.350;    0.000
530.998; 1761.725;  250.350;    0.000
531.129; 1785.725;  244.350;    0.000
531.260; 1751.725;  276.350;    0.000
531.392; 1781.725;  220.350;    0.000
531.523; 1723.725;  262.350;    0.000
531.654; 1892.725;  264.350;    0.000
531.786; 1804.725;  225.350;    0.000
531.917; 2017.725;  285.350;    0.000
532.048; 1690.725;  239.350;    0.000
532.179; 1809.725;  248.350;    0.000
532.311; 1732.725;  219.350;    0.000
532.442; 1726.725;  264.350;    0.000
532.573; 1784.725;  230.350;    0.000
532.704; 1849.725;  253.350;    0.000
532.835; 1850.725;  239.350;    0.000
532.966; 1682.725;  247.350;    0.000
533.097; 1757.725;  225.350;    0.000
533.229; 1838.725;  282.350;    0.000
533.360; 1598.725;  236.350;    0.000
533.491; 1769.725;  247.350;    0.000
533.622; 1759.725;  265.350;    0.000
533.753; 1542.725;  226.350;    0.000
533.884; 1781.725;  294.350;    0.000
534.015; 1817.725;  215.350;    0.000
534.146; 1774.725;  223.350;    0.000
534.277; 1799.725;  264.350;    0.000
534.408; 1685.725;  232.350;    0.000
534.539; 1752.725;  274.350;    0.000
534.670; 1798.725;  275.350;    0.000
534.801; 1617.725;  261.350;    0.000
534.932; 1813.725;  225.350;    0.000
535.063; 1806.725;  235.350;    0.000
535.194; 1690.725;  300.350;    0.000
535.324; 1687.725;  249.350;    0.000
535.455; 1642.725;  260.350;    0.000
535.586; 1774.725;  288.350;    0.000
535.717; 1635.725;  237.350;    0.000
535.848; 1773.725;  271.350;    0.000
535.979; 1775.725;  234.350;    0.000
536.109; 1727.725;  255.350;    0.000
536.240; 1623.725;  269.350;    0.000
536.371; 1651.725;  232.350;    0.000
536.502; 1682.725;  253.350;    0.000
536.632; 1755.725;  240.350;    0.000
536.763; 1655.725;  251.350;    0.000
536.894; 1641.725;  256.350;    0.000
537.025; 1619.725;  247.350;    0.000
537.155; 1629.725;  272.350;    0.000
537.286; 1675.725;  241.350;    0.000
537.417; 1805.725;  279.350;    0.000
537.547; 1666.725;  229.350;    0.000
537.678; 1783.725;  227.350;    0.000
537.808; 1638.725;  225.350;    0.000
537.939; 1579.725;  250.350;    0.000
538.070; 1752.725;  263.350;    0.000
538.200; 1649.725;  270.350;    0.000
538.331; 1687.725;  249.350;    0.000
538.461; 1707.725;  230.350;    0.000
538.592; 1667.725;  282.350;    0.000
538.722; 1760.725;  253.350;    0.000
538.853; 1582.725;  240.350;    0.000
538.983; 1763.725;  232.350;    0.000
539.114; 1729.725;  248.350;    0.000
539.244; 1691.725;  256.350;    0.000
539.375; 1666.725;  248.350;    0.000
539.505; 1635.725;  235.350;    0.000
539.636; 1731.725;  237.350;    0.000
539.766; 1700.725;  263.350;    0.000
539.896; 1587.725;  217.350;    0.000
540.027; 1685.725;  217.350;    0.000
540.157; 1657.725;  231.350;    0.000
540.287; 1577.725;  210.350;    0.000
540.418; 1672.725;  239.350;    0.000
540.548; 1687.725;  260.350;    0.000
540.678; 1604.725;  228.350;    0.000
540.809; 1782.725;  241.350;    0.000
540.939; 1640.725;  238.350;    0.000
541.069; 1848.725;  245.350;    0.000
541.200; 1607.725;  225.350;    0.000
541.330; 1648.725;  219.350;    0.000
541.460; 1661.725;  254.350;    0.000
541.590; 1640.725;  234.350;    0.000
541.720; 1746.725;  196.350;    0.000
541.851; 1703.725;  200.350;    0.000
541.981; 1702.725;  235.350;    0.000
542.111; 1946.725;  246.350;    0.000
542.241; 1682.725;  214.350;    0.000
542.371; 1845.725;  221.350;    0.000
542.501; 1943.725;  259.350;    0.000
542.631; 1733.725;  213.350;    0.000
542.761; 2019.725;  240.350;    0.000
542.891; 1885.725;  242.350;    0.000
543.021; 1886.725;  230.350;    0.000
543.151; 1857.725;  261.350;    0.000
543.281; 1766.725;  212.350;    0.000
543.411; 1789.725;  229.350;    0.000
543.542; 1718.725;  204.350;    0.000
543.671; 1797.725;  260.350;    0.000
543.801; 1780.725;  236.350;    0.000
543.931; 1735.725;  243.350;    0.000
544.061; 1750.725;  262.350;    0.000
544.191; 1795.725;  223.350;    0.000
544.321; 1618.725;  217.350;    0.000
544.451; 1752.725;  209.350;    0.000
544.581; 1661.725;  213.350;    0.000
544.711; 1729.725;  256.350;    0.000
544.841; 1817.725;  235.350;    0.000
544.970; 1999.725;  260.350;    0.000
545.100; 1774.725;  236.350;    0.000
545.230; 1856.725;  220.350;    0.000
545.360; 1978.725;  219.350;    0.000
545.490; 1864.725;  217.350;    0.000
545.619; 1817.725;  199.350;    0.000
545.749; 1757.725;  183.350;    0.000
545.879; 1700.725;  169.350;    0.000
546.009; 1665.725;  215.350;    0.000
546.138; 1836.725;  228.350;    0.000
546.268; 1728.725;  209.350;    0.000
546.398; 1700.725;  167.350;    0.000
546.527; 1628.725;  178.350;    0.000
546.657; 1718.725;  175.350;    0.000
546.786; 1734.725;  225.350;    0.000
546.916; 1824.725;  196.350;    0.000
547.046; 1720.725;  185.350;    0.000
547.175; 1598.725;  184.350;    0.000
547.305; 1881.725;  197.350;    0.000
547.434; 1797.725;  168.350;    0.000
547.564; 1744.725;  183.350;    0.000
547.693; 1718.725;  204.350;    0.000
547.823; 1741.725;  211.350;    0.000
547.953; 1792.725;  174.350;    0.000
548.082; 1870.725;  217.350;    0.000
548.211; 1730.725;  201.350;    0.000
548.341; 1937.725;  195.350;    0.000
548.470; 1798.725;  225.350;    0.000
548.600; 1800.725;  194.350;    0.000
548.729; 1851.725;  218.350;    0.000
548.859; 1675.725;  202.350;    0.000
548.988; 1614.725;  193.350;    0.000
549.117; 1727.725;  182.350;    0.000
549.247; 1806.725;  198.350;    0.000
549.376; 1799.725;  200.350;    0.000
549.505; 1817.725;  200.350;    0.000
549.635; 1765.725;  224.350;    0.000
549.764; 1779.725;  200.350;    0.000
549.893; 1649.725;  224.350;    0.000
550.023; 1735.725;  207.350;    0.000
550.152; 1794.725;  167.350;    0.000
550.281; 1798.725;  219.350;    0.000
550.410; 1757.725;  217.350;    0.000
550.539; 1856.725;  211.350;    0.000
550.669; 1803.725;  173.350;    0.000
550.798; 1811.725;  211.350;    0.000
550.927; 1787.725;  195.350;    0.000
551.056; 1736.725;  176.350;    0.000
551.185; 1826.725;  203.350;    0.000
551.314; 1803.725;  178.350;    0.000
551.443; 1801.725;  185.350;    0.000
551.573; 1813.725;  167.350;    0.000
551.702; 1806.725;  193.350;    0.000
551.831; 2009.725;  245.350;    0.000
551.960; 1695.725;  190.350;    0.000
552.089; 1790.725;  202.350;    0.000
552.218; 1894.725;  211.350;    0.000
552.347; 2041.725;  184.350;    0.000
552.476; 1960.725;  200.350;    0.000
552.605; 1855.725;  174.350;    0.000
552.734; 1947.725;  206.350;    0.000
552.863; 1885.725;  189.350;    0.000
552.992; 2062.725;  209.350;    0.000
553.121; 1840.725;  201.350;    0.000
553.249; 2009.725;  208.350;    0.000
553.378; 1861.725;  142.350;    0.000
553.507; 2034.725;  208.350;    0.000
553.636; 1805.725;  192.350;    0.000
553.765; 1960.725;  182.350;    0.000
553.894; 1756.725;  183.350;    0.000
554.023; 1870.725;  182.350;    0.000
554.151; 1863.725;  211.350;    0.000
554.280; 1842.725;  179.350;    0.000
554.409; 1668.725;  182.350;    0.000
554.538; 1898.725;  209.350;    0.000
554.666; 1819.725;  182.350;    0.000
554.795; 1893.725;  179.350;    0.000
554.924; 1763.725;  217.350;    0.000
555.052; 1968.725;  220.350;    0.000
555.181; 1893.725;  228.350;    0.000
555.310; 1853.725;  212.350;    0.000
555.439; 1922.725;  199.350;    0.000
555.567; 1909.725;  220.350;    0.000
555.696; 1818.725;  187.350;    0.000
555.824; 1818.725;  189.350;    0.000
555.953; 1836.725;  217.350;    0.000
556.082; 1695.725;  187.350;    0.000
556.210; 1804.725;  245.350;    0.000
556.339; 1929.725;  195.350;    0.000
556.467; 1883.725;  218.350;    0.000
556.596; 1782.725;  198.350;    0.000
556.724; 1797.725;  201.350;    0.000
556.853; 1716.725;  196.350;    0.000
556.981; 1816.725;  175.350;    0.000
557.110; 1797.725;  210.350;    0.000
557.238; 1765.725;  190.350;    0.000
557.367; 1902.725;  192.350;    0.000
557.495; 1766.725;  219.350;    0.000
557.623; 1826.725;  203.350;    0.000
557.752; 1722.725;  166.350;    0.000
557.880; 1764.725;  172.350;    0.000
558.008; 1923.725;  221.350;    0.000
558.137; 1797.725;  211.350;    0.000
558.265; 1953.725;  157.350;    0.000
558.393; 1767.725;  198.350;    0.000
558.522; 1972.725;  209.350;    0.000
558.650; 1763.725;  260.350;    0.000
558.778; 1942.725;  203.350;    0.000
558.906; 1842.725;  210.350;    0.000
559.035; 1845.725;  194.350;    0.000
559.163; 1930.725;  192.350;    0.000
559.291; 1899.725;  215.350;    0.000
559.419; 1909.725;  197.350;    0.000
559.548; 1947.725;  160.350;    0.000
559.676; 1976.725;  200.350;    0.000
559.804; 1953.725;  223.350;    0.000
559.932; 1895.725;  213.350;    0.000
560.060; 1966.725;  224.350;    0.000
560.188; 2045.725;  221.350;    0.000
560.316; 1932.725;  223.350;    0.000
560.444; 2000.725;  159.350;    0.000
560.572; 1859.725;  204.350;    0.000
560.700; 2017.725;  213.350;    0.000
560.828; 2150.725;  216.350;    0.000
560.956; 2064.725;  207.350;    0.000
561.085; 2102.725;  231.350;    0.000
561.212; 1855.725;  197.350;    0.000
561.340; 1986.725;  192.350;    0.000
561.468; 1905.725;  215.350;    0.000
561.596; 2062.725;  215.350;    0.000
561.724; 1977.725;  181.350;    0.000
561.852; 1829.725;  184.350;    0.000
561.980; 2015.725;  217.350;    0.000
562.108; 2174.725;  199.350;    0.000
562.236; 1899.725;  181.350;    0.000
562.364; 2118.725;  234.350;    0.000
562.492; 1968.725;  225.350;    0.000
562.619; 2119.725;  204.350;    0.000
562.747; 2143.725;  223.350;    0.000
562.875; 2053.725;  210.350;    0.000
563.003; 2119.725;  232.350;    0.000
563.130; 2188.725;  224.350;    0.000
563.258; 2237.725;  213.350;    0.000
563.386; 2177.725;  191.350;    0.000
563.514; 2234.725;  252.350;    0.000
563.641; 2253.725;  201.350;    0.000
563.769; 2432.725;  201.350;    0.000
563.897; 2244.725;  176.350;    0.000
564.024; 2546.725;  167.350;    0.000
564.152; 2537.725;  205.350;    0.000
564.280; 2376.725;  222.350;    0.000
564.407; 2490.725;  192.350;    0.000
564.535; 2648.725;  231.350;    0.000
564.662; 2559.725;  197.350;    0.000
564.790; 2530.725;  200.350;    0.000
564.917; 2584.725;  172.350;    0.000
565.045; 2557.725;  187.350;    0.000
565.173; 2458.725;  173.350;    0.000
565.300; 2741.725;  196.350;    0.000
565.428; 2763.725;  195.350;    0.000
565.555; 2798.725;  191.350;    0.000
565.682; 2898.725;  169.350;    0.000
565.810; 2951.725;  198.350;    0.000
565.937; 3076.725;  213.350;    0.000
566.065; 3115.725;  221.350;    0.000
566.192; 3389.725;  173.350;    0.000
566.320; 3457.725;  214.350;    0.000
566.447; 3639.725;  214.350;    0.000
566.574; 3506.725;  188.350;    0.000
566.702; 3625.725;  198.350;    0.000
566.829; 3820.725;  200.350;    0.000
566.956; 3846.725;  194.350;    0.000
567.083; 3771.725;  176.350;    0.000
567.211; 3859.725;  189.350;    0.000
567.338; 4002.725;  184.350;    0.000
567.465; 3648.725;  181.350;    0.000
567.593; 4095.725;  194.350;    0.000
567.720; 4007.725;  193.350;    0.000
567.847; 3897.725;  196.350;    0.000
567.974; 4103.725;  199.350;    0.000
568.101; 4698.725;  150.350;    0.000
568.228; 6361.725;  174.350;    0.000
568.356; 7575.725;  164.350;    0.000
568.483; 7428.725;  163.350;    0.000
568.610; 7347.725;  187.350;    0.000
568.737; 8869.725;  192.350;    0.000
568.864;10966.725;  218.350;    0.000
568.991;11061.725;  169.350;    0.000
569.118; 9494.725;  161.350;    0.000
569.245; 8215.725;  161.350;    0.000
569.372; 7360.725;  187.350;    0.000
569.499; 6659.725;  146.350;    0.000
569.626; 6032.725;  172.350;    0.000
569.753; 5571.725;  188.350;    0.000
569.880; 5181.725;  180.350;    0.000
570.007; 4680.725;  187.350;    0.000
570.134; 4591.725;  196.350;    0.000
570.261; 4308.725;  127.350;    0.000
570.388; 4191.725;  189.350;    0.000
570.515; 4174.725;  219.350;    0.000
570.642; 4018.725;  187.350;    0.000
570.768; 3847.725;  175.350;    0.000
570.895; 3574.725;  165.350;    0.000
571.022; 3643.725;  180.350;    0.000
571.149; 3507.725;  209.350;    0.000
571.276; 3133.725;  187.350;    0.000
571.402; 3369.725;  227.350;    0.000
571.529; 3309.725;  166.350;    0.000
571.656; 3093.725;  203.350;    0.000
571.783; 3125.725;  156.350;    0.000
571.909; 3096.725;  195.350;    0.000
572.036; 3038.725;  165.350;    0.000
572.163; 2914.725;  156.350;    0.000
572.289; 2818.725;  193.350;    0.000
572.416; 2740.725;  199.350;    0.000
572.543; 2784.725;  185.350;    0.000
572.669; 2729.725;  180.350;    0.000
572.796; 2787.725;  173.350;    0.000
572.922; 2763.725;  186.350;    0.000
573.049; 2642.725;  185.350;    0.000
573.176; 2656.725;  196.350;    0.000
573.302; 2682.725;  189.350;    0.000
573.429; 2649.725;  186.350;    0.000
573.555; 2591.725;  220.350;    0.000
573.682; 2523.725;  196.350;    0.000
573.808; 2386.725;  201.350;    0.000
573.935; 2451.725;  188.350;    0.000
574.061; 2508.725;  216.350;    0.000
574.188; 2553.725;  161.350;    0.000
574.314; 2513.725;  189.350;    0.000
574.440; 2435.725;  190.350;    0.000
574.567; 2371.725;  201.350;    0.000
574.693; 2346.725;  175.350;    0.000
574.820; 2580.725;  188.350;    0.000
574.946; 2616.725;  182.350;    0.000
575.072; 2537.725;  188.350;    0.000
575.198; 2541.725;  232.350;    0.000
575.325; 2521.725;  159.350;    0.000
575.451; 2364.725;  231.350;    0.000
575.577; 2556.725;  196.350;    0.000
575.704; 2484.725;  177.350;    0.000
575.830; 2524.725;  171.350;    0.000
575.956; 2520.725;  163.350;    0.000
576.082; 2422.725;  197.350;    0.000
576.208; 2336.725;  181.350;    0.000
576.335; 2344.725;  218.350;    0.000
576.461; 2322.725;  207.350;    0.000
576.587; 2320.725;  173.350;    0.000
576.713; 2363.725;  170.350;    0.000
576.839; 2512.725;  186.350;    0.000
576.965; 2516.725;  194.350;    0.000
577.091; 2473.725;  167.350;    0.000
577.217; 2432.725;  212.350;    0.000
577.343; 2353.725;  214.350;    0.000
577.469; 2452.725;  208.350;    0.000
577.596; 2492.725;  188.350;    0.000
577.722; 2560.725;  221.350;    0.000
577.848; 2316.725;  197.350;    0.000
577.974; 2582.725;  222.350;    0.000
578.099; 2358.725;  187.350;    0.000
578.225; 2462.725;  213.350;    0.000
578.351; 2346.725;  190.350;    0.000
578.477; 2382.725;  212.350;    0.000
578.603; 2619.725;  178.350;    0.000
578.729; 2619.725;  193.350;    0.000
578.855; 2501.725;  194.350;    0.000
578.981; 2543.725;  152.350;    0.000
579.107; 2447.725;  175.350;    0.000
579.232; 2579.725;  192.350;    0.000
579.358; 2663.725;  186.350;    0.000
579.484; 2604.725;  186.350;    0.000
579.610; 2609.725;  199.350;    0.000
579.735; 2691.725;  197.350;    0.000
579.861; 2565.725;  203.350;    0.000
579.987; 2799.725;  220.350;    0.000
580.113; 2750.725;  210.350;    0.000
580.238; 2622.725;  189.350;    0.000
580.364; 2759.725;  214.350;    0.000
580.490; 2778.725;  205.350;    0.000
580.615; 2735.725;  231.350;    0.000
580.741; 2737.725;  212.350;    0.000
580.867; 2825.725;  196.350;    0.000
580.992; 2845.725;  214.350;    0.000
581.118; 2919.725;  178.350;    0.000
581.243; 2887.725;  209.350;    0.000
581.369; 2834.725;  173.350;    0.000
581.494; 2882.725;  209.350;    0.000
581.620; 2808.725;  204.350;    0.000
581.745; 3035.725;  168.350;    0.000
581.871; 3167.725;  236.350;    0.000
581.996; 2981.725;  212.350;    0.000
582.122; 3239.725;  192.350;    0.000
582.247; 2976.725;  179.350;    0.000
582.373; 3257.725;  189.350;    0.000
582.498; 3191.725;  217.350;    0.000
582.624; 3314.725;  231.350;    0.000
582.749; 3353.725;  237.350;    0.000
582.874; 3418.725;  205.350;    0.000
583.000; 3412.725;  204.350;    0.000
583.125; 3591.725;  192.350;    0.000
583.250; 3619.725;  229.350;    0.000
583.376; 3614.725;  256.350;    0.000
583.501; 3697.725;  200.350;    0.000
583.626; 3676.725;  207.350;    0.000
583.751; 3701.725;  215.350;    0.000
583.877; 4125.725;  212.350;    0.000
584.002; 3865.725;  227.350;    0.000
584.127; 4276.725;  153.350;    0.000
584.252; 4126.725;  197.350;    0.000
584.377; 4100.725;  183.350;    0.000
584.503; 4518.725;  211.350;    0.000
584.628; 4654.725;  215.350;    0.000
584.753; 4682.725;  194.350;    0.000
584.878; 4771.725;  154.350;    0.000
585.003; 4844.725;  213.350;    0.000
585.128; 4911.725;  199.350;    0.000
585.253; 5235.725;  219.350;    0.000
585.378; 5393.725;  174.350;    0.000
585.503; 5583.725;  202.350;    0.000
585.628; 5770.725;  186.350;    0.000
585.753; 6033.725;  209.350;    0.000
585.878; 6137.725;  167.350;    0.000
586.003; 6374.725;  226.350;    0.000
586.128; 6689.725;  206.350;    0.000
586.253; 7029.725;  198.350;    0.000
586.378; 7076.725;  180.350;    0.000
586.503; 7800.725;  201.350;    0.000
586.628; 8051.725;  206.350;    0.000
586.753; 8790.725;  178.350;    0.000
586.878; 9066.725;  228.350;    0.000
587.003; 9740.725;  199.350;    0.000
587.127;10342.725;  194.350;    0.000
587.252;11157.725;  212.350;    0.000
587.377;11847.725;  172.350;    0.000
587.502;13069.725;  219.350;    0.000
587.627;13826.725;  247.350;    0.000
587.751;14581.725;  184.350;    0.000
587.876;16218.725;  215.350;    0.000
588.001;17727.725;  163.350;    0.000
588.125;19566.725;  185.350;    0.000
588.250;21811.725;  171.350;    0.000
588.375;24294.725;  255.350;    0.000
588.499;27099.725;  185.350;    0.000
588.624;31229.725;  167.350;    0.000
588.749;35675.727;  170.350;    0.000
588.873;38223.727;  173.350;    0.000
588.998;37711.727;  203.350;    0.000
589.122;39909.727;  184.350;    0.000
589.247;42190.727;  217.350;    0.000
589.372;39961.727;  250.350;    0.000
589.496;39089.727;  200.350;    0.000
589.621;39429.727;  199.350;    0.000
589.745;39588.727;  235.350;    0.000
589.870;36523.727;  206.350;    0.000
589.994;31912.725;  194.350;    0.000
590.118;27772.725;  177.350;    0.000
590.243;24432.725;  231.350;    0.000
590.367;22304.725;  173.350;    0.000
590.492;20309.725;  170.350;    0.000
590.616;18260.725;  182.350;    0.000
590.740;16634.725;  178.350;    0.000
590.865;15008.725;  219.350;    0.000
590.989;14114.725;  210.350;    0.000
591.114;13142.725;  194.350;    0.000
591.238;11986.725;  154.350;    0.000
591.362;11605.725;  210.350;    0.000
591.486;10954.725;  215.350;    0.000
591.611;10255.725;  194.350;    0.000
591.735; 9541.725;  206.350;    0.000
591.859; 9169.725;  188.350;    0.000
591.983; 8754.725;  202.350;    0.000
592.107; 8561.725;  175.350;    0.000
592.232; 7915.725;  214.350;    0.000
592.356; 7600.725;  232.350;    0.000
592.480; 7378.725;  203.350;    0.000
592.604; 7009.725;  204.350;    0.000
592.728; 6950.725;  187.350;    0.000
592.852; 6559.725;  204.350;    0.000
592.976; 6412.725;  163.350;    0.000
593.100; 6023.725;  177.350;    0.000
593.224; 5738.725;  209.350;    0.000
593.349; 5811.725;  255.350;    0.000
593.473; 5409.725;  225.350;    0.000
593.597; 5546.725;  211.350;    0.000
593.721; 5097.725;  222.350;    0.000
593.844; 4975.725;  202.350;    0.000
593.968; 5077.725;  223.350;    0.000
594.092; 4876.725;  162.350;    0.000
594.216; 4675.725;  211.350;    0.000
594.340; 4522.725;  198.350;    0.000
594.464; 4347.725;  242.350;    0.000
594.588; 4364.725;  213.350;    0.000
594.712; 4342.725;  198.350;    0.000
594.836; 4207.725;  207.350;    0.000
594.959; 4221.725;  192.350;    0.000
595.083; 3909.725;  180.350;    0.000
595.207; 3872.725;  242.350;    0.000
595.331; 3665.725;  172.350;    0.000
595.455; 3737.725;  185.350;    0.000
595.578; 3674.725;  221.350;    0.000
595.702; 3490.725;  233.350;    0.000
595.826; 3378.725;  164.350;    0.000
595.949; 3562.725;  215.350;    0.000
596.073; 3468.725;  198.350;    0.000
596.197; 3261.725;  266.350;    0.000
596.320; 3447.725;  236.350;    0.000
596.444; 3057.725;  215.350;    0.000
596.568; 3173.725;  213.350;    0.000
596.691; 3100.725;  198.350;    0.000
596.815; 3214.725;  210.350;    0.000
596.938; 3219.725;  207.350;    0.000
597.062; 3152.725;  187.350;    0.000
597.186; 2972.725;  234.350;    0.000
597.309; 2996.725;  176.350;    0.000
597.433; 2967.725;  222.350;    0.000
597.556; 2847.725;  219.350;    0.000
597.680; 2842.725;  227.350;    0.000
597.803; 2876.725;  240.350;    0.000
597.926; 2760.725;  227.350;    0.000
598.050; 2739.725;  198.350;    0.000
598.173; 2819.725;  235.350;    0.000
598.297; 2761.725;  233.350;    0.000
598.420; 2548.725;  211.350;    0.000
598.543; 2608.725;  207.350;    0.000
598.667; 2535.725;  232.350;    0.000
598.790; 2545.725;  205.350;    0.000
598.913; 2644.725;  200.350;    0.000
599.037; 2550.725;  193.350;    0.000
599.160; 2718.725;  199.350;    0.000
599.283; 2719.725;  237.350;    0.000
599.406; 2536.725;  168.350;    0.000
599.530; 2568.725;  231.350;    0.000
599.653; 2433.725;  220.350;    0.000
599.776; 2303.725;  203.350;    0.000
599.899; 2477.725;  202.350;    0.000
600.022; 2392.725;  189.350;    0.000
600.145; 2504.725;  175.350;    0.000
600.269; 2280.725;  235.350;    0.000
600.392; 2305.725;  213.350;    0.000
600.515; 2244.725;  236.350;    0.000
600.638; 2196.725;  198.350;    0.000
600.761; 2350.725;  195.350;    0.000
600.884; 2172.725;  221.350;    0.000
601.007; 2270.725;  236.350;    0.000
601.130; 2228.725;  223.350;    0.000
601.253; 2268.725;  250.350;    0.000
601.376; 2237.725;  195.350;    0.000
601.499; 2210.725;  168.350;    0.000
601.622; 2211.725;  221.350;    0.000
601.745; 2142.725;  223.350;    0.000
601.868; 2160.725;  204.350;    0.000
601.991; 2020.725;  207.350;    0.000
602.113; 2169.725;  223.350;    0.000
602.236; 2217.725;  182.350;    0.000
602.359; 2113.725;  235.350;    0.000
602.482; 2104.725;  173.350;    0.000
602.605; 2030.725;  227.350;    0.000
602.728; 2050.725;  227.350;    0.000
602.850; 2052.725;  250.350;    0.000
602.973; 2070.725;  195.350;    0.000
603.096; 1986.725;  270.350;    0.000
603.219; 2099.725;  197.350;    0.000
603.341; 2111.725;  195.350;    0.000
603.464; 2064.725;  204.350;    0.000
603.587; 1947.725;  243.350;    0.000
603.709; 2029.725;  188.350;    0.000
603.832; 2109.725;  214.350;    0.000
603.955; 1907.725;  213.350;    0.000
604.077; 2028.725;  201.350;    0.000
604.200; 2073.725;  209.350;    0.000
604.323; 2048.725;  201.350;    0.000
604.445; 1876.725;  202.350;    0.000
604.568; 2017.725;  230.350;    0.000
604.690; 1880.725;  212.350;    0.000
604.813; 1948.725;  226.350;    0.000
604.935; 2042.725;  216.350;    0.000
605.058; 1886.725;  182.350;    0.000
605.180; 2026.725;  204.350;    0.000
605.303; 1808.725;  199.350;    0.000
605.425; 1936.725;  178.350;    0.000
605.547; 1883.725;  209.350;    0.000
605.670; 1831.725;  206.350;    0.000
605.792; 1811.725;  199.350;    0.000
605.915; 1872.725;  221.350;    0.000
606.037; 1790.725;  222.350;    0.000
606.159; 1841.725;  160.350;    0.000
606.282; 1919.725;  188.350;    0.000
606.404; 1861.725;  205.350;    0.000
606.526; 1842.725;  228.350;    0.000
606.648; 1819.725;  184.350;    0.000
606.771; 1858.725;  195.350;    0.000
606.893; 1907.725;  193.350;    0.000
607.015; 1796.725;  202.350;    0.000
607.137; 1767.725;  189.350;    0.000
607.260; 1779.725;  201.350;    0.000
607.382; 1867.725;  211.350;    0.000
607.504; 1823.725;  206.350;    0.000
607.626; 1840.725;  236.350;    0.000
607.748; 1909.725;  228.350;    0.000
607.870; 1793.725;  212.350;    0.000
607.992; 1873.725;  201.350;    0.000
608.114; 1797.725;  214.350;    0.000
608.237; 1886.725;  235.350;    0.000
608.359; 1816.725;  215.350;    0.000
608.481; 1652.725;  183.350;    0.000
608.603; 1780.725;  206.350;    0.000
608.725; 1670.725;  238.350;    0.000
608.847; 1757.725;  237.350;    0.000
608.969; 1772.725;  227.350;    0.000
609.090; 1852.725;  205.350;    0.000
609.212; 1676.725;  182.350;    0.000
609.334; 1823.725;  210.350;    0.000
609.456; 1772.725;  208.350;    0.000
609.578; 1690.725;  195.350;    0.000
609.700; 1792.725;  196.350;    0.000
609.822; 1530.725;  184.350;    0.000
609.944; 1711.725;  258.350;    0.000
610.065; 1664.725;  219.350;    0.000
610.187; 1743.725;  217.350;    0.000
610.309; 1772.725;  179.350;    0.000
610.431; 1649.725;  189.350;    0.000
610.552; 1729.725;  212.350;    0.000
610.674; 1854.725;  211.350;    0.000
610.796; 1671.725;  168.350;    0.000
610.918; 1648.725;  201.350;    0.000
611.039; 1722.725;  212.350;    0.000
611.161; 1798.725;  207.350;    0.000
611.282; 1697.725;  219.350;    0.000
611.404; 1753.725;  243.350;    0.000
611.526; 1810.725;  180.350;    0.000
611.647; 1799.725;  235.350;    0.000
611.769; 1597.725;  189.350;    0.000
611.890; 1670.725;  201.350;    0.000
612.012; 1720.725;  191.350;    0.000
612.133; 1759.725;  227.350;    0.000
612.255; 1733.725;  191.350;    0.000
612.377; 1668.725;  192.350;    0.000
612.498; 1737.725;  202.350;    0.000
612.619; 1654.725;  207.350;    0.000
612.741; 1635.725;  241.350;    0.000
612.862; 1742.725;  219.350;    0.000
612.984; 1600.725;  203.350;    0.000
613.105; 1698.725;  228.350;    0.000
613.226; 1749.725;  199.350;    0.000
613.348; 1709.725;  238.350;    0.000
613.469; 1769.725;  239.350;    0.000
613.590; 1598.725;  183.350;    0.000
613.712; 1623.725;  245.350;    0.000
613.833; 1666.725;  241.350;    0.000
613.954; 1882.725;  208.350;    0.000
614.076; 1684.725;  181.350;    0.000
614.197; 1715.725;  217.350;    0.000
614.318; 1797.725;  182.350;    0.000
614.439; 1739.725;  204.350;    0.000
614.560; 1839.725;  219.350;    0.000
614.682; 1636.725;  238.350;    0.000
614.803; 1661.725;  240.350;    0.000
614.924; 1784.725;  212.350;    0.000
615.045; 1867.725;  225.350;    0.000
615.166; 1877.725;  227.350;    0.000
615.287; 2152.725;  230.350;    0.000
615.408; 3152.725;  187.350;    0.000
615.529; 3572.725;  211.350;    0.000
615.650; 3129.725;  202.350;    0.000
615.771; 2734.725;  203.350;    0.000
615.892; 2552.725;  222.350;    0.000
616.013; 3634.725;  215.350;    0.000
616.134; 5144.725;  193.350;    0.000
616.255; 4828.725;  242.350;    0.000
616.376; 3641.725;  205.350;    0.000
616.497; 2884.725;  200.350;    0.000
616.618; 2627.725;  177.350;    0.000
616.739; 2288.725;  218.350;    0.000
616.860; 2278.725;  214.350;    0.000
616.981; 2180.725;  208.350;    0.000
617.102; 2020.725;  203.350;    0.000
617.222; 1983.725;  212.350;    0.000
617.343; 1822.725;  162.350;    0.000
617.464; 1953.725;  230.350;    0.000
617.585; 1812.725;  197.350;    0.000
617.705; 1808.725;  209.350;    0.000
617.826; 1803.725;  229.350;    0.000
617.947; 1587.725;  216.350;    0.000
618.068; 1712.725;  192.350;    0.000
618.188; 1666.725;  230.350;    0.000
618.309; 1770.725;  238.350;    0.000
618.430; 1777.725;  242.350;    0.000
618.550; 1671.725;  235.350;    0.000
618.671; 1640.725;  207.350;    0.000
618.791; 1641.725;  228.350;    0.000
618.912; 1695.725;  266.350;    0.000
619.033; 1592.725;  232.350;    0.000
619.153; 1667.725;  207.350;    0.000
619.274; 1596.725;  193.350;    0.000
619.394; 1658.725;  237.350;    0.000
619.515; 1577.725;  216.350;    0.000
619.635; 1620.725;  203.350;    0.000
619.756; 1547.725;  227.350;    0.000
619.876; 1606.725;  244.350;    0.000
619.996; 1581.725;  220.350;    0.000
620.117; 1654.725;  231.350;    0.000
620.237; 1592.725;  235.350;    0.000
620.358; 1569.725;  241.350;    0.000
620.478; 1653.725;  237.350;    0.000
620.598; 1624.725;  255.350;    0.000
620.719; 1587.725;  243.350;    0.000
620.839; 1666.725;  237.350;    0.000
620.959; 1650.725;  216.350;    0.000
621.079; 1602.725;  240.350;    0.000
621.200; 1474.725;  195.350;    0.000
621.320; 1429.725;  287.350;    0.000
621.440; 1519.725;  236.350;    0.000
621.560; 1511.725;  231.350;    0.000
621.681; 1567.725;  177.350;    0.000
621.801; 1601.725;  257.350;    0.000
621.921; 1528.725;  241.350;    0.000
622.041; 1565.725;  239.350;    0.000
622.161; 1529.725;  233.350;    0.000
622.281; 1543.725;  204.350;    0.000
622.401; 1594.725;  204.350;    0.000
622.521; 1456.725;  242.350;    0.000
622.641; 1510.725;  205.350;    0.000
622.761; 1494.725;  254.350;    0.000
622.882; 1549.725;  225.350;    0.000
623.002; 1535.725;  255.350;    0.000
623.121; 1420.725;  244.350;    0.000
623.241; 1531.725;  238.350;    0.000
623.361; 1357.725;  208.350;    0.000
623.481; 1388.725;  194.350;    0.000
623.601; 1485.725;  249.350;    0.000
623.721; 1494.725;  229.350;    0.000
623.841; 1531.725;  244.350;    0.000
623.961; 1512.725;  253.350;    0.000
624.081; 1474.725;  218.350;    0.000
624.201; 1442.725;  218.350;    0.000
624.320; 1465.725;  212.350;    0.000
624.440; 1445.725;  251.350;    0.000
624.560; 1504.725;  244.350;    0.000
624.680; 1533.725;  224.350;    0.000
624.799; 1407.725;  198.350;    0.000
624.919; 1464.725;  215.350;    0.000
625.039; 1468.725;  225.350;    0.000
625.159; 1490.725;  209.350;    0.000
625.278; 1514.725;  211.350;    0.000
625.398; 1519.725;  260.350;    0.000
625.518; 1378.725;  205.350;    0.000
625.637; 1498.725;  240.350;    0.000
625.757; 1481.725;  208.350;    0.000
625.876; 1445.725;  221.350;    0.000
625.996; 1445.725;  245.350;    0.000
626.115; 1499.725;  196.350;    0.000
626.235; 1393.725;  241.350;    0.000
626.354; 1548.725;  231.350;    0.000
626.474; 1372.725;  220.350;    0.000
626.594; 1470.725;  210.350;    0.000
626.713; 1415.725;  229.350;    0.000
626.832; 1502.725;  236.350;    0.000
626.952; 1446.725;  223.350;    0.000
627.071; 1336.725;  211.350;    0.000
627.191; 1441.725;  220.350;    0.000
627.310; 1447.725;  206.350;    0.000
627.429; 1417.725;  223.350;    0.000
627.549; 1315.725;  205.350;    0.000
627.668; 1406.725;  227.350;    0.000
627.787; 1358.725;  221.350;    0.000
627.907; 1397.725;  194.350;    0.000
628.026; 1344.725;  231.350;    0.000
628.145; 1315.725;  210.350;    0.000
628.264; 1403.725;  245.350;    0.000
628.384; 1477.725;  234.350;    0.000
628.503; 1340.725;  210.350;    0.000
628.622; 1292.725;  223.350;    0.000
628.741; 1421.725;  210.350;    0.000
628.860; 1387.725;  222.350;    0.000
628.980; 1418.725;  184.350;    0.000
629.099; 1348.725;  234.350;    0.000
629.218; 1396.725;  157.350;    0.000
629.337; 1424.725;  220.350;    0.000
629.456; 1393.725;  210.350;    0.000
629.575; 1499.725;  239.350;    0.000
629.694; 1340.725;  216.350;    0.000
629.813; 1324.725;  218.350;    0.000
629.932; 1282.725;  175.350;    0.000
630.051; 1366.725;  218.350;    0.000
630.170; 1513.725;  215.350;    0.000
630.289; 1398.725;  203.350;    0.000
630.408; 1388.725;  180.350;    0.000
630.527; 1341.725;  249.350;    0.000
630.646; 1273.725;  186.350;    0.000
630.764; 1358.725;  189.350;    0.000
630.883; 1509.725;  221.350;    0.000
631.002; 1298.725;  191.350;    0.000
631.121; 1368.725;  210.350;    0.000
631.240; 1312.725;  256.350;    0.000
631.359; 1447.725;  246.350;    0.000
631.477; 1380.725;  230.350;    0.000
631.596; 1529.725;  229.350;    0.000
631.715; 1478.725;  242.350;    0.000
631.834; 1364.725;  261.350;    0.000
631.952; 1397.725;  250.350;    0.000
632.071; 1358.725;  218.350;    0.000
632.190; 1276.725;  200.350;    0.000
632.308; 1303.725;  226.350;    0.000
632.427; 1258.725;  234.350;    0.000
632.546; 1554.725;  250.350;    0.000
632.664; 1409.725;  224.350;    0.000
632.783; 1406.725;  211.350;    0.000
632.901; 1495.725;  254.350;    0.000
633.020; 1381.725;  204.350;    0.000
633.138; 1371.725;  228.350;    0.000
633.257; 1424.725;  219.350;    0.000
633.375; 1409.725;  243.350;    0.000
633.494; 1379.725;  242.350;    0.000
633.612; 1396.725;  227.350;    0.000
633.731; 1349.725;  221.350;    0.000
633.849; 1346.725;  239.350;    0.000
633.968; 1262.725;  219.350;    0.000
634.086; 1351.725;  218.350;    0.000
634.204; 1366.725;  203.350;    0.000
634.323; 1366.725;  222.350;    0.000
634.441; 1271.725;  257.350;    0.000
634.559; 1279.725;  201.350;    0.000
634.678; 1319.725;  214.350;    0.000
634.796; 1463.725;  207.350;    0.000
634.914; 1229.725;  226.350;    0.000
635.032; 1299.725;  250.350;    0.000
635.151; 1297.725;  228.350;    0.000
635.269; 1265.725;  188.350;    0.000
635.387; 1339.725;  247.350;    0.000
635.505; 1238.725;  250.350;    0.000
635.623; 1267.725;  230.350;    0.000
635.742; 1302.725;  209.350;    0.000
635.860; 1376.725;  239.350;    0.000
635.978; 1363.725;  213.350;    0.000
636.096; 1367.725;  176.350;    0.000
636.214; 1295.725;  246.350;    0.000
636.332; 1319.725;  224.350;    0.000
636.450; 1322.725;  215.350;    0.000
636.568; 1337.725;  246.350;    0.000
636.686; 1169.725;  225.350;    0.000
636.804; 1279.725;  218.350;    0.000
636.922; 1311.725;  195.350;    0.000
637.040; 1307.725;  213.350;    0.000
637.158; 1290.725;  228.350;    0.000
637.276; 1290.725;  206.350;    0.000
637.394; 1287.725;  224.350;    0.000
637.512; 1345.725;  245.350;    0.000
637.629; 1379.725;  234.350;    0.000
637.747; 1317.725;  233.350;    0.000
637.865; 1223.725;  236.350;    0.000
637.983; 1283.725;  235.350;    0.000
638.101; 1228.725;  232.350;    0.000
638.218; 1237.725;  256.350;    0.000
638.336; 1354.725;  216.350;    0.000
638.454; 1265.725;  255.350;    0.000
638.572; 1419.725;  237.350;    0.000
638.689; 1166.725;  271.350;    0.000
638.807; 1336.725;  243.350;    0.000
638.925; 1327.725;  259.350;    0.000
639.042; 1254.725;  185.350;    0.000
639.160; 1333.725;  250.350;    0.000
639.278; 1185.725;  207.350;    0.000
639.395; 1262.725;  243.350;    0.000
639.513; 1325.725;  235.350;    0.000
639.630; 1281.725;  230.350;    0.000
639.748; 1186.725;  192.350;    0.000
639.865; 1322.725;  219.350;    0.000
639.983; 1219.725;  183.350;    0.000
640.100; 1292.725;  251.350;    0.000
640.218; 1210.725;  246.350;    0.000
640.335; 1297.725;  227.350;    0.000
640.453; 1281.725;  259.350;    0.000
640.570; 1263.725;  251.350;    0.000
640.688; 1266.725;  223.350;    0.000
640.805; 1281.725;  246.350;    0.000
640.922; 1274.725;  249.350;    0.000
641.040; 1294.725;  257.350;    0.000
641.157; 1229.725;  207.350;    0.000
641.274; 1347.725;  241.350;    0.000
641.391; 1326.725;  246.350;    0.000
641.509; 1187.725;  216.350;    0.000
641.626; 1231.725;  252.350;    0.000
641.743; 1278.725;  215.350;    0.000
641.860; 1269.725;  234.350;    0.000
641.978; 1215.725;  216.350;    0.000
642.095; 1191.725;  247.350;    0.000
642.212; 1243.725;  199.350;    0.000
642.329; 1175.725;  237.350;    0.000
642.446; 1256.725;  222.350;    0.000
642.563; 1365.725;  287.350;    0.000
642.681; 1137.725;  261.350;    0.000
642.798; 1219.725;  251.350;    0.000
642.915; 1173.725;  238.350;    0.000
643.032; 1246.725;  246.350;    0.000
643.149; 1222.725;  239.350;    0.000
643.266; 1308.725;  238.350;    0.000
643.383; 1163.725;  231.350;    0.000
643.500; 1170.725;  212.350;    0.000
643.617; 1271.725;  236.350;    0.000
643.734; 1223.725;  239.350;    0.000
643.850; 1278.725;  234.350;    0.000
643.967; 1299.725;  253.350;    0.000
644.084; 1161.725;  253.350;    0.000
644.201; 1263.725;  227.350;    0.000
644.318; 1275.725;  247.350;    0.000
644.435; 1221.725;  264.350;    0.000
644.552; 1207.725;  230.350;    0.000
644.668; 1310.725;  250.350;    0.000
644.785; 1369.725;  235.350;    0.000
644.902; 1367.725;  227.350;    0.000
645.019; 1172.725;  203.350;    0.000
645.135; 1257.725;  210.350;    0.000
645.252; 1165.725;  206.350;    0.000
645.369; 1180.725;  235.350;    0.000
645.485; 1187.725;  223.350;    0.000
645.602; 1332.725;  205.350;    0.000
645.719; 1234.725;  222.350;    0.000
645.835; 1330.725;  246.350;    0.000
645.952; 1230.725;  239.350;    0.000
646.068; 1327.725;  225.350;    0.000
646.185; 1296.725;  248.350;    0.000
646.302; 1259.725;  226.350;    0.000
646.418; 1223.725;  228.350;    0.000
646.535; 1391.725;  219.350;    0.000
646.651; 1217.725;  204.350;    0.000
646.768; 1250.725;  247.350;    0.000
646.884; 1227.725;  228.350;    0.000
647.000; 1259.725;  223.350;    0.000
647.117; 1255.725;  251.350;    0.000
647.233; 1278.725;  223.350;    0.000
647.350; 1187.725;  237.350;    0.000
647.466; 1431.725;  223.350;    0.000
647.582; 1273.725;  243.350;    0.000
647.699; 1391.725;  223.350;    0.000
647.815; 1273.725;  215.350;    0.000
647.931; 1211.725;  214.350;    0.000
648.047; 1277.725;  199.350;    0.000
648.164; 1270.725;  233.350;    0.000
648.280; 1373.725;  231.350;    0.000
648.396; 1274.725;  215.350;    0.000
648.512; 1289.725;  252.350;    0.000
648.629; 1250.725;  237.350;    0.000
648.745; 1277.725;  216.350;    0.000
648.861; 1274.725;  207.350;    0.000
648.977; 1295.725;  247.350;    0.000
649.093; 1268.725;  221.350;    0.000
649.209; 1305.725;  232.350;    0.000
649.325; 1354.725;  245.350;    0.000
649.441; 1247.725;  253.350;    0.000
649.557; 1349.725;  221.350;    0.000
649.673; 1246.725;  182.350;    0.000
649.789; 1342.725;  245.350;    0.000
649.905; 1219.725;  204.350;    0.000
650.021; 1323.725;  270.350;    0.000
650.137; 1256.725;  218.350;    0.000
650.253; 1391.725;  268.350;    0.000
650.369; 1333.725;  222.350;    0.000
650.485; 1309.725;  215.350;    0.000
650.601; 1293.725;  218.350;    0.000
650.717; 1412.725;  208.350;    0.000
650.833; 1365.725;  263.350;    0.000
650.948; 1372.725;  266.350;    0.000
651.064; 1324.725;  271.350;    0.000
651.180; 1384.725;  232.350;    0.000
651.296; 1356.725;  237.350;    0.000
651.411; 1344.725;  233.350;    0.000
651.527; 1318.725;  232.350;    0.000
651.643; 1362.725;  259.350;    0.000
651.759; 1276.725;  257.350;    0.000
651.874; 1350.725;  216.350;    0.000
651.990; 1292.725;  234.350;    0.000
652.105; 1291.725;  195.350;    0.000
652.221; 1287.725;  245.350;    0.000
652.337; 1286.725;  210.350;    0.000
652.452; 1297.725;  259.350;    0.000
652.568; 1374.725;  202.350;    0.000
652.683; 1369.725;  233.350;    0.000
652.799; 1387.725;  230.350;    0.000
652.914; 1229.725;  198.350;    0.000
653.030; 1434.725;  203.350;    0.000
653.145; 1349.725;  228.350;    0.000
653.261; 1350.725;  244.350;    0.000
653.376; 1359.725;  214.350;    0.000
653.492; 1294.725;  246.350;    0.000
653.607; 1439.725;  241.350;    0.000
653.722; 1386.725;  257.350;    0.000
653.838; 1499.725;  265.350;    0.000
653.953; 1339.725;  252.350;    0.000
654.068; 1517.725;  270.350;    0.000
654.184; 1545.725;  248.350;    0.000
654.299; 1555.725;  226.350;    0.000
654.414; 1427.725;  190.350;    0.000
654.530; 1445.725;  263.350;    0.000
654.645; 1508.725;  240.350;    0.000
654.760; 1662.725;  243.350;    0.000
654.875; 1617.725;  210.350;    0.000
654.990; 1797.725;  250.350;    0.000
655.106; 1658.725;  277.350;    0.000
655.221; 1760.725;  249.350;    0.000
655.336; 1789.725;  239.350;    0.000
655.451; 1808.725;  226.350;    0.000
655.566; 1860.725;  236.350;    0.000
655.681; 1981.725;  272.350;    0.000
655.796; 1976.725;  224.350;    0.000
655.911; 1914.725;  247.350;    0.000
656.026; 2116.725;  240.350;    0.000
656.141; 2226.725;  239.350;    0.000
656.256; 2246.725;  241.350;    0.000
656.371; 2374.725;  213.350;    0.000
656.486; 2331.725;  275.350;    0.000
656.601; 2384.725;  225.350;    0.000
656.716; 2041.725;  239.350;    0.000
656.831; 2203.725;  260.350;    0.000
656.946; 2089.725;  250.350;    0.000
657.060; 1967.725;  257.350;    0.000
657.175; 2044.725;  256.350;    0.000
657.290; 1938.725;  255.350;    0.000
657.405; 1883.725;  303.350;    0.000
657.520; 1686.725;  272.350;    0.000
657.634; 1799.725;  268.350;    0.000
657.749; 1746.725;  261.350;    0.000
657.864; 1783.725;  235.350;    0.000
657.979; 1617.725;  257.350;    0.000
658.093; 1587.725;  243.350;    0.000
658.208; 1659.725;  281.350;    0.000
658.323; 1571.725;  240.350;    0.000
658.437; 1573.725;  285.350;    0.000
658.552; 1526.725;  262.350;    0.000
658.666; 1601.725;  269.350;    0.000
658.781; 1563.725;  244.350;    0.000
658.895; 1441.725;  259.350;    0.000
659.010; 1490.725;  254.350;    0.000
659.125; 1613.725;  210.350;    0.000
659.239; 1532.725;  212.350;    0.000
659.353; 1447.725;  269.350;    0.000
659.468; 1342.725;  269.350;    0.000
659.582; 1485.725;  244.350;    0.000
659.697; 1392.725;  262.350;    0.000
659.811; 1420.725;  271.350;    0.000
659.926; 1319.725;  232.350;    0.000
660.040; 1445.725;  250.350;    0.000
660.154; 1366.725;  209.350;    0.000
660.269; 1470.725;  212.350;    0.000
660.383; 1298.725;  237.350;    0.000
660.497; 1333.725;  231.350;    0.000
660.612; 1338.725;  232.350;    0.000
660.726; 1471.725;  276.350;    0.000
660.840; 1361.725;  235.350;    0.000
660.954; 1341.725;  224.350;    0.000
661.068; 1302.725;  241.350;    0.000
661.183; 1265.725;  223.350;    0.000
661.297; 1297.725;  255.350;    0.000
661.411; 1208.725;  223.350;    0.000
661.525; 1296.725;  249.350;    0.000
661.639; 1269.725;  264.350;    0.000
661.753; 1306.725;  225.350;    0.000
661.867; 1326.725;  245.350;    0.000
661.981; 1288.725;  225.350;    0.000
662.095; 1274.725;  262.350;    0.000
662.209; 1328.725;  225.350;    0.000
662.323; 1273.725;  228.350;    0.000
662.437; 1241.725;  230.350;    0.000
662.551; 1230.725;  234.350;    0.000
662.665; 1157.725;  212.350;    0.000
662.779; 1250.725;  254.350;    0.000
662.893; 1332.725;  269.350;    0.000
663.007; 1204.725;  196.350;    0.000
663.121; 1251.725;  262.350;    0.000
663.235; 1286.725;  263.350;    0.000
663.349; 1211.725;  242.350;    0.000
663.462; 1132.725;  234.350;    0.000
663.576; 1126.725;  219.350;    0.000
663.690; 1195.725;  234.350;    0.000
663.804; 1151.725;  205.350;    0.000
663.917; 1145.725;  224.350;    0.000
664.031; 1198.725;  208.350;    0.000
664.145; 1163.725;  241.350;    0.000
664.258; 1137.725;  188.350;    0.000
664.372; 1097.725;  214.350;    0.000
664.486; 1070.725;  203.350;    0.000
664.599; 1103.725;  217.350;    0.000
664.713; 1181.725;  286.350;    0.000
664.827; 1150.725;  199.350;    0.000
664.940; 1204.725;  250.350;    0.000
665.054; 1193.725;  261.350;    0.000
665.167;  999.725;  258.350;    0.000
665.281; 1156.725;  234.350;    0.000
665.394; 1105.725;  213.350;    0.000
665.508; 1206.725;  222.350;    0.000
665.621; 1222.725;  254.350;    0.000
665.735; 1077.725;  252.350;    0.000
665.848; 1176.725;  248.350;    0.000
665.961; 1136.725;  234.350;    0.000
666.075; 1239.725;  262.350;    0.000
666.188; 1179.725;  270.350;    0.000
666.301; 1200.725;  237.350;    0.000
666.415; 1148.725;  245.350;    0.000
666.528; 1146.725;  248.350;    0.000
666.641; 1047.725;  210.350;    0.000
666.755; 1079.725;  218.350;    0.000
666.868; 1132.725;  224.350;    0.000
666.981; 1130.725;  244.350;    0.000
667.094; 1085.725;  279.350;    0.000
667.207; 1139.725;  190.350;    0.000
667.321; 1019.725;  210.350;    0.000
667.434; 1060.725;  205.350;    0.000
667.547; 1103.725;  253.350;    0.000
667.660; 1098.725;  243.350;    0.000
667.773; 1027.725;  242.350;    0.000
667.886; 1051.725;  218.350;    0.000
667.999; 1026.725;  226.350;    0.000
668.112; 1081.725;  258.350;    0.000
668.225; 1087.725;  243.350;    0.000
668.338; 1085.725;  224.350;    0.000
668.451;  997.725;  250.350;    0.000
668.564; 1093.725;  260.350;    0.000
668.677;  988.725;  204.350;    0.000
668.790; 1043.725;  229.350;    0.000
668.903; 1136.725;  269.350;    0.000
669.016; 1022.725;  228.350;    0.000
669.129;  996.725;  253.350;    0.000
669.242; 1036.725;  245.350;    0.000
669.354; 1069.725;  234.350;    0.000
669.467; 1014.725;  256.350;    0.000
669.580; 1045.725;  223.350;    0.000
669.693; 1104.725;  252.350;    0.000
669.806; 1022.725;  212.350;    0.000
669.918; 1058.725;  228.350;    0.000
670.031; 1071.725;  265.350;    0.000
670.144; 1010.725;  255.350;    0.000
670.256; 1056.725;  229.350;    0.000
670.369; 1027.725;  301.350;    0.000
670.482; 1003.725;  263.350;    0.000
670.594;  969.725;  246.350;    0.000
670.707; 1035.725;  255.350;    0.000
670.820; 1004.725;  256.350;    0.000
670.932; 1067.725;  210.350;    0.000
671.045; 1013.725;  249.350;    0.000
671.157; 1046.725;  254.350;    0.000
671.270; 1061.725;  265.350;    0.000
671.382; 1002.725;  219.350;    0.000
671.495; 1085.725;  242.350;    0.000
671.607; 1052.725;  266.350;    0.000
671.720; 1043.725;  238.350;    0.000
671.832; 1024.725;  220.350;    0.000
671.944; 1045.725;  251.350;    0.000
672.057;  982.725;  232.350;    0.000
672.169; 1030.725;  240.350;    0.000
672.281; 1079.725;  270.350;    0.000
672.394; 1080.725;  257.350;    0.000
672.506; 1072.725;  247.350;    0.000
672.618; 1079.725;  229.350;    0.000
672.731;  981.725;  227.350;    0.000
672.843; 1023.725;  282.350;    0.000
672.955; 1094.725;  262.350;    0.000
673.067; 1026.725;  277.350;    0.000
673.180; 1047.725;  280.350;    0.000
673.292; 1016.725;  241.350;    0.000
673.404;  981.725;  234.350;    0.000
673.516;  993.725;  224.350;    0.000
673.628; 1089.725;  272.350;    0.000
673.740;  933.725;  249.350;    0.000
673.852; 1052.725;  288.350;    0.000
673.964; 1072.725;  278.350;    0.000
674.076;  998.725;  273.350;    0.000
674.188;  978.725;  251.350;    0.000
674.300;  934.725;  244.350;    0.000
674.412; 1074.725;  267.350;    0.000
674.524; 1026.725;  276.350;    0.000
674.636; 1041.725;  234.350;    0.000
674.748;  969.725;  267.350;    0.000
674.860; 1017.725;  255.350;    0.000
674.972; 1077.725;  253.350;    0.000
675.084;  991.725;  253.350;    0.000
675.196; 1002.725;  300.350;    0.000
675.307; 1092.725;  307.350;    0.000
675.419;  970.725;  245.350;    0.000
675.531; 1084.725;  292.350;    0.000
675.643;  947.725;  244.350;    0.000
675.755;  945.725;  265.350;    0.000
675.866; 1044.725;  281.350;    0.000
675.978;  925.725;  266.350;    0.000
676.090; 1014.725;  267.350;    0.000
676.201;  979.725;  265.350;    0.000
676.313;  970.725;  222.350;    0.000
676.425; 1014.725;  248.350;    0.000
676.536;  960.725;  234.350;    0.000
676.648;  981.725;  261.350;    0.000
676.759;  985.725;  280.350;    0.000
676.871; 1039.725;  260.350;    0.000
676.983; 1019.725;  277.350;    0.000
677.094;  964.725;  252.350;    0.000
677.206; 1012.725;  238.350;    0.000
677.317; 1024.725;  269.350;    0.000
677.429;  987.725;  245.350;    0.000
677.540;  965.725;  244.350;    0.000
677.651;  856.725;  225.350;    0.000
677.763; 1014.725;  216.350;    0.000
677.874;  954.725;  226.350;    0.000
677.986;  973.725;  234.350;    0.000
678.097;  980.725;  237.350;    0.000
678.208;  972.725;  278.350;    0.000
678.320;  971.725;  243.350;    0.000
678.431;  985.725;  248.350;    0.000
678.542;  972.725;  240.350;    0.000
678.653;  880.725;  250.350;    0.000
678.765; 1000.725;  258.350;    0.000
678.876;  955.725;  221.350;    0.000
678.987;  908.725;  229.350;    0.000
679.098;  892.725;  233.350;    0.000
679.209;  940.725;  274.350;    0.000
679.320;  896.725;  216.350;    0.000
679.432;  961.725;  246.350;    0.000
679.543;  874.725;  226.350;    0.000
679.654;  880.725;  232.350;    0.000
679.765;  972.725;  246.350;    0.000
679.876;  952.725;  263.350;    0.000
679.987;  882.725;  216.350;    0.000
680.098;  875.725;  262.350;    0.000
680.209;  978.725;  219.350;    0.000
680.320;  908.725;  232.350;    0.000
680.431;  862.725;  261.350;    0.000
680.542;  885.725;  219.350;    0.000
680.653;  949.725;  238.350;    0.000
680.763;  809.725;  191.350;    0.000
680.874;  890.725;  267.350;    0.000
680.985;  839.725;  240.350;    0.000
681.096;  856.725;  251.350;    0.000
681.207; 1022.725;  232.350;    0.000
681.318;  988.725;  211.350;    0.000
681.428;  943.725;  233.350;    0.000
681.539;  835.725;  197.350;    0.000
681.650;  860.725;  197.350;    0.000
681.760;  951.725;  243.350;    0.000
681.871;  870.725;  245.350;    0.000
681.982;  969.725;  218.350;    0.000
682.093;  883.725;  262.350;    0.000
682.203;  910.725;  250.350;    0.000
682.314;  921.725;  239.350;    0.000
682.424;  909.725;  250.350;    0.000
682.535;  836.725;  206.350;    0.000
682.646;  901.725;  302.350;    0.000
682.756;  917.725;  258.350;    0.000
682.867;  950.725;  265.350;    0.000
682.977;  892.725;  218.350;    0.000
683.088;  850.725;  264.350;    0.000
683.198;  868.725;  236.350;    0.000
683.308;  908.725;  246.350;    0.000
683.419;  921.725;  296.350;    0.000
683.529;  990.725;  242.350;    0.000
683.640;  911.725;  245.350;    0.000
683.750;  840.725;  213.350;    0.000
683.860;  940.725;  256.350;    0.000
683.971;  906.725;  251.350;    0.000
684.081;  987.725;  232.350;    0.000
684.191;  991.725;  252.350;    0.000
684.301;  886.725;  214.350;    0.000
684.412;  850.725;  261.350;    0.000
684.522;  867.725;  243.350;    0.000
684.632;  947.725;  257.350;    0.000
684.742;  923.725;  271.350;    0.000
684.852;  933.725;  258.350;    0.000
684.963;  877.725;  262.350;    0.000
685.073;  839.725;  219.350;    0.000
685.183;  915.725;  270.350;    0.000
685.293;  881.725;  233.350;    0.000
685.403; 1058.725;  274.350;    0.000
685.513;  984.725;  280.350;    0.000
685.623;  905.725;  267.350;    0.000
685.733;  851.725;  274.350;    0.000
685.843;  924.725;  274.350;    0.000
685.953;  953.725;  244.350;    0.000
686.063;  880.725;  261.350;    0.000
686.173;  922.725;  283.350;    0.000
686.283;  881.725;  260.350;    0.000
686.393;  906.725;  256.350;    0.000
686.503;  844.725;  295.350;    0.000
686.612;  940.725;  294.350;    0.000
686.722;  943.725;  263.350;    0.000
686.832;  902.725;  291.350;    0.000
686.942;  879.725;  229.350;    0.000
687.052;  910.725;  241.350;    0.000
687.161;  902.725;  304.350;    0.000
687.271;  905.725;  223.350;    0.000
687.381;  857.725;  273.350;    0.000
687.491;  915.725;  246.350;    0.000
687.600;  897.725;  242.350;    0.000
687.710;  955.725;  225.350;    0.000
687.820;  898.725;  259.350;    0.000
687.929;  916.725;  232.350;    0.000
688.039;  923.725;  248.350;    0.000
688.148;  870.725;  250.350;    0.000
688.258;  915.725;  240.350;    0.000
688.367;  887.725;  253.350;    0.000
688.477;  928.725;  229.350;    0.000
688.586;  881.725;  259.350;    0.000
688.696;  871.725;  250.350;    0.000
688.805;  925.725;  279.350;    0.000
688.915;  829.725;  250.350;    0.000
689.024;  906.725;  240.350;    0.000
689.134;  842.725;  269.350;    0.000
689.243;  789.725;  214.350;    0.000
689.352;  940.725;  257.350;    0.000
689.462;  866.725;  248.350;    0.000
689.571;  839.725;  233.350;    0.000
689.680;  917.725;  236.350;    0.000
689.790;  852.725;  238.350;    0.000
689.899;  934.725;  232.350;    0.000
690.008;  915.725;  259.350;    0.000
690.117;  793.725;  254.350;    0.000
690.227;  906.725;  251.350;    0.000
690.336;  930.725;  240.350;    0.000
690.445;  883.725;  235.350;    0.000
690.554;  851.725;  243.350;    0.000
690.663;  864.725;  214.350;    0.000
690.772;  871.725;  247.350;    0.000
690.881;  877.725;  249.350;    0.000
690.990;  889.725;  265.350;    0.000
691.099;  911.725;  217.350;    0.000
691.209;  830.725;  272.350;    0.000
691.318;  867.725;  223.350;    0.000
691.427;  910.725;  212.350;    0.000
691.536;  852.725;  260.350;    0.000
691.644;  851.725;  246.350;    0.000
691.753;  953.725;  251.350;    0.000
691.862;  939.725;  239.350;    0.000
691.971;  817.725;  253.350;    0.000
692.080;  910.725;  255.350;    0.000
692.189;  865.725;  228.350;    0.000
692.298;  894.725;  243.350;    0.000
692.406;  885.725;  269.350;    0.000
692.515;  878.725;  254.350;    0.000
692.624;  863.725;  225.350;    0.000
692.733;  858.725;  245.350;    0.000
692.842;  829.725;  259.350;    0.000
692.950;  906.725;  226.350;    0.000
693.059;  841.725;  216.350;    0.000
693.168;  879.725;  266.350;    0.000
693.276;  909.725;  236.350;    0.000
693.385;  854.725;  257.350;    0.000
693.494;  899.725;  268.350;    0.000
693.602;  884.725;  239.350;    0.000
693.711;  881.725;  224.350;    0.000
693.819;  922.725;  263.350;    0.000
693.928;  917.725;  270.350;    0.000
694.036;  851.725;  247.350;    0.000
694.145;  968.725;  261.350;    0.000
694.253;  844.725;  261.350;    0.000
694.362;  921.725;  253.350;    0.000
694.470;  844.725;  270.350;    0.000
694.579;  841.725;  233.350;    0.000
694.687;  852.725;  260.350;    0.000
694.795;  816.725;  228.350;    0.000
694.904;  876.725;  228.350;    0.000
695.012;  930.725;  288.350;    0.000
695.120;  892.725;  230.350;    0.000
695.229;  876.725;  287.350;    0.000
695.337;  802.725;  249.350;    0.000
695.445;  952.725;  283.350;    0.000
695.553;  853.725;  251.350;    0.000
695.662;  876.725;  236.350;    0.000
695.770;  892.725;  267.350;    0.000
695.878;  923.725;  268.350;    0.000
695.986;  954.725;  297.350;    0.000
696.094;  936.725;  275.350;    0.000
696.202;  898.725;  201.350;    0.000
696.310;  858.725;  283.350;    0.000
696.419;  889.725;  261.350;    0.000
696.527;  821.725;  252.350;    0.000
696.635;  886.725;  249.350;    0.000
696.743;  873.725;  236.350;    0.000
696.851;  879.725;  241.350;    0.000
696.959;  954.725;  278.350;    0.000
697.067;  894.725;  239.350;    0.000
697.174;  847.725;  260.350;    0.000
697.282;  894.725;  259.350;    0.000
697.390;  897.725;  302.350;    0.000
697.498;  919.725;  216.350;    0.000
697.606;  891.725;  245.350;    0.000
697.714;  907.725;  279.350;    0.000
697.822;  987.725;  267.350;    0.000
697.929;  810.725;  234.350;    0.000
698.037;  877.725;  255.350;    0.000
698.145;  879.725;  226.350;    0.000
698.253;  841.725;  261.350;    0.000
698.360;  885.725;  299.350;    0.000
698.468;  831.725;  254.350;    0.000
698.576;  830.725;  307.350;    0.000
698.683;  843.725;  280.350;    0.000
698.791;  786.725;  284.350;    0.000
698.899;  940.725;  279.350;    0.000
699.006;  899.725;  264.350;    0.000
699.114;  919.725;  263.350;    0.000
699.221;  865.725;  291.350;    0.000
699.329;  883.725;  309.350;    0.000
699.436;  912.725;  261.350;    0.000
699.544;  891.725;  259.350;    0.000
699.651;  907.725;  251.350;    0.000
699.759;  868.725;  251.350;    0.000
699.866;  867.725;  266.350;    0.000
699.974;  806.725;  264.350;    0.000
700.081;  829.725;  295.350;    0.000
700.188;  875.725;  293.350;    0.000
700.296;  846.725;  233.350;    0.000
700.403;  877.725;  290.350;    0.000
700.510;  835.725;  275.350;    0.000
700.618;  872.725;  273.350;    0.000
700.725;  859.725;  262.350;    0.000
700.832;  803.725;  250.350;    0.000
700.940;  936.725;  300.350;    0.000
701.047;  857.725;  245.350;    0.000
701.154;  894.725;  280.350;    0.000
701.261;  869.725;  270.350;    0.000
701.368;  847.725;  286.350;    0.000
701.475;  862.725;  301.350;    0.000
701.582;  858.725;  286.350;    0.000
701.690;  859.725;  279.350;    0.000
701.797;  888.725;  292.350;    0.000
701.904;  881.725;  314.350;    0.000
702.011;  907.725;  340.350;    0.000
702.118;  879.725;  276.350;    0.000
702.225;  899.725;  351.350;    0.000
702.332;  906.725;  301.350;    0.000
702.439;  898.725;  334.350;    0.000
702.546; 1003.725;  325.350;    0.000
702.652;  955.725;  343.350;    0.000
702.759;  979.725;  339.350;    0.000
702.866;  939.725;  344.350;    0.000
702.973;  989.725;  330.350;    0.000
703.080;  925.725;  322.350;    0.000
703.187;  891.725;  327.350;    0.000
703.294;  931.725;  339.350;    0.000
703.400;  817.725;  325.350;    0.000
703.507;  426.725;  372.350;    0.000
703.614;  322.725;  348.350;    0.000
703.720;  325.725;  333.350;    0.000
703.827;  351.725;  331.350;    0.000
703.934;  328.725;  330.350;    0.000
704.040;  319.725;  327.350;    0.000
704.147;  309.725;  327.350;    0.000
704.254;  360.725;  354.350;    0.000
704.360;  307.725;  337.350;    0.000
704.467;  344.725;  370.350;    0.000
704.573;  341.725;  367.350;    0.000
704.680;  346.725;  339.350;    0.000
704.786;  294.725;  356.350;    0.000
704.893;  323.725;  352.350;    0.000
704.999;  334.725;  332.350;    0.000
705.106;  350.725;  359.350;    0.000

