
Integration time [ms]:   0.300
Averaging Nr. [scans]: 1
Smoothing Nr. [pixels]: 0
Data measured with spectrometer [name]: VIS
Wave   ;Sample   ;Dark     ;Reference
[nm]   ;[counts] ;[counts] ;[counts] 

450.961;  232.375;  204.350;    0.000
451.100;  233.375;  243.350;    0.000
451.239;  229.375;  228.350;    0.000
451.377;  224.375;  250.350;    0.000
451.516;  206.375;  189.350;    0.000
451.655;  211.375;  235.350;    0.000
451.794;  230.375;  223.350;    0.000
451.932;  250.375;  269.350;    0.000
452.071;  233.375;  250.350;    0.000
452.210;  224.375;  262.350;    0.000
452.348;  237.375;  259.350;    0.000
452.487;  264.375;  231.350;    0.000
452.626;  206.375;  220.350;    0.000
452.764;  218.375;  252.350;    0.000
452.903;  239.375;  236.350;    0.000
453.042;  242.375;  217.350;    0.000
453.180; 1577.375;  273.350;    0.000
453.319; 1708.375;  261.350;    0.000
453.458; 1744.375;  219.350;    0.000
453.596; 1737.375;  307.350;    0.000
453.735; 1746.375;  246.350;    0.000
453.873; 1708.375;  270.350;    0.000
454.012; 1729.375;  232.350;    0.000
454.150; 1645.375;  211.350;    0.000
454.289; 1794.375;  245.350;    0.000
454.427; 1762.375;  224.350;    0.000
454.566; 1741.375;  252.350;    0.000
454.704; 1780.375;  225.350;    0.000
454.843; 1884.375;  195.350;    0.000
454.981; 1730.375;  258.350;    0.000
455.120; 1724.375;  191.350;    0.000
455.258; 1948.375;  243.350;    0.000
455.397; 1793.375;  188.350;    0.000
455.535; 1947.375;  219.350;    0.000
455.674; 1844.375;  184.350;    0.000
455.812; 1909.375;  225.350;    0.000
455.951; 1773.375;  201.350;    0.000
456.089; 1998.375;  187.350;    0.000
456.227; 1897.375;  199.350;    0.000
456.366; 1957.375;  235.350;    0.000
456.504; 1916.375;  216.350;    0.000
456.642; 2094.375;  256.350;    0.000
456.781; 1908.375;  201.350;    0.000
456.919; 2090.375;  231.350;    0.000
457.057; 2074.375;  181.350;    0.000
457.196; 1937.375;  231.350;    0.000
457.334; 2100.375;  229.350;    0.000
457.472; 2157.375;  242.350;    0.000
457.610; 2062.375;  221.350;    0.000
457.749; 2132.375;  218.350;    0.000
457.887; 2108.375;  213.350;    0.000
458.025; 2249.375;  228.350;    0.000
458.163; 2318.375;  204.350;    0.000
458.301; 2330.375;  230.350;    0.000
458.440; 2197.375;  200.350;    0.000
458.578; 2529.375;  222.350;    0.000
458.716; 2422.375;  137.350;    0.000
458.854; 2354.375;  259.350;    0.000
458.992; 2512.375;  172.350;    0.000
459.130; 2372.375;  253.350;    0.000
459.269; 2534.375;  212.350;    0.000
459.407; 2530.375;  212.350;    0.000
459.545; 2560.375;  225.350;    0.000
459.683; 2569.375;  225.350;    0.000
459.821; 2535.375;  192.350;    0.000
459.959; 2748.375;  205.350;    0.000
460.097; 2598.375;  199.350;    0.000
460.235; 2619.375;  232.350;    0.000
460.373; 2548.375;  248.350;    0.000
460.511; 2637.375;  225.350;    0.000
460.649; 2689.375;  204.350;    0.000
460.787; 2542.375;  221.350;    0.000
460.925; 2703.375;  181.350;    0.000
461.063; 2693.375;  243.350;    0.000
461.201; 2656.375;  212.350;    0.000
461.339; 2880.375;  229.350;    0.000
461.477; 2770.375;  162.350;    0.000
461.615; 2729.375;  232.350;    0.000
461.753; 2862.375;  193.350;    0.000
461.891; 2797.375;  217.350;    0.000
462.029; 2895.375;  224.350;    0.000
462.166; 2916.375;  222.350;    0.000
462.304; 2850.375;  185.350;    0.000
462.442; 3052.375;  246.350;    0.000
462.580; 2862.375;  246.350;    0.000
462.718; 2869.375;  235.350;    0.000
462.856; 2879.375;  230.350;    0.000
462.993; 2766.375;  266.350;    0.000
463.131; 2845.375;  208.350;    0.000
463.269; 2754.375;  218.350;    0.000
463.407; 2818.375;  215.350;    0.000
463.545; 2785.375;  200.350;    0.000
463.682; 2832.375;  206.350;    0.000
463.820; 2820.375;  211.350;    0.000
463.958; 2968.375;  206.350;    0.000
464.095; 3222.375;  193.350;    0.000
464.233; 3168.375;  203.350;    0.000
464.371; 3181.375;  258.350;    0.000
464.509; 3217.375;  219.350;    0.000
464.646; 3211.375;  210.350;    0.000
464.784; 3192.375;  206.350;    0.000
464.921; 3273.375;  233.350;    0.000
465.059; 2972.375;  186.350;    0.000
465.197; 3012.375;  213.350;    0.000
465.334; 2905.375;  202.350;    0.000
465.472; 2929.375;  236.350;    0.000
465.609; 2992.375;  206.350;    0.000
465.747; 2929.375;  208.350;    0.000
465.885; 2913.375;  198.350;    0.000
466.022; 3046.375;  210.350;    0.000
466.160; 2970.375;  245.350;    0.000
466.297; 2967.375;  226.350;    0.000
466.435; 2922.375;  235.350;    0.000
466.572; 2906.375;  226.350;    0.000
466.710; 2932.375;  266.350;    0.000
466.847; 2948.375;  258.350;    0.000
466.985; 2963.375;  228.350;    0.000
467.122; 2940.375;  201.350;    0.000
467.260; 2878.375;  170.350;    0.000
467.397; 2859.375;  174.350;    0.000
467.534; 2961.375;  244.350;    0.000
467.672; 2913.375;  247.350;    0.000
467.809; 2735.375;  182.350;    0.000
467.947; 2998.375;  208.350;    0.000
468.084; 3025.375;  206.350;    0.000
468.221; 2970.375;  249.350;    0.000
468.359; 2926.375;  253.350;    0.000
468.496; 2687.375;  208.350;    0.000
468.633; 2702.375;  189.350;    0.000
468.771; 2942.375;  216.350;    0.000
468.908; 2910.375;  240.350;    0.000
469.045; 2940.375;  234.350;    0.000
469.183; 2913.375;  203.350;    0.000
469.320; 2856.375;  230.350;    0.000
469.457; 2954.375;  219.350;    0.000
469.594; 2942.375;  233.350;    0.000
469.732; 2889.375;  230.350;    0.000
469.869; 3044.375;  239.350;    0.000
470.006; 2839.375;  224.350;    0.000
470.143; 3126.375;  241.350;    0.000
470.280; 3208.375;  234.350;    0.000
470.417; 3094.375;  236.350;    0.000
470.555; 2999.375;  207.350;    0.000
470.692; 3021.375;  251.350;    0.000
470.829; 2958.375;  238.350;    0.000
470.966; 2913.375;  242.350;    0.000
471.103; 3054.375;  215.350;    0.000
471.240; 2847.375;  237.350;    0.000
471.377; 2858.375;  235.350;    0.000
471.514; 2848.375;  256.350;    0.000
471.651; 2970.375;  198.350;    0.000
471.789; 2858.375;  215.350;    0.000
471.926; 2979.375;  210.350;    0.000
472.063; 2924.375;  237.350;    0.000
472.200; 2949.375;  265.350;    0.000
472.337; 2800.375;  240.350;    0.000
472.474; 2836.375;  195.350;    0.000
472.611; 2849.375;  228.350;    0.000
472.748; 2883.375;  234.350;    0.000
472.884; 2832.375;  230.350;    0.000
473.021; 2811.375;  219.350;    0.000
473.158; 2853.375;  253.350;    0.000
473.295; 2946.375;  207.350;    0.000
473.432; 3035.375;  238.350;    0.000
473.569; 2859.375;  236.350;    0.000
473.706; 2871.375;  203.350;    0.000
473.843; 2882.375;  232.350;    0.000
473.980; 2772.375;  207.350;    0.000
474.117; 2889.375;  182.350;    0.000
474.253; 2875.375;  261.350;    0.000
474.390; 2757.375;  211.350;    0.000
474.527; 2792.375;  229.350;    0.000
474.664; 2687.375;  181.350;    0.000
474.801; 2998.375;  250.350;    0.000
474.937; 3041.375;  196.350;    0.000
475.074; 3052.375;  213.350;    0.000
475.211; 2997.375;  232.350;    0.000
475.348; 2917.375;  228.350;    0.000
475.484; 2986.375;  240.350;    0.000
475.621; 2974.375;  235.350;    0.000
475.758; 2805.375;  232.350;    0.000
475.894; 2922.375;  227.350;    0.000
476.031; 3084.375;  233.350;    0.000
476.168; 2872.375;  205.350;    0.000
476.304; 2916.375;  263.350;    0.000
476.441; 2986.375;  255.350;    0.000
476.578; 2952.375;  191.350;    0.000
476.714; 3019.375;  218.350;    0.000
476.851; 2851.375;  224.350;    0.000
476.987; 3065.375;  225.350;    0.000
477.124; 2964.375;  231.350;    0.000
477.261; 2895.375;  291.350;    0.000
477.397; 2883.375;  218.350;    0.000
477.534; 2983.375;  209.350;    0.000
477.670; 2866.375;  210.350;    0.000
477.807; 2805.375;  199.350;    0.000
477.943; 3263.375;  219.350;    0.000
478.080; 2893.375;  234.350;    0.000
478.216; 3257.375;  196.350;    0.000
478.353; 2886.375;  234.350;    0.000
478.489; 2948.375;  219.350;    0.000
478.626; 3113.375;  209.350;    0.000
478.762; 3186.375;  206.350;    0.000
478.898; 3250.375;  209.350;    0.000
479.035; 3148.375;  232.350;    0.000
479.171; 3007.375;  219.350;    0.000
479.308; 3100.375;  226.350;    0.000
479.444; 3104.375;  184.350;    0.000
479.580; 2910.375;  192.350;    0.000
479.717; 3153.375;  247.350;    0.000
479.853; 3103.375;  181.350;    0.000
479.989; 3127.375;  212.350;    0.000
480.126; 3237.375;  187.350;    0.000
480.262; 3326.375;  217.350;    0.000
480.398; 3276.375;  249.350;    0.000
480.535; 3281.375;  196.350;    0.000
480.671; 3183.375;  199.350;    0.000
480.807; 3160.375;  231.350;    0.000
480.943; 3082.375;  192.350;    0.000
481.080; 3177.375;  206.350;    0.000
481.216; 3082.375;  189.350;    0.000
481.352; 3107.375;  215.350;    0.000
481.488; 3287.375;  223.350;    0.000
481.624; 3330.375;  235.350;    0.000
481.760; 3290.375;  218.350;    0.000
481.897; 3040.375;  204.350;    0.000
482.033; 3275.375;  243.350;    0.000
482.169; 3111.375;  239.350;    0.000
482.305; 2964.375;  221.350;    0.000
482.441; 3274.375;  162.350;    0.000
482.577; 3115.375;  241.350;    0.000
482.713; 3123.375;  223.350;    0.000
482.849; 3129.375;  195.350;    0.000
482.985; 3139.375;  230.350;    0.000
483.121; 3106.375;  230.350;    0.000
483.258; 3015.375;  254.350;    0.000
483.394; 3401.375;  199.350;    0.000
483.530; 3202.375;  209.350;    0.000
483.665; 3203.375;  196.350;    0.000
483.801; 3126.375;  208.350;    0.000
483.937; 3249.375;  202.350;    0.000
484.073; 3068.375;  247.350;    0.000
484.209; 3104.375;  188.350;    0.000
484.345; 3195.375;  241.350;    0.000
484.481; 3300.375;  247.350;    0.000
484.617; 3142.375;  248.350;    0.000
484.753; 3379.375;  255.350;    0.000
484.889; 3241.375;  253.350;    0.000
485.025; 3103.375;  226.350;    0.000
485.161; 3263.375;  207.350;    0.000
485.296; 3154.375;  247.350;    0.000
485.432; 3259.375;  255.350;    0.000
485.568; 3294.375;  216.350;    0.000
485.704; 3289.375;  232.350;    0.000
485.840; 3189.375;  231.350;    0.000
485.975; 3410.375;  233.350;    0.000
486.111; 3171.375;  207.350;    0.000
486.247; 3404.375;  211.350;    0.000
486.383; 3300.375;  219.350;    0.000
486.518; 3194.375;  213.350;    0.000
486.654; 3290.375;  216.350;    0.000
486.790; 3337.375;  253.350;    0.000
486.926; 3365.375;  229.350;    0.000
487.061; 3413.375;  241.350;    0.000
487.197; 3264.375;  218.350;    0.000
487.333; 3144.375;  221.350;    0.000
487.468; 3182.375;  206.350;    0.000
487.604; 3240.375;  254.350;    0.000
487.740; 3238.375;  240.350;    0.000
487.875; 3311.375;  260.350;    0.000
488.011; 3247.375;  232.350;    0.000
488.146; 3266.375;  206.350;    0.000
488.282; 3205.375;  236.350;    0.000
488.417; 3206.375;  255.350;    0.000
488.553; 3271.375;  221.350;    0.000
488.688; 3221.375;  233.350;    0.000
488.824; 3272.375;  246.350;    0.000
488.960; 3490.375;  267.350;    0.000
489.095; 3288.375;  217.350;    0.000
489.230; 3255.375;  226.350;    0.000
489.366; 3268.375;  232.350;    0.000
489.501; 3275.375;  220.350;    0.000
489.637; 3312.375;  245.350;    0.000
489.772; 3239.375;  228.350;    0.000
489.908; 3569.375;  250.350;    0.000
490.043; 3389.375;  239.350;    0.000
490.178; 3315.375;  213.350;    0.000
490.314; 3343.375;  270.350;    0.000
490.449; 3205.375;  245.350;    0.000
490.585; 3342.375;  218.350;    0.000
490.720; 3288.375;  243.350;    0.000
490.855; 3331.375;  196.350;    0.000
490.991; 3417.375;  208.350;    0.000
491.126; 3486.375;  268.350;    0.000
491.261; 3576.375;  226.350;    0.000
491.396; 3503.375;  201.350;    0.000
491.532; 3415.375;  213.350;    0.000
491.667; 3430.375;  183.350;    0.000
491.802; 3456.375;  239.350;    0.000
491.937; 3419.375;  228.350;    0.000
492.073; 3387.375;  258.350;    0.000
492.208; 3493.375;  218.350;    0.000
492.343; 3300.375;  205.350;    0.000
492.478; 3445.375;  247.350;    0.000
492.613; 3501.375;  217.350;    0.000
492.749; 3389.375;  258.350;    0.000
492.884; 3448.375;  208.350;    0.000
493.019; 3419.375;  248.350;    0.000
493.154; 3238.375;  231.350;    0.000
493.289; 3456.375;  226.350;    0.000
493.424; 3498.375;  216.350;    0.000
493.559; 3363.375;  205.350;    0.000
493.694; 3537.375;  203.350;    0.000
493.829; 3480.375;  231.350;    0.000
493.964; 3421.375;  200.350;    0.000
494.099; 3340.375;  253.350;    0.000
494.234; 3493.375;  244.350;    0.000
494.369; 3508.375;  239.350;    0.000
494.504; 3467.375;  223.350;    0.000
494.639; 3280.375;  263.350;    0.000
494.774; 3521.375;  240.350;    0.000
494.909; 3366.375;  231.350;    0.000
495.044; 3515.375;  195.350;    0.000
495.179; 3459.375;  231.350;    0.000
495.314; 3473.375;  231.350;    0.000
495.449; 3544.375;  239.350;    0.000
495.584; 3338.375;  201.350;    0.000
495.719; 3499.375;  201.350;    0.000
495.854; 3655.375;  201.350;    0.000
495.988; 3528.375;  239.350;    0.000
496.123; 3549.375;  199.350;    0.000
496.258; 3634.375;  256.350;    0.000
496.393; 3547.375;  214.350;    0.000
496.528; 3695.375;  220.350;    0.000
496.663; 3555.375;  207.350;    0.000
496.797; 3516.375;  241.350;    0.000
496.932; 3772.375;  215.350;    0.000
497.067; 3855.375;  240.350;    0.000
497.202; 3855.375;  177.350;    0.000
497.336; 4015.375;  221.350;    0.000
497.471; 4045.375;  228.350;    0.000
497.606; 4035.375;  213.350;    0.000
497.740; 4123.375;  217.350;    0.000
497.875; 4287.375;  182.350;    0.000
498.010; 4569.375;  230.350;    0.000
498.144; 4720.375;  217.350;    0.000
498.279; 4973.375;  194.350;    0.000
498.414; 4961.375;  270.350;    0.000
498.548; 4707.375;  184.350;    0.000
498.683; 4888.375;  188.350;    0.000
498.817; 4645.375;  216.350;    0.000
498.952; 4700.375;  208.350;    0.000
499.087; 4792.375;  236.350;    0.000
499.221; 4627.375;  219.350;    0.000
499.356; 4681.375;  263.350;    0.000
499.490; 5068.375;  221.350;    0.000
499.625; 5083.375;  233.350;    0.000
499.759; 4969.375;  245.350;    0.000
499.894; 5317.375;  241.350;    0.000
500.028; 5246.375;  237.350;    0.000
500.162; 5117.375;  282.350;    0.000
500.297; 5517.375;  232.350;    0.000
500.431; 5312.375;  266.350;    0.000
500.566; 5446.375;  254.350;    0.000
500.700; 5534.375;  238.350;    0.000
500.835; 5104.375;  264.350;    0.000
500.969; 5076.375;  165.350;    0.000
501.103; 5145.375;  190.350;    0.000
501.238; 4952.375;  274.350;    0.000
501.372; 4990.375;  270.350;    0.000
501.506; 4489.375;  231.350;    0.000
501.641; 4395.375;  224.350;    0.000
501.775; 4454.375;  224.350;    0.000
501.909; 4377.375;  218.350;    0.000
502.043; 3894.375;  238.350;    0.000
502.178; 4192.375;  289.350;    0.000
502.312; 4107.375;  225.350;    0.000
502.446; 3782.375;  295.350;    0.000
502.580; 3798.375;  200.350;    0.000
502.715; 3942.375;  256.350;    0.000
502.849; 3899.375;  226.350;    0.000
502.983; 3919.375;  250.350;    0.000
503.117; 3698.375;  229.350;    0.000
503.251; 3802.375;  267.350;    0.000
503.385; 3660.375;  237.350;    0.000
503.520; 3669.375;  210.350;    0.000
503.654; 3669.375;  204.350;    0.000
503.788; 3618.375;  236.350;    0.000
503.922; 3524.375;  225.350;    0.000
504.056; 3441.375;  222.350;    0.000
504.190; 3354.375;  220.350;    0.000
504.324; 3424.375;  257.350;    0.000
504.458; 3514.375;  223.350;    0.000
504.592; 3361.375;  252.350;    0.000
504.726; 3246.375;  216.350;    0.000
504.860; 3318.375;  231.350;    0.000
504.994; 3131.375;  228.350;    0.000
505.128; 3204.375;  239.350;    0.000
505.262; 3176.375;  245.350;    0.000
505.396; 3234.375;  231.350;    0.000
505.530; 3008.375;  211.350;    0.000
505.664; 3087.375;  223.350;    0.000
505.798; 3007.375;  239.350;    0.000
505.932; 2963.375;  232.350;    0.000
506.066; 3038.375;  263.350;    0.000
506.199; 2815.375;  231.350;    0.000
506.333; 2741.375;  213.350;    0.000
506.467; 2889.375;  241.350;    0.000
506.601; 3025.375;  233.350;    0.000
506.735; 3000.375;  235.350;    0.000
506.869; 2807.375;  269.350;    0.000
507.002; 2962.375;  244.350;    0.000
507.136; 2814.375;  258.350;    0.000
507.270; 2890.375;  218.350;    0.000
507.404; 2781.375;  191.350;    0.000
507.537; 2869.375;  226.350;    0.000
507.671; 2792.375;  243.350;    0.000
507.805; 2814.375;  234.350;    0.000
507.939; 2808.375;  234.350;    0.000
508.072; 2816.375;  261.350;    0.000
508.206; 2796.375;  220.350;    0.000
508.340; 2779.375;  241.350;    0.000
508.473; 2710.375;  214.350;    0.000
508.607; 2725.375;  232.350;    0.000
508.740; 2755.375;  222.350;    0.000
508.874; 2673.375;  225.350;    0.000
509.008; 2799.375;  258.350;    0.000
509.141; 2886.375;  210.350;    0.000
509.275; 2768.375;  199.350;    0.000
509.408; 2733.375;  260.350;    0.000
509.542; 2588.375;  252.350;    0.000
509.675; 2771.375;  276.350;    0.000
509.809; 2628.375;  266.350;    0.000
509.942; 2745.375;  227.350;    0.000
510.076; 2548.375;  243.350;    0.000
510.209; 2755.375;  221.350;    0.000
510.343; 2597.375;  229.350;    0.000
510.476; 2597.375;  246.350;    0.000
510.610; 2652.375;  211.350;    0.000
510.743; 2753.375;  279.350;    0.000
510.877; 2667.375;  274.350;    0.000
511.010; 2522.375;  252.350;    0.000
511.143; 2512.375;  228.350;    0.000
511.277; 2513.375;  261.350;    0.000
511.410; 2648.375;  217.350;    0.000
511.543; 2599.375;  230.350;    0.000
511.677; 2598.375;  245.350;    0.000
511.810; 2545.375;  237.350;    0.000
511.943; 2696.375;  224.350;    0.000
512.077; 2499.375;  194.350;    0.000
512.210; 2463.375;  212.350;    0.000
512.343; 2604.375;  236.350;    0.000
512.476; 2660.375;  248.350;    0.000
512.610; 2501.375;  249.350;    0.000
512.743; 2551.375;  224.350;    0.000
512.876; 2807.375;  277.350;    0.000
513.009; 2625.375;  261.350;    0.000
513.142; 2649.375;  213.350;    0.000
513.276; 2570.375;  192.350;    0.000
513.409; 2591.375;  267.350;    0.000
513.542; 2493.375;  224.350;    0.000
513.675; 2594.375;  244.350;    0.000
513.808; 2460.375;  218.350;    0.000
513.941; 2652.375;  237.350;    0.000
514.074; 2443.375;  257.350;    0.000
514.207; 2608.375;  245.350;    0.000
514.340; 2588.375;  195.350;    0.000
514.474; 2765.375;  244.350;    0.000
514.607; 2585.375;  230.350;    0.000
514.740; 2743.375;  246.350;    0.000
514.873; 2829.375;  268.350;    0.000
515.006; 2979.375;  253.350;    0.000
515.139; 2784.375;  235.350;    0.000
515.272; 2826.375;  214.350;    0.000
515.404; 3009.375;  228.350;    0.000
515.537; 3024.375;  263.350;    0.000
515.670; 2869.375;  270.350;    0.000
515.803; 2941.375;  243.350;    0.000
515.936; 2782.375;  226.350;    0.000
516.069; 2896.375;  227.350;    0.000
516.202; 2935.375;  259.350;    0.000
516.335; 2768.375;  260.350;    0.000
516.468; 3014.375;  243.350;    0.000
516.600; 3342.375;  258.350;    0.000
516.733; 3929.375;  235.350;    0.000
516.866; 4155.375;  267.350;    0.000
516.999; 3563.375;  251.350;    0.000
517.132; 4242.375;  261.350;    0.000
517.264; 6046.375;  260.350;    0.000
517.397; 6260.375;  231.350;    0.000
517.530; 4871.375;  257.350;    0.000
517.663; 3937.375;  263.350;    0.000
517.795; 3490.375;  250.350;    0.000
517.928; 3344.375;  257.350;    0.000
518.061; 3449.375;  227.350;    0.000
518.193; 4341.375;  252.350;    0.000
518.326; 7176.375;  227.350;    0.000
518.459; 8346.375;  210.350;    0.000
518.591; 6369.375;  214.350;    0.000
518.724; 4114.375;  269.350;    0.000
518.857; 3572.375;  215.350;    0.000
518.989; 3415.375;  259.350;    0.000
519.122; 3184.375;  238.350;    0.000
519.254; 3152.375;  248.350;    0.000
519.387; 2676.375;  246.350;    0.000
519.519; 2931.375;  239.350;    0.000
519.652; 2835.375;  249.350;    0.000
519.784; 2783.375;  238.350;    0.000
519.917; 2655.375;  231.350;    0.000
520.049; 2681.375;  244.350;    0.000
520.182; 2767.375;  205.350;    0.000
520.314; 2569.375;  262.350;    0.000
520.447; 2711.375;  234.350;    0.000
520.579; 2701.375;  273.350;    0.000
520.712; 2532.375;  215.350;    0.000
520.844; 2653.375;  258.350;    0.000
520.976; 2586.375;  242.350;    0.000
521.109; 2497.375;  232.350;    0.000
521.241; 2502.375;  236.350;    0.000
521.373; 2381.375;  227.350;    0.000
521.506; 2402.375;  212.350;    0.000
521.638; 2464.375;  292.350;    0.000
521.770; 2608.375;  259.350;    0.000
521.903; 2476.375;  263.350;    0.000
522.035; 2348.375;  269.350;    0.000
522.167; 2362.375;  289.350;    0.000
522.300; 2461.375;  255.350;    0.000
522.432; 2277.375;  247.350;    0.000
522.564; 2421.375;  239.350;    0.000
522.696; 2309.375;  246.350;    0.000
522.828; 2362.375;  230.350;    0.000
522.961; 2312.375;  239.350;    0.000
523.093; 2350.375;  269.350;    0.000
523.225; 2252.375;  251.350;    0.000
523.357; 2332.375;  244.350;    0.000
523.489; 2192.375;  266.350;    0.000
523.621; 2227.375;  267.350;    0.000
523.753; 2396.375;  234.350;    0.000
523.885; 2181.375;  229.350;    0.000
524.018; 2415.375;  221.350;    0.000
524.150; 2193.375;  264.350;    0.000
524.282; 2265.375;  283.350;    0.000
524.414; 2325.375;  258.350;    0.000
524.546; 2216.375;  286.350;    0.000
524.678; 2219.375;  274.350;    0.000
524.810; 2332.375;  253.350;    0.000
524.942; 2182.375;  183.350;    0.000
525.074; 2116.375;  232.350;    0.000
525.206; 2143.375;  250.350;    0.000
525.338; 2159.375;  228.350;    0.000
525.469; 2077.375;  224.350;    0.000
525.601; 2262.375;  247.350;    0.000
525.733; 2061.375;  199.350;    0.000
525.865; 2175.375;  230.350;    0.000
525.997; 2101.375;  209.350;    0.000
526.129; 2212.375;  211.350;    0.000
526.261; 2226.375;  233.350;    0.000
526.393; 2132.375;  261.350;    0.000
526.524; 1957.375;  206.350;    0.000
526.656; 2254.375;  260.350;    0.000
526.788; 2123.375;  293.350;    0.000
526.920; 2118.375;  208.350;    0.000
527.052; 2079.375;  204.350;    0.000
527.183; 2054.375;  244.350;    0.000
527.315; 2104.375;  237.350;    0.000
527.447; 2091.375;  236.350;    0.000
527.578; 2068.375;  235.350;    0.000
527.710; 2207.375;  253.350;    0.000
527.842; 2112.375;  231.350;    0.000
527.973; 2085.375;  224.350;    0.000
528.105; 2109.375;  237.350;    0.000
528.237; 2179.375;  213.350;    0.000
528.368; 2003.375;  194.350;    0.000
528.500; 2023.375;  195.350;    0.000
528.632; 2064.375;  201.350;    0.000
528.763; 2036.375;  196.350;    0.000
528.895; 2149.375;  204.350;    0.000
529.026; 2043.375;  214.350;    0.000
529.158; 2107.375;  197.350;    0.000
529.289; 2099.375;  230.350;    0.000
529.421; 2167.375;  247.350;    0.000
529.552; 2134.375;  255.350;    0.000
529.684; 1965.375;  270.350;    0.000
529.815; 2273.375;  248.350;    0.000
529.947; 2183.375;  234.350;    0.000
530.078; 2175.375;  223.350;    0.000
530.210; 1984.375;  243.350;    0.000
530.341; 2118.375;  222.350;    0.000
530.472; 2192.375;  217.350;    0.000
530.604; 2161.375;  242.350;    0.000
530.735; 2101.375;  249.350;    0.000
530.867; 2163.375;  257.350;    0.000
530.998; 2096.375;  250.350;    0.000
531.129; 2193.375;  244.350;    0.000
531.260; 2208.375;  276.350;    0.000
531.392; 2224.375;  220.350;    0.000
531.523; 2217.375;  262.350;    0.000
531.654; 2253.375;  264.350;    0.000
531.786; 2264.375;  225.350;    0.000
531.917; 2349.375;  285.350;    0.000
532.048; 2165.375;  239.350;    0.000
532.179; 2128.375;  248.350;    0.000
532.311; 2194.375;  219.350;    0.000
532.442; 2167.375;  264.350;    0.000
532.573; 2100.375;  230.350;    0.000
532.704; 2148.375;  253.350;    0.000
532.835; 2279.375;  239.350;    0.000
532.966; 2124.375;  247.350;    0.000
533.097; 2243.375;  225.350;    0.000
533.229; 2203.375;  282.350;    0.000
533.360; 2057.375;  236.350;    0.000
533.491; 2163.375;  247.350;    0.000
533.622; 2209.375;  265.350;    0.000
533.753; 2137.375;  226.350;    0.000
533.884; 2207.375;  294.350;    0.000
534.015; 2202.375;  215.350;    0.000
534.146; 2205.375;  223.350;    0.000
534.277; 2178.375;  264.350;    0.000
534.408; 2162.375;  232.350;    0.000
534.539; 2279.375;  274.350;    0.000
534.670; 2166.375;  275.350;    0.000
534.801; 2098.375;  261.350;    0.000
534.932; 2206.375;  225.350;    0.000
535.063; 2158.375;  235.350;    0.000
535.194; 2177.375;  300.350;    0.000
535.324; 2068.375;  249.350;    0.000
535.455; 2014.375;  260.350;    0.000
535.586; 2164.375;  288.350;    0.000
535.717; 1994.375;  237.350;    0.000
535.848; 2138.375;  271.350;    0.000
535.979; 2181.375;  234.350;    0.000
536.109; 2058.375;  255.350;    0.000
536.240; 1999.375;  269.350;    0.000
536.371; 2010.375;  232.350;    0.000
536.502; 2128.375;  253.350;    0.000
536.632; 2082.375;  240.350;    0.000
536.763; 2166.375;  251.350;    0.000
536.894; 2021.375;  256.350;    0.000
537.025; 2066.375;  247.350;    0.000
537.155; 2183.375;  272.350;    0.000
537.286; 2106.375;  241.350;    0.000
537.417; 2072.375;  279.350;    0.000
537.547; 2098.375;  229.350;    0.000
537.678; 2158.375;  227.350;    0.000
537.808; 2111.375;  225.350;    0.000
537.939; 2078.375;  250.350;    0.000
538.070; 2101.375;  263.350;    0.000
538.200; 2104.375;  270.350;    0.000
538.331; 2110.375;  249.350;    0.000
538.461; 2115.375;  230.350;    0.000
538.592; 2052.375;  282.350;    0.000
538.722; 2134.375;  253.350;    0.000
538.853; 1995.375;  240.350;    0.000
538.983; 2070.375;  232.350;    0.000
539.114; 2055.375;  248.350;    0.000
539.244; 2101.375;  256.350;    0.000
539.375; 2020.375;  248.350;    0.000
539.505; 2011.375;  235.350;    0.000
539.636; 2058.375;  237.350;    0.000
539.766; 2131.375;  263.350;    0.000
539.896; 2066.375;  217.350;    0.000
540.027; 2023.375;  217.350;    0.000
540.157; 1961.375;  231.350;    0.000
540.287; 1996.375;  210.350;    0.000
540.418; 2039.375;  239.350;    0.000
540.548; 2118.375;  260.350;    0.000
540.678; 2025.375;  228.350;    0.000
540.809; 2138.375;  241.350;    0.000
540.939; 2141.375;  238.350;    0.000
541.069; 2129.375;  245.350;    0.000
541.200; 2030.375;  225.350;    0.000
541.330; 2084.375;  219.350;    0.000
541.460; 2058.375;  254.350;    0.000
541.590; 2018.375;  234.350;    0.000
541.720; 2170.375;  196.350;    0.000
541.851; 2128.375;  200.350;    0.000
541.981; 2127.375;  235.350;    0.000
542.111; 2408.375;  246.350;    0.000
542.241; 2180.375;  214.350;    0.000
542.371; 2226.375;  221.350;    0.000
542.501; 2377.375;  259.350;    0.000
542.631; 2209.375;  213.350;    0.000
542.761; 2323.375;  240.350;    0.000
542.891; 2307.375;  242.350;    0.000
543.021; 2288.375;  230.350;    0.000
543.151; 2344.375;  261.350;    0.000
543.281; 2226.375;  212.350;    0.000
543.411; 2149.375;  229.350;    0.000
543.542; 2083.375;  204.350;    0.000
543.671; 2275.375;  260.350;    0.000
543.801; 2201.375;  236.350;    0.000
543.931; 2138.375;  243.350;    0.000
544.061; 2258.375;  262.350;    0.000
544.191; 2291.375;  223.350;    0.000
544.321; 2101.375;  217.350;    0.000
544.451; 2154.375;  209.350;    0.000
544.581; 2172.375;  213.350;    0.000
544.711; 2204.375;  256.350;    0.000
544.841; 2239.375;  235.350;    0.000
544.970; 2304.375;  260.350;    0.000
545.100; 2286.375;  236.350;    0.000
545.230; 2407.375;  220.350;    0.000
545.360; 2399.375;  219.350;    0.000
545.490; 2283.375;  217.350;    0.000
545.619; 2243.375;  199.350;    0.000
545.749; 2224.375;  183.350;    0.000
545.879; 2175.375;  169.350;    0.000
546.009; 2181.375;  215.350;    0.000
546.138; 2151.375;  228.350;    0.000
546.268; 2207.375;  209.350;    0.000
546.398; 2109.375;  167.350;    0.000
546.527; 2171.375;  178.350;    0.000
546.657; 2194.375;  175.350;    0.000
546.786; 2267.375;  225.350;    0.000
546.916; 2167.375;  196.350;    0.000
547.046; 2188.375;  185.350;    0.000
547.175; 2061.375;  184.350;    0.000
547.305; 2274.375;  197.350;    0.000
547.434; 2225.375;  168.350;    0.000
547.564; 2147.375;  183.350;    0.000
547.693; 2175.375;  204.350;    0.000
547.823; 2110.375;  211.350;    0.000
547.953; 2224.375;  174.350;    0.000
548.082; 2210.375;  217.350;    0.000
548.211; 2205.375;  201.350;    0.000
548.341; 2223.375;  195.350;    0.000
548.470; 2206.375;  225.350;    0.000
548.600; 2225.375;  194.350;    0.000
548.729; 2250.375;  218.350;    0.000
548.859; 2076.375;  202.350;    0.000
548.988; 2117.375;  193.350;    0.000
549.117; 2154.375;  182.350;    0.000
549.247; 2222.375;  198.350;    0.000
549.376; 2222.375;  200.350;    0.000
549.505; 2211.375;  200.350;    0.000
549.635; 2176.375;  224.350;    0.000
549.764; 2274.375;  200.350;    0.000
549.893; 2172.375;  224.350;    0.000
550.023; 2148.375;  207.350;    0.000
550.152; 2251.375;  167.350;    0.000
550.281; 2147.375;  219.350;    0.000
550.410; 2280.375;  217.350;    0.000
550.539; 2255.375;  211.350;    0.000
550.669; 2285.375;  173.350;    0.000
550.798; 2293.375;  211.350;    0.000
550.927; 2251.375;  195.350;    0.000
551.056; 2149.375;  176.350;    0.000
551.185; 2237.375;  203.350;    0.000
551.314; 2278.375;  178.350;    0.000
551.443; 2286.375;  185.350;    0.000
551.573; 2259.375;  167.350;    0.000
551.702; 2384.375;  193.350;    0.000
551.831; 2322.375;  245.350;    0.000
551.960; 2126.375;  190.350;    0.000
552.089; 2308.375;  202.350;    0.000
552.218; 2257.375;  211.350;    0.000
552.347; 2387.375;  184.350;    0.000
552.476; 2356.375;  200.350;    0.000
552.605; 2382.375;  174.350;    0.000
552.734; 2313.375;  206.350;    0.000
552.863; 2438.375;  189.350;    0.000
552.992; 2495.375;  209.350;    0.000
553.121; 2385.375;  201.350;    0.000
553.249; 2422.375;  208.350;    0.000
553.378; 2426.375;  142.350;    0.000
553.507; 2480.375;  208.350;    0.000
553.636; 2223.375;  192.350;    0.000
553.765; 2442.375;  182.350;    0.000
553.894; 2230.375;  183.350;    0.000
554.023; 2362.375;  182.350;    0.000
554.151; 2339.375;  211.350;    0.000
554.280; 2241.375;  179.350;    0.000
554.409; 2140.375;  182.350;    0.000
554.538; 2304.375;  209.350;    0.000
554.666; 2286.375;  182.350;    0.000
554.795; 2323.375;  179.350;    0.000
554.924; 2250.375;  217.350;    0.000
555.052; 2333.375;  220.350;    0.000
555.181; 2307.375;  228.350;    0.000
555.310; 2310.375;  212.350;    0.000
555.439; 2385.375;  199.350;    0.000
555.567; 2272.375;  220.350;    0.000
555.696; 2296.375;  187.350;    0.000
555.824; 2243.375;  189.350;    0.000
555.953; 2282.375;  217.350;    0.000
556.082; 2218.375;  187.350;    0.000
556.210; 2203.375;  245.350;    0.000
556.339; 2171.375;  195.350;    0.000
556.467; 2331.375;  218.350;    0.000
556.596; 2222.375;  198.350;    0.000
556.724; 2180.375;  201.350;    0.000
556.853; 2167.375;  196.350;    0.000
556.981; 2111.375;  175.350;    0.000
557.110; 2177.375;  210.350;    0.000
557.238; 2192.375;  190.350;    0.000
557.367; 2261.375;  192.350;    0.000
557.495; 2193.375;  219.350;    0.000
557.623; 2185.375;  203.350;    0.000
557.752; 2080.375;  166.350;    0.000
557.880; 2241.375;  172.350;    0.000
558.008; 2234.375;  221.350;    0.000
558.137; 2242.375;  211.350;    0.000
558.265; 2354.375;  157.350;    0.000
558.393; 2165.375;  198.350;    0.000
558.522; 2324.375;  209.350;    0.000
558.650; 2220.375;  260.350;    0.000
558.778; 2224.375;  203.350;    0.000
558.906; 2288.375;  210.350;    0.000
559.035; 2234.375;  194.350;    0.000
559.163; 2323.375;  192.350;    0.000
559.291; 2223.375;  215.350;    0.000
559.419; 2279.375;  197.350;    0.000
559.548; 2293.375;  160.350;    0.000
559.676; 2350.375;  200.350;    0.000
559.804; 2395.375;  223.350;    0.000
559.932; 2239.375;  213.350;    0.000
560.060; 2393.375;  224.350;    0.000
560.188; 2424.375;  221.350;    0.000
560.316; 2294.375;  223.350;    0.000
560.444; 2363.375;  159.350;    0.000
560.572; 2319.375;  204.350;    0.000
560.700; 2446.375;  213.350;    0.000
560.828; 2465.375;  216.350;    0.000
560.956; 2536.375;  207.350;    0.000
561.085; 2617.375;  231.350;    0.000
561.212; 2361.375;  197.350;    0.000
561.340; 2432.375;  192.350;    0.000
561.468; 2468.375;  215.350;    0.000
561.596; 2507.375;  215.350;    0.000
561.724; 2358.375;  181.350;    0.000
561.852; 2420.375;  184.350;    0.000
561.980; 2509.375;  217.350;    0.000
562.108; 2605.375;  199.350;    0.000
562.236; 2327.375;  181.350;    0.000
562.364; 2584.375;  234.350;    0.000
562.492; 2439.375;  225.350;    0.000
562.619; 2546.375;  204.350;    0.000
562.747; 2560.375;  223.350;    0.000
562.875; 2517.375;  210.350;    0.000
563.003; 2613.375;  232.350;    0.000
563.130; 2571.375;  224.350;    0.000
563.258; 2740.375;  213.350;    0.000
563.386; 2657.375;  191.350;    0.000
563.514; 2662.375;  252.350;    0.000
563.641; 2684.375;  201.350;    0.000
563.769; 2789.375;  201.350;    0.000
563.897; 2789.375;  176.350;    0.000
564.024; 3022.375;  167.350;    0.000
564.152; 3038.375;  205.350;    0.000
564.280; 2891.375;  222.350;    0.000
564.407; 2980.375;  192.350;    0.000
564.535; 3056.375;  231.350;    0.000
564.662; 2994.375;  197.350;    0.000
564.790; 3108.375;  200.350;    0.000
564.917; 3041.375;  172.350;    0.000
565.045; 3081.375;  187.350;    0.000
565.173; 2923.375;  173.350;    0.000
565.300; 3156.375;  196.350;    0.000
565.428; 3251.375;  195.350;    0.000
565.555; 3290.375;  191.350;    0.000
565.682; 3276.375;  169.350;    0.000
565.810; 3433.375;  198.350;    0.000
565.937; 3505.375;  213.350;    0.000
566.065; 3515.375;  221.350;    0.000
566.192; 3738.375;  173.350;    0.000
566.320; 3751.375;  214.350;    0.000
566.447; 3998.375;  214.350;    0.000
566.574; 3946.375;  188.350;    0.000
566.702; 4141.375;  198.350;    0.000
566.829; 4208.375;  200.350;    0.000
566.956; 4201.375;  194.350;    0.000
567.083; 4332.375;  176.350;    0.000
567.211; 4244.375;  189.350;    0.000
567.338; 4272.375;  184.350;    0.000
567.465; 4063.375;  181.350;    0.000
567.593; 4426.375;  194.350;    0.000
567.720; 4351.375;  193.350;    0.000
567.847; 4181.375;  196.350;    0.000
567.974; 4529.375;  199.350;    0.000
568.101; 4703.375;  150.350;    0.000
568.228; 5980.375;  174.350;    0.000
568.356; 6899.375;  164.350;    0.000
568.483; 6890.375;  163.350;    0.000
568.610; 6684.375;  187.350;    0.000
568.737; 7621.375;  192.350;    0.000
568.864; 9293.375;  218.350;    0.000
568.991; 9253.375;  169.350;    0.000
569.118; 8156.375;  161.350;    0.000
569.245; 7227.375;  161.350;    0.000
569.372; 6526.375;  187.350;    0.000
569.499; 6072.375;  146.350;    0.000
569.626; 5584.375;  172.350;    0.000
569.753; 5225.375;  188.350;    0.000
569.880; 5067.375;  180.350;    0.000
570.007; 4718.375;  187.350;    0.000
570.134; 4531.375;  196.350;    0.000
570.261; 4413.375;  127.350;    0.000
570.388; 4264.375;  189.350;    0.000
570.515; 4245.375;  219.350;    0.000
570.642; 4076.375;  187.350;    0.000
570.768; 3925.375;  175.350;    0.000
570.895; 3790.375;  165.350;    0.000
571.022; 3939.375;  180.350;    0.000
571.149; 3756.375;  209.350;    0.000
571.276; 3483.375;  187.350;    0.000
571.402; 3714.375;  227.350;    0.000
571.529; 3592.375;  166.350;    0.000
571.656; 3389.375;  203.350;    0.000
571.783; 3499.375;  156.350;    0.000
571.909; 3383.375;  195.350;    0.000
572.036; 3284.375;  165.350;    0.000
572.163; 3233.375;  156.350;    0.000
572.289; 3174.375;  193.350;    0.000
572.416; 3093.375;  199.350;    0.000
572.543; 3217.375;  185.350;    0.000
572.669; 3161.375;  180.350;    0.000
572.796; 3204.375;  173.350;    0.000
572.922; 3132.375;  186.350;    0.000
573.049; 2964.375;  185.350;    0.000
573.176; 3016.375;  196.350;    0.000
573.302; 3088.375;  189.350;    0.000
573.429; 3023.375;  186.350;    0.000
573.555; 2951.375;  220.350;    0.000
573.682; 2857.375;  196.350;    0.000
573.808; 2841.375;  201.350;    0.000
573.935; 2975.375;  188.350;    0.000
574.061; 2851.375;  216.350;    0.000
574.188; 2867.375;  161.350;    0.000
574.314; 2946.375;  189.350;    0.000
574.440; 2788.375;  190.350;    0.000
574.567; 2775.375;  201.350;    0.000
574.693; 2749.375;  175.350;    0.000
574.820; 2927.375;  188.350;    0.000
574.946; 2872.375;  182.350;    0.000
575.072; 2847.375;  188.350;    0.000
575.198; 2903.375;  232.350;    0.000
575.325; 2886.375;  159.350;    0.000
575.451; 2753.375;  231.350;    0.000
575.577; 2863.375;  196.350;    0.000
575.704; 2743.375;  177.350;    0.000
575.830; 2927.375;  171.350;    0.000
575.956; 2810.375;  163.350;    0.000
576.082; 2762.375;  197.350;    0.000
576.208; 2725.375;  181.350;    0.000
576.335; 2781.375;  218.350;    0.000
576.461; 2839.375;  207.350;    0.000
576.587; 2700.375;  173.350;    0.000
576.713; 2782.375;  170.350;    0.000
576.839; 2848.375;  186.350;    0.000
576.965; 2840.375;  194.350;    0.000
577.091; 2827.375;  167.350;    0.000
577.217; 2765.375;  212.350;    0.000
577.343; 2682.375;  214.350;    0.000
577.469; 2809.375;  208.350;    0.000
577.596; 2825.375;  188.350;    0.000
577.722; 2885.375;  221.350;    0.000
577.848; 2588.375;  197.350;    0.000
577.974; 3018.375;  222.350;    0.000
578.099; 2716.375;  187.350;    0.000
578.225; 2756.375;  213.350;    0.000
578.351; 2746.375;  190.350;    0.000
578.477; 2831.375;  212.350;    0.000
578.603; 2912.375;  178.350;    0.000
578.729; 2919.375;  193.350;    0.000
578.855; 2907.375;  194.350;    0.000
578.981; 2896.375;  152.350;    0.000
579.107; 2841.375;  175.350;    0.000
579.232; 2939.375;  192.350;    0.000
579.358; 2883.375;  186.350;    0.000
579.484; 2889.375;  186.350;    0.000
579.610; 2849.375;  199.350;    0.000
579.735; 3106.375;  197.350;    0.000
579.861; 2975.375;  203.350;    0.000
579.987; 3023.375;  220.350;    0.000
580.113; 2976.375;  210.350;    0.000
580.238; 2880.375;  189.350;    0.000
580.364; 3094.375;  214.350;    0.000
580.490; 3125.375;  205.350;    0.000
580.615; 3019.375;  231.350;    0.000
580.741; 3045.375;  212.350;    0.000
580.867; 3151.375;  196.350;    0.000
580.992; 3082.375;  214.350;    0.000
581.118; 3182.375;  178.350;    0.000
581.243; 3213.375;  209.350;    0.000
581.369; 3206.375;  173.350;    0.000
581.494; 3211.375;  209.350;    0.000
581.620; 3050.375;  204.350;    0.000
581.745; 3314.375;  168.350;    0.000
581.871; 3468.375;  236.350;    0.000
581.996; 3226.375;  212.350;    0.000
582.122; 3481.375;  192.350;    0.000
582.247; 3230.375;  179.350;    0.000
582.373; 3476.375;  189.350;    0.000
582.498; 3395.375;  217.350;    0.000
582.624; 3568.375;  231.350;    0.000
582.749; 3612.375;  237.350;    0.000
582.874; 3632.375;  205.350;    0.000
583.000; 3593.375;  204.350;    0.000
583.125; 3743.375;  192.350;    0.000
583.250; 3815.375;  229.350;    0.000
583.376; 3777.375;  256.350;    0.000
583.501; 3981.375;  200.350;    0.000
583.626; 4024.375;  207.350;    0.000
583.751; 4059.375;  215.350;    0.000
583.877; 4297.375;  212.350;    0.000
584.002; 4080.375;  227.350;    0.000
584.127; 4354.375;  153.350;    0.000
584.252; 4327.375;  197.350;    0.000
584.377; 4373.375;  183.350;    0.000
584.503; 4738.375;  211.350;    0.000
584.628; 4765.375;  215.350;    0.000
584.753; 4822.375;  194.350;    0.000
584.878; 4801.375;  154.350;    0.000
585.003; 5032.375;  213.350;    0.000
585.128; 4936.375;  199.350;    0.000
585.253; 5228.375;  219.350;    0.000
585.378; 5336.375;  174.350;    0.000
585.503; 5618.375;  202.350;    0.000
585.628; 5657.375;  186.350;    0.000
585.753; 5923.375;  209.350;    0.000
585.878; 6117.375;  167.350;    0.000
586.003; 6233.375;  226.350;    0.000
586.128; 6466.375;  206.350;    0.000
586.253; 6756.375;  198.350;    0.000
586.378; 6913.375;  180.350;    0.000
586.503; 7596.375;  201.350;    0.000
586.628; 7578.375;  206.350;    0.000
586.753; 8286.375;  178.350;    0.000
586.878; 8651.375;  228.350;    0.000
587.003; 9240.375;  199.350;    0.000
587.127; 9719.375;  194.350;    0.000
587.252;10286.375;  212.350;    0.000
587.377;11152.375;  172.350;    0.000
587.502;11869.375;  219.350;    0.000
587.627;12725.375;  247.350;    0.000
587.751;13471.375;  184.350;    0.000
587.876;14924.375;  215.350;    0.000
588.001;16627.375;  163.350;    0.000
588.125;18398.375;  185.350;    0.000
588.250;20672.375;  171.350;    0.000
588.375;23551.375;  255.350;    0.000
588.499;27289.375;  185.350;    0.000
588.624;32861.375;  167.350;    0.000
588.749;39254.375;  170.350;    0.000
588.873;45163.375;  173.350;    0.000
588.998;48107.375;  203.350;    0.000
589.122;51194.375;  184.350;    0.000
589.247;50972.375;  217.350;    0.000
589.372;46520.375;  250.350;    0.000
589.496;46245.375;  200.350;    0.000
589.621;48625.375;  199.350;    0.000
589.745;48352.375;  235.350;    0.000
589.870;41947.375;  206.350;    0.000
589.994;34163.375;  194.350;    0.000
590.118;28442.375;  177.350;    0.000
590.243;24412.375;  231.350;    0.000
590.367;21657.375;  173.350;    0.000
590.492;19329.375;  170.350;    0.000
590.616;17347.375;  182.350;    0.000
590.740;15776.375;  178.350;    0.000
590.865;14099.375;  219.350;    0.000
590.989;13486.375;  210.350;    0.000
591.114;12694.375;  194.350;    0.000
591.238;11393.375;  154.350;    0.000
591.362;10907.375;  210.350;    0.000
591.486;10443.375;  215.350;    0.000
591.611; 9988.375;  194.350;    0.000
591.735; 9400.375;  206.350;    0.000
591.859; 9002.375;  188.350;    0.000
591.983; 8685.375;  202.350;    0.000
592.107; 8273.375;  175.350;    0.000
592.232; 7753.375;  214.350;    0.000
592.356; 7571.375;  232.350;    0.000
592.480; 7314.375;  203.350;    0.000
592.604; 6992.375;  204.350;    0.000
592.728; 6744.375;  187.350;    0.000
592.852; 6500.375;  204.350;    0.000
592.976; 6453.375;  163.350;    0.000
593.100; 6116.375;  177.350;    0.000
593.224; 5901.375;  209.350;    0.000
593.349; 5897.375;  255.350;    0.000
593.473; 5639.375;  225.350;    0.000
593.597; 5768.375;  211.350;    0.000
593.721; 5391.375;  222.350;    0.000
593.844; 5084.375;  202.350;    0.000
593.968; 5356.375;  223.350;    0.000
594.092; 5215.375;  162.350;    0.000
594.216; 4899.375;  211.350;    0.000
594.340; 4859.375;  198.350;    0.000
594.464; 4817.375;  242.350;    0.000
594.588; 4559.375;  213.350;    0.000
594.712; 4615.375;  198.350;    0.000
594.836; 4463.375;  207.350;    0.000
594.959; 4457.375;  192.350;    0.000
595.083; 4220.375;  180.350;    0.000
595.207; 4085.375;  242.350;    0.000
595.331; 4003.375;  172.350;    0.000
595.455; 4033.375;  185.350;    0.000
595.578; 3916.375;  221.350;    0.000
595.702; 3759.375;  233.350;    0.000
595.826; 3710.375;  164.350;    0.000
595.949; 3727.375;  215.350;    0.000
596.073; 3758.375;  198.350;    0.000
596.197; 3605.375;  266.350;    0.000
596.320; 3639.375;  236.350;    0.000
596.444; 3380.375;  215.350;    0.000
596.568; 3537.375;  213.350;    0.000
596.691; 3426.375;  198.350;    0.000
596.815; 3534.375;  210.350;    0.000
596.938; 3497.375;  207.350;    0.000
597.062; 3313.375;  187.350;    0.000
597.186; 3260.375;  234.350;    0.000
597.309; 3282.375;  176.350;    0.000
597.433; 3242.375;  222.350;    0.000
597.556; 3204.375;  219.350;    0.000
597.680; 3236.375;  227.350;    0.000
597.803; 3041.375;  240.350;    0.000
597.926; 3116.375;  227.350;    0.000
598.050; 2980.375;  198.350;    0.000
598.173; 3003.375;  235.350;    0.000
598.297; 2987.375;  233.350;    0.000
598.420; 2886.375;  211.350;    0.000
598.543; 3001.375;  207.350;    0.000
598.667; 2933.375;  232.350;    0.000
598.790; 2943.375;  205.350;    0.000
598.913; 2865.375;  200.350;    0.000
599.037; 2858.375;  193.350;    0.000
599.160; 3012.375;  199.350;    0.000
599.283; 2934.375;  237.350;    0.000
599.406; 2783.375;  168.350;    0.000
599.530; 2848.375;  231.350;    0.000
599.653; 2818.375;  220.350;    0.000
599.776; 2625.375;  203.350;    0.000
599.899; 2740.375;  202.350;    0.000
600.022; 2697.375;  189.350;    0.000
600.145; 2833.375;  175.350;    0.000
600.269; 2650.375;  235.350;    0.000
600.392; 2616.375;  213.350;    0.000
600.515; 2657.375;  236.350;    0.000
600.638; 2582.375;  198.350;    0.000
600.761; 2634.375;  195.350;    0.000
600.884; 2512.375;  221.350;    0.000
601.007; 2585.375;  236.350;    0.000
601.130; 2680.375;  223.350;    0.000
601.253; 2556.375;  250.350;    0.000
601.376; 2524.375;  195.350;    0.000
601.499; 2487.375;  168.350;    0.000
601.622; 2506.375;  221.350;    0.000
601.745; 2533.375;  223.350;    0.000
601.868; 2465.375;  204.350;    0.000
601.991; 2345.375;  207.350;    0.000
602.113; 2387.375;  223.350;    0.000
602.236; 2542.375;  182.350;    0.000
602.359; 2566.375;  235.350;    0.000
602.482; 2464.375;  173.350;    0.000
602.605; 2414.375;  227.350;    0.000
602.728; 2497.375;  227.350;    0.000
602.850; 2374.375;  250.350;    0.000
602.973; 2416.375;  195.350;    0.000
603.096; 2407.375;  270.350;    0.000
603.219; 2470.375;  197.350;    0.000
603.341; 2446.375;  195.350;    0.000
603.464; 2376.375;  204.350;    0.000
603.587; 2343.375;  243.350;    0.000
603.709; 2313.375;  188.350;    0.000
603.832; 2400.375;  214.350;    0.000
603.955; 2274.375;  213.350;    0.000
604.077; 2351.375;  201.350;    0.000
604.200; 2381.375;  209.350;    0.000
604.323; 2396.375;  201.350;    0.000
604.445; 2331.375;  202.350;    0.000
604.568; 2340.375;  230.350;    0.000
604.690; 2245.375;  212.350;    0.000
604.813; 2240.375;  226.350;    0.000
604.935; 2373.375;  216.350;    0.000
605.058; 2249.375;  182.350;    0.000
605.180; 2249.375;  204.350;    0.000
605.303; 2158.375;  199.350;    0.000
605.425; 2329.375;  178.350;    0.000
605.547; 2220.375;  209.350;    0.000
605.670; 2216.375;  206.350;    0.000
605.792; 2212.375;  199.350;    0.000
605.915; 2214.375;  221.350;    0.000
606.037; 2164.375;  222.350;    0.000
606.159; 2201.375;  160.350;    0.000
606.282; 2247.375;  188.350;    0.000
606.404; 2185.375;  205.350;    0.000
606.526; 2170.375;  228.350;    0.000
606.648; 2191.375;  184.350;    0.000
606.771; 2168.375;  195.350;    0.000
606.893; 2267.375;  193.350;    0.000
607.015; 2120.375;  202.350;    0.000
607.137; 2142.375;  189.350;    0.000
607.260; 2135.375;  201.350;    0.000
607.382; 2231.375;  211.350;    0.000
607.504; 2225.375;  206.350;    0.000
607.626; 2243.375;  236.350;    0.000
607.748; 2270.375;  228.350;    0.000
607.870; 2023.375;  212.350;    0.000
607.992; 2181.375;  201.350;    0.000
608.114; 2058.375;  214.350;    0.000
608.237; 2219.375;  235.350;    0.000
608.359; 2148.375;  215.350;    0.000
608.481; 2083.375;  183.350;    0.000
608.603; 2120.375;  206.350;    0.000
608.725; 2030.375;  238.350;    0.000
608.847; 2143.375;  237.350;    0.000
608.969; 2143.375;  227.350;    0.000
609.090; 2111.375;  205.350;    0.000
609.212; 2045.375;  182.350;    0.000
609.334; 2082.375;  210.350;    0.000
609.456; 2171.375;  208.350;    0.000
609.578; 2027.375;  195.350;    0.000
609.700; 2105.375;  196.350;    0.000
609.822; 1980.375;  184.350;    0.000
609.944; 2066.375;  258.350;    0.000
610.065; 2001.375;  219.350;    0.000
610.187; 2085.375;  217.350;    0.000
610.309; 2042.375;  179.350;    0.000
610.431; 1971.375;  189.350;    0.000
610.552; 2124.375;  212.350;    0.000
610.674; 2184.375;  211.350;    0.000
610.796; 2078.375;  168.350;    0.000
610.918; 2046.375;  201.350;    0.000
611.039; 2075.375;  212.350;    0.000
611.161; 2171.375;  207.350;    0.000
611.282; 2033.375;  219.350;    0.000
611.404; 2136.375;  243.350;    0.000
611.526; 2046.375;  180.350;    0.000
611.647; 2073.375;  235.350;    0.000
611.769; 1883.375;  189.350;    0.000
611.890; 2036.375;  201.350;    0.000
612.012; 2055.375;  191.350;    0.000
612.133; 1966.375;  227.350;    0.000
612.255; 2084.375;  191.350;    0.000
612.377; 1957.375;  192.350;    0.000
612.498; 2065.375;  202.350;    0.000
612.619; 1995.375;  207.350;    0.000
612.741; 2050.375;  241.350;    0.000
612.862; 2079.375;  219.350;    0.000
612.984; 1910.375;  203.350;    0.000
613.105; 2084.375;  228.350;    0.000
613.226; 2055.375;  199.350;    0.000
613.348; 1968.375;  238.350;    0.000
613.469; 2067.375;  239.350;    0.000
613.590; 1952.375;  183.350;    0.000
613.712; 1945.375;  245.350;    0.000
613.833; 1963.375;  241.350;    0.000
613.954; 2157.375;  208.350;    0.000
614.076; 1989.375;  181.350;    0.000
614.197; 1971.375;  217.350;    0.000
614.318; 2094.375;  182.350;    0.000
614.439; 2033.375;  204.350;    0.000
614.560; 2076.375;  219.350;    0.000
614.682; 1964.375;  238.350;    0.000
614.803; 1991.375;  240.350;    0.000
614.924; 2078.375;  212.350;    0.000
615.045; 2224.375;  225.350;    0.000
615.166; 2145.375;  227.350;    0.000
615.287; 2333.375;  230.350;    0.000
615.408; 2993.375;  187.350;    0.000
615.529; 3416.375;  211.350;    0.000
615.650; 3039.375;  202.350;    0.000
615.771; 2684.375;  203.350;    0.000
615.892; 2650.375;  222.350;    0.000
616.013; 3556.375;  215.350;    0.000
616.134; 4529.375;  193.350;    0.000
616.255; 4353.375;  242.350;    0.000
616.376; 3475.375;  205.350;    0.000
616.497; 3014.375;  200.350;    0.000
616.618; 2691.375;  177.350;    0.000
616.739; 2562.375;  218.350;    0.000
616.860; 2502.375;  214.350;    0.000
616.981; 2433.375;  208.350;    0.000
617.102; 2242.375;  203.350;    0.000
617.222; 2297.375;  212.350;    0.000
617.343; 2124.375;  162.350;    0.000
617.464; 2196.375;  230.350;    0.000
617.585; 2148.375;  197.350;    0.000
617.705; 2042.375;  209.350;    0.000
617.826; 2136.375;  229.350;    0.000
617.947; 1965.375;  216.350;    0.000
618.068; 2087.375;  192.350;    0.000
618.188; 1979.375;  230.350;    0.000
618.309; 2080.375;  238.350;    0.000
618.430; 2071.375;  242.350;    0.000
618.550; 2076.375;  235.350;    0.000
618.671; 1993.375;  207.350;    0.000
618.791; 2063.375;  228.350;    0.000
618.912; 2033.375;  266.350;    0.000
619.033; 1949.375;  232.350;    0.000
619.153; 1981.375;  207.350;    0.000
619.274; 1848.375;  193.350;    0.000
619.394; 1903.375;  237.350;    0.000
619.515; 1910.375;  216.350;    0.000
619.635; 1984.375;  203.350;    0.000
619.756; 1874.375;  227.350;    0.000
619.876; 1917.375;  244.350;    0.000
619.996; 1915.375;  220.350;    0.000
620.117; 1904.375;  231.350;    0.000
620.237; 1851.375;  235.350;    0.000
620.358; 1972.375;  241.350;    0.000
620.478; 2006.375;  237.350;    0.000
620.598; 1871.375;  255.350;    0.000
620.719; 1903.375;  243.350;    0.000
620.839; 2017.375;  237.350;    0.000
620.959; 1991.375;  216.350;    0.000
621.079; 1890.375;  240.350;    0.000
621.200; 1769.375;  195.350;    0.000
621.320; 1863.375;  287.350;    0.000
621.440; 1782.375;  236.350;    0.000
621.560; 1907.375;  231.350;    0.000
621.681; 1810.375;  177.350;    0.000
621.801; 1884.375;  257.350;    0.000
621.921; 1855.375;  241.350;    0.000
622.041; 1848.375;  239.350;    0.000
622.161; 1813.375;  233.350;    0.000
622.281; 1874.375;  204.350;    0.000
622.401; 1915.375;  204.350;    0.000
622.521; 1905.375;  242.350;    0.000
622.641; 1865.375;  205.350;    0.000
622.761; 1868.375;  254.350;    0.000
622.882; 1844.375;  225.350;    0.000
623.002; 1877.375;  255.350;    0.000
623.121; 1792.375;  244.350;    0.000
623.241; 1890.375;  238.350;    0.000
623.361; 1745.375;  208.350;    0.000
623.481; 1685.375;  194.350;    0.000
623.601; 1766.375;  249.350;    0.000
623.721; 1871.375;  229.350;    0.000
623.841; 1834.375;  244.350;    0.000
623.961; 1770.375;  253.350;    0.000
624.081; 1726.375;  218.350;    0.000
624.201; 1796.375;  218.350;    0.000
624.320; 1767.375;  212.350;    0.000
624.440; 1700.375;  251.350;    0.000
624.560; 1830.375;  244.350;    0.000
624.680; 1804.375;  224.350;    0.000
624.799; 1739.375;  198.350;    0.000
624.919; 1791.375;  215.350;    0.000
625.039; 1801.375;  225.350;    0.000
625.159; 1830.375;  209.350;    0.000
625.278; 1793.375;  211.350;    0.000
625.398; 1765.375;  260.350;    0.000
625.518; 1763.375;  205.350;    0.000
625.637; 1786.375;  240.350;    0.000
625.757; 1826.375;  208.350;    0.000
625.876; 1736.375;  221.350;    0.000
625.996; 1702.375;  245.350;    0.000
626.115; 1807.375;  196.350;    0.000
626.235; 1746.375;  241.350;    0.000
626.354; 1840.375;  231.350;    0.000
626.474; 1689.375;  220.350;    0.000
626.594; 1690.375;  210.350;    0.000
626.713; 1735.375;  229.350;    0.000
626.832; 1816.375;  236.350;    0.000
626.952; 1755.375;  223.350;    0.000
627.071; 1720.375;  211.350;    0.000
627.191; 1748.375;  220.350;    0.000
627.310; 1677.375;  206.350;    0.000
627.429; 1733.375;  223.350;    0.000
627.549; 1599.375;  205.350;    0.000
627.668; 1691.375;  227.350;    0.000
627.787; 1695.375;  221.350;    0.000
627.907; 1708.375;  194.350;    0.000
628.026; 1674.375;  231.350;    0.000
628.145; 1631.375;  210.350;    0.000
628.264; 1729.375;  245.350;    0.000
628.384; 1733.375;  234.350;    0.000
628.503; 1585.375;  210.350;    0.000
628.622; 1726.375;  223.350;    0.000
628.741; 1723.375;  210.350;    0.000
628.860; 1668.375;  222.350;    0.000
628.980; 1680.375;  184.350;    0.000
629.099; 1740.375;  234.350;    0.000
629.218; 1714.375;  157.350;    0.000
629.337; 1729.375;  220.350;    0.000
629.456; 1679.375;  210.350;    0.000
629.575; 1747.375;  239.350;    0.000
629.694; 1689.375;  216.350;    0.000
629.813; 1706.375;  218.350;    0.000
629.932; 1632.375;  175.350;    0.000
630.051; 1675.375;  218.350;    0.000
630.170; 1773.375;  215.350;    0.000
630.289; 1688.375;  203.350;    0.000
630.408; 1644.375;  180.350;    0.000
630.527; 1649.375;  249.350;    0.000
630.646; 1571.375;  186.350;    0.000
630.764; 1670.375;  189.350;    0.000
630.883; 1759.375;  221.350;    0.000
631.002; 1661.375;  191.350;    0.000
631.121; 1708.375;  210.350;    0.000
631.240; 1677.375;  256.350;    0.000
631.359; 1768.375;  246.350;    0.000
631.477; 1671.375;  230.350;    0.000
631.596; 1836.375;  229.350;    0.000
631.715; 1845.375;  242.350;    0.000
631.834; 1704.375;  261.350;    0.000
631.952; 1659.375;  250.350;    0.000
632.071; 1673.375;  218.350;    0.000
632.190; 1579.375;  200.350;    0.000
632.308; 1590.375;  226.350;    0.000
632.427; 1575.375;  234.350;    0.000
632.546; 1757.375;  250.350;    0.000
632.664; 1668.375;  224.350;    0.000
632.783; 1733.375;  211.350;    0.000
632.901; 1834.375;  254.350;    0.000
633.020; 1589.375;  204.350;    0.000
633.138; 1598.375;  228.350;    0.000
633.257; 1677.375;  219.350;    0.000
633.375; 1676.375;  243.350;    0.000
633.494; 1668.375;  242.350;    0.000
633.612; 1708.375;  227.350;    0.000
633.731; 1684.375;  221.350;    0.000
633.849; 1624.375;  239.350;    0.000
633.968; 1551.375;  219.350;    0.000
634.086; 1669.375;  218.350;    0.000
634.204; 1643.375;  203.350;    0.000
634.323; 1647.375;  222.350;    0.000
634.441; 1609.375;  257.350;    0.000
634.559; 1581.375;  201.350;    0.000
634.678; 1618.375;  214.350;    0.000
634.796; 1669.375;  207.350;    0.000
634.914; 1495.375;  226.350;    0.000
635.032; 1564.375;  250.350;    0.000
635.151; 1596.375;  228.350;    0.000
635.269; 1600.375;  188.350;    0.000
635.387; 1628.375;  247.350;    0.000
635.505; 1585.375;  250.350;    0.000
635.623; 1607.375;  230.350;    0.000
635.742; 1613.375;  209.350;    0.000
635.860; 1597.375;  239.350;    0.000
635.978; 1607.375;  213.350;    0.000
636.096; 1628.375;  176.350;    0.000
636.214; 1611.375;  246.350;    0.000
636.332; 1570.375;  224.350;    0.000
636.450; 1618.375;  215.350;    0.000
636.568; 1641.375;  246.350;    0.000
636.686; 1555.375;  225.350;    0.000
636.804; 1557.375;  218.350;    0.000
636.922; 1642.375;  195.350;    0.000
637.040; 1550.375;  213.350;    0.000
637.158; 1564.375;  228.350;    0.000
637.276; 1579.375;  206.350;    0.000
637.394; 1538.375;  224.350;    0.000
637.512; 1620.375;  245.350;    0.000
637.629; 1640.375;  234.350;    0.000
637.747; 1603.375;  233.350;    0.000
637.865; 1561.375;  236.350;    0.000
637.983; 1598.375;  235.350;    0.000
638.101; 1527.375;  232.350;    0.000
638.218; 1501.375;  256.350;    0.000
638.336; 1615.375;  216.350;    0.000
638.454; 1558.375;  255.350;    0.000
638.572; 1714.375;  237.350;    0.000
638.689; 1515.375;  271.350;    0.000
638.807; 1572.375;  243.350;    0.000
638.925; 1619.375;  259.350;    0.000
639.042; 1548.375;  185.350;    0.000
639.160; 1592.375;  250.350;    0.000
639.278; 1431.375;  207.350;    0.000
639.395; 1513.375;  243.350;    0.000
639.513; 1577.375;  235.350;    0.000
639.630; 1619.375;  230.350;    0.000
639.748; 1551.375;  192.350;    0.000
639.865; 1639.375;  219.350;    0.000
639.983; 1554.375;  183.350;    0.000
640.100; 1526.375;  251.350;    0.000
640.218; 1549.375;  246.350;    0.000
640.335; 1523.375;  227.350;    0.000
640.453; 1611.375;  259.350;    0.000
640.570; 1504.375;  251.350;    0.000
640.688; 1538.375;  223.350;    0.000
640.805; 1514.375;  246.350;    0.000
640.922; 1511.375;  249.350;    0.000
641.040; 1619.375;  257.350;    0.000
641.157; 1537.375;  207.350;    0.000
641.274; 1630.375;  241.350;    0.000
641.391; 1556.375;  246.350;    0.000
641.509; 1547.375;  216.350;    0.000
641.626; 1541.375;  252.350;    0.000
641.743; 1598.375;  215.350;    0.000
641.860; 1550.375;  234.350;    0.000
641.978; 1499.375;  216.350;    0.000
642.095; 1451.375;  247.350;    0.000
642.212; 1570.375;  199.350;    0.000
642.329; 1504.375;  237.350;    0.000
642.446; 1588.375;  222.350;    0.000
642.563; 1607.375;  287.350;    0.000
642.681; 1443.375;  261.350;    0.000
642.798; 1480.375;  251.350;    0.000
642.915; 1527.375;  238.350;    0.000
643.032; 1547.375;  246.350;    0.000
643.149; 1575.375;  239.350;    0.000
643.266; 1555.375;  238.350;    0.000
643.383; 1467.375;  231.350;    0.000
643.500; 1473.375;  212.350;    0.000
643.617; 1563.375;  236.350;    0.000
643.734; 1465.375;  239.350;    0.000
643.850; 1595.375;  234.350;    0.000
643.967; 1577.375;  253.350;    0.000
644.084; 1464.375;  253.350;    0.000
644.201; 1509.375;  227.350;    0.000
644.318; 1624.375;  247.350;    0.000
644.435; 1531.375;  264.350;    0.000
644.552; 1516.375;  230.350;    0.000
644.668; 1539.375;  250.350;    0.000
644.785; 1646.375;  235.350;    0.000
644.902; 1625.375;  227.350;    0.000
645.019; 1545.375;  203.350;    0.000
645.135; 1583.375;  210.350;    0.000
645.252; 1485.375;  206.350;    0.000
645.369; 1530.375;  235.350;    0.000
645.485; 1526.375;  223.350;    0.000
645.602; 1642.375;  205.350;    0.000
645.719; 1509.375;  222.350;    0.000
645.835; 1578.375;  246.350;    0.000
645.952; 1526.375;  239.350;    0.000
646.068; 1684.375;  225.350;    0.000
646.185; 1582.375;  248.350;    0.000
646.302; 1604.375;  226.350;    0.000
646.418; 1576.375;  228.350;    0.000
646.535; 1664.375;  219.350;    0.000
646.651; 1487.375;  204.350;    0.000
646.768; 1496.375;  247.350;    0.000
646.884; 1595.375;  228.350;    0.000
647.000; 1569.375;  223.350;    0.000
647.117; 1527.375;  251.350;    0.000
647.233; 1585.375;  223.350;    0.000
647.350; 1615.375;  237.350;    0.000
647.466; 1659.375;  223.350;    0.000
647.582; 1612.375;  243.350;    0.000
647.699; 1667.375;  223.350;    0.000
647.815; 1622.375;  215.350;    0.000
647.931; 1597.375;  214.350;    0.000
648.047; 1583.375;  199.350;    0.000
648.164; 1585.375;  233.350;    0.000
648.280; 1693.375;  231.350;    0.000
648.396; 1594.375;  215.350;    0.000
648.512; 1702.375;  252.350;    0.000
648.629; 1579.375;  237.350;    0.000
648.745; 1598.375;  216.350;    0.000
648.861; 1668.375;  207.350;    0.000
648.977; 1618.375;  247.350;    0.000
649.093; 1600.375;  221.350;    0.000
649.209; 1645.375;  232.350;    0.000
649.325; 1654.375;  245.350;    0.000
649.441; 1577.375;  253.350;    0.000
649.557; 1680.375;  221.350;    0.000
649.673; 1637.375;  182.350;    0.000
649.789; 1684.375;  245.350;    0.000
649.905; 1596.375;  204.350;    0.000
650.021; 1642.375;  270.350;    0.000
650.137; 1603.375;  218.350;    0.000
650.253; 1754.375;  268.350;    0.000
650.369; 1655.375;  222.350;    0.000
650.485; 1639.375;  215.350;    0.000
650.601; 1658.375;  218.350;    0.000
650.717; 1649.375;  208.350;    0.000
650.833; 1722.375;  263.350;    0.000
650.948; 1619.375;  266.350;    0.000
651.064; 1645.375;  271.350;    0.000
651.180; 1744.375;  232.350;    0.000
651.296; 1698.375;  237.350;    0.000
651.411; 1760.375;  233.350;    0.000
651.527; 1687.375;  232.350;    0.000
651.643; 1724.375;  259.350;    0.000
651.759; 1759.375;  257.350;    0.000
651.874; 1690.375;  216.350;    0.000
651.990; 1743.375;  234.350;    0.000
652.105; 1711.375;  195.350;    0.000
652.221; 1721.375;  245.350;    0.000
652.337; 1675.375;  210.350;    0.000
652.452; 1746.375;  259.350;    0.000
652.568; 1761.375;  202.350;    0.000
652.683; 1729.375;  233.350;    0.000
652.799; 1832.375;  230.350;    0.000
652.914; 1615.375;  198.350;    0.000
653.030; 1830.375;  203.350;    0.000
653.145; 1842.375;  228.350;    0.000
653.261; 1756.375;  244.350;    0.000
653.376; 1863.375;  214.350;    0.000
653.492; 1815.375;  246.350;    0.000
653.607; 1842.375;  241.350;    0.000
653.722; 1864.375;  257.350;    0.000
653.838; 1891.375;  265.350;    0.000
653.953; 1863.375;  252.350;    0.000
654.068; 1993.375;  270.350;    0.000
654.184; 2024.375;  248.350;    0.000
654.299; 1989.375;  226.350;    0.000
654.414; 1939.375;  190.350;    0.000
654.530; 2001.375;  263.350;    0.000
654.645; 2078.375;  240.350;    0.000
654.760; 2277.375;  243.350;    0.000
654.875; 2090.375;  210.350;    0.000
654.990; 2299.375;  250.350;    0.000
655.106; 2262.375;  277.350;    0.000
655.221; 2380.375;  249.350;    0.000
655.336; 2408.375;  239.350;    0.000
655.451; 2472.375;  226.350;    0.000
655.566; 2517.375;  236.350;    0.000
655.681; 2668.375;  272.350;    0.000
655.796; 2709.375;  224.350;    0.000
655.911; 2747.375;  247.350;    0.000
656.026; 2859.375;  240.350;    0.000
656.141; 3052.375;  239.350;    0.000
656.256; 3065.375;  241.350;    0.000
656.371; 3130.375;  213.350;    0.000
656.486; 3135.375;  275.350;    0.000
656.601; 3131.375;  225.350;    0.000
656.716; 2937.375;  239.350;    0.000
656.831; 3076.375;  260.350;    0.000
656.946; 2812.375;  250.350;    0.000
657.060; 2751.375;  257.350;    0.000
657.175; 2749.375;  256.350;    0.000
657.290; 2688.375;  255.350;    0.000
657.405; 2625.375;  303.350;    0.000
657.520; 2355.375;  272.350;    0.000
657.634; 2449.375;  268.350;    0.000
657.749; 2372.375;  261.350;    0.000
657.864; 2369.375;  235.350;    0.000
657.979; 2352.375;  257.350;    0.000
658.093; 2199.375;  243.350;    0.000
658.208; 2238.375;  281.350;    0.000
658.323; 2111.375;  240.350;    0.000
658.437; 2232.375;  285.350;    0.000
658.552; 2093.375;  262.350;    0.000
658.666; 2031.375;  269.350;    0.000
658.781; 2128.375;  244.350;    0.000
658.895; 2063.375;  259.350;    0.000
659.010; 2097.375;  254.350;    0.000
659.125; 2036.375;  210.350;    0.000
659.239; 2021.375;  212.350;    0.000
659.353; 1997.375;  269.350;    0.000
659.468; 1909.375;  269.350;    0.000
659.582; 1936.375;  244.350;    0.000
659.697; 1939.375;  262.350;    0.000
659.811; 1854.375;  271.350;    0.000
659.926; 1816.375;  232.350;    0.000
660.040; 1844.375;  250.350;    0.000
660.154; 1871.375;  209.350;    0.000
660.269; 1875.375;  212.350;    0.000
660.383; 1756.375;  237.350;    0.000
660.497; 1767.375;  231.350;    0.000
660.612; 1801.375;  232.350;    0.000
660.726; 1833.375;  276.350;    0.000
660.840; 1773.375;  235.350;    0.000
660.954; 1713.375;  224.350;    0.000
661.068; 1781.375;  241.350;    0.000
661.183; 1670.375;  223.350;    0.000
661.297; 1694.375;  255.350;    0.000
661.411; 1560.375;  223.350;    0.000
661.525; 1720.375;  249.350;    0.000
661.639; 1682.375;  264.350;    0.000
661.753; 1752.375;  225.350;    0.000
661.867; 1630.375;  245.350;    0.000
661.981; 1555.375;  225.350;    0.000
662.095; 1611.375;  262.350;    0.000
662.209; 1656.375;  225.350;    0.000
662.323; 1569.375;  228.350;    0.000
662.437; 1534.375;  230.350;    0.000
662.551; 1477.375;  234.350;    0.000
662.665; 1467.375;  212.350;    0.000
662.779; 1569.375;  254.350;    0.000
662.893; 1610.375;  269.350;    0.000
663.007; 1562.375;  196.350;    0.000
663.121; 1516.375;  262.350;    0.000
663.235; 1555.375;  263.350;    0.000
663.349; 1524.375;  242.350;    0.000
663.462; 1522.375;  234.350;    0.000
663.576; 1402.375;  219.350;    0.000
663.690; 1569.375;  234.350;    0.000
663.804; 1393.375;  205.350;    0.000
663.917; 1475.375;  224.350;    0.000
664.031; 1488.375;  208.350;    0.000
664.145; 1450.375;  241.350;    0.000
664.258; 1478.375;  188.350;    0.000
664.372; 1460.375;  214.350;    0.000
664.486; 1447.375;  203.350;    0.000
664.599; 1461.375;  217.350;    0.000
664.713; 1452.375;  286.350;    0.000
664.827; 1440.375;  199.350;    0.000
664.940; 1427.375;  250.350;    0.000
665.054; 1463.375;  261.350;    0.000
665.167; 1368.375;  258.350;    0.000
665.281; 1421.375;  234.350;    0.000
665.394; 1381.375;  213.350;    0.000
665.508; 1443.375;  222.350;    0.000
665.621; 1427.375;  254.350;    0.000
665.735; 1399.375;  252.350;    0.000
665.848; 1396.375;  248.350;    0.000
665.961; 1388.375;  234.350;    0.000
666.075; 1423.375;  262.350;    0.000
666.188; 1423.375;  270.350;    0.000
666.301; 1481.375;  237.350;    0.000
666.415; 1423.375;  245.350;    0.000
666.528; 1363.375;  248.350;    0.000
666.641; 1381.375;  210.350;    0.000
666.755; 1387.375;  218.350;    0.000
666.868; 1298.375;  224.350;    0.000
666.981; 1423.375;  244.350;    0.000
667.094; 1381.375;  279.350;    0.000
667.207; 1382.375;  190.350;    0.000
667.321; 1245.375;  210.350;    0.000
667.434; 1324.375;  205.350;    0.000
667.547; 1353.375;  253.350;    0.000
667.660; 1334.375;  243.350;    0.000
667.773; 1324.375;  242.350;    0.000
667.886; 1364.375;  218.350;    0.000
667.999; 1301.375;  226.350;    0.000
668.112; 1312.375;  258.350;    0.000
668.225; 1328.375;  243.350;    0.000
668.338; 1317.375;  224.350;    0.000
668.451; 1257.375;  250.350;    0.000
668.564; 1330.375;  260.350;    0.000
668.677; 1297.375;  204.350;    0.000
668.790; 1267.375;  229.350;    0.000
668.903; 1314.375;  269.350;    0.000
669.016; 1338.375;  228.350;    0.000
669.129; 1238.375;  253.350;    0.000
669.242; 1250.375;  245.350;    0.000
669.354; 1243.375;  234.350;    0.000
669.467; 1260.375;  256.350;    0.000
669.580; 1280.375;  223.350;    0.000
669.693; 1274.375;  252.350;    0.000
669.806; 1244.375;  212.350;    0.000
669.918; 1235.375;  228.350;    0.000
670.031; 1301.375;  265.350;    0.000
670.144; 1201.375;  255.350;    0.000
670.256; 1258.375;  229.350;    0.000
670.369; 1283.375;  301.350;    0.000
670.482; 1257.375;  263.350;    0.000
670.594; 1206.375;  246.350;    0.000
670.707; 1238.375;  255.350;    0.000
670.820; 1266.375;  256.350;    0.000
670.932; 1263.375;  210.350;    0.000
671.045; 1220.375;  249.350;    0.000
671.157; 1286.375;  254.350;    0.000
671.270; 1256.375;  265.350;    0.000
671.382; 1210.375;  219.350;    0.000
671.495; 1257.375;  242.350;    0.000
671.607; 1267.375;  266.350;    0.000
671.720; 1286.375;  238.350;    0.000
671.832; 1287.375;  220.350;    0.000
671.944; 1244.375;  251.350;    0.000
672.057; 1232.375;  232.350;    0.000
672.169; 1259.375;  240.350;    0.000
672.281; 1278.375;  270.350;    0.000
672.394; 1297.375;  257.350;    0.000
672.506; 1301.375;  247.350;    0.000
672.618; 1263.375;  229.350;    0.000
672.731; 1183.375;  227.350;    0.000
672.843; 1264.375;  282.350;    0.000
672.955; 1242.375;  262.350;    0.000
673.067; 1242.375;  277.350;    0.000
673.180; 1291.375;  280.350;    0.000
673.292; 1193.375;  241.350;    0.000
673.404; 1171.375;  234.350;    0.000
673.516; 1176.375;  224.350;    0.000
673.628; 1254.375;  272.350;    0.000
673.740; 1225.375;  249.350;    0.000
673.852; 1228.375;  288.350;    0.000
673.964; 1233.375;  278.350;    0.000
674.076; 1233.375;  273.350;    0.000
674.188; 1214.375;  251.350;    0.000
674.300; 1204.375;  244.350;    0.000
674.412; 1273.375;  267.350;    0.000
674.524; 1232.375;  276.350;    0.000
674.636; 1270.375;  234.350;    0.000
674.748; 1260.375;  267.350;    0.000
674.860; 1191.375;  255.350;    0.000
674.972; 1304.375;  253.350;    0.000
675.084; 1187.375;  253.350;    0.000
675.196; 1268.375;  300.350;    0.000
675.307; 1335.375;  307.350;    0.000
675.419; 1155.375;  245.350;    0.000
675.531; 1235.375;  292.350;    0.000
675.643; 1193.375;  244.350;    0.000
675.755; 1157.375;  265.350;    0.000
675.866; 1283.375;  281.350;    0.000
675.978; 1117.375;  266.350;    0.000
676.090; 1173.375;  267.350;    0.000
676.201; 1220.375;  265.350;    0.000
676.313; 1246.375;  222.350;    0.000
676.425; 1185.375;  248.350;    0.000
676.536; 1190.375;  234.350;    0.000
676.648; 1144.375;  261.350;    0.000
676.759; 1219.375;  280.350;    0.000
676.871; 1234.375;  260.350;    0.000
676.983; 1192.375;  277.350;    0.000
677.094; 1132.375;  252.350;    0.000
677.206; 1191.375;  238.350;    0.000
677.317; 1177.375;  269.350;    0.000
677.429; 1168.375;  245.350;    0.000
677.540; 1225.375;  244.350;    0.000
677.651; 1101.375;  225.350;    0.000
677.763; 1181.375;  216.350;    0.000
677.874; 1170.375;  226.350;    0.000
677.986; 1165.375;  234.350;    0.000
678.097; 1132.375;  237.350;    0.000
678.208; 1184.375;  278.350;    0.000
678.320; 1214.375;  243.350;    0.000
678.431; 1170.375;  248.350;    0.000
678.542; 1158.375;  240.350;    0.000
678.653; 1081.375;  250.350;    0.000
678.765; 1113.375;  258.350;    0.000
678.876; 1146.375;  221.350;    0.000
678.987; 1152.375;  229.350;    0.000
679.098; 1104.375;  233.350;    0.000
679.209; 1112.375;  274.350;    0.000
679.320; 1098.375;  216.350;    0.000
679.432; 1214.375;  246.350;    0.000
679.543; 1073.375;  226.350;    0.000
679.654; 1083.375;  232.350;    0.000
679.765; 1183.375;  246.350;    0.000
679.876; 1158.375;  263.350;    0.000
679.987; 1140.375;  216.350;    0.000
680.098; 1106.375;  262.350;    0.000
680.209; 1199.375;  219.350;    0.000
680.320; 1117.375;  232.350;    0.000
680.431; 1110.375;  261.350;    0.000
680.542; 1111.375;  219.350;    0.000
680.653; 1108.375;  238.350;    0.000
680.763;  973.375;  191.350;    0.000
680.874; 1108.375;  267.350;    0.000
680.985; 1000.375;  240.350;    0.000
681.096; 1085.375;  251.350;    0.000
681.207; 1193.375;  232.350;    0.000
681.318; 1158.375;  211.350;    0.000
681.428; 1119.375;  233.350;    0.000
681.539; 1051.375;  197.350;    0.000
681.650; 1116.375;  197.350;    0.000
681.760; 1200.375;  243.350;    0.000
681.871; 1068.375;  245.350;    0.000
681.982; 1223.375;  218.350;    0.000
682.093; 1067.375;  262.350;    0.000
682.203; 1091.375;  250.350;    0.000
682.314; 1085.375;  239.350;    0.000
682.424; 1049.375;  250.350;    0.000
682.535; 1039.375;  206.350;    0.000
682.646; 1119.375;  302.350;    0.000
682.756; 1139.375;  258.350;    0.000
682.867; 1126.375;  265.350;    0.000
682.977; 1082.375;  218.350;    0.000
683.088; 1087.375;  264.350;    0.000
683.198; 1045.375;  236.350;    0.000
683.308; 1065.375;  246.350;    0.000
683.419; 1078.375;  296.350;    0.000
683.529; 1122.375;  242.350;    0.000
683.640; 1083.375;  245.350;    0.000
683.750; 1084.375;  213.350;    0.000
683.860; 1200.375;  256.350;    0.000
683.971; 1108.375;  251.350;    0.000
684.081; 1128.375;  232.350;    0.000
684.191; 1137.375;  252.350;    0.000
684.301; 1093.375;  214.350;    0.000
684.412; 1073.375;  261.350;    0.000
684.522; 1065.375;  243.350;    0.000
684.632; 1097.375;  257.350;    0.000
684.742; 1076.375;  271.350;    0.000
684.852; 1108.375;  258.350;    0.000
684.963; 1094.375;  262.350;    0.000
685.073; 1012.375;  219.350;    0.000
685.183; 1068.375;  270.350;    0.000
685.293; 1131.375;  233.350;    0.000
685.403; 1171.375;  274.350;    0.000
685.513; 1130.375;  280.350;    0.000
685.623; 1113.375;  267.350;    0.000
685.733; 1033.375;  274.350;    0.000
685.843; 1131.375;  274.350;    0.000
685.953; 1069.375;  244.350;    0.000
686.063; 1128.375;  261.350;    0.000
686.173; 1076.375;  283.350;    0.000
686.283; 1084.375;  260.350;    0.000
686.393; 1089.375;  256.350;    0.000
686.503; 1030.375;  295.350;    0.000
686.612; 1139.375;  294.350;    0.000
686.722; 1127.375;  263.350;    0.000
686.832; 1131.375;  291.350;    0.000
686.942; 1110.375;  229.350;    0.000
687.052; 1158.375;  241.350;    0.000
687.161; 1167.375;  304.350;    0.000
687.271; 1083.375;  223.350;    0.000
687.381; 1093.375;  273.350;    0.000
687.491; 1050.375;  246.350;    0.000
687.600; 1042.375;  242.350;    0.000
687.710; 1099.375;  225.350;    0.000
687.820; 1153.375;  259.350;    0.000
687.929; 1176.375;  232.350;    0.000
688.039; 1168.375;  248.350;    0.000
688.148;  992.375;  250.350;    0.000
688.258; 1039.375;  240.350;    0.000
688.367; 1054.375;  253.350;    0.000
688.477; 1083.375;  229.350;    0.000
688.586; 1025.375;  259.350;    0.000
688.696; 1043.375;  250.350;    0.000
688.805; 1123.375;  279.350;    0.000
688.915; 1040.375;  250.350;    0.000
689.024; 1093.375;  240.350;    0.000
689.134; 1056.375;  269.350;    0.000
689.243;  951.375;  214.350;    0.000
689.352; 1107.375;  257.350;    0.000
689.462; 1079.375;  248.350;    0.000
689.571; 1062.375;  233.350;    0.000
689.680; 1035.375;  236.350;    0.000
689.790; 1057.375;  238.350;    0.000
689.899; 1059.375;  232.350;    0.000
690.008; 1127.375;  259.350;    0.000
690.117;  996.375;  254.350;    0.000
690.227; 1029.375;  251.350;    0.000
690.336; 1120.375;  240.350;    0.000
690.445; 1021.375;  235.350;    0.000
690.554; 1051.375;  243.350;    0.000
690.663; 1085.375;  214.350;    0.000
690.772; 1024.375;  247.350;    0.000
690.881; 1077.375;  249.350;    0.000
690.990; 1056.375;  265.350;    0.000
691.099; 1099.375;  217.350;    0.000
691.209;  970.375;  272.350;    0.000
691.318; 1051.375;  223.350;    0.000
691.427; 1108.375;  212.350;    0.000
691.536; 1085.375;  260.350;    0.000
691.644; 1017.375;  246.350;    0.000
691.753; 1072.375;  251.350;    0.000
691.862; 1065.375;  239.350;    0.000
691.971; 1019.375;  253.350;    0.000
692.080; 1062.375;  255.350;    0.000
692.189; 1080.375;  228.350;    0.000
692.298; 1039.375;  243.350;    0.000
692.406; 1106.375;  269.350;    0.000
692.515; 1067.375;  254.350;    0.000
692.624; 1004.375;  225.350;    0.000
692.733; 1025.375;  245.350;    0.000
692.842; 1059.375;  259.350;    0.000
692.950; 1120.375;  226.350;    0.000
693.059; 1035.375;  216.350;    0.000
693.168; 1075.375;  266.350;    0.000
693.276; 1068.375;  236.350;    0.000
693.385; 1051.375;  257.350;    0.000
693.494; 1129.375;  268.350;    0.000
693.602; 1021.375;  239.350;    0.000
693.711; 1073.375;  224.350;    0.000
693.819; 1085.375;  263.350;    0.000
693.928; 1117.375;  270.350;    0.000
694.036; 1004.375;  247.350;    0.000
694.145; 1094.375;  261.350;    0.000
694.253; 1066.375;  261.350;    0.000
694.362; 1112.375;  253.350;    0.000
694.470; 1056.375;  270.350;    0.000
694.579; 1015.375;  233.350;    0.000
694.687; 1054.375;  260.350;    0.000
694.795; 1014.375;  228.350;    0.000
694.904; 1041.375;  228.350;    0.000
695.012; 1073.375;  288.350;    0.000
695.120; 1113.375;  230.350;    0.000
695.229; 1074.375;  287.350;    0.000
695.337; 1058.375;  249.350;    0.000
695.445; 1132.375;  283.350;    0.000
695.553; 1014.375;  251.350;    0.000
695.662; 1050.375;  236.350;    0.000
695.770; 1114.375;  267.350;    0.000
695.878; 1088.375;  268.350;    0.000
695.986; 1083.375;  297.350;    0.000
696.094; 1072.375;  275.350;    0.000
696.202;  998.375;  201.350;    0.000
696.310; 1082.375;  283.350;    0.000
696.419; 1111.375;  261.350;    0.000
696.527; 1025.375;  252.350;    0.000
696.635; 1077.375;  249.350;    0.000
696.743; 1014.375;  236.350;    0.000
696.851; 1072.375;  241.350;    0.000
696.959; 1043.375;  278.350;    0.000
697.067;  984.375;  239.350;    0.000
697.174; 1048.375;  260.350;    0.000
697.282; 1064.375;  259.350;    0.000
697.390; 1101.375;  302.350;    0.000
697.498; 1061.375;  216.350;    0.000
697.606; 1041.375;  245.350;    0.000
697.714; 1057.375;  279.350;    0.000
697.822; 1115.375;  267.350;    0.000
697.929;  990.375;  234.350;    0.000
698.037; 1034.375;  255.350;    0.000
698.145;  984.375;  226.350;    0.000
698.253; 1068.375;  261.350;    0.000
698.360; 1059.375;  299.350;    0.000
698.468; 1052.375;  254.350;    0.000
698.576; 1032.375;  307.350;    0.000
698.683; 1067.375;  280.350;    0.000
698.791; 1029.375;  284.350;    0.000
698.899; 1085.375;  279.350;    0.000
699.006; 1081.375;  264.350;    0.000
699.114; 1079.375;  263.350;    0.000
699.221; 1027.375;  291.350;    0.000
699.329;  972.375;  309.350;    0.000
699.436; 1076.375;  261.350;    0.000
699.544; 1010.375;  259.350;    0.000
699.651; 1089.375;  251.350;    0.000
699.759;  963.375;  251.350;    0.000
699.866; 1031.375;  266.350;    0.000
699.974;  935.375;  264.350;    0.000
700.081; 1006.375;  295.350;    0.000
700.188; 1064.375;  293.350;    0.000
700.296; 1077.375;  233.350;    0.000
700.403; 1085.375;  290.350;    0.000
700.510;  997.375;  275.350;    0.000
700.618; 1068.375;  273.350;    0.000
700.725; 1035.375;  262.350;    0.000
700.832; 1082.375;  250.350;    0.000
700.940; 1082.375;  300.350;    0.000
701.047; 1018.375;  245.350;    0.000
701.154; 1035.375;  280.350;    0.000
701.261; 1011.375;  270.350;    0.000
701.368; 1076.375;  286.350;    0.000
701.475;  996.375;  301.350;    0.000
701.582; 1064.375;  286.350;    0.000
701.690; 1059.375;  279.350;    0.000
701.797;  985.375;  292.350;    0.000
701.904; 1055.375;  314.350;    0.000
702.011; 1067.375;  340.350;    0.000
702.118; 1033.375;  276.350;    0.000
702.225; 1119.375;  351.350;    0.000
702.332; 1056.375;  301.350;    0.000
702.439; 1099.375;  334.350;    0.000
702.546; 1153.375;  325.350;    0.000
702.652; 1060.375;  343.350;    0.000
702.759; 1173.375;  339.350;    0.000
702.866; 1119.375;  344.350;    0.000
702.973; 1175.375;  330.350;    0.000
703.080; 1056.375;  322.350;    0.000
703.187; 1073.375;  327.350;    0.000
703.294; 1168.375;  339.350;    0.000
703.400;  967.375;  325.350;    0.000
703.507;  411.375;  372.350;    0.000
703.614;  311.375;  348.350;    0.000
703.720;  304.375;  333.350;    0.000
703.827;  321.375;  331.350;    0.000
703.934;  333.375;  330.350;    0.000
704.040;  293.375;  327.350;    0.000
704.147;  343.375;  327.350;    0.000
704.254;  309.375;  354.350;    0.000
704.360;  338.375;  337.350;    0.000
704.467;  354.375;  370.350;    0.000
704.573;  358.375;  367.350;    0.000
704.680;  325.375;  339.350;    0.000
704.786;  356.375;  356.350;    0.000
704.893;  324.375;  352.350;    0.000
704.999;  330.375;  332.350;    0.000
705.106;  376.375;  359.350;    0.000

