
Integration time [ms]:   0.300
Averaging Nr. [scans]: 1
Smoothing Nr. [pixels]: 0
Data measured with spectrometer [name]: NIR
Wave   ;Sample   ;Dark     ;Reference
[nm]   ;[counts] ;[counts] ;[counts] 

691.496;   64.650;  102.875;    0.000
691.696;  101.650;  181.875;    0.000
691.896;   52.650;  138.875;    0.000
692.096;   85.650;  182.875;    0.000
692.296;   60.650;  145.875;    0.000
692.496;  105.650;  154.875;    0.000
692.695;   68.650;  108.875;    0.000
692.895;  121.650;  176.875;    0.000
693.095;   68.650;  138.875;    0.000
693.295;  123.650;  192.875;    0.000
693.495;  114.650;  170.875;    0.000
693.695;   87.650;  147.875;    0.000
693.894;   84.650;  191.875;    0.000
694.094;  107.650;  148.875;    0.000
694.294;   71.650;  147.875;    0.000
694.494;  258.650;  140.875;    0.000
694.693; 1663.650;  137.875;    0.000
694.893; 1829.650;  141.875;    0.000
695.093; 1837.650;  105.875;    0.000
695.293; 1869.650;  115.875;    0.000
695.492; 2016.650;   81.875;    0.000
695.692; 1875.650;  162.875;    0.000
695.891; 2084.650;  162.875;    0.000
696.091; 1948.650;  166.875;    0.000
696.291; 2032.650;  143.875;    0.000
696.490; 1991.650;  170.875;    0.000
696.690; 1943.650;  142.875;    0.000
696.889; 1935.650;  186.875;    0.000
697.089; 1959.650;  120.875;    0.000
697.288; 2059.650;  215.875;    0.000
697.488; 2071.650;  178.875;    0.000
697.687; 1937.650;  170.875;    0.000
697.887; 1909.650;  140.875;    0.000
698.086; 1993.650;  131.875;    0.000
698.286; 1901.650;  117.875;    0.000
698.485; 1919.650;  136.875;    0.000
698.684; 1910.650;  126.875;    0.000
698.884; 2100.650;  161.875;    0.000
699.083; 2042.650;   95.875;    0.000
699.282; 2068.650;  120.875;    0.000
699.482; 2149.650;  131.875;    0.000
699.681; 1924.650;  168.875;    0.000
699.880; 2007.650;  154.875;    0.000
700.080; 2004.650;  149.875;    0.000
700.279; 1887.650;   99.875;    0.000
700.478; 1966.650;  157.875;    0.000
700.677; 1977.650;  111.875;    0.000
700.877; 1993.650;  126.875;    0.000
701.076; 2049.650;  142.875;    0.000
701.275; 1921.650;  107.875;    0.000
701.474; 2046.650;   72.875;    0.000
701.673; 2074.650;   87.875;    0.000
701.872; 1970.650;  170.875;    0.000
702.071; 2024.650;  136.875;    0.000
702.271; 2084.650;  121.875;    0.000
702.470; 2132.650;  139.875;    0.000
702.669; 1946.650;  121.875;    0.000
702.868; 2236.650;  146.875;    0.000
703.067; 2109.650;  159.875;    0.000
703.266; 2231.650;  122.875;    0.000
703.465; 2183.650;  121.875;    0.000
703.664; 2112.650;  144.875;    0.000
703.863; 2031.650;  140.875;    0.000
704.062; 2156.650;  109.875;    0.000
704.260; 2185.650;  164.875;    0.000
704.459; 2111.650;  124.875;    0.000
704.658; 2105.650;  109.875;    0.000
704.857; 2063.650;  149.875;    0.000
705.056; 1995.650;  112.875;    0.000
705.255; 2012.650;   95.875;    0.000
705.454; 2105.650;  105.875;    0.000
705.652; 2066.650;  134.875;    0.000
705.851; 2177.650;   92.875;    0.000
706.050; 2261.650;  127.875;    0.000
706.249; 2005.650;  111.875;    0.000
706.447; 2092.650;   98.875;    0.000
706.646; 2060.650;  108.875;    0.000
706.845; 2344.650;   95.875;    0.000
707.043; 2212.650;   95.875;    0.000
707.242; 2154.650;   97.875;    0.000
707.441; 2143.650;  142.875;    0.000
707.639; 2047.650;  121.875;    0.000
707.838; 2041.650;  141.875;    0.000
708.037; 2091.650;  125.875;    0.000
708.235; 2146.650;  100.875;    0.000
708.434; 2109.650;  106.875;    0.000
708.632; 2119.650;   86.875;    0.000
708.831; 2290.650;  138.875;    0.000
709.029; 2035.650;   86.875;    0.000
709.228; 2212.650;  103.875;    0.000
709.426; 2150.650;  146.875;    0.000
709.625; 2187.650;  136.875;    0.000
709.823; 2092.650;  114.875;    0.000
710.022; 2163.650;  144.875;    0.000
710.220; 2163.650;  109.875;    0.000
710.418; 2222.650;  116.875;    0.000
710.617; 2029.650;   67.875;    0.000
710.815; 2123.650;  104.875;    0.000
711.013; 2299.650;  109.875;    0.000
711.212; 2231.650;  106.875;    0.000
711.410; 2186.650;   95.875;    0.000
711.608; 2164.650;  155.875;    0.000
711.807; 2273.650;  103.875;    0.000
712.005; 2165.650;  104.875;    0.000
712.203; 2169.650;   94.875;    0.000
712.401; 2190.650;  125.875;    0.000
712.599; 2231.650;  127.875;    0.000
712.798; 2366.650;  141.875;    0.000
712.996; 2166.650;   85.875;    0.000
713.194; 2318.650;   96.875;    0.000
713.392; 2208.650;   54.875;    0.000
713.590; 2249.650;  123.875;    0.000
713.788; 2174.650;  130.875;    0.000
713.986; 2258.650;  104.875;    0.000
714.184; 2326.650;   91.875;    0.000
714.382; 2391.650;  120.875;    0.000
714.580; 2226.650;   71.875;    0.000
714.778; 2284.650;   92.875;    0.000
714.976; 2192.650;  129.875;    0.000
715.174; 2402.650;   99.875;    0.000
715.372; 2619.650;  119.875;    0.000
715.570; 2856.650;   95.875;    0.000
715.768; 3147.650;  113.875;    0.000
715.966; 3137.650;   64.875;    0.000
716.164; 2988.650;  135.875;    0.000
716.362; 2985.650;  125.875;    0.000
716.560; 2795.650;  135.875;    0.000
716.758; 2429.650;   84.875;    0.000
716.955; 2620.650;  109.875;    0.000
717.153; 2517.650;   73.875;    0.000
717.351; 2498.650;  110.875;    0.000
717.549; 2459.650;  149.875;    0.000
717.746; 2540.650;  121.875;    0.000
717.944; 2405.650;  128.875;    0.000
718.142; 2478.650;  124.875;    0.000
718.340; 2424.650;   96.875;    0.000
718.537; 2517.650;  138.875;    0.000
718.735; 2539.650;  144.875;    0.000
718.933; 2430.650;   97.875;    0.000
719.130; 2488.650;  109.875;    0.000
719.328; 2493.650;  123.875;    0.000
719.525; 2378.650;  118.875;    0.000
719.723; 2433.650;  117.875;    0.000
719.920; 2250.650;   72.875;    0.000
720.118; 2363.650;   92.875;    0.000
720.316; 2524.650;  141.875;    0.000
720.513; 2430.650;   98.875;    0.000
720.711; 2352.650;  146.875;    0.000
720.908; 2396.650;  113.875;    0.000
721.105; 2375.650;  157.875;    0.000
721.303; 2431.650;  106.875;    0.000
721.500; 2288.650;   88.875;    0.000
721.698; 2273.650;   88.875;    0.000
721.895; 2385.650;   94.875;    0.000
722.092; 2271.650;   82.875;    0.000
722.290; 2489.650;  136.875;    0.000
722.487; 2419.650;   67.875;    0.000
722.684; 2638.650;  115.875;    0.000
722.882; 2506.650;  104.875;    0.000
723.079; 2387.650;  122.875;    0.000
723.276; 2344.650;   91.875;    0.000
723.473; 2383.650;   89.875;    0.000
723.671; 2544.650;   97.875;    0.000
723.868; 2470.650;  117.875;    0.000
724.065; 2519.650;  102.875;    0.000
724.262; 2353.650;  137.875;    0.000
724.459; 2539.650;   48.875;    0.000
724.656; 2395.650;  122.875;    0.000
724.854; 2546.650;   96.875;    0.000
725.051; 2513.650;  120.875;    0.000
725.248; 2466.650;  146.875;    0.000
725.445; 2375.650;  117.875;    0.000
725.642; 2429.650;  106.875;    0.000
725.839; 2646.650;  143.875;    0.000
726.036; 2328.650;   79.875;    0.000
726.233; 2516.650;   90.875;    0.000
726.430; 2493.650;  124.875;    0.000
726.627; 2554.650;   98.875;    0.000
726.824; 2540.650;   91.875;    0.000
727.021; 2567.650;  131.875;    0.000
727.218; 2405.650;  110.875;    0.000
727.414; 2570.650;   83.875;    0.000
727.611; 2424.650;   86.875;    0.000
727.808; 2439.650;  131.875;    0.000
728.005; 2593.650;  105.875;    0.000
728.202; 2472.650;  128.875;    0.000
728.399; 2454.650;  113.875;    0.000
728.595; 2415.650;  102.875;    0.000
728.792; 2423.650;   91.875;    0.000
728.989; 2394.650;  122.875;    0.000
729.186; 2621.650;  103.875;    0.000
729.382; 2492.650;  106.875;    0.000
729.579; 2471.650;  114.875;    0.000
729.776; 2563.650;  115.875;    0.000
729.972; 2462.650;  108.875;    0.000
730.169; 2674.650;  111.875;    0.000
730.366; 2525.650;  100.875;    0.000
730.562; 2495.650;   86.875;    0.000
730.759; 2577.650;   93.875;    0.000
730.955; 2548.650;  127.875;    0.000
731.152; 2394.650;   99.875;    0.000
731.348; 2620.650;   97.875;    0.000
731.545; 2629.650;   98.875;    0.000
731.741; 2608.650;  130.875;    0.000
731.938; 2565.650;  115.875;    0.000
732.134; 2648.650;  107.875;    0.000
732.331; 2497.650;   80.875;    0.000
732.527; 2578.650;  108.875;    0.000
732.724; 2543.650;  104.875;    0.000
732.920; 2596.650;  109.875;    0.000
733.116; 2493.650;  117.875;    0.000
733.313; 2602.650;   81.875;    0.000
733.509; 2708.650;   87.875;    0.000
733.705; 2413.650;  143.875;    0.000
733.902; 2619.650;   74.875;    0.000
734.098; 2548.650;   90.875;    0.000
734.294; 2508.650;  104.875;    0.000
734.490; 2507.650;  139.875;    0.000
734.687; 2612.650;  113.875;    0.000
734.883; 2471.650;   72.875;    0.000
735.079; 2665.650;  100.875;    0.000
735.275; 2543.650;  113.875;    0.000
735.471; 2439.650;   55.875;    0.000
735.667; 2487.650;  106.875;    0.000
735.863; 2735.650;  131.875;    0.000
736.060; 2668.650;  127.875;    0.000
736.256; 2787.650;   76.875;    0.000
736.452; 2479.650;  127.875;    0.000
736.648; 2751.650;  136.875;    0.000
736.844; 2661.650;  113.875;    0.000
737.040; 2689.650;  125.875;    0.000
737.236; 2743.650;   99.875;    0.000
737.432; 2833.650;   75.875;    0.000
737.628; 2651.650;  155.875;    0.000
737.824; 2762.650;  116.875;    0.000
738.019; 2542.650;   92.875;    0.000
738.215; 2719.650;  113.875;    0.000
738.411; 2690.650;  135.875;    0.000
738.607; 2615.650;   53.875;    0.000
738.803; 2778.650;   79.875;    0.000
738.999; 2694.650;  117.875;    0.000
739.195; 2689.650;  106.875;    0.000
739.390; 2648.650;  125.875;    0.000
739.586; 2641.650;  102.875;    0.000
739.782; 2662.650;  125.875;    0.000
739.978; 2800.650;  124.875;    0.000
740.173; 2810.650;   96.875;    0.000
740.369; 2789.650;  118.875;    0.000
740.565; 2854.650;  128.875;    0.000
740.760; 2918.650;  118.875;    0.000
740.956; 2869.650;  109.875;    0.000
741.152; 2876.650;  151.875;    0.000
741.347; 2928.650;  112.875;    0.000
741.543; 2910.650;  113.875;    0.000
741.738; 3178.650;  128.875;    0.000
741.934; 3208.650;  144.875;    0.000
742.129; 3391.650;  105.875;    0.000
742.325; 4077.650;  137.875;    0.000
742.520; 4766.650;  128.875;    0.000
742.716; 4070.650;  121.875;    0.000
742.911; 3955.650;   75.875;    0.000
743.107; 3683.650;  100.875;    0.000
743.302; 3582.650;   72.875;    0.000
743.498; 3724.650;  137.875;    0.000
743.693; 3616.650;  124.875;    0.000
743.888; 3965.650;  121.875;    0.000
744.084; 4729.650;   93.875;    0.000
744.279; 6678.650;   75.875;    0.000
744.474; 6541.650;  136.875;    0.000
744.670; 5353.650;  109.875;    0.000
744.865; 4464.650;  142.875;    0.000
745.060; 4154.650;   84.875;    0.000
745.255; 4042.650;  149.875;    0.000
745.451; 3992.650;  101.875;    0.000
745.646; 3788.650;  132.875;    0.000
745.841; 3681.650;  126.875;    0.000
746.036; 3984.650;  125.875;    0.000
746.231; 3934.650;  150.875;    0.000
746.426; 4151.650;  118.875;    0.000
746.622; 5345.650;  135.875;    0.000
746.817; 7704.650;  122.875;    0.000
747.012; 9035.650;  134.875;    0.000
747.207; 7436.650;  124.875;    0.000
747.402; 5883.650;  122.875;    0.000
747.597; 5182.650;   95.875;    0.000
747.792; 5097.650;  168.875;    0.000
747.987; 4893.650;  110.875;    0.000
748.182; 4449.650;  119.875;    0.000
748.377; 4315.650;   70.875;    0.000
748.572; 4116.650;  113.875;    0.000
748.767; 3750.650;  123.875;    0.000
748.961; 3758.650;  110.875;    0.000
749.156; 3868.650;  135.875;    0.000
749.351; 3581.650;   98.875;    0.000
749.546; 3693.650;  126.875;    0.000
749.741; 3310.650;  129.875;    0.000
749.936; 3436.650;   86.875;    0.000
750.130; 3261.650;   97.875;    0.000
750.325; 3510.650;  110.875;    0.000
750.520; 3212.650;  120.875;    0.000
750.715; 3504.650;  122.875;    0.000
750.909; 3451.650;  120.875;    0.000
751.104; 3192.650;  118.875;    0.000
751.299; 3238.650;  122.875;    0.000
751.493; 3155.650;  129.875;    0.000
751.688; 3289.650;  138.875;    0.000
751.882; 3103.650;   87.875;    0.000
752.077; 3203.650;  142.875;    0.000
752.272; 3208.650;  110.875;    0.000
752.466; 3097.650;  154.875;    0.000
752.661; 3088.650;   96.875;    0.000
752.855; 3111.650;   93.875;    0.000
753.050; 3069.650;  122.875;    0.000
753.244; 3115.650;  110.875;    0.000
753.439; 2998.650;  116.875;    0.000
753.633; 3089.650;  131.875;    0.000
753.828; 3041.650;  130.875;    0.000
754.022; 2904.650;   96.875;    0.000
754.216; 2891.650;  114.875;    0.000
754.411; 2966.650;  145.875;    0.000
754.605; 2894.650;   65.875;    0.000
754.799; 2842.650;  116.875;    0.000
754.994; 2943.650;  117.875;    0.000
755.188; 3231.650;  124.875;    0.000
755.382; 2906.650;   80.875;    0.000
755.576; 3008.650;   90.875;    0.000
755.771; 2918.650;  115.875;    0.000
755.965; 3011.650;  106.875;    0.000
756.159; 2835.650;   87.875;    0.000
756.353; 3054.650;  125.875;    0.000
756.547; 2959.650;  146.875;    0.000
756.742; 2988.650;  111.875;    0.000
756.936; 2905.650;  108.875;    0.000
757.130; 2813.650;  101.875;    0.000
757.324; 3042.650;  114.875;    0.000
757.518; 2785.650;  136.875;    0.000
757.712; 2943.650;  123.875;    0.000
757.906; 2938.650;  115.875;    0.000
758.100; 2988.650;  186.875;    0.000
758.294; 3108.650;  118.875;    0.000
758.488; 2876.650;  167.875;    0.000
758.682; 2817.650;  137.875;    0.000
758.876; 2928.650;  135.875;    0.000
759.070; 2883.650;  132.875;    0.000
759.264; 3003.650;  118.875;    0.000
759.458; 2963.650;  111.875;    0.000
759.651; 2742.650;  142.875;    0.000
759.845; 2805.650;  105.875;    0.000
760.039; 2987.650;   73.875;    0.000
760.233; 3059.650;  156.875;    0.000
760.427; 2989.650;  119.875;    0.000
760.620; 2902.650;  136.875;    0.000
760.814; 2866.650;  126.875;    0.000
761.008; 2885.650;  126.875;    0.000
761.202; 2929.650;  123.875;    0.000
761.395; 3036.650;  141.875;    0.000
761.589; 2852.650;  107.875;    0.000
761.783; 2866.650;  122.875;    0.000
761.976; 2980.650;  120.875;    0.000
762.170; 3022.650;  147.875;    0.000
762.363; 2951.650;  144.875;    0.000
762.557; 3069.650;  119.875;    0.000
762.750; 2928.650;  118.875;    0.000
762.944; 2939.650;  145.875;    0.000
763.138; 3050.650;  123.875;    0.000
763.331; 2953.650;  129.875;    0.000
763.524; 3060.650;  109.875;    0.000
763.718; 3145.650;  150.875;    0.000
763.911; 3055.650;  140.875;    0.000
764.105; 2964.650;   97.875;    0.000
764.298; 2866.650;  128.875;    0.000
764.492; 3095.650;  132.875;    0.000
764.685; 3014.650;   92.875;    0.000
764.878; 2767.650;  111.875;    0.000
765.072; 2991.650;  116.875;    0.000
765.265; 3010.650;  135.875;    0.000
765.458; 2965.650;   69.875;    0.000
765.651; 2880.650;  145.875;    0.000
765.845; 2891.650;   95.875;    0.000
766.038; 2997.650;  147.875;    0.000
766.231; 3238.650;  119.875;    0.000
766.424; 4228.650;  126.875;    0.000
766.617; 4495.650;   92.875;    0.000
766.811; 3231.650;  109.875;    0.000
767.004; 2924.650;  107.875;    0.000
767.197; 3002.650;  171.875;    0.000
767.390; 2961.650;  114.875;    0.000
767.583; 2883.650;  109.875;    0.000
767.776; 3241.650;  130.875;    0.000
767.969; 2969.650;  103.875;    0.000
768.162; 3052.650;  139.875;    0.000
768.355; 3066.650;  142.875;    0.000
768.548; 3249.650;  140.875;    0.000
768.741; 3182.650;   82.875;    0.000
768.934; 3096.650;  107.875;    0.000
769.127; 3227.650;  121.875;    0.000
769.320; 3170.650;  106.875;    0.000
769.513; 3346.650;  145.875;    0.000
769.706; 3228.650;  120.875;    0.000
769.898; 4249.650;  135.875;    0.000
770.091; 3919.650;  146.875;    0.000
770.284; 3214.650;  108.875;    0.000
770.477; 3204.650;  148.875;    0.000
770.670; 3273.650;  163.875;    0.000
770.862; 3404.650;   97.875;    0.000
771.055; 3179.650;  116.875;    0.000
771.248; 3210.650;  143.875;    0.000
771.441; 3119.650;  125.875;    0.000
771.633; 3268.650;  125.875;    0.000
771.826; 3557.650;  132.875;    0.000
772.018; 3469.650;  123.875;    0.000
772.211; 3538.650;  143.875;    0.000
772.404; 3465.650;  144.875;    0.000
772.596; 3405.650;  130.875;    0.000
772.789; 3554.650;  109.875;    0.000
772.981; 3576.650;  151.875;    0.000
773.174; 3504.650;  119.875;    0.000
773.366; 3688.650;  179.875;    0.000
773.559; 3794.650;  106.875;    0.000
773.751; 3964.650;  120.875;    0.000
773.944; 3925.650;  159.875;    0.000
774.136; 4029.650;  131.875;    0.000
774.329; 3903.650;  141.875;    0.000
774.521; 3916.650;  114.875;    0.000
774.713; 4451.650;  169.875;    0.000
774.906; 4336.650;  151.875;    0.000
775.098; 4564.650;   99.875;    0.000
775.290; 4589.650;  166.875;    0.000
775.483; 4917.650;  146.875;    0.000
775.675; 5229.650;  106.875;    0.000
775.867; 5441.650;   91.875;    0.000
776.059; 5765.650;  137.875;    0.000
776.251; 7076.650;  124.875;    0.000
776.444; 7604.650;  168.875;    0.000
776.636; 9026.650;  138.875;    0.000
776.828;11462.650;  155.875;    0.000
777.020;17998.650;  160.875;    0.000
777.212;30195.650;  153.875;    0.000
777.404;35287.648;  135.875;    0.000
777.596;31612.650;  144.875;    0.000
777.788;20940.650;  127.875;    0.000
777.980;13950.650;  141.875;    0.000
778.172;11111.650;  138.875;    0.000
778.364; 9093.650;  143.875;    0.000
778.556; 7949.650;  123.875;    0.000
778.748; 7435.650;  103.875;    0.000
778.940; 6656.650;  176.875;    0.000
779.132; 6217.650;  144.875;    0.000
779.324; 5410.650;   75.875;    0.000
779.516; 5300.650;  117.875;    0.000
779.708; 4783.650;  151.875;    0.000
779.900; 4959.650;  127.875;    0.000
780.091; 4382.650;  155.875;    0.000
780.283; 4226.650;  157.875;    0.000
780.475; 4147.650;  140.875;    0.000
780.667; 4263.650;  141.875;    0.000
780.859; 3901.650;  113.875;    0.000
781.050; 3780.650;  153.875;    0.000
781.242; 3752.650;  118.875;    0.000
781.434; 3551.650;  121.875;    0.000
781.625; 3679.650;  146.875;    0.000
781.817; 3504.650;  154.875;    0.000
782.008; 3537.650;  144.875;    0.000
782.200; 3327.650;  152.875;    0.000
782.392; 3353.650;  160.875;    0.000
782.583; 3355.650;  122.875;    0.000
782.775; 3341.650;  144.875;    0.000
782.966; 3330.650;  143.875;    0.000
783.158; 3111.650;  125.875;    0.000
783.349; 3274.650;  173.875;    0.000
783.541; 3007.650;  166.875;    0.000
783.732; 3174.650;  163.875;    0.000
783.924; 3180.650;  157.875;    0.000
784.115; 3163.650;  158.875;    0.000
784.306; 3180.650;  160.875;    0.000
784.498; 3443.650;  132.875;    0.000
784.689; 3138.650;  181.875;    0.000
784.880; 3151.650;  156.875;    0.000
785.072; 3197.650;  134.875;    0.000
785.263; 2961.650;  155.875;    0.000
785.454; 3185.650;  141.875;    0.000
785.645; 3204.650;  114.875;    0.000
785.837; 3069.650;  137.875;    0.000
786.028; 2846.650;  158.875;    0.000
786.219; 2928.650;  135.875;    0.000
786.410; 3026.650;  152.875;    0.000
786.601; 2979.650;  132.875;    0.000
786.792; 3100.650;  152.875;    0.000
786.984; 2884.650;  162.875;    0.000
787.175; 3041.650;   97.875;    0.000
787.366; 2990.650;  129.875;    0.000
787.557; 2813.650;  135.875;    0.000
787.748; 3015.650;  127.875;    0.000
787.939; 2979.650;  152.875;    0.000
788.130; 2964.650;  182.875;    0.000
788.321; 2994.650;  130.875;    0.000
788.512; 3128.650;  161.875;    0.000
788.703; 2965.650;  127.875;    0.000
788.894; 3191.650;  121.875;    0.000
789.084; 2985.650;  134.875;    0.000
789.275; 3104.650;  108.875;    0.000
789.466; 2929.650;  152.875;    0.000
789.657; 3004.650;  115.875;    0.000
789.848; 3059.650;  150.875;    0.000
790.039; 3038.650;  132.875;    0.000
790.229; 3045.650;  169.875;    0.000
790.420; 3150.650;  159.875;    0.000
790.611; 2977.650;  123.875;    0.000
790.801; 3035.650;  144.875;    0.000
790.992; 3062.650;  177.875;    0.000
791.183; 2952.650;  128.875;    0.000
791.373; 2804.650;  123.875;    0.000
791.564; 2920.650;  131.875;    0.000
791.755; 3035.650;  103.875;    0.000
791.945; 3116.650;  104.875;    0.000
792.136; 3011.650;  115.875;    0.000
792.326; 3071.650;   99.875;    0.000
792.517; 3035.650;  139.875;    0.000
792.707; 3073.650;  155.875;    0.000
792.898; 3023.650;  139.875;    0.000
793.088; 3255.650;  153.875;    0.000
793.279; 2979.650;  137.875;    0.000
793.469; 3279.650;  109.875;    0.000
793.660; 3156.650;  119.875;    0.000
793.850; 3323.650;  119.875;    0.000
794.040; 3589.650;  132.875;    0.000
794.231; 3697.650;  122.875;    0.000
794.421; 4075.650;  124.875;    0.000
794.611; 4707.650;  151.875;    0.000
794.802; 5869.650;  121.875;    0.000
794.992; 6516.650;  139.875;    0.000
795.182; 6410.650;  132.875;    0.000
795.372; 5371.650;  149.875;    0.000
795.563; 4941.650;  153.875;    0.000
795.753; 4548.650;  120.875;    0.000
795.943; 4117.650;  121.875;    0.000
796.133; 3698.650;   97.875;    0.000
796.323; 3789.650;  122.875;    0.000
796.513; 3498.650;  142.875;    0.000
796.703; 3561.650;  125.875;    0.000
796.893; 3408.650;  126.875;    0.000
797.083; 3214.650;  150.875;    0.000
797.273; 3394.650;  108.875;    0.000
797.463; 3356.650;  156.875;    0.000
797.653; 3118.650;   80.875;    0.000
797.843; 3113.650;   88.875;    0.000
798.033; 2966.650;   96.875;    0.000
798.223; 3016.650;  159.875;    0.000
798.413; 3091.650;  155.875;    0.000
798.603; 2958.650;  125.875;    0.000
798.793; 2776.650;  141.875;    0.000
798.983; 2802.650;  113.875;    0.000
799.172; 3001.650;   85.875;    0.000
799.362; 2755.650;  141.875;    0.000
799.552; 2776.650;  122.875;    0.000
799.742; 2735.650;  124.875;    0.000
799.932; 2840.650;  102.875;    0.000
800.121; 2764.650;  146.875;    0.000
800.311; 2721.650;  122.875;    0.000
800.501; 2739.650;  120.875;    0.000
800.690; 2857.650;  141.875;    0.000
800.880; 2933.650;  146.875;    0.000
801.070; 2663.650;  122.875;    0.000
801.259; 2618.650;  138.875;    0.000
801.449; 2849.650;  115.875;    0.000
801.638; 2898.650;  132.875;    0.000
801.828; 2658.650;   92.875;    0.000
802.017; 2749.650;  150.875;    0.000
802.207; 2848.650;  134.875;    0.000
802.396; 2860.650;  133.875;    0.000
802.586; 2904.650;  117.875;    0.000
802.775; 2686.650;  155.875;    0.000
802.965; 2902.650;  132.875;    0.000
803.154; 2747.650;  176.875;    0.000
803.343; 2581.650;  106.875;    0.000
803.533; 2833.650;  154.875;    0.000
803.722; 2684.650;   97.875;    0.000
803.911; 2704.650;  107.875;    0.000
804.101; 2733.650;  145.875;    0.000
804.290; 2886.650;  130.875;    0.000
804.479; 2600.650;  152.875;    0.000
804.668; 2841.650;  160.875;    0.000
804.857; 2567.650;  161.875;    0.000
805.047; 2678.650;  126.875;    0.000
805.236; 2874.650;  136.875;    0.000
805.425; 2853.650;  153.875;    0.000
805.614; 2774.650;  139.875;    0.000
805.803; 2815.650;  144.875;    0.000
805.992; 2830.650;  160.875;    0.000
806.181; 2854.650;  139.875;    0.000
806.370; 2828.650;  104.875;    0.000
806.559; 2664.650;  103.875;    0.000
806.748; 2715.650;  145.875;    0.000
806.937; 2844.650;  151.875;    0.000
807.126; 3032.650;  119.875;    0.000
807.315; 2901.650;  139.875;    0.000
807.504; 2769.650;  143.875;    0.000
807.693; 2825.650;  164.875;    0.000
807.882; 2841.650;  135.875;    0.000
808.071; 2807.650;  131.875;    0.000
808.260; 2790.650;  113.875;    0.000
808.448; 3024.650;  161.875;    0.000
808.637; 3114.650;  125.875;    0.000
808.826; 3062.650;  155.875;    0.000
809.015; 2903.650;  113.875;    0.000
809.203; 3156.650;  152.875;    0.000
809.392; 3221.650;   90.875;    0.000
809.581; 3096.650;  186.875;    0.000
809.770; 3054.650;   99.875;    0.000
809.958; 3175.650;  146.875;    0.000
810.147; 2885.650;  115.875;    0.000
810.335; 3082.650;  122.875;    0.000
810.524; 3245.650;  150.875;    0.000
810.713; 3232.650;  121.875;    0.000
810.901; 3279.650;  156.875;    0.000
811.090; 3378.650;  161.875;    0.000
811.278; 3298.650;  138.875;    0.000
811.467; 3580.650;  184.875;    0.000
811.655; 3687.650;  150.875;    0.000
811.844; 3555.650;  137.875;    0.000
812.032; 3654.650;  142.875;    0.000
812.220; 3544.650;  134.875;    0.000
812.409; 3493.650;  143.875;    0.000
812.597; 3599.650;  164.875;    0.000
812.785; 3651.650;  188.875;    0.000
812.974; 3642.650;  156.875;    0.000
813.162; 3605.650;  166.875;    0.000
813.350; 3776.650;  115.875;    0.000
813.539; 3789.650;  167.875;    0.000
813.727; 3769.650;  165.875;    0.000
813.915; 3828.650;  137.875;    0.000
814.103; 3960.650;  166.875;    0.000
814.291; 4195.650;  151.875;    0.000
814.479; 4094.650;  147.875;    0.000
814.668; 4108.650;  166.875;    0.000
814.856; 4067.650;  160.875;    0.000
815.044; 4339.650;  172.875;    0.000
815.232; 4377.650;  193.875;    0.000
815.420; 4620.650;  173.875;    0.000
815.608; 4765.650;  134.875;    0.000
815.796; 4799.650;  105.875;    0.000
815.984; 4835.650;  125.875;    0.000
816.172; 5316.650;  160.875;    0.000
816.360; 5649.650;  162.875;    0.000
816.548; 5520.650;  160.875;    0.000
816.736; 6143.650;  132.875;    0.000
816.924; 6733.650;  184.875;    0.000
817.111; 7193.650;  145.875;    0.000
817.299; 7744.650;  132.875;    0.000
817.487; 8549.650;  193.875;    0.000
817.675; 9961.650;  153.875;    0.000
817.863;12034.650;  153.875;    0.000
818.050;17234.650;  172.875;    0.000
818.238;33071.648;  131.875;    0.000
818.426;50408.648;  160.875;    0.000
818.613;37252.648;  136.875;    0.000
818.801;27970.650;  162.875;    0.000
818.989;26066.650;  153.875;    0.000
819.176;27159.650;  181.875;    0.000
819.364;40895.648;  165.875;    0.000
819.552;61245.648;  111.875;    0.000
819.739;47520.648;  192.875;    0.000
819.927;32896.648;  146.875;    0.000
820.114;26573.650;  154.875;    0.000
820.302;21999.650;  144.875;    0.000
820.489;18308.650;  133.875;    0.000
820.677;16625.650;  135.875;    0.000
820.864;15225.650;  130.875;    0.000
821.052;14254.650;   88.875;    0.000
821.239;13695.650;  143.875;    0.000
821.426;13245.650;  186.875;    0.000
821.614;15818.650;  171.875;    0.000
821.801;16698.650;   90.875;    0.000
821.988;13772.650;  143.875;    0.000
822.176;12765.650;   95.875;    0.000
822.363;12936.650;  148.875;    0.000
822.550;11896.650;  139.875;    0.000
822.737;10416.650;  122.875;    0.000
822.924; 9299.650;  171.875;    0.000
823.112; 8996.650;  147.875;    0.000
823.299; 8105.650;  111.875;    0.000
823.486; 7699.650;  161.875;    0.000
823.673; 7497.650;  124.875;    0.000
823.860; 7105.650;  151.875;    0.000
824.047; 6721.650;  145.875;    0.000
824.234; 8474.650;  139.875;    0.000
824.421; 8573.650;  110.875;    0.000
824.608; 7178.650;  145.875;    0.000
824.795; 6234.650;  115.875;    0.000
824.982; 5728.650;  148.875;    0.000
825.169; 5388.650;  135.875;    0.000
825.356; 5152.650;  122.875;    0.000
825.543; 4930.650;  142.875;    0.000
825.730; 4782.650;   89.875;    0.000
825.917; 4615.650;  127.875;    0.000
826.104; 4379.650;  187.875;    0.000
826.290; 4525.650;  138.875;    0.000
826.477; 4064.650;  140.875;    0.000
826.664; 4082.650;  106.875;    0.000
826.851; 3911.650;  155.875;    0.000
827.038; 3993.650;  125.875;    0.000
827.224; 3826.650;  126.875;    0.000
827.411; 3739.650;  163.875;    0.000
827.598; 3694.650;  140.875;    0.000
827.784; 3571.650;  117.875;    0.000
827.971; 3494.650;  114.875;    0.000
828.157; 3484.650;  146.875;    0.000
828.344; 3369.650;  161.875;    0.000
828.531; 3426.650;  155.875;    0.000
828.717; 3309.650;  130.875;    0.000
828.904; 3166.650;  138.875;    0.000
829.090; 3167.650;  176.875;    0.000
829.277; 3360.650;  152.875;    0.000
829.463; 2984.650;  139.875;    0.000
829.650; 3060.650;  168.875;    0.000
829.836; 2968.650;  176.875;    0.000
830.022; 2997.650;  159.875;    0.000
830.209; 3063.650;  135.875;    0.000
830.395; 2973.650;  177.875;    0.000
830.581; 3033.650;  125.875;    0.000
830.768; 2679.650;  155.875;    0.000
830.954; 2788.650;  187.875;    0.000
831.140; 2867.650;  135.875;    0.000
831.327; 2822.650;  158.875;    0.000
831.513; 2654.650;  126.875;    0.000
831.699; 2693.650;  167.875;    0.000
831.885; 2651.650;  165.875;    0.000
832.071; 2779.650;  167.875;    0.000
832.257; 2600.650;  144.875;    0.000
832.444; 2584.650;  158.875;    0.000
832.630; 2626.650;  167.875;    0.000
832.816; 2579.650;  150.875;    0.000
833.002; 2449.650;  157.875;    0.000
833.188; 2455.650;  169.875;    0.000
833.374; 2403.650;  144.875;    0.000
833.560; 2496.650;  179.875;    0.000
833.746; 2425.650;  134.875;    0.000
833.932; 2430.650;  150.875;    0.000
834.118; 2307.650;   98.875;    0.000
834.303; 2225.650;  121.875;    0.000
834.489; 2371.650;  179.875;    0.000
834.675; 2434.650;  136.875;    0.000
834.861; 2398.650;  130.875;    0.000
835.047; 2399.650;  132.875;    0.000
835.233; 2232.650;  104.875;    0.000
835.418; 2415.650;  143.875;    0.000
835.604; 2300.650;  127.875;    0.000
835.790; 2316.650;  138.875;    0.000
835.976; 2227.650;  137.875;    0.000
836.161; 2507.650;  155.875;    0.000
836.347; 2283.650;  101.875;    0.000
836.533; 2177.650;  121.875;    0.000
836.718; 2263.650;  150.875;    0.000
836.904; 2309.650;  168.875;    0.000
837.089; 2391.650;  169.875;    0.000
837.275; 2127.650;  172.875;    0.000
837.460; 2198.650;  140.875;    0.000
837.646; 2271.650;  144.875;    0.000
837.831; 2268.650;  137.875;    0.000
838.017; 2199.650;  176.875;    0.000
838.202; 2245.650;  107.875;    0.000
838.388; 2290.650;  181.875;    0.000
838.573; 2239.650;  151.875;    0.000
838.759; 2067.650;  160.875;    0.000
838.944; 2341.650;  121.875;    0.000
839.129; 2210.650;  145.875;    0.000
839.315; 2168.650;  166.875;    0.000
839.500; 2239.650;  143.875;    0.000
839.685; 2257.650;   93.875;    0.000
839.870; 2258.650;  160.875;    0.000
840.056; 2254.650;  132.875;    0.000
840.241; 2217.650;  154.875;    0.000
840.426; 2185.650;  161.875;    0.000
840.611; 2316.650;  186.875;    0.000
840.796; 2222.650;  135.875;    0.000
840.981; 2300.650;  147.875;    0.000
841.166; 2404.650;  138.875;    0.000
841.352; 2270.650;  156.875;    0.000
841.537; 2269.650;  170.875;    0.000
841.722; 2370.650;  143.875;    0.000
841.907; 2321.650;  143.875;    0.000
842.092; 2335.650;  166.875;    0.000
842.277; 2528.650;  113.875;    0.000
842.461; 2464.650;  126.875;    0.000
842.646; 2666.650;  145.875;    0.000
842.831; 2568.650;  193.875;    0.000
843.016; 2665.650;  162.875;    0.000
843.201; 2687.650;  144.875;    0.000
843.386; 2721.650;  160.875;    0.000
843.571; 2956.650;  136.875;    0.000
843.755; 3165.650;  134.875;    0.000
843.940; 3468.650;  136.875;    0.000
844.125; 3859.650;  169.875;    0.000
844.310; 4874.650;  189.875;    0.000
844.494; 6857.650;  167.875;    0.000
844.679;11096.650;  184.875;    0.000
844.864;11081.650;  147.875;    0.000
845.048; 7451.650;  140.875;    0.000
845.233; 6082.650;  178.875;    0.000
845.418; 4922.650;  145.875;    0.000
845.602; 4351.650;  147.875;    0.000
845.787; 3780.650;  147.875;    0.000
845.971; 3649.650;  165.875;    0.000
846.156; 3144.650;  106.875;    0.000
846.340; 2868.650;  168.875;    0.000
846.525; 2823.650;  155.875;    0.000
846.709; 2679.650;  157.875;    0.000
846.893; 2710.650;  166.875;    0.000
847.078; 2479.650;  138.875;    0.000
847.262; 2459.650;  171.875;    0.000
847.447; 2343.650;  135.875;    0.000
847.631; 2383.650;  136.875;    0.000
847.815; 2296.650;  136.875;    0.000
848.000; 2187.650;  126.875;    0.000
848.184; 2293.650;  131.875;    0.000
848.368; 1989.650;  153.875;    0.000
848.552; 2171.650;  137.875;    0.000
848.736; 2141.650;  151.875;    0.000
848.921; 2089.650;  156.875;    0.000
849.105; 1936.650;  153.875;    0.000
849.289; 1944.650;  180.875;    0.000
849.473; 1877.650;  156.875;    0.000
849.657; 2006.650;  157.875;    0.000
849.841; 2036.650;  147.875;    0.000
850.025; 1977.650;  194.875;    0.000
850.209; 1853.650;  147.875;    0.000
850.393; 1910.650;  141.875;    0.000
850.577; 1904.650;  156.875;    0.000
850.761; 1813.650;  157.875;    0.000
850.945; 1924.650;  128.875;    0.000
851.129; 1950.650;  151.875;    0.000
851.313; 1922.650;  180.875;    0.000
851.497; 1935.650;  123.875;    0.000
851.680; 1858.650;  188.875;    0.000
851.864; 1745.650;  177.875;    0.000
852.048; 1874.650;  163.875;    0.000
852.232; 1944.650;  149.875;    0.000
852.416; 1863.650;  187.875;    0.000
852.599; 1802.650;  169.875;    0.000
852.783; 1762.650;  154.875;    0.000
852.967; 1806.650;  191.875;    0.000
853.150; 1777.650;  170.875;    0.000
853.334; 1839.650;  173.875;    0.000
853.518; 1938.650;  186.875;    0.000
853.701; 1776.650;  142.875;    0.000
853.885; 1762.650;  153.875;    0.000
854.068; 1686.650;  132.875;    0.000
854.252; 1881.650;  184.875;    0.000
854.435; 1916.650;  152.875;    0.000
854.619; 1811.650;  152.875;    0.000
854.802; 1814.650;  164.875;    0.000
854.986; 1796.650;  151.875;    0.000
855.169; 1856.650;  153.875;    0.000
855.353; 1813.650;  183.875;    0.000
855.536; 1845.650;  113.875;    0.000
855.719; 1926.650;  181.875;    0.000
855.903; 1949.650;  159.875;    0.000
856.086; 1863.650;  142.875;    0.000
856.269; 1784.650;  171.875;    0.000
856.452; 1956.650;  132.875;    0.000
856.636; 2118.650;  140.875;    0.000
856.819; 2196.650;  165.875;    0.000
857.002; 2311.650;  170.875;    0.000
857.185; 2257.650;  173.875;    0.000
857.368; 2119.650;  129.875;    0.000
857.552; 2018.650;  151.875;    0.000
857.735; 2067.650;  146.875;    0.000
857.918; 1999.650;  114.875;    0.000
858.101; 2046.650;  152.875;    0.000
858.284; 1971.650;  164.875;    0.000
858.467; 1960.650;  147.875;    0.000
858.650; 2047.650;  146.875;    0.000
858.833; 2121.650;  118.875;    0.000
859.016; 2214.650;  161.875;    0.000
859.199; 2305.650;  135.875;    0.000
859.382; 2605.650;  157.875;    0.000
859.564; 3063.650;  124.875;    0.000
859.747; 2804.650;  154.875;    0.000
859.930; 2586.650;  138.875;    0.000
860.113; 2368.650;  153.875;    0.000
860.296; 2596.650;  180.875;    0.000
860.478; 2215.650;  145.875;    0.000
860.661; 2291.650;  160.875;    0.000
860.844; 2194.650;   96.875;    0.000
861.027; 2241.650;  128.875;    0.000
861.209; 2069.650;  127.875;    0.000
861.392; 2085.650;  126.875;    0.000
861.575; 2231.650;  155.875;    0.000
861.757; 2208.650;  141.875;    0.000
861.940; 2230.650;  181.875;    0.000
862.122; 2278.650;  145.875;    0.000
862.305; 2446.650;  124.875;    0.000
862.487; 2521.650;  151.875;    0.000
862.670; 2511.650;  132.875;    0.000
862.852; 3528.650;  112.875;    0.000
863.035; 4740.650;  116.875;    0.000
863.217; 4672.650;  131.875;    0.000
863.400; 3726.650;  145.875;    0.000
863.582; 3247.650;  147.875;    0.000
863.764; 3075.650;  163.875;    0.000
863.947; 3133.650;  129.875;    0.000
864.129; 2733.650;  159.875;    0.000
864.311; 2618.650;  144.875;    0.000
864.493; 2759.650;  141.875;    0.000
864.676; 2533.650;  159.875;    0.000
864.858; 2568.650;  146.875;    0.000
865.040; 2500.650;  163.875;    0.000
865.222; 2576.650;  133.875;    0.000
865.404; 2709.650;  148.875;    0.000
865.587; 2808.650;  177.875;    0.000
865.769; 3027.650;  172.875;    0.000
865.951; 2977.650;  145.875;    0.000
866.133; 2727.650;  168.875;    0.000
866.315; 2656.650;  147.875;    0.000
866.497; 2681.650;  164.875;    0.000
866.679; 2715.650;  143.875;    0.000
866.861; 3092.650;  170.875;    0.000
867.043; 3035.650;  185.875;    0.000
867.225; 3197.650;  149.875;    0.000
867.407; 3652.650;  143.875;    0.000
867.589; 4013.650;  169.875;    0.000
867.770; 5349.650;  166.875;    0.000
867.952; 8029.650;  158.875;    0.000
868.134;12024.650;  170.875;    0.000
868.316;11855.650;  157.875;    0.000
868.498;11048.650;  186.875;    0.000
868.679; 8966.650;  158.875;    0.000
868.861; 7184.650;  180.875;    0.000
869.043; 5553.650;  164.875;    0.000
869.224; 4807.650;  156.875;    0.000
869.406; 4107.650;  176.875;    0.000
869.588; 4030.650;  152.875;    0.000
869.769; 3693.650;  131.875;    0.000
869.951; 3586.650;  203.875;    0.000
870.132; 3525.650;  143.875;    0.000
870.314; 4393.650;  129.875;    0.000
870.495; 4650.650;  175.875;    0.000
870.677; 3918.650;  165.875;    0.000
870.858; 3738.650;  151.875;    0.000
871.040; 4116.650;  155.875;    0.000
871.221; 5108.650;  144.875;    0.000
871.403; 4934.650;  131.875;    0.000
871.584; 3980.650;  174.875;    0.000
871.765; 3942.650;  169.875;    0.000
871.947; 4595.650;  187.875;    0.000
872.128; 4143.650;  181.875;    0.000
872.309; 3384.650;  129.875;    0.000
872.491; 2891.650;  142.875;    0.000
872.672; 2624.650;  158.875;    0.000
872.853; 2789.650;  179.875;    0.000
873.034; 2583.650;  164.875;    0.000
873.215; 2511.650;  168.875;    0.000
873.396; 2217.650;  114.875;    0.000
873.578; 2109.650;  126.875;    0.000
873.759; 2084.650;  177.875;    0.000
873.940; 2191.650;  169.875;    0.000
874.121; 1945.650;  133.875;    0.000
874.302; 2002.650;  164.875;    0.000
874.483; 1778.650;  162.875;    0.000
874.664; 1925.650;  140.875;    0.000
874.845; 1989.650;  124.875;    0.000
875.026; 1972.650;  146.875;    0.000
875.207; 1868.650;  147.875;    0.000
875.388; 1746.650;  174.875;    0.000
875.568; 1742.650;  179.875;    0.000
875.749; 1712.650;  155.875;    0.000
875.930; 1823.650;  166.875;    0.000
876.111; 1717.650;  153.875;    0.000
876.292; 1612.650;  146.875;    0.000
876.472; 1666.650;  167.875;    0.000
876.653; 1541.650;  145.875;    0.000
876.834; 1551.650;  172.875;    0.000
877.015; 1674.650;  184.875;    0.000
877.195; 1609.650;  160.875;    0.000
877.376; 1494.650;  163.875;    0.000
877.556; 1520.650;  164.875;    0.000
877.737; 1597.650;  179.875;    0.000
877.918; 1528.650;  137.875;    0.000
878.098; 1474.650;  117.875;    0.000
878.279; 1548.650;  135.875;    0.000
878.459; 1455.650;  149.875;    0.000
878.640; 1546.650;  171.875;    0.000
878.820; 1385.650;  142.875;    0.000
879.000; 1520.650;  166.875;    0.000
879.181; 1503.650;  177.875;    0.000
879.361; 1445.650;  176.875;    0.000
879.542; 1572.650;  159.875;    0.000
879.722; 1498.650;  122.875;    0.000
879.902; 1471.650;  166.875;    0.000
880.083; 1417.650;  164.875;    0.000
880.263; 1398.650;  139.875;    0.000
880.443; 1579.650;  179.875;    0.000
880.623; 1654.650;  154.875;    0.000
880.803; 1785.650;  160.875;    0.000
880.984; 1650.650;  181.875;    0.000
881.164; 1626.650;  167.875;    0.000
881.344; 1507.650;  141.875;    0.000
881.524; 1544.650;  190.875;    0.000
881.704; 1554.650;  165.875;    0.000
881.884; 1672.650;  144.875;    0.000
882.064; 1896.650;  135.875;    0.000
882.244; 1867.650;  186.875;    0.000
882.424; 1809.650;  150.875;    0.000
882.604; 1566.650;  168.875;    0.000
882.784; 1587.650;  155.875;    0.000
882.964; 1537.650;  137.875;    0.000
883.144; 1531.650;  136.875;    0.000
883.324; 1506.650;  200.875;    0.000
883.504; 1574.650;  203.875;    0.000
883.683; 1483.650;  149.875;    0.000
883.863; 1436.650;  160.875;    0.000
884.043; 1351.650;  161.875;    0.000
884.223; 1374.650;  147.875;    0.000
884.402; 1306.650;  175.875;    0.000
884.582; 1477.650;  188.875;    0.000
884.762; 1413.650;  173.875;    0.000
884.941; 1335.650;  164.875;    0.000
885.121; 1402.650;  147.875;    0.000
885.301; 1336.650;  135.875;    0.000
885.480; 1392.650;  145.875;    0.000
885.660; 1382.650;  144.875;    0.000
885.839; 1393.650;  155.875;    0.000
886.019; 1354.650;  207.875;    0.000
886.198; 1343.650;  165.875;    0.000
886.378; 1387.650;  120.875;    0.000
886.557; 1372.650;  133.875;    0.000
886.737; 1282.650;  119.875;    0.000
886.916; 1382.650;  129.875;    0.000
887.095; 1287.650;  158.875;    0.000
887.275; 1375.650;  169.875;    0.000
887.454; 1365.650;  184.875;    0.000
887.633; 1358.650;  143.875;    0.000
887.813; 1296.650;  154.875;    0.000
887.992; 1271.650;  188.875;    0.000
888.171; 1335.650;  176.875;    0.000
888.350; 1220.650;  161.875;    0.000
888.530; 1312.650;  163.875;    0.000
888.709; 1281.650;  136.875;    0.000
888.888; 1299.650;  177.875;    0.000
889.067; 1265.650;  169.875;    0.000
889.246; 1403.650;  188.875;    0.000
889.425; 1313.650;  187.875;    0.000
889.604; 1390.650;  169.875;    0.000
889.783; 1339.650;  182.875;    0.000
889.962; 1264.650;  112.875;    0.000
890.141; 1223.650;  231.875;    0.000
890.320; 1272.650;  161.875;    0.000
890.499; 1352.650;  164.875;    0.000
890.678; 1143.650;  176.875;    0.000
890.857; 1283.650;  163.875;    0.000
891.036; 1309.650;  161.875;    0.000
891.214; 1239.650;  156.875;    0.000
891.393; 1297.650;  167.875;    0.000
891.572; 1307.650;  163.875;    0.000
891.751; 1277.650;  205.875;    0.000
891.930; 1312.650;  162.875;    0.000
892.108; 1291.650;  153.875;    0.000
892.287; 1286.650;  153.875;    0.000
892.466; 1241.650;  201.875;    0.000
892.644; 1348.650;  158.875;    0.000
892.823; 1237.650;  122.875;    0.000
893.001; 1243.650;  148.875;    0.000
893.180; 1320.650;  142.875;    0.000
893.359; 1288.650;  192.875;    0.000
893.537; 1369.650;  166.875;    0.000
893.716; 1306.650;  144.875;    0.000
893.894; 1255.650;  145.875;    0.000
894.073; 1251.650;  180.875;    0.000
894.251; 1221.650;  165.875;    0.000
894.429; 1206.650;  182.875;    0.000
894.608; 1358.650;  181.875;    0.000
894.786; 1265.650;  180.875;    0.000
894.964; 1203.650;  207.875;    0.000
895.143; 1238.650;  190.875;    0.000
895.321; 1260.650;  206.875;    0.000
895.499; 1352.650;  164.875;    0.000
895.677; 1316.650;  199.875;    0.000
895.856; 1311.650;  203.875;    0.000
896.034; 1346.650;  200.875;    0.000
896.212; 1309.650;  198.875;    0.000
896.390; 1331.650;  161.875;    0.000
896.568; 1273.650;  205.875;    0.000
896.746; 1225.650;  185.875;    0.000
896.924; 1344.650;  179.875;    0.000
897.102; 1322.650;  190.875;    0.000
897.280; 1331.650;  160.875;    0.000
897.458; 1236.650;  196.875;    0.000
897.636; 1352.650;  168.875;    0.000
897.814; 1385.650;  159.875;    0.000
897.992; 1324.650;  216.875;    0.000
898.170; 1269.650;  195.875;    0.000
898.348; 1267.650;  185.875;    0.000
898.526; 1335.650;  199.875;    0.000
898.704; 1414.650;  215.875;    0.000
898.882; 1303.650;  195.875;    0.000
899.059; 1354.650;  197.875;    0.000
899.237; 1315.650;  168.875;    0.000
899.415; 1441.650;  221.875;    0.000
899.593; 1400.650;  171.875;    0.000
899.770; 1373.650;  191.875;    0.000
899.948; 1324.650;  206.875;    0.000
900.125; 1267.650;  175.875;    0.000
900.303; 1294.650;  176.875;    0.000
900.481; 1401.650;  199.875;    0.000
900.658; 1398.650;  217.875;    0.000
900.836; 1333.650;  192.875;    0.000
901.013; 1445.650;  221.875;    0.000
901.191; 1440.650;  203.875;    0.000
901.368; 1366.650;  189.875;    0.000
901.546; 1548.650;  212.875;    0.000
901.723; 1480.650;  189.875;    0.000
901.901; 1558.650;  198.875;    0.000
902.078; 1563.650;  193.875;    0.000
902.255; 1640.650;  176.875;    0.000
902.433; 1569.650;  201.875;    0.000
902.610; 1537.650;  170.875;    0.000
902.787; 1562.650;  164.875;    0.000
902.964; 1667.650;  216.875;    0.000
903.142; 1691.650;  153.875;    0.000
903.319; 1908.650;  204.875;    0.000
903.496; 1848.650;  188.875;    0.000
903.673; 1756.650;  209.875;    0.000
903.850; 1903.650;  173.875;    0.000
904.027; 1861.650;  186.875;    0.000
904.204; 1993.650;  241.875;    0.000
904.381; 2163.650;  187.875;    0.000
904.558; 2775.650;  196.875;    0.000
904.735; 3313.650;  206.875;    0.000
904.912; 2990.650;  228.875;    0.000
905.089; 3148.650;  172.875;    0.000
905.266; 2821.650;  175.875;    0.000
905.443; 2539.650;  239.875;    0.000
905.620; 2298.650;  176.875;    0.000
905.797; 2122.650;  205.875;    0.000
905.974; 2073.650;  187.875;    0.000
906.151; 2090.650;  135.875;    0.000
906.327; 2193.650;  209.875;    0.000
906.504; 2092.650;  145.875;    0.000
906.681; 2096.650;  178.875;    0.000
906.858; 1904.650;  179.875;    0.000
907.034; 1792.650;  221.875;    0.000
907.211; 1652.650;  166.875;    0.000
907.388; 1793.650;  206.875;    0.000
907.564; 1665.650;  150.875;    0.000
907.741; 1657.650;  187.875;    0.000
907.917; 1691.650;  180.875;    0.000
908.094; 1591.650;  206.875;    0.000
908.271; 1570.650;  184.875;    0.000
908.447; 1648.650;  212.875;    0.000
908.623; 1490.650;  193.875;    0.000
908.800; 1551.650;  185.875;    0.000
908.976; 1561.650;  202.875;    0.000
909.153; 1466.650;  175.875;    0.000
909.329; 1463.650;  193.875;    0.000
909.505; 1412.650;  154.875;    0.000
909.682; 1561.650;  188.875;    0.000
909.858; 1444.650;  162.875;    0.000
910.034; 1474.650;  181.875;    0.000
910.211; 1385.650;  142.875;    0.000
910.387; 1439.650;  200.875;    0.000
910.563; 1448.650;  163.875;    0.000
910.739; 1347.650;  156.875;    0.000
910.915; 1410.650;  202.875;    0.000
911.091; 1378.650;  186.875;    0.000
911.268; 1403.650;  167.875;    0.000
911.444; 1299.650;  193.875;    0.000
911.620; 1303.650;  175.875;    0.000
911.796; 1416.650;  168.875;    0.000
911.972; 1364.650;  154.875;    0.000
912.148; 1337.650;  201.875;    0.000
912.324; 1381.650;  146.875;    0.000
912.500; 1419.650;  185.875;    0.000
912.676; 1363.650;  183.875;    0.000
912.851; 1363.650;  204.875;    0.000
913.027; 1290.650;  196.875;    0.000
913.203; 1386.650;  174.875;    0.000
913.379; 1303.650;  210.875;    0.000
913.555; 1405.650;  197.875;    0.000
913.730; 1409.650;  209.875;    0.000
913.906; 1280.650;  169.875;    0.000
914.082; 1350.650;  236.875;    0.000
914.258; 1437.650;  216.875;    0.000
914.433; 1360.650;  212.875;    0.000
914.609; 1400.650;  180.875;    0.000
914.784; 1315.650;  176.875;    0.000
914.960; 1276.650;  227.875;    0.000
915.136; 1278.650;  149.875;    0.000
915.311; 1395.650;  165.875;    0.000
915.487; 1355.650;  167.875;    0.000
915.662; 1301.650;  225.875;    0.000
915.838; 1417.650;  165.875;    0.000
916.013; 1388.650;  188.875;    0.000
916.189; 1283.650;  200.875;    0.000
916.364; 1413.650;  201.875;    0.000
916.539; 1400.650;  240.875;    0.000
916.715; 1460.650;  180.875;    0.000
916.890; 1395.650;  191.875;    0.000
917.065; 1315.650;  211.875;    0.000
917.240; 1386.650;  212.875;    0.000
917.416; 1437.650;  207.875;    0.000
917.591; 1297.650;  189.875;    0.000
917.766; 1409.650;  205.875;    0.000
917.941; 1405.650;  191.875;    0.000
918.116; 1286.650;  195.875;    0.000
918.292; 1322.650;  183.875;    0.000
918.467; 1516.650;  206.875;    0.000
918.642; 1376.650;  190.875;    0.000
918.817; 1362.650;  193.875;    0.000
918.992; 1292.650;  171.875;    0.000
919.167; 1382.650;  191.875;    0.000
919.342; 1421.650;  202.875;    0.000
919.517; 1393.650;  182.875;    0.000
919.692; 1356.650;  190.875;    0.000
919.867; 1349.650;  221.875;    0.000
920.041; 1460.650;  195.875;    0.000
920.216; 1466.650;  226.875;    0.000
920.391; 1562.650;  230.875;    0.000
920.566; 1513.650;  210.875;    0.000
920.741; 1648.650;  204.875;    0.000
920.915; 1669.650;  213.875;    0.000
921.090; 1824.650;  194.875;    0.000
921.265; 2468.650;  234.875;    0.000
921.439; 3200.650;  228.875;    0.000
921.614; 2453.650;  199.875;    0.000
921.789; 1990.650;  194.875;    0.000
921.963; 1789.650;  236.875;    0.000
922.138; 1665.650;  192.875;    0.000
922.312; 1767.650;  203.875;    0.000
922.487; 1828.650;  207.875;    0.000
922.661; 1914.650;  216.875;    0.000
922.836; 2326.650;  199.875;    0.000
923.010; 2568.650;  179.875;    0.000
923.185; 2213.650;  241.875;    0.000
923.359; 1955.650;  199.875;    0.000
923.534; 1928.650;  227.875;    0.000
923.708; 2094.650;  213.875;    0.000
923.882; 2311.650;  203.875;    0.000
924.057; 2152.650;  194.875;    0.000
924.231; 2021.650;  185.875;    0.000
924.405; 1819.650;  223.875;    0.000
924.579; 1792.650;  196.875;    0.000
924.753; 1833.650;  209.875;    0.000
924.928; 1643.650;  202.875;    0.000
925.102; 1842.650;  184.875;    0.000
925.276; 1755.650;  191.875;    0.000
925.450; 1811.650;  199.875;    0.000
925.624; 1836.650;  190.875;    0.000
925.798; 1927.650;  214.875;    0.000
925.972; 2194.650;  193.875;    0.000
926.146; 2331.650;  191.875;    0.000
926.320; 2747.650;  177.875;    0.000
926.494; 3069.650;  190.875;    0.000
926.668; 3139.650;  182.875;    0.000
926.842; 3322.650;  182.875;    0.000
927.016; 3233.650;  235.875;    0.000
927.190; 3191.650;  234.875;    0.000
927.363; 2990.650;  214.875;    0.000
927.537; 2653.650;  198.875;    0.000
927.711; 2622.650;  154.875;    0.000
927.885; 2446.650;  167.875;    0.000
928.058; 2373.650;  210.875;    0.000
928.232; 2314.650;  206.875;    0.000
928.406; 2262.650;  176.875;    0.000
928.579; 2126.650;  182.875;    0.000
928.753; 2230.650;  179.875;    0.000
928.927; 2084.650;  186.875;    0.000
929.100; 1944.650;  188.875;    0.000
929.274; 1830.650;  167.875;    0.000
929.447; 1940.650;  152.875;    0.000
929.621; 1846.650;  195.875;    0.000
929.794; 1911.650;  200.875;    0.000
929.968; 1773.650;  203.875;    0.000
930.141; 1830.650;  237.875;    0.000
930.315; 1741.650;  165.875;    0.000
930.488; 1686.650;  175.875;    0.000
930.661; 1735.650;  173.875;    0.000
930.835; 1654.650;  171.875;    0.000
931.008; 1730.650;  210.875;    0.000
931.181; 1622.650;  206.875;    0.000
931.354; 1622.650;  195.875;    0.000
931.528; 1603.650;  178.875;    0.000
931.701; 1522.650;  179.875;    0.000
931.874; 1442.650;  150.875;    0.000
932.047; 1538.650;  154.875;    0.000
932.220; 1478.650;  185.875;    0.000
932.393; 1513.650;  166.875;    0.000
932.566; 1498.650;  171.875;    0.000
932.739; 1476.650;  196.875;    0.000
932.912; 1432.650;  212.875;    0.000
933.085; 1398.650;  234.875;    0.000
933.258; 1462.650;  212.875;    0.000
933.431; 1280.650;  181.875;    0.000
933.604; 1383.650;  201.875;    0.000
933.777; 1363.650;  201.875;    0.000
933.950; 1362.650;  176.875;    0.000
934.123; 1348.650;  175.875;    0.000
934.296; 1413.650;  174.875;    0.000
934.468; 1339.650;  186.875;    0.000
934.641; 1369.650;  192.875;    0.000
934.814; 1330.650;  187.875;    0.000
934.987; 1335.650;  165.875;    0.000
935.159; 1374.650;  162.875;    0.000
935.332; 1387.650;  210.875;    0.000
935.505; 1374.650;  191.875;    0.000
935.677; 1326.650;  159.875;    0.000
935.850; 1347.650;  170.875;    0.000
936.022; 1422.650;  172.875;    0.000
936.195; 1385.650;  202.875;    0.000
936.367; 1410.650;  179.875;    0.000
936.540; 1416.650;  207.875;    0.000
936.712; 1407.650;  200.875;    0.000
936.885; 1390.650;  219.875;    0.000
937.057; 1384.650;  150.875;    0.000
937.229; 1554.650;  187.875;    0.000
937.402; 1443.650;  169.875;    0.000
937.574; 1407.650;  127.875;    0.000
937.746; 1444.650;  171.875;    0.000
937.919; 1533.650;  176.875;    0.000
938.091; 1652.650;  193.875;    0.000
938.263; 1787.650;  200.875;    0.000
938.435; 2007.650;  181.875;    0.000
938.608; 2437.650;  191.875;    0.000
938.780; 3054.650;  173.875;    0.000
938.952; 3269.650;  184.875;    0.000
939.124; 3111.650;  171.875;    0.000
939.296; 3803.650;  156.875;    0.000
939.468; 4198.650;  147.875;    0.000
939.640; 3326.650;  186.875;    0.000
939.812; 2918.650;  217.875;    0.000
939.984; 2353.650;  155.875;    0.000
940.156; 2183.650;  191.875;    0.000
940.328; 2024.650;  201.875;    0.000
940.500; 1848.650;  176.875;    0.000
940.672; 1874.650;  190.875;    0.000
940.843; 1806.650;  143.875;    0.000
941.015; 1747.650;  189.875;    0.000
941.187; 1599.650;  172.875;    0.000
941.359; 1709.650;  175.875;    0.000
941.531; 1704.650;  154.875;    0.000
941.702; 1508.650;  183.875;    0.000
941.874; 1429.650;  140.875;    0.000
942.046; 1433.650;  177.875;    0.000
942.217; 1380.650;  147.875;    0.000
942.389; 1571.650;  196.875;    0.000
942.560; 1399.650;  163.875;    0.000
942.732; 1376.650;  187.875;    0.000
942.904; 1356.650;  226.875;    0.000
943.075; 1275.650;  159.875;    0.000
943.247; 1329.650;  209.875;    0.000
943.418; 1223.650;  167.875;    0.000
943.589; 1287.650;  195.875;    0.000
943.761; 1373.650;  190.875;    0.000
943.932; 1383.650;  187.875;    0.000
944.104; 1268.650;  194.875;    0.000
944.275; 1323.650;  177.875;    0.000
944.446; 1251.650;  155.875;    0.000
944.617; 1276.650;  176.875;    0.000
944.789; 1205.650;  171.875;    0.000
944.960; 1159.650;  172.875;    0.000
945.131; 1225.650;  158.875;    0.000
945.302; 1217.650;  201.875;    0.000
945.473; 1105.650;  141.875;    0.000
945.645; 1174.650;  197.875;    0.000
945.816; 1175.650;  165.875;    0.000
945.987; 1274.650;  190.875;    0.000
946.158; 1392.650;  158.875;    0.000
946.329; 1292.650;  160.875;    0.000
946.500; 1182.650;  190.875;    0.000
946.671; 1177.650;  152.875;    0.000
946.842; 1218.650;  182.875;    0.000
947.013; 1239.650;  160.875;    0.000
947.183; 1201.650;  203.875;    0.000
947.354; 1158.650;  174.875;    0.000
947.525; 1106.650;  173.875;    0.000
947.696; 1174.650;  170.875;    0.000
947.867; 1197.650;  187.875;    0.000
948.037; 1168.650;  165.875;    0.000
948.208; 1266.650;  154.875;    0.000
948.379; 1254.650;  176.875;    0.000
948.550; 1208.650;  176.875;    0.000
948.720; 1094.650;  169.875;    0.000
948.891; 1147.650;  216.875;    0.000
949.061; 1138.650;  200.875;    0.000
949.232; 1100.650;  163.875;    0.000
949.403; 1097.650;  157.875;    0.000
949.573; 1172.650;  158.875;    0.000
949.744; 1177.650;  213.875;    0.000
949.914; 1068.650;  177.875;    0.000
950.085; 1117.650;  195.875;    0.000
950.255; 1234.650;  166.875;    0.000
950.425; 1091.650;  196.875;    0.000
950.596; 1132.650;  176.875;    0.000
950.766; 1219.650;  228.875;    0.000
950.936; 1090.650;  185.875;    0.000
951.107; 1054.650;  178.875;    0.000
951.277; 1091.650;  227.875;    0.000
951.447; 1049.650;  219.875;    0.000
951.617; 1081.650;  219.875;    0.000
951.788; 1128.650;  198.875;    0.000
951.958; 1090.650;  202.875;    0.000
952.128; 1149.650;  197.875;    0.000
952.298; 1110.650;  211.875;    0.000
952.468; 1090.650;  233.875;    0.000
952.638; 1047.650;  222.875;    0.000
952.808; 1108.650;  210.875;    0.000
952.978; 1076.650;  216.875;    0.000
953.148; 1084.650;  203.875;    0.000
953.318; 1004.650;  212.875;    0.000
953.488; 1091.650;  156.875;    0.000
953.658; 1047.650;  226.875;    0.000
953.828;  995.650;  223.875;    0.000
953.998; 1097.650;  209.875;    0.000
954.167; 1053.650;  203.875;    0.000
954.337; 1035.650;  209.875;    0.000
954.507; 1035.650;  252.875;    0.000
954.677; 1035.650;  207.875;    0.000
954.846; 1012.650;  240.875;    0.000
955.016;  950.650;  197.875;    0.000
955.186; 1009.650;  208.875;    0.000
955.355;  981.650;  243.875;    0.000
955.525;  973.650;  211.875;    0.000
955.695;  965.650;  187.875;    0.000
955.864; 1002.650;  204.875;    0.000
956.034;  976.650;  199.875;    0.000
956.203;  986.650;  257.875;    0.000
956.373;  904.650;  193.875;    0.000
956.542;  956.650;  187.875;    0.000
956.711;  964.650;  259.875;    0.000
956.881;  937.650;  227.875;    0.000
957.050;  946.650;  260.875;    0.000
957.220;  949.650;  246.875;    0.000
957.389;  957.650;  211.875;    0.000
957.558;  913.650;  197.875;    0.000
957.727;  996.650;  227.875;    0.000
957.897;  972.650;  219.875;    0.000
958.066;  922.650;  180.875;    0.000
958.235;  924.650;  179.875;    0.000
958.404;  992.650;  194.875;    0.000
958.573;  929.650;  235.875;    0.000
958.743;  911.650;  191.875;    0.000
958.912;  908.650;  181.875;    0.000
959.081;  891.650;  193.875;    0.000
959.250;  853.650;  180.875;    0.000
959.419;  942.650;  205.875;    0.000
959.588;  969.650;  241.875;    0.000
959.757;  923.650;  202.875;    0.000
959.926;  945.650;  212.875;    0.000
960.094;  848.650;  199.875;    0.000
960.263;  910.650;  226.875;    0.000
960.432;  924.650;  188.875;    0.000
960.601;  831.650;  200.875;    0.000
960.770;  828.650;  197.875;    0.000
960.939;  815.650;  195.875;    0.000
961.107;  870.650;  198.875;    0.000
961.276;  841.650;  151.875;    0.000
961.445;  903.650;  227.875;    0.000
961.613;  959.650;  186.875;    0.000
961.782;  905.650;  187.875;    0.000
961.951;  846.650;  194.875;    0.000
962.119;  878.650;  227.875;    0.000
962.288;  885.650;  181.875;    0.000
962.456;  889.650;  206.875;    0.000
962.625;  974.650;  181.875;    0.000
962.793;  872.650;  216.875;    0.000
962.962;  936.650;  237.875;    0.000
963.130;  864.650;  194.875;    0.000
963.298;  884.650;  190.875;    0.000
963.467;  884.650;  204.875;    0.000
963.635;  813.650;  159.875;    0.000
963.803;  863.650;  208.875;    0.000
963.972;  871.650;  206.875;    0.000
964.140;  887.650;  178.875;    0.000
964.308;  817.650;  185.875;    0.000
964.477;  916.650;  189.875;    0.000
964.645;  849.650;  201.875;    0.000
964.813;  911.650;  200.875;    0.000
964.981;  847.650;  160.875;    0.000
965.149;  950.650;  230.875;    0.000
965.317;  971.650;  214.875;    0.000
965.485;  946.650;  190.875;    0.000
965.653;  891.650;  239.875;    0.000
965.821;  875.650;  211.875;    0.000
965.989;  882.650;  216.875;    0.000
966.157;  857.650;  198.875;    0.000
966.325;  930.650;  200.875;    0.000
966.493;  891.650;  187.875;    0.000
966.661;  907.650;  181.875;    0.000
966.829;  824.650;  181.875;    0.000
966.996;  942.650;  220.875;    0.000
967.164;  890.650;  179.875;    0.000
967.332;  995.650;  203.875;    0.000
967.500;  945.650;  200.875;    0.000
967.667;  937.650;  196.875;    0.000
967.835;  960.650;  199.875;    0.000
968.003;  928.650;  191.875;    0.000
968.170;  941.650;  141.875;    0.000
968.338;  956.650;  185.875;    0.000
968.505;  920.650;  199.875;    0.000
968.673;  977.650;  191.875;    0.000
968.841;  857.650;  165.875;    0.000
969.008;  846.650;  192.875;    0.000
969.175;  815.650;  172.875;    0.000
969.343;  899.650;  191.875;    0.000
969.510;  902.650;  199.875;    0.000
969.678;  806.650;  156.875;    0.000
969.845;  832.650;  191.875;    0.000
970.012;  883.650;  205.875;    0.000
970.180;  899.650;  201.875;    0.000
970.347;  820.650;  229.875;    0.000
970.514;  844.650;  207.875;    0.000
970.681;  831.650;  169.875;    0.000
970.849;  879.650;  196.875;    0.000
971.016;  801.650;  212.875;    0.000
971.183;  833.650;  178.875;    0.000
971.350;  845.650;  193.875;    0.000
971.517;  857.650;  190.875;    0.000
971.684;  899.650;  261.875;    0.000
971.851;  986.650;  203.875;    0.000
972.018;  814.650;  184.875;    0.000
972.185;  838.650;  226.875;    0.000
972.352;  838.650;  180.875;    0.000
972.519;  903.650;  226.875;    0.000
972.686;  792.650;  233.875;    0.000
972.853;  880.650;  173.875;    0.000
973.020;  848.650;  208.875;    0.000
973.186;  890.650;  173.875;    0.000
973.353;  839.650;  218.875;    0.000
973.520;  845.650;  218.875;    0.000
973.687;  803.650;  176.875;    0.000
973.853;  827.650;  203.875;    0.000
974.020;  842.650;  196.875;    0.000
974.187;  785.650;  188.875;    0.000
974.353;  890.650;  230.875;    0.000
974.520;  865.650;  195.875;    0.000
974.687;  831.650;  209.875;    0.000
974.853;  828.650;  189.875;    0.000
975.020;  868.650;  179.875;    0.000
975.186;  814.650;  204.875;    0.000
975.353;  816.650;  201.875;    0.000
975.519;  853.650;  200.875;    0.000
975.685;  757.650;  176.875;    0.000
975.852;  843.650;  197.875;    0.000
976.018;  862.650;  201.875;    0.000
976.184;  851.650;  176.875;    0.000
976.351;  840.650;  221.875;    0.000
976.517;  804.650;  203.875;    0.000
976.683;  913.650;  236.875;    0.000
976.849;  884.650;  190.875;    0.000
977.016;  833.650;  173.875;    0.000
977.182;  859.650;  200.875;    0.000
977.348;  839.650;  179.875;    0.000
977.514;  762.650;  159.875;    0.000
977.680;  865.650;  200.875;    0.000
977.846;  820.650;  206.875;    0.000
978.012;  815.650;  219.875;    0.000
978.178;  805.650;  229.875;    0.000
978.344;  740.650;  195.875;    0.000
978.510;  808.650;  209.875;    0.000
978.676;  791.650;  190.875;    0.000
978.842;  895.650;  195.875;    0.000
979.008;  826.650;  186.875;    0.000
979.174;  823.650;  185.875;    0.000
979.340;  825.650;  198.875;    0.000
979.505;  789.650;  214.875;    0.000
979.671;  869.650;  159.875;    0.000
979.837;  832.650;  202.875;    0.000
980.003;  813.650;  190.875;    0.000
980.168;  860.650;  216.875;    0.000
980.334;  880.650;  194.875;    0.000
980.499;  822.650;  229.875;    0.000
980.665;  887.650;  240.875;    0.000
980.831;  832.650;  202.875;    0.000
980.996;  845.650;  179.875;    0.000
981.162;  893.650;  212.875;    0.000
981.327;  868.650;  202.875;    0.000
981.493;  853.650;  219.875;    0.000
981.658;  867.650;  218.875;    0.000
981.823;  842.650;  207.875;    0.000
981.989;  850.650;  207.875;    0.000
982.154;  829.650;  224.875;    0.000
982.319;  888.650;  217.875;    0.000
982.485;  889.650;  266.875;    0.000
982.650;  924.650;  245.875;    0.000
982.815;  890.650;  229.875;    0.000
982.980;  876.650;  203.875;    0.000
983.146;  869.650;  242.875;    0.000
983.311;  872.650;  144.875;    0.000
983.476;  815.650;  222.875;    0.000
983.641;  766.650;  206.875;    0.000
983.806;  879.650;  217.875;    0.000
983.971;  874.650;  254.875;    0.000
984.136;  897.650;  217.875;    0.000
984.301;  857.650;  202.875;    0.000
984.466;  798.650;  206.875;    0.000
984.631;  817.650;  224.875;    0.000
984.796;  880.650;  218.875;    0.000
984.961;  838.650;  202.875;    0.000
985.126;  846.650;  238.875;    0.000
985.291;  880.650;  220.875;    0.000
985.455;  848.650;  223.875;    0.000
985.620;  793.650;  218.875;    0.000
985.785;  816.650;  228.875;    0.000
985.950;  844.650;  212.875;    0.000
986.114;  897.650;  215.875;    0.000
986.279;  915.650;  243.875;    0.000
986.444;  924.650;  222.875;    0.000
986.608;  891.650;  243.875;    0.000
986.773;  875.650;  213.875;    0.000
986.937;  948.650;  267.875;    0.000
987.102;  917.650;  235.875;    0.000
987.266;  853.650;  210.875;    0.000
987.431;  913.650;  239.875;    0.000
987.595;  839.650;  230.875;    0.000
987.760;  849.650;  229.875;    0.000
987.924;  856.650;  217.875;    0.000
988.088;  846.650;  210.875;    0.000
988.253;  822.650;  215.875;    0.000
988.417;  787.650;  186.875;    0.000
988.581;  822.650;  214.875;    0.000
988.746;  845.650;  212.875;    0.000
988.910;  806.650;  192.875;    0.000
989.074;  840.650;  195.875;    0.000
989.238;  837.650;  226.875;    0.000
989.402;  770.650;  214.875;    0.000
989.566;  798.650;  201.875;    0.000
989.731;  842.650;  199.875;    0.000
989.895;  797.650;  205.875;    0.000
990.059;  794.650;  204.875;    0.000
990.223;  776.650;  182.875;    0.000
990.387;  802.650;  220.875;    0.000
990.551;  738.650;  199.875;    0.000
990.714;  832.650;  202.875;    0.000
990.878;  804.650;  201.875;    0.000
991.042;  795.650;  202.875;    0.000
991.206;  832.650;  215.875;    0.000
991.370;  834.650;  217.875;    0.000
991.534;  763.650;  152.875;    0.000
991.697;  791.650;  194.875;    0.000
991.861;  785.650;  208.875;    0.000
992.025;  777.650;  209.875;    0.000
992.188;  770.650;  182.875;    0.000
992.352;  785.650;  181.875;    0.000
992.516;  723.650;  192.875;    0.000
992.679;  752.650;  183.875;    0.000
992.843;  706.650;  156.875;    0.000
993.006;  854.650;  192.875;    0.000
993.170;  776.650;  172.875;    0.000
993.333;  761.650;  195.875;    0.000
993.497;  765.650;  185.875;    0.000
993.660;  722.650;  155.875;    0.000
993.824;  764.650;  199.875;    0.000
993.987;  821.650;  211.875;    0.000
994.150;  782.650;  173.875;    0.000
994.314;  746.650;  202.875;    0.000
994.477;  720.650;  171.875;    0.000
994.640;  743.650;  191.875;    0.000
994.803;  754.650;  203.875;    0.000
994.967;  772.650;  198.875;    0.000
995.130;  786.650;  192.875;    0.000
995.293;  761.650;  211.875;    0.000
995.456;  781.650;  207.875;    0.000
995.619;  764.650;  207.875;    0.000
995.782;  727.650;  186.875;    0.000
995.945;  738.650;  203.875;    0.000
996.108;  704.650;  195.875;    0.000
996.271;  748.650;  195.875;    0.000
996.434;  693.650;  179.875;    0.000
996.597;  727.650;  170.875;    0.000
996.760;  698.650;  161.875;    0.000
996.923;  701.650;  177.875;    0.000
997.086;  757.650;  199.875;    0.000
997.248;  804.650;  225.875;    0.000
997.411;  751.650;  194.875;    0.000
997.574;  722.650;  204.875;    0.000
997.737;  750.650;  236.875;    0.000
997.899;  740.650;  191.875;    0.000
998.062;  791.650;  178.875;    0.000
998.225;  695.650;  176.875;    0.000
998.387;  758.650;  203.875;    0.000
998.550;  710.650;  155.875;    0.000
998.712;  739.650;  169.875;    0.000
998.875;  761.650;  234.875;    0.000
999.037;  763.650;  211.875;    0.000
999.200;  760.650;  185.875;    0.000
999.362;  752.650;  199.875;    0.000
999.525;  721.650;  234.875;    0.000
999.687;  750.650;  194.875;    0.000
999.849;  765.650;  223.875;    0.000
1000.012;  713.650;  222.875;    0.000
1000.174;  777.650;  187.875;    0.000
1000.336;  772.650;  204.875;    0.000
1000.499;  738.650;  240.875;    0.000
1000.661;  796.650;  215.875;    0.000
1000.823;  732.650;  206.875;    0.000
1000.985;  680.650;  197.875;    0.000
1001.147;  781.650;  221.875;    0.000
1001.309;  684.650;  207.875;    0.000
1001.471;  745.650;  227.875;    0.000
1001.633;  783.650;  208.875;    0.000
1001.796;  787.650;  158.875;    0.000
1001.958;  772.650;  210.875;    0.000
1002.119;  735.650;  223.875;    0.000
1002.281;  810.650;  211.875;    0.000
1002.443;  721.650;  227.875;    0.000
1002.605;  795.650;  186.875;    0.000
1002.767;  817.650;  242.875;    0.000
1002.929;  839.650;  219.875;    0.000
1003.091;  812.650;  191.875;    0.000
1003.252;  936.650;  233.875;    0.000
1003.414;  843.650;  214.875;    0.000
1003.576;  874.650;  186.875;    0.000
1003.738;  941.650;  175.875;    0.000
1003.899; 1019.650;  237.875;    0.000
1004.061; 1013.650;  220.875;    0.000
1004.222; 1091.650;  186.875;    0.000
1004.384; 1058.650;  216.875;    0.000
1004.546; 1080.650;  203.875;    0.000
1004.707; 1067.650;  216.875;    0.000
1004.869; 1102.650;  219.875;    0.000
1005.030; 1083.650;  188.875;    0.000
1005.191; 1132.650;  223.875;    0.000
1005.353; 1121.650;  227.875;    0.000
1005.514; 1023.650;  235.875;    0.000
1005.675; 1058.650;  201.875;    0.000
1005.837; 1007.650;  199.875;    0.000
1005.998; 1131.650;  219.875;    0.000
1006.159; 1026.650;  235.875;    0.000
1006.321; 1045.650;  199.875;    0.000
1006.482;  996.650;  222.875;    0.000
1006.643; 1005.650;  195.875;    0.000
1006.804; 1027.650;  205.875;    0.000
1006.965;  998.650;  199.875;    0.000
1007.126; 1016.650;  231.875;    0.000
1007.287;  971.650;  208.875;    0.000
1007.448; 1082.650;  205.875;    0.000
1007.609; 1093.650;  256.875;    0.000
1007.770; 1088.650;  231.875;    0.000
1007.931; 1063.650;  223.875;    0.000
1008.092; 1067.650;  217.875;    0.000
1008.253; 1090.650;  236.875;    0.000
1008.414; 1070.650;  197.875;    0.000
1008.575; 1069.650;  233.875;    0.000
1008.736; 1013.650;  193.875;    0.000
1008.896; 1065.650;  238.875;    0.000
1009.057; 1154.650;  245.875;    0.000
1009.218; 1052.650;  240.875;    0.000
1009.379; 1096.650;  210.875;    0.000
1009.539; 1202.650;  234.875;    0.000
1009.700; 1106.650;  228.875;    0.000
1009.860; 1200.650;  238.875;    0.000
1010.021; 1117.650;  199.875;    0.000
1010.182; 1133.650;  214.875;    0.000
1010.342; 1252.650;  216.875;    0.000
1010.503; 1284.650;  207.875;    0.000
1010.663; 1367.650;  258.875;    0.000
1010.823; 1402.650;  243.875;    0.000
1010.984; 1494.650;  268.875;    0.000
1011.144; 1423.650;  217.875;    0.000
1011.305; 1693.650;  237.875;    0.000
1011.465; 1783.650;  216.875;    0.000
1011.625; 1856.650;  195.875;    0.000
1011.785; 1792.650;  201.875;    0.000
1011.946; 1779.650;  200.875;    0.000
1012.106; 1852.650;  206.875;    0.000
1012.266; 1609.650;  227.875;    0.000
1012.426; 1673.650;  221.875;    0.000
1012.586; 1585.650;  198.875;    0.000
1012.746; 1539.650;  215.875;    0.000
1012.906; 1675.650;  226.875;    0.000
1013.066; 1510.650;  221.875;    0.000
1013.226; 1420.650;  202.875;    0.000
1013.386; 1530.650;  210.875;    0.000
1013.546; 1441.650;  243.875;    0.000
1013.706; 1409.650;  200.875;    0.000
1013.866; 1334.650;  232.875;    0.000
1014.026; 1347.650;  206.875;    0.000
1014.186; 1348.650;  222.875;    0.000
1014.346; 1428.650;  233.875;    0.000
1014.505; 1336.650;  241.875;    0.000
1014.665; 1398.650;  225.875;    0.000
1014.825; 1229.650;  196.875;    0.000
1014.985; 1379.650;  234.875;    0.000
1015.144; 1445.650;  232.875;    0.000
1015.304; 1451.650;  214.875;    0.000
1015.464; 1330.650;  210.875;    0.000
1015.623; 1314.650;  219.875;    0.000
1015.783; 1423.650;  216.875;    0.000
1015.942; 1424.650;  267.875;    0.000
1016.102; 1463.650;  234.875;    0.000
1016.261; 1376.650;  230.875;    0.000
1016.420; 1548.650;  225.875;    0.000
1016.580; 1589.650;  205.875;    0.000
1016.739; 1517.650;  199.875;    0.000
1016.899; 1643.650;  218.875;    0.000
1017.058; 1653.650;  204.875;    0.000
1017.217; 1695.650;  196.875;    0.000
1017.376; 1654.650;  204.875;    0.000
1017.536; 1652.650;  195.875;    0.000
1017.695; 1575.650;  216.875;    0.000
1017.854; 1628.650;  235.875;    0.000
1018.013; 1573.650;  189.875;    0.000
1018.172; 1428.650;  217.875;    0.000
1018.331; 1511.650;  215.875;    0.000
1018.490; 1533.650;  233.875;    0.000
1018.649; 1389.650;  211.875;    0.000
1018.808; 1460.650;  196.875;    0.000
1018.967; 1591.650;  222.875;    0.000
1019.126; 1589.650;  221.875;    0.000
1019.285; 1602.650;  212.875;    0.000
1019.444; 1572.650;  231.875;    0.000
1019.603; 1479.650;  227.875;    0.000
1019.762; 1481.650;  192.875;    0.000
1019.921; 1590.650;  240.875;    0.000
1020.079; 1520.650;  209.875;    0.000
1020.238; 1523.650;  211.875;    0.000
1020.397; 1601.650;  253.875;    0.000
1020.555; 1542.650;  179.875;    0.000
1020.714; 1608.650;  225.875;    0.000
1020.873; 1679.650;  232.875;    0.000
1021.031; 1587.650;  245.875;    0.000
1021.190; 1594.650;  230.875;    0.000
1021.348; 1616.650;  221.875;    0.000
1021.507; 1683.650;  212.875;    0.000
1021.665; 1621.650;  211.875;    0.000
1021.824; 1701.650;  206.875;    0.000
1021.982; 1510.650;  218.875;    0.000
1022.141; 1559.650;  232.875;    0.000
1022.299; 1757.650;  193.875;    0.000
1022.457; 1684.650;  217.875;    0.000
1022.616; 1538.650;  248.875;    0.000
1022.774; 1576.650;  222.875;    0.000
1022.932; 1661.650;  211.875;    0.000
1023.090; 1648.650;  288.875;    0.000
1023.249; 1797.650;  214.875;    0.000
1023.407; 1672.650;  233.875;    0.000
1023.565; 1585.650;  208.875;    0.000
1023.723; 1696.650;  217.875;    0.000
1023.881; 1725.650;  235.875;    0.000
1024.039; 1728.650;  228.875;    0.000
1024.197; 1629.650;  216.875;    0.000
1024.355; 1600.650;  251.875;    0.000
1024.513; 1607.650;  232.875;    0.000
1024.671; 1848.650;  217.875;    0.000
1024.829; 1849.650;  255.875;    0.000
1024.987; 1602.650;  203.875;    0.000
1025.145; 1645.650;  239.875;    0.000
1025.302; 1695.650;  209.875;    0.000
1025.460; 1867.650;  224.875;    0.000
1025.618; 1956.650;  193.875;    0.000
1025.776; 1622.650;  209.875;    0.000
1025.933; 1624.650;  229.875;    0.000
1026.091; 1675.650;  218.875;    0.000
1026.249; 1855.650;  269.875;    0.000
1026.406; 1891.650;  264.875;    0.000
1026.564; 1820.650;  230.875;    0.000
1026.721; 1731.650;  198.875;    0.000
1026.879; 1655.650;  216.875;    0.000
1027.036; 1819.650;  226.875;    0.000
1027.194; 2063.650;  245.875;    0.000
1027.351; 1791.650;  236.875;    0.000
1027.509; 1675.650;  262.875;    0.000
1027.666; 1595.650;  227.875;    0.000
1027.823; 1747.650;  214.875;    0.000
1027.981; 2133.650;  258.875;    0.000
1028.138; 1991.650;  239.875;    0.000
1028.295; 1875.650;  226.875;    0.000
1028.452; 1623.650;  225.875;    0.000
1028.609; 1807.650;  276.875;    0.000
1028.767; 1904.650;  228.875;    0.000
1028.924; 2007.650;  213.875;    0.000
1029.081; 2043.650;  232.875;    0.000
1029.238; 1739.650;  250.875;    0.000
1029.395; 1657.650;  255.875;    0.000
1029.552; 1821.650;  217.875;    0.000
1029.709; 2039.650;  210.875;    0.000
1029.866; 2201.650;  243.875;    0.000
1030.023; 1961.650;  202.875;    0.000
1030.180; 1774.650;  233.875;    0.000
1030.337; 1674.650;  234.875;    0.000
1030.494; 1753.650;  222.875;    0.000
1030.650; 1962.650;  241.875;    0.000
1030.807; 2118.650;  206.875;    0.000
1030.964; 2018.650;  206.875;    0.000
1031.121; 1938.650;  228.875;    0.000
1031.277; 1678.650;  228.875;    0.000
1031.434; 1768.650;  234.875;    0.000
1031.591; 1998.650;  250.875;    0.000
1031.747; 2090.650;  246.875;    0.000
1031.904; 2144.650;  201.875;    0.000
1032.060; 1930.650;  237.875;    0.000
1032.217; 1905.650;  232.875;    0.000
1032.373; 1726.650;  210.875;    0.000
1032.530; 1950.650;  246.875;    0.000
1032.686; 2297.650;  196.875;    0.000
1032.843; 2272.650;  212.875;    0.000
1032.999; 2148.650;  243.875;    0.000
1033.155; 2086.650;  234.875;    0.000
1033.312; 1998.650;  246.875;    0.000
1033.468; 2010.650;  233.875;    0.000
1033.624; 2551.650;  237.875;    0.000
1033.780; 2721.650;  263.875;    0.000
1033.937; 2858.650;  214.875;    0.000
1034.093; 2730.650;  230.875;    0.000
1034.249; 2726.650;  206.875;    0.000
1034.405; 2573.650;  238.875;    0.000
1034.561; 2666.650;  231.875;    0.000
1034.717; 2790.650;  228.875;    0.000
1034.873; 2912.650;  262.875;    0.000
1035.029; 2978.650;  252.875;    0.000
1035.185; 2870.650;  232.875;    0.000
1035.341; 2582.650;  245.875;    0.000
1035.497; 2866.650;  253.875;    0.000
1035.653; 2693.650;  252.875;    0.000
1035.809; 3148.650;  245.875;    0.000
1035.964; 3374.650;  229.875;    0.000
1036.120; 3314.650;  226.875;    0.000
1036.276; 3256.650;  236.875;    0.000
1036.432; 3168.650;  203.875;    0.000
1036.587; 2945.650;  228.875;    0.000
1036.743; 3092.650;  240.875;    0.000
1036.899; 3180.650;  220.875;    0.000
1037.054; 3155.650;  153.875;    0.000
1037.210; 3425.650;  219.875;    0.000
1037.365; 3526.650;  229.875;    0.000
1037.521; 3427.650;  257.875;    0.000
1037.676; 3461.650;  211.875;    0.000
1037.832; 3161.650;  234.875;    0.000
1037.987; 3142.650;  235.875;    0.000
1038.143; 3050.650;  176.875;    0.000
1038.298; 3459.650;  262.875;    0.000
1038.453; 3530.650;  209.875;    0.000
1038.609; 3746.650;  230.875;    0.000
1038.764; 3668.650;  253.875;    0.000
1038.919; 3462.650;  195.875;    0.000
1039.074; 3741.650;  234.875;    0.000
1039.229; 3344.650;  234.875;    0.000
1039.385; 3226.650;  266.875;    0.000
1039.540; 3733.650;  252.875;    0.000
1039.695; 4070.650;  231.875;    0.000
1039.850; 4144.650;  208.875;    0.000
1040.005; 3945.650;  232.875;    0.000
1040.160; 4486.650;  214.875;    0.000
1040.315; 4406.650;  221.875;    0.000
1040.470; 4128.650;  207.875;    0.000
1040.625; 3559.650;  249.875;    0.000
1040.780; 3584.650;  251.875;    0.000
1040.935; 3854.650;  254.875;    0.000
1041.089; 3882.650;  210.875;    0.000
1041.244; 4345.650;  225.875;    0.000
1041.399; 4347.650;  208.875;    0.000
1041.554; 4409.650;  249.875;    0.000
1041.708; 4624.650;  254.875;    0.000
1041.863; 4794.650;  248.875;    0.000
1042.018; 5078.650;  280.875;    0.000
1042.172; 5117.650;  233.875;    0.000
1042.327; 4434.650;  256.875;    0.000
1042.481; 4569.650;  210.875;    0.000
1042.636; 4786.650;  229.875;    0.000
1042.791; 5118.650;  215.875;    0.000
1042.945; 5066.650;  256.875;    0.000
1043.099; 5416.650;  251.875;    0.000
1043.254; 5292.650;  204.875;    0.000
1043.408; 5894.650;  278.875;    0.000
1043.563; 5894.650;  211.875;    0.000
1043.717; 5664.650;  259.875;    0.000
1043.871; 5439.650;  233.875;    0.000
1044.025; 5331.650;  221.875;    0.000
1044.180; 5036.650;  208.875;    0.000
1044.334; 5472.650;  255.875;    0.000
1044.488; 5535.650;  269.875;    0.000
1044.642; 5811.650;  228.875;    0.000
1044.796; 6611.650;  232.875;    0.000
1044.950; 6889.650;  249.875;    0.000
1045.104; 6127.650;  205.875;    0.000
1045.258; 6871.650;  206.875;    0.000
1045.412; 6849.650;  251.875;    0.000
1045.566; 6187.650;  249.875;    0.000
1045.720; 6270.650;  206.875;    0.000
1045.874; 6189.650;  232.875;    0.000
1046.028; 6057.650;  266.875;    0.000
1046.182; 5686.650;  217.875;    0.000
1046.336; 6113.650;  216.875;    0.000
1046.489; 6824.650;  236.875;    0.000
1046.643; 6852.650;  253.875;    0.000
1046.797; 6858.650;  244.875;    0.000
1046.951; 7272.650;  234.875;    0.000
1047.104; 7226.650;  281.875;    0.000
1047.258; 7523.650;  253.875;    0.000
1047.411; 7519.650;  228.875;    0.000
1047.565; 7070.650;  273.875;    0.000
1047.719; 6913.650;  232.875;    0.000
1047.872; 6742.650;  230.875;    0.000
1048.026; 6661.650;  282.875;    0.000
1048.179; 6793.650;  225.875;    0.000
1048.332; 6684.650;  234.875;    0.000
1048.486; 6178.650;  223.875;    0.000
1048.639; 6966.650;  248.875;    0.000
1048.792; 7774.650;  244.875;    0.000
1048.946; 7674.650;  210.875;    0.000
1049.099; 8651.650;  242.875;    0.000
1049.252; 8362.650;  269.875;    0.000
1049.406; 7996.650;  285.875;    0.000
1049.559; 8450.650;  277.875;    0.000
1049.712; 8438.650;  254.875;    0.000
1049.865; 8515.650;  252.875;    0.000
1050.018; 8300.650;  270.875;    0.000
1050.171; 7633.650;  230.875;    0.000
1050.324; 7666.650;  268.875;    0.000
1050.477; 7428.650;  262.875;    0.000
1050.630; 6743.650;  243.875;    0.000
1050.783; 7965.650;  216.875;    0.000
1050.936; 8250.650;  250.875;    0.000
1051.089; 7908.650;  247.875;    0.000
1051.242; 8639.650;  300.875;    0.000
1051.394; 8629.650;  233.875;    0.000
1051.547; 8554.650;  263.875;    0.000
1051.700; 8820.650;  238.875;    0.000
1051.853; 8949.650;  299.875;    0.000
1052.005; 9941.650;  275.875;    0.000
1052.158; 9712.650;  304.875;    0.000
1052.311;10726.650;  251.875;    0.000
1052.463; 9595.650;  276.875;    0.000
1052.616; 9586.650;  271.875;    0.000
1052.768; 9340.650;  285.875;    0.000
1052.921; 9175.650;  261.875;    0.000
1053.073; 9706.650;  333.875;    0.000
1053.226; 9205.650;  271.875;    0.000
1053.378; 9632.650;  309.875;    0.000
1053.531; 9297.650;  266.875;    0.000
1053.683; 9487.650;  278.875;    0.000
1053.835; 9010.650;  274.875;    0.000
1053.988; 7176.650;  287.875;    0.000
1054.140; 2341.650;  350.875;    0.000
1054.292;  808.650;  338.875;    0.000
1054.444;  625.650;  270.875;    0.000
1054.596;  628.650;  294.875;    0.000
1054.749;  553.650;  285.875;    0.000
1054.901;  500.650;  254.875;    0.000
1055.053;  517.650;  320.875;    0.000
1055.205;  566.650;  284.875;    0.000
1055.357;  533.650;  298.875;    0.000
1055.509;  478.650;  304.875;    0.000
1055.661;  493.650;  350.875;    0.000
1055.813;  448.650;  289.875;    0.000
1055.965;  456.650;  277.875;    0.000
1056.116;  476.650;  288.875;    0.000
1056.268;  494.650;  311.875;    0.000
1056.420;  526.650;  308.875;    0.000

