
Integration time [ms]:   0.300
Averaging Nr. [scans]: 1
Smoothing Nr. [pixels]: 0
Data measured with spectrometer [name]: UV2
Wave   ;Sample   ;Dark     ;Reference
[nm]   ;[counts] ;[counts] ;[counts] 

353.533;  199.900;  235.675;    0.000
353.597;  224.900;  239.675;    0.000
353.660;  182.900;  203.675;    0.000
353.723;  205.900;  225.675;    0.000
353.786;  181.900;  178.675;    0.000
353.850;  207.900;  199.675;    0.000
353.913;  222.900;  179.675;    0.000
353.976;  225.900;  209.675;    0.000
354.039;  184.900;  188.675;    0.000
354.102;  222.900;  219.675;    0.000
354.166;  231.900;  237.675;    0.000
354.229;  189.900;  179.675;    0.000
354.292;  216.900;  210.675;    0.000
354.355;  198.900;  214.675;    0.000
354.418;  183.900;  173.675;    0.000
354.481;  217.900;  170.675;    0.000
354.545;  552.900;  229.675;    0.000
354.608;  594.900;  233.675;    0.000
354.671;  579.900;  183.675;    0.000
354.734;  555.900;  208.675;    0.000
354.797;  582.900;  263.675;    0.000
354.860;  612.900;  208.675;    0.000
354.923;  569.900;  202.675;    0.000
354.986;  605.900;  207.675;    0.000
355.050;  627.900;  180.675;    0.000
355.113;  585.900;  189.675;    0.000
355.176;  622.900;  214.675;    0.000
355.239;  662.900;  199.675;    0.000
355.302;  688.900;  229.675;    0.000
355.365;  659.900;  220.675;    0.000
355.428;  672.900;  196.675;    0.000
355.491;  715.900;  243.675;    0.000
355.554;  593.900;  191.675;    0.000
355.617;  670.900;  200.675;    0.000
355.680;  641.900;  190.675;    0.000
355.743;  674.900;  236.675;    0.000
355.806;  645.900;  193.675;    0.000
355.869;  642.900;  223.675;    0.000
355.932;  649.900;  208.675;    0.000
355.995;  634.900;  231.675;    0.000
356.058;  669.900;  202.675;    0.000
356.121;  676.900;  198.675;    0.000
356.184;  731.900;  209.675;    0.000
356.247;  668.900;  224.675;    0.000
356.310;  705.900;  149.675;    0.000
356.373;  736.900;  211.675;    0.000
356.436;  716.900;  195.675;    0.000
356.498;  727.900;  176.675;    0.000
356.561;  700.900;  186.675;    0.000
356.624;  674.900;  184.675;    0.000
356.687;  758.900;  179.675;    0.000
356.750;  730.900;  213.675;    0.000
356.813;  689.900;  172.675;    0.000
356.876;  744.900;  189.675;    0.000
356.939;  693.900;  204.675;    0.000
357.001;  729.900;  195.675;    0.000
357.064;  741.900;  202.675;    0.000
357.127;  736.900;  176.675;    0.000
357.190;  696.900;  186.675;    0.000
357.253;  808.900;  178.675;    0.000
357.316;  736.900;  187.675;    0.000
357.378;  712.900;  181.675;    0.000
357.441;  728.900;  142.675;    0.000
357.504;  770.900;  161.675;    0.000
357.567;  710.900;  113.675;    0.000
357.629;  782.900;  193.675;    0.000
357.692;  722.900;  144.675;    0.000
357.755;  792.900;  177.675;    0.000
357.818;  707.900;  144.675;    0.000
357.880;  757.900;  182.675;    0.000
357.943;  731.900;  166.675;    0.000
358.006;  745.900;  184.675;    0.000
358.069;  730.900;  200.675;    0.000
358.131;  769.900;  148.675;    0.000
358.194;  752.900;  155.675;    0.000
358.257;  729.900;  173.675;    0.000
358.319;  740.900;  178.675;    0.000
358.382;  783.900;  184.675;    0.000
358.445;  718.900;  156.675;    0.000
358.507;  758.900;  199.675;    0.000
358.570;  794.900;  182.675;    0.000
358.633;  758.900;  167.675;    0.000
358.695;  807.900;  124.675;    0.000
358.758;  779.900;  164.675;    0.000
358.821;  735.900;  147.675;    0.000
358.883;  761.900;  153.675;    0.000
358.946;  765.900;  171.675;    0.000
359.008;  741.900;  196.675;    0.000
359.071;  787.900;  178.675;    0.000
359.134;  849.900;  123.675;    0.000
359.196;  794.900;  166.675;    0.000
359.259;  820.900;  173.675;    0.000
359.321;  760.900;  164.675;    0.000
359.384;  825.900;  155.675;    0.000
359.446;  836.900;  157.675;    0.000
359.509;  821.900;  153.675;    0.000
359.571;  774.900;  184.675;    0.000
359.634;  792.900;  138.675;    0.000
359.696;  750.900;  169.675;    0.000
359.759;  828.900;  152.675;    0.000
359.821;  812.900;  150.675;    0.000
359.884;  865.900;  166.675;    0.000
359.946;  854.900;  165.675;    0.000
360.009;  791.900;  176.675;    0.000
360.071;  810.900;  148.675;    0.000
360.134;  798.900;  193.675;    0.000
360.196;  778.900;  151.675;    0.000
360.259;  833.900;  182.675;    0.000
360.321;  881.900;  168.675;    0.000
360.384;  781.900;  176.675;    0.000
360.446;  801.900;  156.675;    0.000
360.508;  827.900;  183.675;    0.000
360.571;  856.900;  193.675;    0.000
360.633;  816.900;  184.675;    0.000
360.696;  794.900;  136.675;    0.000
360.758;  808.900;  186.675;    0.000
360.820;  787.900;  127.675;    0.000
360.883;  822.900;  146.675;    0.000
360.945;  920.900;  144.675;    0.000
361.007;  855.900;  160.675;    0.000
361.070;  860.900;  175.675;    0.000
361.132;  893.900;  195.675;    0.000
361.194;  867.900;  167.675;    0.000
361.257;  868.900;  140.675;    0.000
361.319;  837.900;  154.675;    0.000
361.381;  876.900;  181.675;    0.000
361.443;  828.900;  137.675;    0.000
361.506;  819.900;  159.675;    0.000
361.568;  866.900;  144.675;    0.000
361.630;  796.900;  189.675;    0.000
361.693;  888.900;  162.675;    0.000
361.755;  920.900;  156.675;    0.000
361.817;  887.900;  225.675;    0.000
361.879;  841.900;  172.675;    0.000
361.941;  874.900;  138.675;    0.000
362.004;  786.900;  163.675;    0.000
362.066;  842.900;  164.675;    0.000
362.128;  871.900;  160.675;    0.000
362.190;  828.900;  168.675;    0.000
362.252;  807.900;  177.675;    0.000
362.315;  847.900;  169.675;    0.000
362.377;  835.900;  188.675;    0.000
362.439;  865.900;  158.675;    0.000
362.501;  846.900;  168.675;    0.000
362.563;  875.900;  168.675;    0.000
362.625;  911.900;  188.675;    0.000
362.688;  879.900;  162.675;    0.000
362.750;  932.900;  209.675;    0.000
362.812;  867.900;  154.675;    0.000
362.874;  905.900;  190.675;    0.000
362.936;  881.900;  190.675;    0.000
362.998;  863.900;  143.675;    0.000
363.060;  896.900;  186.675;    0.000
363.122;  893.900;  167.675;    0.000
363.184;  916.900;  163.675;    0.000
363.246;  894.900;  169.675;    0.000
363.308;  797.900;  165.675;    0.000
363.370;  930.900;  177.675;    0.000
363.432;  820.900;  139.675;    0.000
363.494;  934.900;  177.675;    0.000
363.556;  841.900;  164.675;    0.000
363.618;  970.900;  170.675;    0.000
363.680;  903.900;  146.675;    0.000
363.742;  952.900;  179.675;    0.000
363.804;  949.900;  188.675;    0.000
363.866;  882.900;  186.675;    0.000
363.928;  883.900;  147.675;    0.000
363.990;  909.900;  185.675;    0.000
364.052;  970.900;  197.675;    0.000
364.114;  868.900;  150.675;    0.000
364.176;  875.900;  217.675;    0.000
364.238;  985.900;  159.675;    0.000
364.300;  982.900;  192.675;    0.000
364.362;  883.900;  130.675;    0.000
364.424;  854.900;  131.675;    0.000
364.486;  947.900;  178.675;    0.000
364.548;  920.900;  203.675;    0.000
364.609;  953.900;  192.675;    0.000
364.671;  895.900;  169.675;    0.000
364.733;  909.900;  169.675;    0.000
364.795;  913.900;  157.675;    0.000
364.857;  936.900;  171.675;    0.000
364.919;  944.900;  134.675;    0.000
364.981;  853.900;  162.675;    0.000
365.042;  898.900;  136.675;    0.000
365.104;  870.900;  152.675;    0.000
365.166;  904.900;  149.675;    0.000
365.228;  954.900;  195.675;    0.000
365.290;  844.900;  147.675;    0.000
365.351;  923.900;  138.675;    0.000
365.413;  959.900;  168.675;    0.000
365.475;  904.900;  150.675;    0.000
365.537;  969.900;  179.675;    0.000
365.598;  876.900;  177.675;    0.000
365.660;  933.900;  149.675;    0.000
365.722;  899.900;  160.675;    0.000
365.784;  936.900;  175.675;    0.000
365.845;  914.900;  149.675;    0.000
365.907;  904.900;  154.675;    0.000
365.969;  972.900;  128.675;    0.000
366.030;  951.900;  176.675;    0.000
366.092;  922.900;  181.675;    0.000
366.154;  975.900;  194.675;    0.000
366.215;  968.900;  149.675;    0.000
366.277;  962.900;  144.675;    0.000
366.339;  927.900;  160.675;    0.000
366.400;  965.900;  144.675;    0.000
366.462;  949.900;  145.675;    0.000
366.524;  934.900;  148.675;    0.000
366.585;  935.900;  128.675;    0.000
366.647;  937.900;  156.675;    0.000
366.708;  928.900;  128.675;    0.000
366.770;  962.900;  188.675;    0.000
366.832;  919.900;  170.675;    0.000
366.893;  989.900;  158.675;    0.000
366.955; 1020.900;  150.675;    0.000
367.016;  930.900;  160.675;    0.000
367.078;  945.900;  144.675;    0.000
367.139;  879.900;  109.675;    0.000
367.201;  888.900;  155.675;    0.000
367.262;  896.900;  165.675;    0.000
367.324;  891.900;  180.675;    0.000
367.385;  918.900;  150.675;    0.000
367.447; 1029.900;  164.675;    0.000
367.508; 1000.900;  137.675;    0.000
367.570;  936.900;  174.675;    0.000
367.631;  959.900;  126.675;    0.000
367.693;  983.900;  153.675;    0.000
367.754;  962.900;  194.675;    0.000
367.816; 1032.900;  154.675;    0.000
367.877; 1022.900;  183.675;    0.000
367.939;  985.900;  179.675;    0.000
368.000;  931.900;  142.675;    0.000
368.062;  977.900;  147.675;    0.000
368.123;  954.900;  155.675;    0.000
368.184;  925.900;  169.675;    0.000
368.246;  926.900;  145.675;    0.000
368.307; 1025.900;  165.675;    0.000
368.369;  922.900;  177.675;    0.000
368.430;  927.900;  161.675;    0.000
368.491;  936.900;  156.675;    0.000
368.553;  929.900;  156.675;    0.000
368.614;  966.900;  186.675;    0.000
368.675;  987.900;  154.675;    0.000
368.737;  941.900;  162.675;    0.000
368.798;  946.900;  202.675;    0.000
368.859;  964.900;  162.675;    0.000
368.921;  949.900;  171.675;    0.000
368.982; 1009.900;  193.675;    0.000
369.043;  940.900;  207.675;    0.000
369.104;  973.900;  143.675;    0.000
369.166;  992.900;  203.675;    0.000
369.227;  990.900;  125.675;    0.000
369.288; 1020.900;  154.675;    0.000
369.349;  996.900;  187.675;    0.000
369.411; 1016.900;  191.675;    0.000
369.472; 1012.900;  175.675;    0.000
369.533;  945.900;  180.675;    0.000
369.594;  912.900;  161.675;    0.000
369.656;  976.900;  169.675;    0.000
369.717;  948.900;  103.675;    0.000
369.778;  962.900;  159.675;    0.000
369.839;  962.900;  146.675;    0.000
369.900; 1040.900;  218.675;    0.000
369.961; 1026.900;  200.675;    0.000
370.023; 1004.900;  177.675;    0.000
370.084;  967.900;  149.675;    0.000
370.145; 1007.900;  179.675;    0.000
370.206; 1004.900;  179.675;    0.000
370.267;  971.900;  166.675;    0.000
370.328; 1032.900;  164.675;    0.000
370.389;  999.900;  162.675;    0.000
370.451;  967.900;  179.675;    0.000
370.512; 1014.900;  181.675;    0.000
370.573; 1037.900;  173.675;    0.000
370.634; 1066.900;  162.675;    0.000
370.695; 1031.900;  167.675;    0.000
370.756; 1017.900;  177.675;    0.000
370.817;  975.900;  178.675;    0.000
370.878; 1002.900;  152.675;    0.000
370.939;  983.900;  185.675;    0.000
371.000; 1003.900;  173.675;    0.000
371.061; 1054.900;  176.675;    0.000
371.122; 1069.900;  169.675;    0.000
371.183;  981.900;  116.675;    0.000
371.244; 1123.900;  174.675;    0.000
371.305;  995.900;  152.675;    0.000
371.366;  985.900;  168.675;    0.000
371.427; 1080.900;  188.675;    0.000
371.488; 1046.900;  180.675;    0.000
371.549; 1023.900;  145.675;    0.000
371.610; 1031.900;  160.675;    0.000
371.671;  948.900;  164.675;    0.000
371.732;  984.900;  158.675;    0.000
371.793; 1019.900;  162.675;    0.000
371.853; 1041.900;  130.675;    0.000
371.914; 1065.900;  172.675;    0.000
371.975; 1002.900;   98.675;    0.000
372.036; 1118.900;  161.675;    0.000
372.097; 1047.900;  143.675;    0.000
372.158; 1014.900;  175.675;    0.000
372.219; 1014.900;  196.675;    0.000
372.280; 1017.900;  175.675;    0.000
372.340; 1007.900;  160.675;    0.000
372.401;  967.900;  163.675;    0.000
372.462; 1021.900;  147.675;    0.000
372.523; 1073.900;  146.675;    0.000
372.584; 1062.900;  173.675;    0.000
372.645; 1077.900;  126.675;    0.000
372.705; 1063.900;  179.675;    0.000
372.766;  976.900;  173.675;    0.000
372.827; 1042.900;  171.675;    0.000
372.888; 1009.900;  134.675;    0.000
372.948; 1036.900;  167.675;    0.000
373.009;  997.900;  167.675;    0.000
373.070; 1044.900;  152.675;    0.000
373.131; 1055.900;  177.675;    0.000
373.191; 1122.900;  225.675;    0.000
373.252; 1026.900;  165.675;    0.000
373.313; 1070.900;  171.675;    0.000
373.373;  968.900;  160.675;    0.000
373.434; 1081.900;  172.675;    0.000
373.495; 1071.900;  150.675;    0.000
373.555; 1039.900;  130.675;    0.000
373.616;  985.900;  155.675;    0.000
373.677; 1050.900;  212.675;    0.000
373.737; 1038.900;  188.675;    0.000
373.798; 1003.900;  203.675;    0.000
373.859; 1057.900;  169.675;    0.000
373.919; 1038.900;  197.675;    0.000
373.980;  995.900;  134.675;    0.000
374.041; 1017.900;  186.675;    0.000
374.101; 1025.900;  207.675;    0.000
374.162; 1116.900;  190.675;    0.000
374.222; 1029.900;  182.675;    0.000
374.283; 1083.900;  213.675;    0.000
374.343; 1092.900;  191.675;    0.000
374.404; 1074.900;  181.675;    0.000
374.465; 1112.900;  193.675;    0.000
374.525; 1132.900;  153.675;    0.000
374.586; 1081.900;  190.675;    0.000
374.646; 1130.900;  173.675;    0.000
374.707; 1161.900;  210.675;    0.000
374.767; 1112.900;  218.675;    0.000
374.828; 1122.900;  174.675;    0.000
374.888; 1080.900;  197.675;    0.000
374.949; 1095.900;  196.675;    0.000
375.009; 1182.900;  169.675;    0.000
375.070; 1126.900;  157.675;    0.000
375.130; 1129.900;  203.675;    0.000
375.190; 1080.900;  174.675;    0.000
375.251; 1119.900;  230.675;    0.000
375.311; 1067.900;  198.675;    0.000
375.372; 1055.900;  160.675;    0.000
375.432; 1140.900;  169.675;    0.000
375.493; 1124.900;  159.675;    0.000
375.553; 1095.900;  179.675;    0.000
375.613; 1033.900;  157.675;    0.000
375.674; 1115.900;  174.675;    0.000
375.734; 1060.900;  180.675;    0.000
375.794; 1088.900;  175.675;    0.000
375.855; 1055.900;  193.675;    0.000
375.915; 1056.900;  148.675;    0.000
375.975; 1069.900;  183.675;    0.000
376.036; 1070.900;  144.675;    0.000
376.096; 1078.900;  195.675;    0.000
376.156; 1039.900;  200.675;    0.000
376.217; 1050.900;  160.675;    0.000
376.277; 1128.900;  193.675;    0.000
376.337; 1095.900;  168.675;    0.000
376.398; 1101.900;  183.675;    0.000
376.458; 1117.900;  168.675;    0.000
376.518; 1133.900;  184.675;    0.000
376.578;  962.900;  176.675;    0.000
376.639;  993.900;  158.675;    0.000
376.699; 1128.900;  157.675;    0.000
376.759; 1140.900;  184.675;    0.000
376.819; 1048.900;  166.675;    0.000
376.880; 1067.900;  220.675;    0.000
376.940; 1086.900;  195.675;    0.000
377.000; 1048.900;  178.675;    0.000
377.060; 1084.900;  212.675;    0.000
377.120; 1114.900;  161.675;    0.000
377.180; 1059.900;  168.675;    0.000
377.241; 1039.900;  167.675;    0.000
377.301; 1094.900;  171.675;    0.000
377.361; 1090.900;  174.675;    0.000
377.421; 1073.900;  216.675;    0.000
377.481; 1101.900;  164.675;    0.000
377.541; 1055.900;  163.675;    0.000
377.601; 1125.900;  197.675;    0.000
377.661; 1099.900;  175.675;    0.000
377.722; 1188.900;  196.675;    0.000
377.782; 1054.900;  162.675;    0.000
377.842; 1141.900;  179.675;    0.000
377.902; 1136.900;  140.675;    0.000
377.962; 1107.900;  121.675;    0.000
378.022; 1082.900;  174.675;    0.000
378.082; 1097.900;  167.675;    0.000
378.142; 1118.900;  151.675;    0.000
378.202; 1148.900;  174.675;    0.000
378.262; 1053.900;  168.675;    0.000
378.322; 1123.900;  183.675;    0.000
378.382; 1076.900;  159.675;    0.000
378.442; 1083.900;  177.675;    0.000
378.502; 1068.900;  137.675;    0.000
378.562; 1108.900;  140.675;    0.000
378.622; 1027.900;  197.675;    0.000
378.682; 1146.900;  205.675;    0.000
378.742; 1173.900;  160.675;    0.000
378.802; 1152.900;  132.675;    0.000
378.862; 1210.900;  222.675;    0.000
378.921; 1159.900;  178.675;    0.000
378.981; 1157.900;  160.675;    0.000
379.041; 1144.900;  136.675;    0.000
379.101; 1096.900;  184.675;    0.000
379.161; 1101.900;  147.675;    0.000
379.221; 1111.900;  139.675;    0.000
379.281; 1094.900;  204.675;    0.000
379.341; 1092.900;  142.675;    0.000
379.401; 1118.900;  136.675;    0.000
379.460; 1134.900;  161.675;    0.000
379.520; 1121.900;  171.675;    0.000
379.580; 1195.900;  168.675;    0.000
379.640; 1210.900;  183.675;    0.000
379.700; 1127.900;  182.675;    0.000
379.759; 1213.900;  190.675;    0.000
379.819; 1156.900;  149.675;    0.000
379.879; 1131.900;  140.675;    0.000
379.939; 1183.900;  155.675;    0.000
379.999; 1141.900;  199.675;    0.000
380.058; 1110.900;  163.675;    0.000
380.118; 1112.900;  190.675;    0.000
380.178; 1139.900;  220.675;    0.000
380.237; 1209.900;  181.675;    0.000
380.297; 1226.900;  187.675;    0.000
380.357; 1153.900;  193.675;    0.000
380.417; 1108.900;  157.675;    0.000
380.476; 1235.900;  176.675;    0.000
380.536; 1156.900;  180.675;    0.000
380.596; 1205.900;  191.675;    0.000
380.655; 1218.900;  190.675;    0.000
380.715; 1170.900;  180.675;    0.000
380.775; 1187.900;  202.675;    0.000
380.834; 1150.900;  190.675;    0.000
380.894; 1206.900;  163.675;    0.000
380.954; 1159.900;  181.675;    0.000
381.013; 1237.900;  218.675;    0.000
381.073; 1129.900;  181.675;    0.000
381.132; 1245.900;  193.675;    0.000
381.192; 1219.900;  209.675;    0.000
381.252; 1117.900;  206.675;    0.000
381.311; 1230.900;  173.675;    0.000
381.371; 1182.900;  188.675;    0.000
381.430; 1204.900;  162.675;    0.000
381.490; 1177.900;  168.675;    0.000
381.549; 1220.900;  213.675;    0.000
381.609; 1253.900;  194.675;    0.000
381.668; 1221.900;  190.675;    0.000
381.728; 1318.900;  183.675;    0.000
381.787; 1262.900;  172.675;    0.000
381.847; 1266.900;  198.675;    0.000
381.906; 1294.900;  197.675;    0.000
381.966; 1306.900;  201.675;    0.000
382.025; 1265.900;  219.675;    0.000
382.085; 1345.900;  194.675;    0.000
382.144; 1263.900;  187.675;    0.000
382.204; 1267.900;  196.675;    0.000
382.263; 1355.900;  168.675;    0.000
382.323; 1288.900;  135.675;    0.000
382.382; 1224.900;  173.675;    0.000
382.441; 1281.900;  155.675;    0.000
382.501; 1345.900;  168.675;    0.000
382.560; 1311.900;  200.675;    0.000
382.619; 1400.900;  155.675;    0.000
382.679; 1470.900;  198.675;    0.000
382.738; 1434.900;  211.675;    0.000
382.798; 1468.900;  214.675;    0.000
382.857; 1525.900;  146.675;    0.000
382.916; 1674.900;  183.675;    0.000
382.976; 1683.900;  173.675;    0.000
383.035; 1617.900;  165.675;    0.000
383.094; 1632.900;  173.675;    0.000
383.154; 1840.900;  143.675;    0.000
383.213; 2031.900;  173.675;    0.000
383.272; 1995.900;  166.675;    0.000
383.331; 1756.900;  154.675;    0.000
383.391; 1716.900;  232.675;    0.000
383.450; 1606.900;  185.675;    0.000
383.509; 1597.900;  204.675;    0.000
383.568; 1645.900;  197.675;    0.000
383.628; 1620.900;  171.675;    0.000
383.687; 1736.900;  202.675;    0.000
383.746; 1973.900;  116.675;    0.000
383.805; 2130.900;  156.675;    0.000
383.864; 2384.900;  150.675;    0.000
383.924; 1950.900;  195.675;    0.000
383.983; 1576.900;  157.675;    0.000
384.042; 1614.900;  184.675;    0.000
384.101; 1535.900;  210.675;    0.000
384.160; 1480.900;  123.675;    0.000
384.219; 1363.900;  191.675;    0.000
384.279; 1472.900;  184.675;    0.000
384.338; 1447.900;  172.675;    0.000
384.397; 1353.900;  153.675;    0.000
384.456; 1360.900;  181.675;    0.000
384.515; 1377.900;  171.675;    0.000
384.574; 1328.900;  172.675;    0.000
384.633; 1343.900;  174.675;    0.000
384.692; 1324.900;  178.675;    0.000
384.751; 1254.900;  180.675;    0.000
384.810; 1306.900;  161.675;    0.000
384.869; 1330.900;  162.675;    0.000
384.929; 1321.900;  157.675;    0.000
384.988; 1278.900;  153.675;    0.000
385.047; 1291.900;  178.675;    0.000
385.106; 1369.900;  164.675;    0.000
385.165; 1343.900;  127.675;    0.000
385.224; 1196.900;  156.675;    0.000
385.283; 1293.900;  178.675;    0.000
385.342; 1321.900;  177.675;    0.000
385.401; 1346.900;  178.675;    0.000
385.459; 1347.900;  177.675;    0.000
385.518; 1398.900;  152.675;    0.000
385.577; 1276.900;  133.675;    0.000
385.636; 1392.900;  204.675;    0.000
385.695; 1393.900;  161.675;    0.000
385.754; 1407.900;  190.675;    0.000
385.813; 1345.900;  160.675;    0.000
385.872; 1314.900;  138.675;    0.000
385.931; 1364.900;  192.675;    0.000
385.990; 1402.900;  158.675;    0.000
386.049; 1389.900;  187.675;    0.000
386.107; 1318.900;  140.675;    0.000
386.166; 1321.900;  139.675;    0.000
386.225; 1288.900;  182.675;    0.000
386.284; 1295.900;  123.675;    0.000
386.343; 1298.900;  207.675;    0.000
386.402; 1351.900;  150.675;    0.000
386.460; 1378.900;  185.675;    0.000
386.519; 1316.900;  145.675;    0.000
386.578; 1355.900;  153.675;    0.000
386.637; 1325.900;  153.675;    0.000
386.696; 1421.900;  189.675;    0.000
386.754; 1297.900;  128.675;    0.000
386.813; 1372.900;  202.675;    0.000
386.872; 1337.900;  152.675;    0.000
386.931; 1336.900;  166.675;    0.000
386.989; 1380.900;  194.675;    0.000
387.048; 1380.900;  176.675;    0.000
387.107; 1402.900;  203.675;    0.000
387.165; 1400.900;  136.675;    0.000
387.224; 1392.900;  193.675;    0.000
387.283; 1376.900;  157.675;    0.000
387.342; 1356.900;  194.675;    0.000
387.400; 1381.900;  191.675;    0.000
387.459; 1308.900;  142.675;    0.000
387.517; 1438.900;  202.675;    0.000
387.576; 1322.900;  164.675;    0.000
387.635; 1348.900;  147.675;    0.000
387.693; 1336.900;  199.675;    0.000
387.752; 1374.900;  181.675;    0.000
387.811; 1297.900;  161.675;    0.000
387.869; 1391.900;  184.675;    0.000
387.928; 1368.900;  175.675;    0.000
387.986; 1318.900;  143.675;    0.000
388.045; 1321.900;  146.675;    0.000
388.103; 1410.900;  164.675;    0.000
388.162; 1351.900;  170.675;    0.000
388.221; 1378.900;  169.675;    0.000
388.279; 1315.900;  151.675;    0.000
388.338; 1514.900;  175.675;    0.000
388.396; 1385.900;  170.675;    0.000
388.455; 1359.900;  193.675;    0.000
388.513; 1347.900;  134.675;    0.000
388.572; 1361.900;  201.675;    0.000
388.630; 1407.900;  181.675;    0.000
388.689; 1366.900;  165.675;    0.000
388.747; 1419.900;  164.675;    0.000
388.806; 1349.900;  155.675;    0.000
388.864; 1396.900;  172.675;    0.000
388.922; 1467.900;  190.675;    0.000
388.981; 1345.900;  170.675;    0.000
389.039; 1339.900;  142.675;    0.000
389.098; 1438.900;  177.675;    0.000
389.156; 1452.900;  184.675;    0.000
389.214; 1413.900;  197.675;    0.000
389.273; 1344.900;  141.675;    0.000
389.331; 1381.900;  145.675;    0.000
389.390; 1333.900;  160.675;    0.000
389.448; 1410.900;  142.675;    0.000
389.506; 1276.900;  192.675;    0.000
389.565; 1470.900;  176.675;    0.000
389.623; 1398.900;  174.675;    0.000
389.681; 1396.900;  184.675;    0.000
389.740; 1447.900;  193.675;    0.000
389.798; 1326.900;  130.675;    0.000
389.856; 1463.900;  224.675;    0.000
389.914; 1403.900;  223.675;    0.000
389.973; 1354.900;  164.675;    0.000
390.031; 1401.900;  198.675;    0.000
390.089; 1373.900;  177.675;    0.000
390.147; 1329.900;  158.675;    0.000
390.206; 1399.900;  213.675;    0.000
390.264; 1427.900;  178.675;    0.000
390.322; 1416.900;  181.675;    0.000
390.380; 1418.900;  148.675;    0.000
390.439; 1406.900;  185.675;    0.000
390.497; 1429.900;  208.675;    0.000
390.555; 1361.900;  175.675;    0.000
390.613; 1378.900;  178.675;    0.000
390.671; 1395.900;  190.675;    0.000
390.729; 1373.900;  172.675;    0.000
390.788; 1366.900;  194.675;    0.000
390.846; 1352.900;  187.675;    0.000
390.904; 1423.900;  207.675;    0.000
390.962; 1399.900;  211.675;    0.000
391.020; 1438.900;  218.675;    0.000
391.078; 1511.900;  179.675;    0.000
391.136; 1456.900;  223.675;    0.000
391.194; 1531.900;  209.675;    0.000
391.253; 1503.900;  217.675;    0.000
391.311; 1645.900;  217.675;    0.000
391.369; 1529.900;  217.675;    0.000
391.427; 1460.900;  253.675;    0.000
391.485; 1409.900;  176.675;    0.000
391.543; 1437.900;  252.675;    0.000
391.601; 1526.900;  168.675;    0.000
391.659; 1454.900;  206.675;    0.000
391.717; 1490.900;  172.675;    0.000
391.775; 1490.900;  170.675;    0.000
391.833; 1544.900;  196.675;    0.000
391.891; 1471.900;  180.675;    0.000
391.949; 1521.900;  201.675;    0.000
392.007; 1527.900;  196.675;    0.000
392.065; 1531.900;  191.675;    0.000
392.123; 1596.900;  158.675;    0.000
392.180; 1629.900;  192.675;    0.000
392.238; 1490.900;  186.675;    0.000
392.296; 1473.900;  150.675;    0.000
392.354; 1555.900;  175.675;    0.000
392.412; 1528.900;  219.675;    0.000
392.470; 1462.900;  200.675;    0.000
392.528; 1599.900;  177.675;    0.000
392.586; 1642.900;  169.675;    0.000
392.644; 1469.900;  155.675;    0.000
392.701; 1604.900;  215.675;    0.000
392.759; 1571.900;  218.675;    0.000
392.817; 1491.900;  178.675;    0.000
392.875; 1445.900;  190.675;    0.000
392.933; 1644.900;  197.675;    0.000
392.991; 1540.900;  179.675;    0.000
393.048; 1603.900;  205.675;    0.000
393.106; 1593.900;  229.675;    0.000
393.164; 1522.900;  167.675;    0.000
393.222; 1588.900;  156.675;    0.000
393.279; 1700.900;  203.675;    0.000
393.337; 1963.900;  216.675;    0.000
393.395; 2122.900;  180.675;    0.000
393.453; 1885.900;  163.675;    0.000
393.510; 1534.900;  194.675;    0.000
393.568; 1610.900;  207.675;    0.000
393.626; 1585.900;  200.675;    0.000
393.684; 1553.900;  234.675;    0.000
393.741; 1544.900;  197.675;    0.000
393.799; 1579.900;  201.675;    0.000
393.857; 1629.900;  185.675;    0.000
393.914; 1620.900;  200.675;    0.000
393.972; 1552.900;  181.675;    0.000
394.030; 1578.900;  188.675;    0.000
394.087; 1621.900;  202.675;    0.000
394.145; 1674.900;  214.675;    0.000
394.202; 1576.900;  204.675;    0.000
394.260; 1604.900;  178.675;    0.000
394.318; 1601.900;  208.675;    0.000
394.375; 1590.900;  183.675;    0.000
394.433; 1569.900;  175.675;    0.000
394.490; 1600.900;  170.675;    0.000
394.548; 1630.900;  161.675;    0.000
394.605; 1574.900;  196.675;    0.000
394.663; 1617.900;  191.675;    0.000
394.720; 1670.900;  179.675;    0.000
394.778; 1550.900;  193.675;    0.000
394.836; 1611.900;  160.675;    0.000
394.893; 1567.900;  152.675;    0.000
394.951; 1628.900;  179.675;    0.000
395.008; 1709.900;  185.675;    0.000
395.065; 1673.900;  154.675;    0.000
395.123; 1579.900;  176.675;    0.000
395.180; 1623.900;  202.675;    0.000
395.238; 1596.900;  135.675;    0.000
395.295; 1608.900;  178.675;    0.000
395.353; 1614.900;  181.675;    0.000
395.410; 1717.900;  160.675;    0.000
395.468; 1669.900;  179.675;    0.000
395.525; 1650.900;  187.675;    0.000
395.582; 1656.900;  221.675;    0.000
395.640; 1777.900;  220.675;    0.000
395.697; 1654.900;  174.675;    0.000
395.754; 1610.900;  177.675;    0.000
395.812; 1619.900;  193.675;    0.000
395.869; 1648.900;  220.675;    0.000
395.927; 1630.900;  206.675;    0.000
395.984; 1767.900;  213.675;    0.000
396.041; 1635.900;  194.675;    0.000
396.098; 1553.900;  144.675;    0.000
396.156; 1650.900;  168.675;    0.000
396.213; 1697.900;  181.675;    0.000
396.270; 1713.900;  186.675;    0.000
396.328; 1589.900;  165.675;    0.000
396.385; 1700.900;  192.675;    0.000
396.442; 1689.900;  196.675;    0.000
396.499; 1634.900;  162.675;    0.000
396.557; 1580.900;  177.675;    0.000
396.614; 1706.900;  184.675;    0.000
396.671; 1742.900;  180.675;    0.000
396.728; 1834.900;  194.675;    0.000
396.785; 1803.900;  173.675;    0.000
396.843; 1934.900;  154.675;    0.000
396.900; 2055.900;  200.675;    0.000
396.957; 1835.900;  158.675;    0.000
397.014; 1805.900;  203.675;    0.000
397.071; 1733.900;  178.675;    0.000
397.128; 1829.900;  201.675;    0.000
397.186; 1719.900;  200.675;    0.000
397.243; 1779.900;  187.675;    0.000
397.300; 1728.900;  173.675;    0.000
397.357; 1736.900;  189.675;    0.000
397.414; 1750.900;  202.675;    0.000
397.471; 1717.900;  156.675;    0.000
397.528; 1663.900;  197.675;    0.000
397.585; 1776.900;  174.675;    0.000
397.642; 1682.900;  202.675;    0.000
397.699; 1775.900;  197.675;    0.000
397.756; 1760.900;  188.675;    0.000
397.814; 1735.900;  210.675;    0.000
397.871; 1824.900;  203.675;    0.000
397.928; 1843.900;  189.675;    0.000
397.985; 1693.900;  192.675;    0.000
398.042; 1714.900;  198.675;    0.000
398.099; 1767.900;  181.675;    0.000
398.156; 1798.900;  201.675;    0.000
398.212; 1855.900;  216.675;    0.000
398.269; 1824.900;  206.675;    0.000
398.326; 1781.900;  213.675;    0.000
398.383; 1793.900;  168.675;    0.000
398.440; 1753.900;  184.675;    0.000
398.497; 1865.900;  194.675;    0.000
398.554; 1766.900;  219.675;    0.000
398.611; 1876.900;  190.675;    0.000
398.668; 1750.900;  138.675;    0.000
398.725; 1926.900;  170.675;    0.000
398.782; 1756.900;  223.675;    0.000
398.839; 1841.900;  211.675;    0.000
398.895; 1992.900;  173.675;    0.000
398.952; 1859.900;  207.675;    0.000
399.009; 1763.900;  173.675;    0.000
399.066; 1882.900;  171.675;    0.000
399.123; 1868.900;  189.675;    0.000
399.180; 2040.900;  170.675;    0.000
399.236; 2049.900;  193.675;    0.000
399.293; 2045.900;  222.675;    0.000
399.350; 1943.900;  195.675;    0.000
399.407; 2024.900;  214.675;    0.000
399.463; 2010.900;  181.675;    0.000
399.520; 1956.900;  168.675;    0.000
399.577; 2120.900;  231.675;    0.000
399.634; 2265.900;  215.675;    0.000
399.690; 2022.900;  177.675;    0.000
399.747; 2307.900;  212.675;    0.000
399.804; 2168.900;  208.675;    0.000
399.861; 2182.900;  225.675;    0.000
399.917; 2184.900;  191.675;    0.000
399.974; 2099.900;  182.675;    0.000
400.031; 2163.900;  218.675;    0.000
400.087; 1984.900;  202.675;    0.000
400.144; 2025.900;  192.675;    0.000
400.201; 2064.900;  187.675;    0.000
400.257; 1949.900;  193.675;    0.000
400.314; 2045.900;  185.675;    0.000
400.370; 1988.900;  201.675;    0.000
400.427; 2040.900;  208.675;    0.000
400.484; 1956.900;  201.675;    0.000
400.540; 2070.900;  204.675;    0.000
400.597; 1948.900;  210.675;    0.000
400.653; 2046.900;  224.675;    0.000
400.710; 1940.900;  196.675;    0.000
400.766; 1932.900;  224.675;    0.000
400.823; 1899.900;  210.675;    0.000
400.879; 1988.900;  213.675;    0.000
400.936; 1837.900;  182.675;    0.000
400.993; 1956.900;  184.675;    0.000
401.049; 2050.900;  216.675;    0.000
401.105; 2003.900;  235.675;    0.000
401.162; 1972.900;  196.675;    0.000
401.218; 2000.900;  221.675;    0.000
401.275; 1906.900;  216.675;    0.000
401.331; 1823.900;  198.675;    0.000
401.388; 1957.900;  205.675;    0.000
401.444; 1888.900;  154.675;    0.000
401.501; 1990.900;  208.675;    0.000
401.557; 1983.900;  162.675;    0.000
401.614; 1863.900;  157.675;    0.000
401.670; 2066.900;  198.675;    0.000
401.726; 1874.900;  195.675;    0.000
401.783; 1801.900;  186.675;    0.000
401.839; 1879.900;  205.675;    0.000
401.895; 1977.900;  202.675;    0.000
401.952; 1921.900;  143.675;    0.000
402.008; 1927.900;  177.675;    0.000
402.064; 1826.900;  177.675;    0.000
402.121; 1943.900;  194.675;    0.000
402.177; 1886.900;  181.675;    0.000
402.233; 1940.900;  205.675;    0.000
402.290; 2041.900;  190.675;    0.000
402.346; 1997.900;  190.675;    0.000
402.402; 1931.900;  151.675;    0.000
402.458; 1993.900;  194.675;    0.000
402.515; 2034.900;  212.675;    0.000
402.571; 1944.900;  209.675;    0.000
402.627; 1978.900;  199.675;    0.000
402.683; 1893.900;  213.675;    0.000
402.740; 1926.900;  165.675;    0.000
402.796; 1945.900;  168.675;    0.000
402.852; 1972.900;  200.675;    0.000
402.908; 2059.900;  193.675;    0.000
402.964; 1910.900;  166.675;    0.000
403.021; 1921.900;  196.675;    0.000
403.077; 2094.900;  212.675;    0.000
403.133; 1888.900;  186.675;    0.000
403.189; 2043.900;  206.675;    0.000
403.245; 1895.900;  207.675;    0.000
403.301; 2048.900;  204.675;    0.000
403.357; 2097.900;  246.675;    0.000
403.414; 2006.900;  227.675;    0.000
403.470; 1945.900;  207.675;    0.000
403.526; 1901.900;  171.675;    0.000
403.582; 2084.900;  200.675;    0.000
403.638; 2256.900;  213.675;    0.000
403.694; 2019.900;  239.675;    0.000
403.750; 2000.900;  221.675;    0.000
403.806; 2104.900;  197.675;    0.000
403.862; 2100.900;  222.675;    0.000
403.918; 2092.900;  174.675;    0.000
403.974; 1981.900;  183.675;    0.000
404.030; 2128.900;  184.675;    0.000
404.086; 2054.900;  170.675;    0.000
404.142; 2026.900;  215.675;    0.000
404.198; 2000.900;  189.675;    0.000
404.254; 2034.900;  195.675;    0.000
404.310; 2134.900;  206.675;    0.000
404.366; 2121.900;  179.675;    0.000
404.422; 2065.900;  197.675;    0.000
404.478; 2206.900;  176.675;    0.000
404.534; 1979.900;  165.675;    0.000
404.590; 2101.900;  203.675;    0.000
404.646; 2162.900;  195.675;    0.000
404.701; 2066.900;  180.675;    0.000
404.757; 2107.900;  218.675;    0.000
404.813; 2161.900;  160.675;    0.000
404.869; 2138.900;  213.675;    0.000
404.925; 2093.900;  171.675;    0.000
404.981; 2079.900;  194.675;    0.000
405.037; 2075.900;  211.675;    0.000
405.092; 1960.900;  158.675;    0.000
405.148; 2063.900;  140.675;    0.000
405.204; 2162.900;  161.675;    0.000
405.260; 2063.900;  161.675;    0.000
405.316; 2101.900;  155.675;    0.000
405.371; 2108.900;  151.675;    0.000
405.427; 2099.900;  186.675;    0.000
405.483; 2083.900;  206.675;    0.000
405.539; 2039.900;  162.675;    0.000
405.594; 2114.900;  205.675;    0.000
405.650; 2048.900;  153.675;    0.000
405.706; 2203.900;  185.675;    0.000
405.761; 2093.900;  205.675;    0.000
405.817; 2147.900;  185.675;    0.000
405.873; 2219.900;  160.675;    0.000
405.928; 2086.900;  182.675;    0.000
405.984; 2089.900;  206.675;    0.000
406.040; 2060.900;  200.675;    0.000
406.095; 2095.900;  138.675;    0.000
406.151; 2113.900;  178.675;    0.000
406.207; 2089.900;  225.675;    0.000
406.262; 2146.900;  161.675;    0.000
406.318; 2198.900;  186.675;    0.000
406.374; 2167.900;  173.675;    0.000
406.429; 2130.900;  197.675;    0.000
406.485; 2272.900;  260.675;    0.000
406.540; 2209.900;  184.675;    0.000
406.596; 2117.900;  193.675;    0.000
406.651; 2211.900;  176.675;    0.000
406.707; 2193.900;  158.675;    0.000
406.763; 2196.900;  174.675;    0.000
406.818; 2182.900;  188.675;    0.000
406.874; 2120.900;  176.675;    0.000
406.929; 2379.900;  220.675;    0.000
406.985; 2304.900;  167.675;    0.000
407.040; 2196.900;  191.675;    0.000
407.095; 2315.900;  190.675;    0.000
407.151; 2344.900;  196.675;    0.000
407.206; 2381.900;  184.675;    0.000
407.262; 2268.900;  167.675;    0.000
407.317; 2446.900;  199.675;    0.000
407.373; 2479.900;  211.675;    0.000
407.428; 2494.900;  202.675;    0.000
407.484; 2370.900;  172.675;    0.000
407.539; 2372.900;  171.675;    0.000
407.594; 2325.900;  219.675;    0.000
407.650; 2299.900;  179.675;    0.000
407.705; 2385.900;  141.675;    0.000
407.760; 2353.900;  182.675;    0.000
407.816; 2296.900;  203.675;    0.000
407.871; 2400.900;  219.675;    0.000
407.926; 2371.900;  197.675;    0.000
407.982; 2290.900;  176.675;    0.000
408.037; 2310.900;  187.675;    0.000
408.092; 2370.900;  161.675;    0.000
408.148; 2364.900;  185.675;    0.000
408.203; 2261.900;  196.675;    0.000
408.258; 2263.900;  188.675;    0.000
408.314; 2387.900;  225.675;    0.000
408.369; 2103.900;  172.675;    0.000
408.424; 2262.900;  204.675;    0.000
408.479; 2316.900;  182.675;    0.000
408.534; 2353.900;  220.675;    0.000
408.590; 2433.900;  196.675;    0.000
408.645; 2313.900;  170.675;    0.000
408.700; 2327.900;  204.675;    0.000
408.755; 2384.900;  219.675;    0.000
408.810; 2224.900;  174.675;    0.000
408.866; 2250.900;  212.675;    0.000
408.921; 2338.900;  233.675;    0.000
408.976; 2331.900;  198.675;    0.000
409.031; 2312.900;  179.675;    0.000
409.086; 2134.900;  181.675;    0.000
409.141; 2249.900;  192.675;    0.000
409.196; 2329.900;  172.675;    0.000
409.252; 2253.900;  199.675;    0.000
409.307; 2330.900;  159.675;    0.000
409.362; 2293.900;  158.675;    0.000
409.417; 2232.900;  164.675;    0.000
409.472; 2318.900;  186.675;    0.000
409.527; 2236.900;  215.675;    0.000
409.582; 2265.900;  227.675;    0.000
409.637; 2274.900;  211.675;    0.000
409.692; 2332.900;  224.675;    0.000
409.747; 2073.900;  147.675;    0.000
409.802; 2216.900;  203.675;    0.000
409.857; 2246.900;  203.675;    0.000
409.912; 2309.900;  219.675;    0.000
409.967; 2142.900;  200.675;    0.000
410.022; 2290.900;  199.675;    0.000
410.077; 2270.900;  171.675;    0.000
410.132; 2329.900;  193.675;    0.000
410.187; 2172.900;  167.675;    0.000
410.242; 2305.900;  188.675;    0.000
410.297; 2239.900;  195.675;    0.000
410.351; 2197.900;  225.675;    0.000
410.406; 2394.900;  188.675;    0.000
410.461; 2320.900;  197.675;    0.000
410.516; 2208.900;  212.675;    0.000
410.571; 2219.900;  173.675;    0.000
410.626; 2370.900;  180.675;    0.000
410.681; 2139.900;  198.675;    0.000
410.736; 2318.900;  190.675;    0.000
410.790; 2214.900;  204.675;    0.000
410.845; 2195.900;  214.675;    0.000
410.900; 2287.900;  184.675;    0.000
410.955; 2211.900;  231.675;    0.000
411.010; 2285.900;  211.675;    0.000
411.064; 2237.900;  204.675;    0.000
411.119; 2147.900;  219.675;    0.000
411.174; 2221.900;  208.675;    0.000
411.229; 2391.900;  207.675;    0.000
411.283; 2224.900;  199.675;    0.000
411.338; 2312.900;  198.675;    0.000
411.393; 2237.900;  155.675;    0.000
411.447; 2300.900;  200.675;    0.000
411.502; 2253.900;  229.675;    0.000
411.557; 2266.900;  197.675;    0.000
411.612; 2264.900;  171.675;    0.000
411.666; 2148.900;  201.675;    0.000
411.721; 2274.900;  174.675;    0.000
411.776; 2222.900;  222.675;    0.000
411.830; 2201.900;  150.675;    0.000
411.885; 2252.900;  169.675;    0.000
411.939; 2418.900;  216.675;    0.000
411.994; 2267.900;  215.675;    0.000
412.049; 2415.900;  219.675;    0.000
412.103; 2338.900;  225.675;    0.000
412.158; 2210.900;  216.675;    0.000
412.212; 2173.900;  218.675;    0.000
412.267; 2177.900;  219.675;    0.000
412.322; 2323.900;  235.675;    0.000
412.376; 2211.900;  208.675;    0.000
412.431; 2337.900;  232.675;    0.000
412.485; 2304.900;  223.675;    0.000
412.540; 2282.900;  217.675;    0.000
412.594; 2321.900;  195.675;    0.000
412.649; 2279.900;  236.675;    0.000
412.703; 2278.900;  216.675;    0.000
412.758; 2200.900;  201.675;    0.000
412.812; 2263.900;  176.675;    0.000
412.866; 2162.900;  179.675;    0.000
412.921; 2047.900;  196.675;    0.000
412.975; 2253.900;  238.675;    0.000
413.030; 2278.900;  272.675;    0.000
413.084; 2349.900;  208.675;    0.000
413.139; 2203.900;  201.675;    0.000
413.193; 2201.900;  198.675;    0.000
413.247; 2284.900;  213.675;    0.000
413.302; 2147.900;  202.675;    0.000
413.356; 2282.900;  184.675;    0.000
413.410; 2265.900;  202.675;    0.000
413.465; 2240.900;  145.675;    0.000
413.519; 2262.900;  200.675;    0.000
413.573; 2205.900;  197.675;    0.000
413.628; 2175.900;  224.675;    0.000
413.682; 2232.900;  211.675;    0.000
413.736; 2218.900;  202.675;    0.000
413.791; 2195.900;  228.675;    0.000
413.845; 2284.900;  184.675;    0.000
413.899; 2175.900;  226.675;    0.000
413.953; 2166.900;  213.675;    0.000
414.008; 2175.900;  175.675;    0.000
414.062; 2219.900;  216.675;    0.000
414.116; 2368.900;  206.675;    0.000
414.170; 2221.900;  229.675;    0.000
414.225; 2307.900;  196.675;    0.000
414.279; 2301.900;  199.675;    0.000
414.333; 2229.900;  220.675;    0.000
414.387; 2364.900;  217.675;    0.000
414.441; 2198.900;  206.675;    0.000
414.496; 2251.900;  264.675;    0.000
414.550; 2324.900;  217.675;    0.000
414.604; 2266.900;  224.675;    0.000
414.658; 2188.900;  156.675;    0.000
414.712; 2431.900;  203.675;    0.000
414.766; 2279.900;  216.675;    0.000
414.820; 2240.900;  218.675;    0.000
414.874; 2321.900;  240.675;    0.000
414.928; 2164.900;  204.675;    0.000
414.982; 2255.900;  195.675;    0.000
415.037; 2167.900;  212.675;    0.000
415.091; 2282.900;  211.675;    0.000
415.145; 2338.900;  230.675;    0.000
415.199; 2304.900;  208.675;    0.000
415.253; 2219.900;  213.675;    0.000
415.307; 2281.900;  208.675;    0.000
415.361; 2197.900;  193.675;    0.000
415.415; 2143.900;  207.675;    0.000
415.469; 2358.900;  214.675;    0.000
415.523; 2291.900;  226.675;    0.000
415.577; 2272.900;  194.675;    0.000
415.631; 2196.900;  258.675;    0.000
415.684; 2261.900;  239.675;    0.000
415.738; 2303.900;  191.675;    0.000
415.792; 2255.900;  185.675;    0.000
415.846; 2332.900;  239.675;    0.000
415.900; 2268.900;  209.675;    0.000
415.954; 2266.900;  215.675;    0.000
416.008; 2263.900;  229.675;    0.000
416.062; 2313.900;  200.675;    0.000
416.116; 2132.900;  195.675;    0.000
416.169; 2176.900;  238.675;    0.000
416.223; 2289.900;  271.675;    0.000
416.277; 2205.900;  232.675;    0.000
416.331; 2270.900;  226.675;    0.000
416.385; 2180.900;  207.675;    0.000
416.439; 2266.900;  221.675;    0.000
416.492; 2264.900;  269.675;    0.000
416.546; 2198.900;  254.675;    0.000
416.600; 2171.900;  225.675;    0.000
416.654; 2240.900;  269.675;    0.000
416.707; 2185.900;  232.675;    0.000
416.761; 2260.900;  226.675;    0.000
416.815; 2313.900;  219.675;    0.000
416.869; 2333.900;  234.675;    0.000
416.922; 2308.900;  230.675;    0.000
416.976; 2336.900;  216.675;    0.000
417.030; 2186.900;  271.675;    0.000
417.083; 2128.900;  229.675;    0.000
417.137; 2274.900;  249.675;    0.000
417.191; 2252.900;  241.675;    0.000
417.244; 2314.900;  230.675;    0.000
417.298; 2189.900;  215.675;    0.000
417.352; 2176.900;  188.675;    0.000
417.405; 2215.900;  248.675;    0.000
417.459; 2182.900;  256.675;    0.000
417.512; 2353.900;  263.675;    0.000
417.566; 2142.900;  227.675;    0.000
417.620; 2292.900;  270.675;    0.000
417.673; 2453.900;  216.675;    0.000
417.727; 2281.900;  234.675;    0.000
417.780; 2322.900;  215.675;    0.000
417.834; 2255.900;  203.675;    0.000
417.887; 2224.900;  257.675;    0.000
417.941; 2392.900;  216.675;    0.000
417.994; 2258.900;  245.675;    0.000
418.048; 2275.900;  209.675;    0.000
418.101; 2295.900;  207.675;    0.000
418.155; 2246.900;  204.675;    0.000
418.208; 2336.900;  270.675;    0.000
418.262; 2275.900;  228.675;    0.000
418.315; 2353.900;  254.675;    0.000
418.369; 2289.900;  245.675;    0.000
418.422; 2281.900;  224.675;    0.000
418.476; 2228.900;  221.675;    0.000
418.529; 2203.900;  234.675;    0.000
418.582; 2214.900;  249.675;    0.000
418.636; 2288.900;  224.675;    0.000
418.689; 2226.900;  228.675;    0.000
418.743; 2298.900;  240.675;    0.000
418.796; 2161.900;  197.675;    0.000
418.849; 2223.900;  220.675;    0.000
418.903; 2288.900;  246.675;    0.000
418.956; 2301.900;  250.675;    0.000
419.009; 2197.900;  276.675;    0.000
419.063; 2286.900;  232.675;    0.000
419.116; 2329.900;  228.675;    0.000
419.169; 2278.900;  249.675;    0.000
419.222; 2260.900;  215.675;    0.000
419.276; 2288.900;  228.675;    0.000
419.329; 2247.900;  246.675;    0.000
419.382; 2156.900;  188.675;    0.000
419.435; 2295.900;  240.675;    0.000
419.489; 2188.900;  261.675;    0.000
419.542; 2202.900;  224.675;    0.000
419.595; 2249.900;  251.675;    0.000
419.648; 2250.900;  236.675;    0.000
419.701; 2317.900;  244.675;    0.000
419.755; 2244.900;  242.675;    0.000
419.808; 2295.900;  242.675;    0.000
419.861; 2154.900;  189.675;    0.000
419.914; 2247.900;  258.675;    0.000
419.967; 2190.900;  230.675;    0.000
420.020; 2218.900;  223.675;    0.000
420.073; 2061.900;  221.675;    0.000
420.127; 2163.900;  252.675;    0.000
420.180; 2177.900;  219.675;    0.000
420.233; 2061.900;  201.675;    0.000
420.286; 2143.900;  221.675;    0.000
420.339; 2212.900;  250.675;    0.000
420.392; 2109.900;  268.675;    0.000
420.445; 2242.900;  223.675;    0.000
420.498; 2118.900;  240.675;    0.000
420.551; 2119.900;  220.675;    0.000
420.604; 2112.900;  231.675;    0.000
420.657; 2100.900;  228.675;    0.000
420.710; 2181.900;  219.675;    0.000
420.763; 2241.900;  280.675;    0.000
420.816; 2045.900;  202.675;    0.000
420.869; 2168.900;  219.675;    0.000
420.922; 2122.900;  218.675;    0.000
420.975; 2086.900;  237.675;    0.000
421.028; 2152.900;  242.675;    0.000
421.081; 2200.900;  247.675;    0.000
421.134; 2086.900;  239.675;    0.000
421.187; 2211.900;  229.675;    0.000
421.239; 2201.900;  200.675;    0.000
421.292; 2054.900;  205.675;    0.000
421.345; 2052.900;  219.675;    0.000
421.398; 2055.900;  187.675;    0.000
421.451; 2159.900;  226.675;    0.000
421.504; 2142.900;  206.675;    0.000
421.557; 2019.900;  226.675;    0.000
421.609; 2170.900;  209.675;    0.000
421.662; 2093.900;  229.675;    0.000
421.715; 2017.900;  231.675;    0.000
421.768; 2149.900;  215.675;    0.000
421.821; 2073.900;  211.675;    0.000
421.873; 2037.900;  220.675;    0.000
421.926; 2082.900;  212.675;    0.000
421.979; 2058.900;  209.675;    0.000
422.032; 2074.900;  203.675;    0.000
422.084; 2080.900;  213.675;    0.000
422.137; 2072.900;  196.675;    0.000
422.190; 2059.900;  246.675;    0.000
422.243; 2093.900;  194.675;    0.000
422.295; 2047.900;  225.675;    0.000
422.348; 2044.900;  248.675;    0.000
422.401; 2126.900;  252.675;    0.000
422.453; 2223.900;  249.675;    0.000
422.506; 2040.900;  233.675;    0.000
422.559; 2041.900;  228.675;    0.000
422.611; 2134.900;  224.675;    0.000
422.664; 2201.900;  226.675;    0.000
422.716; 2387.900;  226.675;    0.000
422.769; 2242.900;  216.675;    0.000
422.822; 2092.900;  256.675;    0.000
422.874; 2113.900;  206.675;    0.000
422.927; 2064.900;  257.675;    0.000
422.979; 2115.900;  209.675;    0.000
423.032; 2071.900;  244.675;    0.000
423.084; 2100.900;  244.675;    0.000
423.137; 2212.900;  213.675;    0.000
423.189; 2044.900;  208.675;    0.000
423.242; 1989.900;  226.675;    0.000
423.294; 2113.900;  250.675;    0.000
423.347; 2014.900;  206.675;    0.000
423.399; 2078.900;  268.675;    0.000
423.452; 2036.900;  262.675;    0.000
423.504; 2076.900;  237.675;    0.000
423.557; 2008.900;  245.675;    0.000
423.609; 2007.900;  211.675;    0.000
423.662; 2115.900;  222.675;    0.000
423.714; 2056.900;  219.675;    0.000
423.766; 2002.900;  250.675;    0.000
423.819; 1994.900;  220.675;    0.000
423.871; 2081.900;  229.675;    0.000
423.923; 2091.900;  219.675;    0.000
423.976; 2134.900;  221.675;    0.000
424.028; 1997.900;  211.675;    0.000
424.081; 1997.900;  254.675;    0.000
424.133; 1924.900;  230.675;    0.000
424.185; 2053.900;  241.675;    0.000
424.238; 2103.900;  182.675;    0.000
424.290; 1940.900;  215.675;    0.000
424.342; 2024.900;  235.675;    0.000
424.394; 1926.900;  225.675;    0.000
424.447; 2062.900;  264.675;    0.000
424.499; 2069.900;  225.675;    0.000
424.551; 2168.900;  237.675;    0.000
424.603; 2058.900;  219.675;    0.000
424.656; 2009.900;  240.675;    0.000
424.708; 2033.900;  266.675;    0.000
424.760; 2112.900;  230.675;    0.000
424.812; 2052.900;  284.675;    0.000
424.864; 2015.900;  189.675;    0.000
424.917; 1998.900;  226.675;    0.000
424.969; 1978.900;  253.675;    0.000
425.021; 2034.900;  233.675;    0.000
425.073; 2074.900;  246.675;    0.000
425.125; 1947.900;  238.675;    0.000
425.177; 1903.900;  253.675;    0.000
425.229; 2001.900;  254.675;    0.000
425.282; 2005.900;  252.675;    0.000
425.334; 1935.900;  261.675;    0.000
425.386; 1981.900;  227.675;    0.000
425.438; 1975.900;  246.675;    0.000
425.490; 2010.900;  249.675;    0.000
425.542; 2022.900;  236.675;    0.000
425.594; 1973.900;  236.675;    0.000
425.646; 2018.900;  237.675;    0.000
425.698; 1993.900;  271.675;    0.000
425.750; 2027.900;  240.675;    0.000
425.802; 2023.900;  238.675;    0.000
425.854; 1986.900;  256.675;    0.000
425.906; 2009.900;  230.675;    0.000
425.958; 1922.900;  231.675;    0.000
426.010; 1949.900;  268.675;    0.000
426.062; 1945.900;  227.675;    0.000
426.114; 1909.900;  234.675;    0.000
426.166; 1930.900;  239.675;    0.000
426.218; 1979.900;  255.675;    0.000
426.270; 1938.900;  196.675;    0.000
426.321; 1890.900;  231.675;    0.000
426.373; 1920.900;  199.675;    0.000
426.425; 1961.900;  245.675;    0.000
426.477; 1955.900;  259.675;    0.000
426.529; 1891.900;  274.675;    0.000
426.581; 1869.900;  221.675;    0.000
426.633; 1854.900;  231.675;    0.000
426.684; 1856.900;  248.675;    0.000
426.736; 1873.900;  237.675;    0.000
426.788; 1899.900;  191.675;    0.000
426.840; 1900.900;  180.675;    0.000
426.892; 1941.900;  259.675;    0.000
426.943; 1878.900;  256.675;    0.000
426.995; 1876.900;  212.675;    0.000
427.047; 1801.900;  233.675;    0.000
427.099; 1910.900;  222.675;    0.000
427.150; 1884.900;  203.675;    0.000
427.202; 1811.900;  218.675;    0.000
427.254; 1896.900;  198.675;    0.000
427.306; 1896.900;  248.675;    0.000
427.357; 1877.900;  239.675;    0.000
427.409; 1860.900;  193.675;    0.000
427.461; 1867.900;  215.675;    0.000
427.512; 1912.900;  251.675;    0.000
427.564; 1988.900;  210.675;    0.000
427.616; 1910.900;  251.675;    0.000
427.667; 1920.900;  246.675;    0.000
427.719; 1967.900;  227.675;    0.000
427.770; 1850.900;  247.675;    0.000
427.822; 1880.900;  261.675;    0.000
427.874; 1851.900;  231.675;    0.000
427.925; 1854.900;  231.675;    0.000
427.977; 1875.900;  243.675;    0.000
428.028; 1811.900;  249.675;    0.000
428.080; 1898.900;  224.675;    0.000
428.131; 1835.900;  247.675;    0.000
428.183; 1835.900;  213.675;    0.000
428.234; 1799.900;  213.675;    0.000
428.286; 1871.900;  224.675;    0.000
428.337; 1805.900;  212.675;    0.000
428.389; 1849.900;  231.675;    0.000
428.440; 1827.900;  248.675;    0.000
428.492; 1897.900;  242.675;    0.000
428.543; 1867.900;  220.675;    0.000
428.595; 1780.900;  212.675;    0.000
428.646; 1878.900;  231.675;    0.000
428.697; 1799.900;  232.675;    0.000
428.749; 1858.900;  231.675;    0.000
428.800; 1871.900;  270.675;    0.000
428.852; 1784.900;  266.675;    0.000
428.903; 1739.900;  215.675;    0.000
428.954; 1831.900;  200.675;    0.000
429.006; 1879.900;  247.675;    0.000
429.057; 1787.900;  247.675;    0.000
429.108; 1884.900;  193.675;    0.000
429.160; 1811.900;  249.675;    0.000
429.211; 1871.900;  228.675;    0.000
429.262; 1739.900;  243.675;    0.000
429.314; 1847.900;  227.675;    0.000
429.365; 1794.900;  242.675;    0.000
429.416; 1835.900;  240.675;    0.000
429.467; 1849.900;  222.675;    0.000
429.519; 1849.900;  233.675;    0.000
429.570; 1879.900;  223.675;    0.000
429.621; 1743.900;  257.675;    0.000
429.672; 1761.900;  220.675;    0.000
429.724; 1868.900;  203.675;    0.000
429.775; 1904.900;  242.675;    0.000
429.826; 1731.900;  195.675;    0.000
429.877; 1713.900;  248.675;    0.000
429.928; 1814.900;  226.675;    0.000
429.980; 1776.900;  189.675;    0.000
430.031; 1738.900;  223.675;    0.000
430.082; 1763.900;  217.675;    0.000
430.133; 1720.900;  210.675;    0.000
430.184; 1735.900;  271.675;    0.000
430.235; 1760.900;  190.675;    0.000
430.286; 1839.900;  233.675;    0.000
430.337; 1811.900;  232.675;    0.000
430.388; 1728.900;  221.675;    0.000
430.439; 1743.900;  221.675;    0.000
430.490; 1802.900;  229.675;    0.000
430.542; 1775.900;  196.675;    0.000
430.593; 1829.900;  214.675;    0.000
430.644; 1704.900;  224.675;    0.000
430.695; 1767.900;  216.675;    0.000
430.746; 1653.900;  228.675;    0.000
430.797; 1859.900;  190.675;    0.000
430.848; 1788.900;  231.675;    0.000
430.898; 1788.900;  232.675;    0.000
430.949; 1685.900;  224.675;    0.000
431.000; 1702.900;  236.675;    0.000
431.051; 1785.900;  251.675;    0.000
431.102; 1716.900;  205.675;    0.000
431.153; 1704.900;  212.675;    0.000
431.204; 1838.900;  200.675;    0.000
431.255; 1803.900;  220.675;    0.000
431.306; 1782.900;  223.675;    0.000
431.357; 1784.900;  240.675;    0.000
431.408; 1828.900;  232.675;    0.000
431.458; 1715.900;  204.675;    0.000
431.509; 1787.900;  196.675;    0.000
431.560; 1691.900;  243.675;    0.000
431.611; 1778.900;  222.675;    0.000
431.662; 1784.900;  246.675;    0.000
431.713; 1861.900;  188.675;    0.000
431.763; 1825.900;  226.675;    0.000
431.814; 1855.900;  239.675;    0.000
431.865; 1795.900;  245.675;    0.000
431.916; 1716.900;  173.675;    0.000
431.966; 1784.900;  220.675;    0.000
432.017; 1738.900;  247.675;    0.000
432.068; 1797.900;  241.675;    0.000
432.118; 1813.900;  220.675;    0.000
432.169; 1722.900;  244.675;    0.000
432.220; 1762.900;  246.675;    0.000
432.271; 1801.900;  203.675;    0.000
432.321; 1856.900;  244.675;    0.000
432.372; 1708.900;  254.675;    0.000
432.423; 1689.900;  224.675;    0.000
432.473; 1729.900;  211.675;    0.000
432.524; 1716.900;  227.675;    0.000
432.574; 1754.900;  228.675;    0.000
432.625; 1700.900;  223.675;    0.000
432.676; 1748.900;  220.675;    0.000
432.726; 1814.900;  257.675;    0.000
432.777; 1668.900;  257.675;    0.000
432.827; 1789.900;  240.675;    0.000
432.878; 1728.900;  219.675;    0.000
432.928; 1736.900;  234.675;    0.000
432.979; 1705.900;  226.675;    0.000
433.029; 1678.900;  216.675;    0.000
433.080; 1684.900;  232.675;    0.000
433.130; 1730.900;  257.675;    0.000
433.181; 1710.900;  243.675;    0.000
433.231; 1794.900;  239.675;    0.000
433.282; 1723.900;  232.675;    0.000
433.332; 1792.900;  256.675;    0.000
433.383; 1755.900;  268.675;    0.000
433.433; 1841.900;  291.675;    0.000
433.484; 1765.900;  263.675;    0.000
433.534; 1731.900;  248.675;    0.000
433.585; 1738.900;  244.675;    0.000
433.635; 1707.900;  242.675;    0.000
433.685; 1880.900;  243.675;    0.000
433.736; 1762.900;  283.675;    0.000
433.786; 1731.900;  264.675;    0.000
433.836; 1863.900;  282.675;    0.000
433.887; 1723.900;  265.675;    0.000
433.937; 1694.900;  255.675;    0.000
433.987; 1669.900;  245.675;    0.000
434.038; 1707.900;  276.675;    0.000
434.088; 1719.900;  249.675;    0.000
434.138; 1721.900;  260.675;    0.000
434.189; 1699.900;  241.675;    0.000
434.239; 1736.900;  232.675;    0.000
434.289; 1771.900;  272.675;    0.000
434.339; 1757.900;  288.675;    0.000
434.389; 1718.900;  258.675;    0.000
434.440; 1769.900;  244.675;    0.000
434.490; 1818.900;  288.675;    0.000
434.540; 1821.900;  252.675;    0.000
434.590; 1858.900;  256.675;    0.000
434.640; 1883.900;  259.675;    0.000
434.691; 1800.900;  220.675;    0.000
434.741; 1833.900;  238.675;    0.000
434.791; 1804.900;  276.675;    0.000
434.841; 1787.900;  256.675;    0.000
434.891; 1811.900;  297.675;    0.000
434.941; 1848.900;  290.675;    0.000
434.991; 1758.900;  261.675;    0.000
435.042; 1786.900;  300.675;    0.000
435.092; 1749.900;  248.675;    0.000
435.142; 1775.900;  246.675;    0.000
435.192; 1714.900;  201.675;    0.000
435.242; 1799.900;  234.675;    0.000
435.292; 1739.900;  266.675;    0.000
435.342; 1704.900;  250.675;    0.000
435.392; 1769.900;  279.675;    0.000
435.442; 1597.900;  242.675;    0.000
435.492; 1881.900;  265.675;    0.000
435.542; 1701.900;  243.675;    0.000
435.592; 1688.900;  243.675;    0.000
435.642; 1632.900;  241.675;    0.000
435.692; 1716.900;  263.675;    0.000
435.742; 1730.900;  264.675;    0.000
435.792; 1698.900;  291.675;    0.000
435.842; 1680.900;  257.675;    0.000
435.891; 1680.900;  224.675;    0.000
435.941; 1640.900;  243.675;    0.000
435.991; 1625.900;  300.675;    0.000
436.041; 1679.900;  197.675;    0.000
436.091; 1714.900;  238.675;    0.000
436.141; 1638.900;  222.675;    0.000
436.191; 1654.900;  249.675;    0.000
436.241; 1582.900;  208.675;    0.000
436.290; 1735.900;  282.675;    0.000
436.340; 1637.900;  233.675;    0.000
436.390; 1799.900;  223.675;    0.000
436.440; 1621.900;  252.675;    0.000
436.490; 1609.900;  254.675;    0.000
436.539; 1625.900;  271.675;    0.000
436.589; 1610.900;  248.675;    0.000
436.639; 1635.900;  235.675;    0.000
436.689; 1618.900;  238.675;    0.000
436.738; 1654.900;  267.675;    0.000
436.788; 1562.900;  239.675;    0.000
436.838; 1589.900;  244.675;    0.000
436.887; 1693.900;  265.675;    0.000
436.937; 1575.900;  261.675;    0.000
436.987; 1593.900;  235.675;    0.000
437.036; 1645.900;  267.675;    0.000
437.086; 1662.900;  258.675;    0.000
437.136; 1680.900;  250.675;    0.000
437.185; 1589.900;  214.675;    0.000
437.235; 1596.900;  257.675;    0.000
437.285; 1526.900;  259.675;    0.000
437.334; 1555.900;  241.675;    0.000
437.384; 1510.900;  231.675;    0.000
437.433; 1584.900;  239.675;    0.000
437.483; 1622.900;  260.675;    0.000
437.532; 1661.900;  277.675;    0.000
437.582; 1615.900;  268.675;    0.000
437.631; 1657.900;  239.675;    0.000
437.681; 1616.900;  251.675;    0.000
437.730; 1617.900;  246.675;    0.000
437.780; 1504.900;  226.675;    0.000
437.829; 1547.900;  256.675;    0.000
437.879; 1490.900;  239.675;    0.000
437.928; 1520.900;  253.675;    0.000
437.978; 1616.900;  245.675;    0.000
438.027; 1642.900;  277.675;    0.000
438.077; 1479.900;  248.675;    0.000
438.126; 1615.900;  201.675;    0.000
438.176; 1582.900;  220.675;    0.000
438.225; 1542.900;  250.675;    0.000
438.274; 1495.900;  234.675;    0.000
438.324; 1537.900;  276.675;    0.000
438.373; 1569.900;  226.675;    0.000
438.422; 1561.900;  228.675;    0.000
438.472; 1545.900;  225.675;    0.000
438.521; 1545.900;  227.675;    0.000
438.570; 1566.900;  242.675;    0.000
438.620; 1656.900;  277.675;    0.000
438.669; 1556.900;  256.675;    0.000
438.718; 1552.900;  248.675;    0.000
438.768; 1518.900;  225.675;    0.000
438.817; 1489.900;  229.675;    0.000
438.866; 1498.900;  218.675;    0.000
438.915; 1556.900;  256.675;    0.000
438.965; 1640.900;  242.675;    0.000
439.014; 1523.900;  260.675;    0.000
439.063; 1568.900;  238.675;    0.000
439.112; 1459.900;  209.675;    0.000
439.162; 1552.900;  258.675;    0.000
439.211; 1596.900;  275.675;    0.000
439.260; 1519.900;  238.675;    0.000
439.309; 1562.900;  237.675;    0.000
439.358; 1587.900;  252.675;    0.000
439.407; 1564.900;  239.675;    0.000
439.456; 1488.900;  211.675;    0.000
439.506; 1537.900;  261.675;    0.000
439.555; 1611.900;  274.675;    0.000
439.604; 1539.900;  262.675;    0.000
439.653; 1496.900;  245.675;    0.000
439.702; 1486.900;  247.675;    0.000
439.751; 1466.900;  228.675;    0.000
439.800; 1461.900;  253.675;    0.000
439.849; 1541.900;  219.675;    0.000
439.898; 1550.900;  246.675;    0.000
439.947; 1513.900;  229.675;    0.000
439.996; 1573.900;  274.675;    0.000
440.045; 1522.900;  224.675;    0.000
440.094; 1570.900;  225.675;    0.000
440.143; 1555.900;  277.675;    0.000
440.192; 1532.900;  252.675;    0.000
440.241; 1532.900;  253.675;    0.000
440.290; 1483.900;  242.675;    0.000
440.339; 1499.900;  220.675;    0.000
440.388; 1565.900;  244.675;    0.000
440.437; 1564.900;  268.675;    0.000
440.486; 1540.900;  242.675;    0.000
440.535; 1573.900;  269.675;    0.000
440.583; 1501.900;  258.675;    0.000
440.632; 1532.900;  286.675;    0.000
440.681; 1476.900;  238.675;    0.000
440.730; 1606.900;  271.675;    0.000
440.779; 1550.900;  226.675;    0.000
440.828; 1530.900;  213.675;    0.000
440.876; 1542.900;  207.675;    0.000
440.925; 1556.900;  247.675;    0.000
440.974; 1543.900;  229.675;    0.000
441.023; 1627.900;  227.675;    0.000
441.072; 1595.900;  222.675;    0.000
441.120; 1587.900;  273.675;    0.000
441.169; 1640.900;  263.675;    0.000
441.218; 1557.900;  264.675;    0.000
441.267; 1577.900;  287.675;    0.000
441.315; 1685.900;  251.675;    0.000
441.364; 1567.900;  252.675;    0.000
441.413; 1640.900;  227.675;    0.000
441.461; 1582.900;  198.675;    0.000
441.510; 1624.900;  273.675;    0.000
441.559; 1648.900;  245.675;    0.000
441.607; 1611.900;  218.675;    0.000
441.656; 1646.900;  261.675;    0.000
441.705; 1623.900;  259.675;    0.000
441.753; 1622.900;  272.675;    0.000
441.802; 1644.900;  246.675;    0.000
441.850; 1585.900;  255.675;    0.000
441.899; 1613.900;  236.675;    0.000
441.948; 1663.900;  267.675;    0.000
441.996; 1577.900;  246.675;    0.000
442.045; 1606.900;  279.675;    0.000
442.093; 1550.900;  251.675;    0.000
442.142; 1544.900;  274.675;    0.000
442.190; 1539.900;  279.675;    0.000
442.239; 1612.900;  295.675;    0.000
442.287; 1605.900;  229.675;    0.000
442.336; 1701.900;  265.675;    0.000
442.384; 1514.900;  219.675;    0.000
442.433; 1629.900;  287.675;    0.000
442.481; 1638.900;  271.675;    0.000
442.529; 1604.900;  262.675;    0.000
442.578; 1560.900;  282.675;    0.000
442.626; 1587.900;  245.675;    0.000
442.675; 1630.900;  283.675;    0.000
442.723; 1517.900;  247.675;    0.000
442.771; 1564.900;  221.675;    0.000
442.820; 1618.900;  253.675;    0.000
442.868; 1569.900;  204.675;    0.000
442.917; 1585.900;  263.675;    0.000
442.965; 1568.900;  255.675;    0.000
443.013; 1540.900;  282.675;    0.000
443.062; 1543.900;  258.675;    0.000
443.110; 1596.900;  268.675;    0.000
443.158; 1558.900;  247.675;    0.000
443.206; 1630.900;  243.675;    0.000
443.255; 1630.900;  271.675;    0.000
443.303; 1661.900;  279.675;    0.000
443.351; 1530.900;  264.675;    0.000
443.399; 1529.900;  245.675;    0.000
443.448; 1509.900;  259.675;    0.000
443.496; 1495.900;  281.675;    0.000
443.544; 1512.900;  213.675;    0.000
443.592; 1573.900;  290.675;    0.000
443.640; 1554.900;  270.675;    0.000
443.689; 1482.900;  229.675;    0.000
443.737; 1569.900;  254.675;    0.000
443.785; 1554.900;  234.675;    0.000
443.833; 1584.900;  287.675;    0.000
443.881; 1631.900;  229.675;    0.000
443.929; 1571.900;  260.675;    0.000
443.977; 1558.900;  265.675;    0.000
444.025; 1593.900;  257.675;    0.000
444.074; 1674.900;  245.675;    0.000
444.122; 1673.900;  282.675;    0.000
444.170; 1707.900;  240.675;    0.000
444.218; 1657.900;  270.675;    0.000
444.266; 1622.900;  254.675;    0.000
444.314; 1761.900;  264.675;    0.000
444.362; 1696.900;  287.675;    0.000
444.410; 1647.900;  236.675;    0.000
444.458; 1676.900;  273.675;    0.000
444.506; 1579.900;  235.675;    0.000
444.554; 1670.900;  242.675;    0.000
444.602; 1698.900;  283.675;    0.000
444.650; 1699.900;  266.675;    0.000
444.698; 1654.900;  248.675;    0.000
444.746; 1673.900;  247.675;    0.000
444.793; 1655.900;  211.675;    0.000
444.841; 1643.900;  259.675;    0.000
444.889; 1585.900;  253.675;    0.000
444.937; 1593.900;  248.675;    0.000
444.985; 1702.900;  233.675;    0.000
445.033; 1617.900;  245.675;    0.000
445.081; 1637.900;  243.675;    0.000
445.129; 1634.900;  238.675;    0.000
445.176; 1664.900;  204.675;    0.000
445.224; 1545.900;  262.675;    0.000
445.272; 1572.900;  256.675;    0.000
445.320; 1548.900;  235.675;    0.000
445.368; 1637.900;  251.675;    0.000
445.415; 1542.900;  250.675;    0.000
445.463; 1542.900;  225.675;    0.000
445.511; 1594.900;  226.675;    0.000
445.559; 1572.900;  251.675;    0.000
445.606; 1614.900;  213.675;    0.000
445.654; 1617.900;  261.675;    0.000
445.702; 1623.900;  222.675;    0.000
445.749; 1631.900;  257.675;    0.000
445.797; 1620.900;  263.675;    0.000
445.845; 1523.900;  218.675;    0.000
445.892; 1554.900;  228.675;    0.000
445.940; 1623.900;  249.675;    0.000
445.988; 1489.900;  276.675;    0.000
446.035; 1630.900;  229.675;    0.000
446.083; 1583.900;  255.675;    0.000
446.130; 1503.900;  200.675;    0.000
446.178; 1547.900;  256.675;    0.000
446.226; 1606.900;  238.675;    0.000
446.273; 1587.900;  250.675;    0.000
446.321; 1609.900;  233.675;    0.000
446.368; 1567.900;  244.675;    0.000
446.416; 1495.900;  214.675;    0.000
446.463; 1585.900;  225.675;    0.000
446.511; 1541.900;  253.675;    0.000
446.558; 1472.900;  246.675;    0.000
446.606; 1557.900;  238.675;    0.000
446.653; 1627.900;  215.675;    0.000
446.701; 1564.900;  248.675;    0.000
446.748; 1560.900;  258.675;    0.000
446.796; 1570.900;  259.675;    0.000
446.843; 1622.900;  269.675;    0.000
446.891; 1507.900;  259.675;    0.000
446.938; 1578.900;  226.675;    0.000
446.985; 1528.900;  225.675;    0.000
447.033; 1565.900;  269.675;    0.000
447.080; 1559.900;  258.675;    0.000
447.128; 1591.900;  225.675;    0.000
447.175; 1657.900;  259.675;    0.000
447.222; 1546.900;  238.675;    0.000
447.270; 1578.900;  250.675;    0.000
447.317; 1567.900;  217.675;    0.000
447.364; 1533.900;  262.675;    0.000
447.411; 1534.900;  269.675;    0.000
447.459; 1567.900;  251.675;    0.000
447.506; 1587.900;  227.675;    0.000
447.553; 1601.900;  250.675;    0.000
447.601; 1688.900;  251.675;    0.000
447.648; 1575.900;  276.675;    0.000
447.695; 1661.900;  229.675;    0.000
447.742; 1611.900;  245.675;    0.000
447.789; 1598.900;  243.675;    0.000
447.837; 1726.900;  267.675;    0.000
447.884; 1645.900;  246.675;    0.000
447.931; 1724.900;  266.675;    0.000
447.978; 1675.900;  242.675;    0.000
448.025; 1693.900;  267.675;    0.000
448.072; 1561.900;  257.675;    0.000
448.120; 1710.900;  279.675;    0.000
448.167; 1796.900;  275.675;    0.000
448.214; 1763.900;  241.675;    0.000
448.261; 1682.900;  271.675;    0.000
448.308; 1618.900;  256.675;    0.000
448.355; 1625.900;  253.675;    0.000
448.402; 1692.900;  267.675;    0.000
448.449; 1591.900;  252.675;    0.000
448.496; 1783.900;  241.675;    0.000
448.543; 1521.900;  250.675;    0.000
448.590; 1632.900;  288.675;    0.000
448.637; 1636.900;  255.675;    0.000
448.684; 1607.900;  284.675;    0.000
448.731; 1547.900;  244.675;    0.000
448.778; 1580.900;  257.675;    0.000
448.825; 1510.900;  252.675;    0.000
448.872; 1484.900;  205.675;    0.000
448.919; 1525.900;  244.675;    0.000
448.966; 1545.900;  278.675;    0.000
449.013; 1514.900;  262.675;    0.000
449.060; 1539.900;  278.675;    0.000
449.107; 1462.900;  248.675;    0.000
449.154; 1486.900;  230.675;    0.000
449.200; 1554.900;  211.675;    0.000
449.247; 1437.900;  283.675;    0.000
449.294; 1499.900;  251.675;    0.000
449.341; 1485.900;  280.675;    0.000
449.388; 1493.900;  247.675;    0.000
449.435; 1461.900;  267.675;    0.000
449.481; 1490.900;  303.675;    0.000
449.528; 1429.900;  279.675;    0.000
449.575; 1462.900;  226.675;    0.000
449.622; 1448.900;  263.675;    0.000
449.668; 1572.900;  249.675;    0.000
449.715; 1425.900;  257.675;    0.000
449.762; 1484.900;  251.675;    0.000
449.809; 1543.900;  289.675;    0.000
449.855; 1482.900;  239.675;    0.000
449.902; 1460.900;  262.675;    0.000
449.949; 1482.900;  262.675;    0.000
449.995; 1492.900;  265.675;    0.000
450.042; 1501.900;  280.675;    0.000
450.089; 1489.900;  277.675;    0.000
450.135; 1548.900;  285.675;    0.000
450.182; 1391.900;  275.675;    0.000
450.229; 1414.900;  278.675;    0.000
450.275; 1500.900;  288.675;    0.000
450.322; 1474.900;  238.675;    0.000
450.368; 1464.900;  276.675;    0.000
450.415; 1583.900;  295.675;    0.000
450.462; 1461.900;  283.675;    0.000
450.508; 1480.900;  264.675;    0.000
450.555; 1463.900;  275.675;    0.000
450.601; 1468.900;  278.675;    0.000
450.648; 1461.900;  251.675;    0.000
450.694; 1490.900;  237.675;    0.000
450.741; 1484.900;  280.675;    0.000
450.787; 1455.900;  279.675;    0.000
450.834; 1352.900;  287.675;    0.000
450.880; 1368.900;  265.675;    0.000
450.927; 1427.900;  270.675;    0.000
450.973; 1450.900;  308.675;    0.000
451.019; 1493.900;  253.675;    0.000
451.066; 1522.900;  261.675;    0.000
451.112; 1444.900;  276.675;    0.000
451.159; 1443.900;  235.675;    0.000
451.205; 1497.900;  284.675;    0.000
451.251; 1420.900;  264.675;    0.000
451.298; 1499.900;  262.675;    0.000
451.344; 1390.900;  278.675;    0.000
451.390; 1425.900;  273.675;    0.000
451.437; 1360.900;  272.675;    0.000
451.483; 1384.900;  302.675;    0.000
451.529; 1415.900;  255.675;    0.000
451.576; 1403.900;  287.675;    0.000
451.622; 1426.900;  254.675;    0.000
451.668; 1418.900;  260.675;    0.000
451.714; 1434.900;  289.675;    0.000
451.761; 1387.900;  273.675;    0.000
451.807; 1441.900;  307.675;    0.000
451.853; 1421.900;  281.675;    0.000
451.899; 1367.900;  246.675;    0.000
451.945; 1427.900;  258.675;    0.000
451.992; 1477.900;  276.675;    0.000
452.038; 1374.900;  287.675;    0.000
452.084; 1414.900;  288.675;    0.000
452.130; 1389.900;  259.675;    0.000
452.176; 1457.900;  265.675;    0.000
452.222; 1428.900;  222.675;    0.000
452.268; 1419.900;  271.675;    0.000
452.315; 1379.900;  258.675;    0.000
452.361; 1412.900;  233.675;    0.000
452.407; 1402.900;  270.675;    0.000
452.453; 1408.900;  261.675;    0.000
452.499; 1413.900;  279.675;    0.000
452.545; 1405.900;  269.675;    0.000
452.591; 1464.900;  288.675;    0.000
452.637; 1497.900;  279.675;    0.000
452.683; 1318.900;  232.675;    0.000
452.729; 1482.900;  285.675;    0.000
452.775; 1366.900;  280.675;    0.000
452.821; 1400.900;  260.675;    0.000
452.867; 1340.900;  239.675;    0.000
452.913; 1435.900;  240.675;    0.000
452.959; 1385.900;  214.675;    0.000
453.005; 1423.900;  266.675;    0.000
453.051; 1462.900;  258.675;    0.000
453.097; 1510.900;  253.675;    0.000
453.142; 1379.900;  244.675;    0.000
453.188; 1408.900;  241.675;    0.000
453.234; 1413.900;  257.675;    0.000
453.280; 1409.900;  231.675;    0.000
453.326; 1349.900;  240.675;    0.000
453.372; 1379.900;  208.675;    0.000
453.418; 1354.900;  266.675;    0.000
453.463; 1348.900;  232.675;    0.000
453.509; 1382.900;  221.675;    0.000
453.555; 1424.900;  268.675;    0.000
453.601; 1403.900;  242.675;    0.000
453.647; 1415.900;  283.675;    0.000
453.692; 1316.900;  242.675;    0.000
453.738; 1405.900;  294.675;    0.000
453.784; 1420.900;  256.675;    0.000
453.829; 1325.900;  267.675;    0.000
453.875; 1345.900;  233.675;    0.000
453.921; 1382.900;  247.675;    0.000
453.967; 1390.900;  249.675;    0.000
454.012; 1344.900;  274.675;    0.000
454.058; 1446.900;  249.675;    0.000
454.104; 1428.900;  272.675;    0.000
454.149; 1359.900;  277.675;    0.000
454.195; 1369.900;  256.675;    0.000
454.240; 1408.900;  263.675;    0.000
454.286; 1305.900;  276.675;    0.000
454.332; 1438.900;  290.675;    0.000
454.377; 1373.900;  274.675;    0.000
454.423; 1328.900;  282.675;    0.000
454.468; 1442.900;  275.675;    0.000
454.514; 1342.900;  270.675;    0.000
454.559; 1425.900;  249.675;    0.000
454.605; 1384.900;  241.675;    0.000
454.650; 1546.900;  269.675;    0.000
454.696; 1367.900;  253.675;    0.000
454.741; 1373.900;  279.675;    0.000
454.787; 1408.900;  252.675;    0.000
454.832; 1378.900;  246.675;    0.000
454.878; 1431.900;  264.675;    0.000
454.923; 1425.900;  268.675;    0.000
454.969; 1424.900;  253.675;    0.000
455.014; 1486.900;  264.675;    0.000
455.060; 1471.900;  265.675;    0.000
455.105; 1301.900;  270.675;    0.000
455.150; 1436.900;  284.675;    0.000
455.196; 1356.900;  278.675;    0.000
455.241; 1391.900;  248.675;    0.000
455.286; 1365.900;  274.675;    0.000
455.332; 1400.900;  269.675;    0.000
455.377; 1358.900;  218.675;    0.000
455.422; 1470.900;  261.675;    0.000
455.468; 1323.900;  278.675;    0.000
455.513; 1364.900;  235.675;    0.000
455.558; 1350.900;  232.675;    0.000
455.604; 1373.900;  285.675;    0.000
455.649; 1367.900;  264.675;    0.000
455.694; 1333.900;  235.675;    0.000
455.739; 1294.900;  265.675;    0.000
455.785; 1361.900;  266.675;    0.000
455.830; 1394.900;  272.675;    0.000
455.875; 1393.900;  256.675;    0.000
455.920; 1350.900;  191.675;    0.000
455.965; 1369.900;  280.675;    0.000
456.010; 1438.900;  267.675;    0.000
456.056; 1345.900;  270.675;    0.000
456.101; 1374.900;  248.675;    0.000
456.146; 1429.900;  287.675;    0.000
456.191; 1420.900;  280.675;    0.000
456.236; 1349.900;  229.675;    0.000
456.281; 1386.900;  241.675;    0.000
456.326; 1343.900;  248.675;    0.000
456.371; 1394.900;  233.675;    0.000
456.416; 1404.900;  284.675;    0.000
456.461; 1352.900;  256.675;    0.000
456.507; 1349.900;  250.675;    0.000
456.552; 1463.900;  290.675;    0.000
456.597; 1365.900;  260.675;    0.000
456.642; 1384.900;  252.675;    0.000
456.687; 1356.900;  272.675;    0.000
456.732; 1376.900;  303.675;    0.000
456.776; 1437.900;  269.675;    0.000
456.821; 1432.900;  256.675;    0.000
456.866; 1404.900;  278.675;    0.000
456.911; 1288.900;  230.675;    0.000
456.956; 1356.900;  275.675;    0.000
457.001; 1336.900;  248.675;    0.000
457.046; 1388.900;  222.675;    0.000
457.091; 1404.900;  251.675;    0.000
457.136; 1340.900;  231.675;    0.000
457.181; 1394.900;  245.675;    0.000
457.225; 1412.900;  262.675;    0.000
457.270; 1372.900;  277.675;    0.000
457.315; 1444.900;  235.675;    0.000
457.360; 1336.900;  231.675;    0.000
457.405; 1341.900;  214.675;    0.000
457.450; 1332.900;  255.675;    0.000
457.494; 1304.900;  220.675;    0.000
457.539; 1372.900;  257.675;    0.000
457.584; 1442.900;  279.675;    0.000
457.629; 1438.900;  249.675;    0.000
457.673; 1340.900;  237.675;    0.000
457.718; 1394.900;  232.675;    0.000
457.763; 1378.900;  278.675;    0.000
457.807; 1387.900;  279.675;    0.000
457.852; 1367.900;  246.675;    0.000
457.897; 1422.900;  284.675;    0.000
457.941; 1403.900;  272.675;    0.000
457.986; 1479.900;  285.675;    0.000
458.031; 1459.900;  235.675;    0.000
458.075; 1447.900;  299.675;    0.000
458.120; 1475.900;  284.675;    0.000
458.165; 1353.900;  212.675;    0.000
458.209; 1391.900;  254.675;    0.000
458.254; 1399.900;  257.675;    0.000
458.298; 1397.900;  265.675;    0.000
458.343; 1407.900;  278.675;    0.000
458.387; 1542.900;  316.675;    0.000
458.432; 1375.900;  279.675;    0.000
458.476; 1427.900;  272.675;    0.000
458.521; 1370.900;  240.675;    0.000
458.565; 1421.900;  307.675;    0.000
458.610; 1437.900;  246.675;    0.000
458.654; 1439.900;  275.675;    0.000
458.699; 1391.900;  288.675;    0.000
458.743; 1387.900;  244.675;    0.000
458.788; 1492.900;  245.675;    0.000
458.832; 1418.900;  277.675;    0.000
458.877; 1463.900;  285.675;    0.000
458.921; 1471.900;  216.675;    0.000
458.965; 1439.900;  260.675;    0.000
459.010; 1470.900;  284.675;    0.000
459.054; 1431.900;  272.675;    0.000
459.099; 1423.900;  262.675;    0.000
459.143; 1529.900;  276.675;    0.000
459.187; 1431.900;  258.675;    0.000
459.231; 1535.900;  278.675;    0.000
459.276; 1439.900;  262.675;    0.000
459.320; 1527.900;  291.675;    0.000
459.364; 1546.900;  294.675;    0.000
459.409; 1485.900;  269.675;    0.000
459.453; 1467.900;  257.675;    0.000
459.497; 1583.900;  283.675;    0.000
459.541; 1509.900;  275.675;    0.000
459.586; 1457.900;  261.675;    0.000
459.630; 1530.900;  284.675;    0.000
459.674; 1485.900;  244.675;    0.000
459.718; 1497.900;  309.675;    0.000
459.762; 1472.900;  281.675;    0.000
459.807; 1458.900;  250.675;    0.000
459.851; 1543.900;  286.675;    0.000
459.895; 1420.900;  230.675;    0.000
459.939; 1658.900;  262.675;    0.000
459.983; 1590.900;  250.675;    0.000
460.027; 1567.900;  275.675;    0.000
460.071; 1515.900;  301.675;    0.000
460.115; 1556.900;  279.675;    0.000
460.159; 1567.900;  301.675;    0.000
460.204; 1543.900;  287.675;    0.000
460.248; 1649.900;  293.675;    0.000
460.292; 1575.900;  310.675;    0.000
460.336; 1534.900;  263.675;    0.000
460.380; 1541.900;  268.675;    0.000
460.424; 1607.900;  281.675;    0.000
460.468; 1566.900;  310.675;    0.000
460.512; 1607.900;  273.675;    0.000
460.556; 1593.900;  291.675;    0.000
460.599; 1586.900;  240.675;    0.000
460.643; 1539.900;  260.675;    0.000
460.687; 1523.900;  283.675;    0.000
460.731; 1541.900;  254.675;    0.000
460.775; 1568.900;  265.675;    0.000
460.819; 1589.900;  280.675;    0.000
460.863; 1687.900;  316.675;    0.000
460.907; 1575.900;  231.675;    0.000
460.951; 1582.900;  275.675;    0.000
460.995; 1568.900;  290.675;    0.000
461.038; 1646.900;  284.675;    0.000
461.082; 1513.900;  278.675;    0.000
461.126; 1631.900;  321.675;    0.000
461.170; 1527.900;  273.675;    0.000
461.214; 1606.900;  289.675;    0.000
461.257; 1591.900;  296.675;    0.000
461.301; 1586.900;  287.675;    0.000
461.345; 1555.900;  290.675;    0.000
461.389; 1639.900;  260.675;    0.000
461.432; 1503.900;  262.675;    0.000
461.476; 1549.900;  254.675;    0.000
461.520; 1537.900;  305.675;    0.000
461.563; 1515.900;  289.675;    0.000
461.607; 1539.900;  286.675;    0.000
461.651; 1597.900;  271.675;    0.000
461.694; 1552.900;  245.675;    0.000
461.738; 1504.900;  278.675;    0.000
461.782; 1541.900;  284.675;    0.000
461.825; 1561.900;  305.675;    0.000
461.869; 1652.900;  293.675;    0.000
461.913; 1652.900;  280.675;    0.000
461.956; 1536.900;  237.675;    0.000
462.000; 1506.900;  288.675;    0.000
462.043; 1692.900;  282.675;    0.000
462.087; 1636.900;  268.675;    0.000
462.130; 1650.900;  286.675;    0.000
462.174; 1684.900;  312.675;    0.000
462.217; 1671.900;  270.675;    0.000
462.261; 1666.900;  281.675;    0.000
462.304; 1578.900;  248.675;    0.000
462.348; 1615.900;  267.675;    0.000
462.391; 1638.900;  270.675;    0.000
462.435; 1705.900;  287.675;    0.000
462.478; 1621.900;  290.675;    0.000
462.522; 1627.900;  296.675;    0.000
462.565; 1737.900;  275.675;    0.000
462.608; 1791.900;  325.675;    0.000
462.652; 1752.900;  303.675;    0.000
462.695; 1816.900;  355.675;    0.000
462.739; 1711.900;  272.675;    0.000
462.782; 1738.900;  295.675;    0.000
462.825; 1707.900;  300.675;    0.000
462.869; 1678.900;  319.675;    0.000
462.912; 1766.900;  363.675;    0.000
462.955; 1841.900;  298.675;    0.000
462.998; 1755.900;  321.675;    0.000
463.042; 1879.900;  310.675;    0.000
463.085; 1707.900;  305.675;    0.000
463.128; 1791.900;  345.675;    0.000
463.172; 1780.900;  341.675;    0.000
463.215;  375.900;  300.675;    0.000
463.258;  313.900;  287.675;    0.000
463.301;  299.900;  290.675;    0.000
463.344;  291.900;  320.675;    0.000
463.388;  304.900;  340.675;    0.000
463.431;  285.900;  278.675;    0.000
463.474;  342.900;  353.675;    0.000
463.517;  319.900;  295.675;    0.000
463.560;  313.900;  328.675;    0.000
463.603;  324.900;  316.675;    0.000
463.646;  322.900;  295.675;    0.000
463.690;  331.900;  334.675;    0.000
463.733;  341.900;  343.675;    0.000
463.776;  292.900;  300.675;    0.000
463.819;  350.900;  368.675;    0.000
463.862;  259.900;  327.675;    0.000

