
Integration time [ms]:   0.300
Averaging Nr. [scans]: 1
Smoothing Nr. [pixels]: 0
Data measured with spectrometer [name]: VIS
Wave   ;Sample   ;Dark     ;Reference
[nm]   ;[counts] ;[counts] ;[counts] 

450.961;  195.800;  204.350;    0.000
451.100;  248.800;  243.350;    0.000
451.239;  227.800;  228.350;    0.000
451.377;  261.800;  250.350;    0.000
451.516;  216.800;  189.350;    0.000
451.655;  209.800;  235.350;    0.000
451.794;  219.800;  223.350;    0.000
451.932;  249.800;  269.350;    0.000
452.071;  224.800;  250.350;    0.000
452.210;  249.800;  262.350;    0.000
452.348;  250.800;  259.350;    0.000
452.487;  231.800;  231.350;    0.000
452.626;  252.800;  220.350;    0.000
452.764;  245.800;  252.350;    0.000
452.903;  226.800;  236.350;    0.000
453.042;  248.800;  217.350;    0.000
453.180; 2365.800;  273.350;    0.000
453.319; 2535.800;  261.350;    0.000
453.458; 2502.800;  219.350;    0.000
453.596; 2552.800;  307.350;    0.000
453.735; 2521.800;  246.350;    0.000
453.873; 2566.800;  270.350;    0.000
454.012; 2569.800;  232.350;    0.000
454.150; 2626.800;  211.350;    0.000
454.289; 2691.800;  245.350;    0.000
454.427; 2684.800;  224.350;    0.000
454.566; 2726.800;  252.350;    0.000
454.704; 2712.800;  225.350;    0.000
454.843; 2756.800;  195.350;    0.000
454.981; 2759.800;  258.350;    0.000
455.120; 2767.800;  191.350;    0.000
455.258; 2880.800;  243.350;    0.000
455.397; 2741.800;  188.350;    0.000
455.535; 2901.800;  219.350;    0.000
455.674; 2839.800;  184.350;    0.000
455.812; 2969.800;  225.350;    0.000
455.951; 2923.800;  201.350;    0.000
456.089; 3094.800;  187.350;    0.000
456.227; 2974.800;  199.350;    0.000
456.366; 3035.800;  235.350;    0.000
456.504; 2932.800;  216.350;    0.000
456.642; 3143.800;  256.350;    0.000
456.781; 2988.800;  201.350;    0.000
456.919; 3178.800;  231.350;    0.000
457.057; 3267.800;  181.350;    0.000
457.196; 3109.800;  231.350;    0.000
457.334; 3167.800;  229.350;    0.000
457.472; 3235.800;  242.350;    0.000
457.610; 3286.800;  221.350;    0.000
457.749; 3417.800;  218.350;    0.000
457.887; 3326.800;  213.350;    0.000
458.025; 3471.800;  228.350;    0.000
458.163; 3445.800;  204.350;    0.000
458.301; 3530.800;  230.350;    0.000
458.440; 3504.800;  200.350;    0.000
458.578; 3808.800;  222.350;    0.000
458.716; 3753.800;  137.350;    0.000
458.854; 3778.800;  259.350;    0.000
458.992; 3960.800;  172.350;    0.000
459.130; 3859.800;  253.350;    0.000
459.269; 3961.800;  212.350;    0.000
459.407; 4002.800;  212.350;    0.000
459.545; 4032.800;  225.350;    0.000
459.683; 4195.800;  225.350;    0.000
459.821; 4157.800;  192.350;    0.000
459.959; 4284.800;  205.350;    0.000
460.097; 4230.800;  199.350;    0.000
460.235; 4323.800;  232.350;    0.000
460.373; 4363.800;  248.350;    0.000
460.511; 4302.800;  225.350;    0.000
460.649; 4437.800;  204.350;    0.000
460.787; 4268.800;  221.350;    0.000
460.925; 4383.800;  181.350;    0.000
461.063; 4291.800;  243.350;    0.000
461.201; 4430.800;  212.350;    0.000
461.339; 4594.800;  229.350;    0.000
461.477; 4437.800;  162.350;    0.000
461.615; 4583.800;  232.350;    0.000
461.753; 4493.800;  193.350;    0.000
461.891; 4728.800;  217.350;    0.000
462.029; 4774.800;  224.350;    0.000
462.166; 4880.800;  222.350;    0.000
462.304; 4833.800;  185.350;    0.000
462.442; 4900.800;  246.350;    0.000
462.580; 4801.800;  246.350;    0.000
462.718; 4944.800;  235.350;    0.000
462.856; 4789.800;  230.350;    0.000
462.993; 4838.800;  266.350;    0.000
463.131; 4831.800;  208.350;    0.000
463.269; 4692.800;  218.350;    0.000
463.407; 4657.800;  215.350;    0.000
463.545; 4562.800;  200.350;    0.000
463.682; 4648.800;  206.350;    0.000
463.820; 4989.800;  211.350;    0.000
463.958; 5083.800;  206.350;    0.000
464.095; 5300.800;  193.350;    0.000
464.233; 5412.800;  203.350;    0.000
464.371; 5347.800;  258.350;    0.000
464.509; 5392.800;  219.350;    0.000
464.646; 5439.800;  210.350;    0.000
464.784; 5245.800;  206.350;    0.000
464.921; 5279.800;  233.350;    0.000
465.059; 4899.800;  186.350;    0.000
465.197; 5003.800;  213.350;    0.000
465.334; 4947.800;  202.350;    0.000
465.472; 4788.800;  236.350;    0.000
465.609; 4763.800;  206.350;    0.000
465.747; 4619.800;  208.350;    0.000
465.885; 4691.800;  198.350;    0.000
466.022; 4609.800;  210.350;    0.000
466.160; 4685.800;  245.350;    0.000
466.297; 4691.800;  226.350;    0.000
466.435; 4585.800;  235.350;    0.000
466.572; 4619.800;  226.350;    0.000
466.710; 4598.800;  266.350;    0.000
466.847; 4498.800;  258.350;    0.000
466.985; 4659.800;  228.350;    0.000
467.122; 4594.800;  201.350;    0.000
467.260; 4419.800;  170.350;    0.000
467.397; 4454.800;  174.350;    0.000
467.534; 4506.800;  244.350;    0.000
467.672; 4553.800;  247.350;    0.000
467.809; 4376.800;  182.350;    0.000
467.947; 4661.800;  208.350;    0.000
468.084; 4602.800;  206.350;    0.000
468.221; 4644.800;  249.350;    0.000
468.359; 4638.800;  253.350;    0.000
468.496; 4345.800;  208.350;    0.000
468.633; 4442.800;  189.350;    0.000
468.771; 4490.800;  216.350;    0.000
468.908; 4637.800;  240.350;    0.000
469.045; 4536.800;  234.350;    0.000
469.183; 4484.800;  203.350;    0.000
469.320; 4646.800;  230.350;    0.000
469.457; 4606.800;  219.350;    0.000
469.594; 4532.800;  233.350;    0.000
469.732; 4707.800;  230.350;    0.000
469.869; 4837.800;  239.350;    0.000
470.006; 4706.800;  224.350;    0.000
470.143; 4750.800;  241.350;    0.000
470.280; 5015.800;  234.350;    0.000
470.417; 4919.800;  236.350;    0.000
470.555; 4722.800;  207.350;    0.000
470.692; 4788.800;  251.350;    0.000
470.829; 4840.800;  238.350;    0.000
470.966; 4821.800;  242.350;    0.000
471.103; 4813.800;  215.350;    0.000
471.240; 4606.800;  237.350;    0.000
471.377; 4645.800;  235.350;    0.000
471.514; 4789.800;  256.350;    0.000
471.651; 4796.800;  198.350;    0.000
471.789; 4546.800;  215.350;    0.000
471.926; 4662.800;  210.350;    0.000
472.063; 4604.800;  237.350;    0.000
472.200; 4724.800;  265.350;    0.000
472.337; 4581.800;  240.350;    0.000
472.474; 4544.800;  195.350;    0.000
472.611; 4586.800;  228.350;    0.000
472.748; 4443.800;  234.350;    0.000
472.884; 4489.800;  230.350;    0.000
473.021; 4456.800;  219.350;    0.000
473.158; 4599.800;  253.350;    0.000
473.295; 4540.800;  207.350;    0.000
473.432; 4627.800;  238.350;    0.000
473.569; 4478.800;  236.350;    0.000
473.706; 4449.800;  203.350;    0.000
473.843; 4377.800;  232.350;    0.000
473.980; 4513.800;  207.350;    0.000
474.117; 4483.800;  182.350;    0.000
474.253; 4544.800;  261.350;    0.000
474.390; 4442.800;  211.350;    0.000
474.527; 4430.800;  229.350;    0.000
474.664; 4476.800;  181.350;    0.000
474.801; 4629.800;  250.350;    0.000
474.937; 4605.800;  196.350;    0.000
475.074; 4722.800;  213.350;    0.000
475.211; 4700.800;  232.350;    0.000
475.348; 4533.800;  228.350;    0.000
475.484; 4710.800;  240.350;    0.000
475.621; 4664.800;  235.350;    0.000
475.758; 4556.800;  232.350;    0.000
475.894; 4519.800;  227.350;    0.000
476.031; 4744.800;  233.350;    0.000
476.168; 4506.800;  205.350;    0.000
476.304; 4607.800;  263.350;    0.000
476.441; 4769.800;  255.350;    0.000
476.578; 4707.800;  191.350;    0.000
476.714; 4895.800;  218.350;    0.000
476.851; 4780.800;  224.350;    0.000
476.987; 4865.800;  225.350;    0.000
477.124; 4824.800;  231.350;    0.000
477.261; 4767.800;  291.350;    0.000
477.397; 4661.800;  218.350;    0.000
477.534; 4883.800;  209.350;    0.000
477.670; 4810.800;  210.350;    0.000
477.807; 4833.800;  199.350;    0.000
477.943; 5181.800;  219.350;    0.000
478.080; 5008.800;  234.350;    0.000
478.216; 5207.800;  196.350;    0.000
478.353; 5102.800;  234.350;    0.000
478.489; 5010.800;  219.350;    0.000
478.626; 5086.800;  209.350;    0.000
478.762; 5187.800;  206.350;    0.000
478.898; 5299.800;  209.350;    0.000
479.035; 5118.800;  232.350;    0.000
479.171; 5060.800;  219.350;    0.000
479.308; 5158.800;  226.350;    0.000
479.444; 5287.800;  184.350;    0.000
479.580; 5143.800;  192.350;    0.000
479.717; 5274.800;  247.350;    0.000
479.853; 5143.800;  181.350;    0.000
479.989; 5344.800;  212.350;    0.000
480.126; 5353.800;  187.350;    0.000
480.262; 5481.800;  217.350;    0.000
480.398; 5470.800;  249.350;    0.000
480.535; 5425.800;  196.350;    0.000
480.671; 5291.800;  199.350;    0.000
480.807; 5366.800;  231.350;    0.000
480.943; 5280.800;  192.350;    0.000
481.080; 5268.800;  206.350;    0.000
481.216; 5224.800;  189.350;    0.000
481.352; 5337.800;  215.350;    0.000
481.488; 5360.800;  223.350;    0.000
481.624; 5447.800;  235.350;    0.000
481.760; 5339.800;  218.350;    0.000
481.897; 5079.800;  204.350;    0.000
482.033; 5338.800;  243.350;    0.000
482.169; 5157.800;  239.350;    0.000
482.305; 5203.800;  221.350;    0.000
482.441; 5223.800;  162.350;    0.000
482.577; 5233.800;  241.350;    0.000
482.713; 5070.800;  223.350;    0.000
482.849; 5050.800;  195.350;    0.000
482.985; 5197.800;  230.350;    0.000
483.121; 5153.800;  230.350;    0.000
483.258; 5096.800;  254.350;    0.000
483.394; 5372.800;  199.350;    0.000
483.530; 5186.800;  209.350;    0.000
483.665; 5308.800;  196.350;    0.000
483.801; 5114.800;  208.350;    0.000
483.937; 5259.800;  202.350;    0.000
484.073; 5109.800;  247.350;    0.000
484.209; 5144.800;  188.350;    0.000
484.345; 5311.800;  241.350;    0.000
484.481; 5322.800;  247.350;    0.000
484.617; 5357.800;  248.350;    0.000
484.753; 5540.800;  255.350;    0.000
484.889; 5425.800;  253.350;    0.000
485.025; 5315.800;  226.350;    0.000
485.161; 5400.800;  207.350;    0.000
485.296; 5226.800;  247.350;    0.000
485.432; 5407.800;  255.350;    0.000
485.568; 5482.800;  216.350;    0.000
485.704; 5547.800;  232.350;    0.000
485.840; 5295.800;  231.350;    0.000
485.975; 5490.800;  233.350;    0.000
486.111; 5321.800;  207.350;    0.000
486.247; 5612.800;  211.350;    0.000
486.383; 5311.800;  219.350;    0.000
486.518; 5425.800;  213.350;    0.000
486.654; 5414.800;  216.350;    0.000
486.790; 5360.800;  253.350;    0.000
486.926; 5483.800;  229.350;    0.000
487.061; 5491.800;  241.350;    0.000
487.197; 5456.800;  218.350;    0.000
487.333; 5262.800;  221.350;    0.000
487.468; 5285.800;  206.350;    0.000
487.604; 5255.800;  254.350;    0.000
487.740; 5409.800;  240.350;    0.000
487.875; 5497.800;  260.350;    0.000
488.011; 5460.800;  232.350;    0.000
488.146; 5350.800;  206.350;    0.000
488.282; 5413.800;  236.350;    0.000
488.417; 5330.800;  255.350;    0.000
488.553; 5368.800;  221.350;    0.000
488.688; 5271.800;  233.350;    0.000
488.824; 5382.800;  246.350;    0.000
488.960; 5398.800;  267.350;    0.000
489.095; 5320.800;  217.350;    0.000
489.230; 5281.800;  226.350;    0.000
489.366; 5527.800;  232.350;    0.000
489.501; 5422.800;  220.350;    0.000
489.637; 5324.800;  245.350;    0.000
489.772; 5289.800;  228.350;    0.000
489.908; 5556.800;  250.350;    0.000
490.043; 5391.800;  239.350;    0.000
490.178; 5378.800;  213.350;    0.000
490.314; 5619.800;  270.350;    0.000
490.449; 5452.800;  245.350;    0.000
490.585; 5461.800;  218.350;    0.000
490.720; 5341.800;  243.350;    0.000
490.855; 5450.800;  196.350;    0.000
490.991; 5365.800;  208.350;    0.000
491.126; 5477.800;  268.350;    0.000
491.261; 5702.800;  226.350;    0.000
491.396; 5652.800;  201.350;    0.000
491.532; 5408.800;  213.350;    0.000
491.667; 5436.800;  183.350;    0.000
491.802; 5570.800;  239.350;    0.000
491.937; 5536.800;  228.350;    0.000
492.073; 5677.800;  258.350;    0.000
492.208; 5673.800;  218.350;    0.000
492.343; 5547.800;  205.350;    0.000
492.478; 5668.800;  247.350;    0.000
492.613; 5675.800;  217.350;    0.000
492.749; 5592.800;  258.350;    0.000
492.884; 5488.800;  208.350;    0.000
493.019; 5425.800;  248.350;    0.000
493.154; 5433.800;  231.350;    0.000
493.289; 5569.800;  226.350;    0.000
493.424; 5573.800;  216.350;    0.000
493.559; 5353.800;  205.350;    0.000
493.694; 5732.800;  203.350;    0.000
493.829; 5552.800;  231.350;    0.000
493.964; 5482.800;  200.350;    0.000
494.099; 5506.800;  253.350;    0.000
494.234; 5718.800;  244.350;    0.000
494.369; 5535.800;  239.350;    0.000
494.504; 5519.800;  223.350;    0.000
494.639; 5444.800;  263.350;    0.000
494.774; 5436.800;  240.350;    0.000
494.909; 5514.800;  231.350;    0.000
495.044; 5615.800;  195.350;    0.000
495.179; 5421.800;  231.350;    0.000
495.314; 5621.800;  231.350;    0.000
495.449; 5447.800;  239.350;    0.000
495.584; 5472.800;  201.350;    0.000
495.719; 5537.800;  201.350;    0.000
495.854; 5702.800;  201.350;    0.000
495.988; 5656.800;  239.350;    0.000
496.123; 5691.800;  199.350;    0.000
496.258; 5667.800;  256.350;    0.000
496.393; 5778.800;  214.350;    0.000
496.528; 5810.800;  220.350;    0.000
496.663; 5771.800;  207.350;    0.000
496.797; 5779.800;  241.350;    0.000
496.932; 5985.800;  215.350;    0.000
497.067; 6036.800;  240.350;    0.000
497.202; 6092.800;  177.350;    0.000
497.336; 6255.800;  221.350;    0.000
497.471; 6339.800;  228.350;    0.000
497.606; 6256.800;  213.350;    0.000
497.740; 6361.800;  217.350;    0.000
497.875; 6663.800;  182.350;    0.000
498.010; 6981.800;  230.350;    0.000
498.144; 7083.800;  217.350;    0.000
498.279; 7381.800;  194.350;    0.000
498.414; 7434.800;  270.350;    0.000
498.548; 7323.800;  184.350;    0.000
498.683; 7514.800;  188.350;    0.000
498.817; 7499.800;  216.350;    0.000
498.952; 7570.800;  208.350;    0.000
499.087; 7720.800;  236.350;    0.000
499.221; 7951.800;  219.350;    0.000
499.356; 7892.800;  263.350;    0.000
499.490; 8479.800;  221.350;    0.000
499.625; 8606.800;  233.350;    0.000
499.759; 8803.800;  245.350;    0.000
499.894; 9273.800;  241.350;    0.000
500.028; 9557.800;  237.350;    0.000
500.162; 9665.800;  282.350;    0.000
500.297;10180.800;  232.350;    0.000
500.431;10093.800;  266.350;    0.000
500.566;10094.800;  254.350;    0.000
500.700;10228.800;  238.350;    0.000
500.835; 9346.800;  264.350;    0.000
500.969; 9359.800;  165.350;    0.000
501.103; 9012.800;  190.350;    0.000
501.238; 8820.800;  274.350;    0.000
501.372; 8465.800;  270.350;    0.000
501.506; 7866.800;  231.350;    0.000
501.641; 7809.800;  224.350;    0.000
501.775; 7547.800;  224.350;    0.000
501.909; 7519.800;  218.350;    0.000
502.043; 6788.800;  238.350;    0.000
502.178; 7058.800;  289.350;    0.000
502.312; 6748.800;  225.350;    0.000
502.446; 6489.800;  295.350;    0.000
502.580; 6479.800;  200.350;    0.000
502.715; 6509.800;  256.350;    0.000
502.849; 6484.800;  226.350;    0.000
502.983; 6377.800;  250.350;    0.000
503.117; 6304.800;  229.350;    0.000
503.251; 6119.800;  267.350;    0.000
503.385; 5986.800;  237.350;    0.000
503.520; 5965.800;  210.350;    0.000
503.654; 5750.800;  204.350;    0.000
503.788; 5921.800;  236.350;    0.000
503.922; 5711.800;  225.350;    0.000
504.056; 5770.800;  222.350;    0.000
504.190; 5472.800;  220.350;    0.000
504.324; 5728.800;  257.350;    0.000
504.458; 5752.800;  223.350;    0.000
504.592; 5467.800;  252.350;    0.000
504.726; 5536.800;  216.350;    0.000
504.860; 5455.800;  231.350;    0.000
504.994; 5251.800;  228.350;    0.000
505.128; 5287.800;  239.350;    0.000
505.262; 5181.800;  245.350;    0.000
505.396; 5087.800;  231.350;    0.000
505.530; 4843.800;  211.350;    0.000
505.664; 4915.800;  223.350;    0.000
505.798; 4827.800;  239.350;    0.000
505.932; 4844.800;  232.350;    0.000
506.066; 4723.800;  263.350;    0.000
506.199; 4629.800;  231.350;    0.000
506.333; 4521.800;  213.350;    0.000
506.467; 4623.800;  241.350;    0.000
506.601; 4671.800;  233.350;    0.000
506.735; 4761.800;  235.350;    0.000
506.869; 4600.800;  269.350;    0.000
507.002; 4614.800;  244.350;    0.000
507.136; 4431.800;  258.350;    0.000
507.270; 4573.800;  218.350;    0.000
507.404; 4440.800;  191.350;    0.000
507.537; 4517.800;  226.350;    0.000
507.671; 4418.800;  243.350;    0.000
507.805; 4457.800;  234.350;    0.000
507.939; 4394.800;  234.350;    0.000
508.072; 4377.800;  261.350;    0.000
508.206; 4336.800;  220.350;    0.000
508.340; 4350.800;  241.350;    0.000
508.473; 4338.800;  214.350;    0.000
508.607; 4384.800;  232.350;    0.000
508.740; 4342.800;  222.350;    0.000
508.874; 4197.800;  225.350;    0.000
509.008; 4274.800;  258.350;    0.000
509.141; 4356.800;  210.350;    0.000
509.275; 4283.800;  199.350;    0.000
509.408; 4390.800;  260.350;    0.000
509.542; 4128.800;  252.350;    0.000
509.675; 4138.800;  276.350;    0.000
509.809; 4185.800;  266.350;    0.000
509.942; 4291.800;  227.350;    0.000
510.076; 4016.800;  243.350;    0.000
510.209; 4323.800;  221.350;    0.000
510.343; 4064.800;  229.350;    0.000
510.476; 4120.800;  246.350;    0.000
510.610; 4169.800;  211.350;    0.000
510.743; 4131.800;  279.350;    0.000
510.877; 4093.800;  274.350;    0.000
511.010; 4053.800;  252.350;    0.000
511.143; 3955.800;  228.350;    0.000
511.277; 4014.800;  261.350;    0.000
511.410; 4109.800;  217.350;    0.000
511.543; 4070.800;  230.350;    0.000
511.677; 3978.800;  245.350;    0.000
511.810; 4053.800;  237.350;    0.000
511.943; 4168.800;  224.350;    0.000
512.077; 4008.800;  194.350;    0.000
512.210; 4024.800;  212.350;    0.000
512.343; 3914.800;  236.350;    0.000
512.476; 4138.800;  248.350;    0.000
512.610; 3955.800;  249.350;    0.000
512.743; 4053.800;  224.350;    0.000
512.876; 4129.800;  277.350;    0.000
513.009; 4152.800;  261.350;    0.000
513.142; 4120.800;  213.350;    0.000
513.276; 3977.800;  192.350;    0.000
513.409; 4046.800;  267.350;    0.000
513.542; 4148.800;  224.350;    0.000
513.675; 4049.800;  244.350;    0.000
513.808; 3859.800;  218.350;    0.000
513.941; 4086.800;  237.350;    0.000
514.074; 3970.800;  257.350;    0.000
514.207; 4073.800;  245.350;    0.000
514.340; 4038.800;  195.350;    0.000
514.474; 4107.800;  244.350;    0.000
514.607; 4042.800;  230.350;    0.000
514.740; 4222.800;  246.350;    0.000
514.873; 4124.800;  268.350;    0.000
515.006; 4272.800;  253.350;    0.000
515.139; 4179.800;  235.350;    0.000
515.272; 4312.800;  214.350;    0.000
515.404; 4288.800;  228.350;    0.000
515.537; 4329.800;  263.350;    0.000
515.670; 4241.800;  270.350;    0.000
515.803; 4265.800;  243.350;    0.000
515.936; 4249.800;  226.350;    0.000
516.069; 4347.800;  227.350;    0.000
516.202; 4374.800;  259.350;    0.000
516.335; 4372.800;  260.350;    0.000
516.468; 4434.800;  243.350;    0.000
516.600; 4646.800;  258.350;    0.000
516.733; 4999.800;  235.350;    0.000
516.866; 5308.800;  267.350;    0.000
516.999; 4973.800;  251.350;    0.000
517.132; 5384.800;  261.350;    0.000
517.264; 6442.800;  260.350;    0.000
517.397; 6559.800;  231.350;    0.000
517.530; 5925.800;  257.350;    0.000
517.663; 5394.800;  263.350;    0.000
517.795; 5093.800;  250.350;    0.000
517.928; 4852.800;  257.350;    0.000
518.061; 4943.800;  227.350;    0.000
518.193; 5514.800;  252.350;    0.000
518.326; 7106.800;  227.350;    0.000
518.459; 7736.800;  210.350;    0.000
518.591; 6575.800;  214.350;    0.000
518.724; 5339.800;  269.350;    0.000
518.857; 4926.800;  215.350;    0.000
518.989; 4768.800;  259.350;    0.000
519.122; 4553.800;  238.350;    0.000
519.254; 4435.800;  248.350;    0.000
519.387; 4231.800;  246.350;    0.000
519.519; 4322.800;  239.350;    0.000
519.652; 4261.800;  249.350;    0.000
519.784; 4172.800;  238.350;    0.000
519.917; 4089.800;  231.350;    0.000
520.049; 4113.800;  244.350;    0.000
520.182; 4108.800;  205.350;    0.000
520.314; 3992.800;  262.350;    0.000
520.447; 4107.800;  234.350;    0.000
520.579; 4030.800;  273.350;    0.000
520.712; 3808.800;  215.350;    0.000
520.844; 3939.800;  258.350;    0.000
520.976; 3879.800;  242.350;    0.000
521.109; 3905.800;  232.350;    0.000
521.241; 3828.800;  236.350;    0.000
521.373; 3785.800;  227.350;    0.000
521.506; 3787.800;  212.350;    0.000
521.638; 3603.800;  292.350;    0.000
521.770; 3760.800;  259.350;    0.000
521.903; 3773.800;  263.350;    0.000
522.035; 3592.800;  269.350;    0.000
522.167; 3719.800;  289.350;    0.000
522.300; 3713.800;  255.350;    0.000
522.432; 3517.800;  247.350;    0.000
522.564; 3464.800;  239.350;    0.000
522.696; 3581.800;  246.350;    0.000
522.828; 3613.800;  230.350;    0.000
522.961; 3522.800;  239.350;    0.000
523.093; 3646.800;  269.350;    0.000
523.225; 3551.800;  251.350;    0.000
523.357; 3464.800;  244.350;    0.000
523.489; 3372.800;  266.350;    0.000
523.621; 3486.800;  267.350;    0.000
523.753; 3562.800;  234.350;    0.000
523.885; 3411.800;  229.350;    0.000
524.018; 3503.800;  221.350;    0.000
524.150; 3385.800;  264.350;    0.000
524.282; 3524.800;  283.350;    0.000
524.414; 3432.800;  258.350;    0.000
524.546; 3485.800;  286.350;    0.000
524.678; 3355.800;  274.350;    0.000
524.810; 3452.800;  253.350;    0.000
524.942; 3361.800;  183.350;    0.000
525.074; 3249.800;  232.350;    0.000
525.206; 3198.800;  250.350;    0.000
525.338; 3207.800;  228.350;    0.000
525.469; 3281.800;  224.350;    0.000
525.601; 3418.800;  247.350;    0.000
525.733; 3282.800;  199.350;    0.000
525.865; 3392.800;  230.350;    0.000
525.997; 3345.800;  209.350;    0.000
526.129; 3328.800;  211.350;    0.000
526.261; 3464.800;  233.350;    0.000
526.393; 3348.800;  261.350;    0.000
526.524; 3203.800;  206.350;    0.000
526.656; 3388.800;  260.350;    0.000
526.788; 3297.800;  293.350;    0.000
526.920; 3339.800;  208.350;    0.000
527.052; 3209.800;  204.350;    0.000
527.183; 3197.800;  244.350;    0.000
527.315; 3257.800;  237.350;    0.000
527.447; 3314.800;  236.350;    0.000
527.578; 3353.800;  235.350;    0.000
527.710; 3314.800;  253.350;    0.000
527.842; 3258.800;  231.350;    0.000
527.973; 3336.800;  224.350;    0.000
528.105; 3304.800;  237.350;    0.000
528.237; 3292.800;  213.350;    0.000
528.368; 3194.800;  194.350;    0.000
528.500; 3134.800;  195.350;    0.000
528.632; 3315.800;  201.350;    0.000
528.763; 3055.800;  196.350;    0.000
528.895; 3253.800;  204.350;    0.000
529.026; 3236.800;  214.350;    0.000
529.158; 3178.800;  197.350;    0.000
529.289; 3299.800;  230.350;    0.000
529.421; 3241.800;  247.350;    0.000
529.552; 3310.800;  255.350;    0.000
529.684; 3211.800;  270.350;    0.000
529.815; 3342.800;  248.350;    0.000
529.947; 3243.800;  234.350;    0.000
530.078; 3298.800;  223.350;    0.000
530.210; 3204.800;  243.350;    0.000
530.341; 3209.800;  222.350;    0.000
530.472; 3166.800;  217.350;    0.000
530.604; 3273.800;  242.350;    0.000
530.735; 3206.800;  249.350;    0.000
530.867; 3231.800;  257.350;    0.000
530.998; 3236.800;  250.350;    0.000
531.129; 3236.800;  244.350;    0.000
531.260; 3312.800;  276.350;    0.000
531.392; 3416.800;  220.350;    0.000
531.523; 3465.800;  262.350;    0.000
531.654; 3355.800;  264.350;    0.000
531.786; 3369.800;  225.350;    0.000
531.917; 3549.800;  285.350;    0.000
532.048; 3355.800;  239.350;    0.000
532.179; 3428.800;  248.350;    0.000
532.311; 3339.800;  219.350;    0.000
532.442; 3438.800;  264.350;    0.000
532.573; 3418.800;  230.350;    0.000
532.704; 3417.800;  253.350;    0.000
532.835; 3379.800;  239.350;    0.000
532.966; 3243.800;  247.350;    0.000
533.097; 3296.800;  225.350;    0.000
533.229; 3260.800;  282.350;    0.000
533.360; 3266.800;  236.350;    0.000
533.491; 3323.800;  247.350;    0.000
533.622; 3253.800;  265.350;    0.000
533.753; 3383.800;  226.350;    0.000
533.884; 3363.800;  294.350;    0.000
534.015; 3320.800;  215.350;    0.000
534.146; 3357.800;  223.350;    0.000
534.277; 3378.800;  264.350;    0.000
534.408; 3355.800;  232.350;    0.000
534.539; 3369.800;  274.350;    0.000
534.670; 3379.800;  275.350;    0.000
534.801; 3310.800;  261.350;    0.000
534.932; 3298.800;  225.350;    0.000
535.063; 3403.800;  235.350;    0.000
535.194; 3156.800;  300.350;    0.000
535.324; 3187.800;  249.350;    0.000
535.455; 3132.800;  260.350;    0.000
535.586; 3192.800;  288.350;    0.000
535.717; 3195.800;  237.350;    0.000
535.848; 3303.800;  271.350;    0.000
535.979; 3379.800;  234.350;    0.000
536.109; 3193.800;  255.350;    0.000
536.240; 3095.800;  269.350;    0.000
536.371; 3173.800;  232.350;    0.000
536.502; 3235.800;  253.350;    0.000
536.632; 3171.800;  240.350;    0.000
536.763; 3190.800;  251.350;    0.000
536.894; 3175.800;  256.350;    0.000
537.025; 3120.800;  247.350;    0.000
537.155; 3187.800;  272.350;    0.000
537.286; 3125.800;  241.350;    0.000
537.417; 3190.800;  279.350;    0.000
537.547; 3127.800;  229.350;    0.000
537.678; 3283.800;  227.350;    0.000
537.808; 3161.800;  225.350;    0.000
537.939; 3130.800;  250.350;    0.000
538.070; 3260.800;  263.350;    0.000
538.200; 3091.800;  270.350;    0.000
538.331; 3113.800;  249.350;    0.000
538.461; 3302.800;  230.350;    0.000
538.592; 3154.800;  282.350;    0.000
538.722; 3077.800;  253.350;    0.000
538.853; 3025.800;  240.350;    0.000
538.983; 3204.800;  232.350;    0.000
539.114; 3154.800;  248.350;    0.000
539.244; 3172.800;  256.350;    0.000
539.375; 3196.800;  248.350;    0.000
539.505; 3086.800;  235.350;    0.000
539.636; 3141.800;  237.350;    0.000
539.766; 3190.800;  263.350;    0.000
539.896; 3069.800;  217.350;    0.000
540.027; 3159.800;  217.350;    0.000
540.157; 3120.800;  231.350;    0.000
540.287; 3092.800;  210.350;    0.000
540.418; 3134.800;  239.350;    0.000
540.548; 3252.800;  260.350;    0.000
540.678; 3181.800;  228.350;    0.000
540.809; 3251.800;  241.350;    0.000
540.939; 3181.800;  238.350;    0.000
541.069; 3340.800;  245.350;    0.000
541.200; 3109.800;  225.350;    0.000
541.330; 3192.800;  219.350;    0.000
541.460; 3291.800;  254.350;    0.000
541.590; 3150.800;  234.350;    0.000
541.720; 3153.800;  196.350;    0.000
541.851; 3220.800;  200.350;    0.000
541.981; 3173.800;  235.350;    0.000
542.111; 3419.800;  246.350;    0.000
542.241; 3378.800;  214.350;    0.000
542.371; 3326.800;  221.350;    0.000
542.501; 3527.800;  259.350;    0.000
542.631; 3424.800;  213.350;    0.000
542.761; 3661.800;  240.350;    0.000
542.891; 3484.800;  242.350;    0.000
543.021; 3540.800;  230.350;    0.000
543.151; 3663.800;  261.350;    0.000
543.281; 3435.800;  212.350;    0.000
543.411; 3406.800;  229.350;    0.000
543.542; 3411.800;  204.350;    0.000
543.671; 3467.800;  260.350;    0.000
543.801; 3387.800;  236.350;    0.000
543.931; 3407.800;  243.350;    0.000
544.061; 3424.800;  262.350;    0.000
544.191; 3375.800;  223.350;    0.000
544.321; 3277.800;  217.350;    0.000
544.451; 3393.800;  209.350;    0.000
544.581; 3379.800;  213.350;    0.000
544.711; 3429.800;  256.350;    0.000
544.841; 3497.800;  235.350;    0.000
544.970; 3672.800;  260.350;    0.000
545.100; 3612.800;  236.350;    0.000
545.230; 3805.800;  220.350;    0.000
545.360; 3790.800;  219.350;    0.000
545.490; 3600.800;  217.350;    0.000
545.619; 3565.800;  199.350;    0.000
545.749; 3433.800;  183.350;    0.000
545.879; 3418.800;  169.350;    0.000
546.009; 3324.800;  215.350;    0.000
546.138; 3409.800;  228.350;    0.000
546.268; 3224.800;  209.350;    0.000
546.398; 3322.800;  167.350;    0.000
546.527; 3342.800;  178.350;    0.000
546.657; 3375.800;  175.350;    0.000
546.786; 3462.800;  225.350;    0.000
546.916; 3453.800;  196.350;    0.000
547.046; 3386.800;  185.350;    0.000
547.175; 3288.800;  184.350;    0.000
547.305; 3471.800;  197.350;    0.000
547.434; 3462.800;  168.350;    0.000
547.564; 3402.800;  183.350;    0.000
547.693; 3370.800;  204.350;    0.000
547.823; 3321.800;  211.350;    0.000
547.953; 3455.800;  174.350;    0.000
548.082; 3434.800;  217.350;    0.000
548.211; 3272.800;  201.350;    0.000
548.341; 3442.800;  195.350;    0.000
548.470; 3458.800;  225.350;    0.000
548.600; 3381.800;  194.350;    0.000
548.729; 3388.800;  218.350;    0.000
548.859; 3371.800;  202.350;    0.000
548.988; 3274.800;  193.350;    0.000
549.117; 3296.800;  182.350;    0.000
549.247; 3524.800;  198.350;    0.000
549.376; 3413.800;  200.350;    0.000
549.505; 3465.800;  200.350;    0.000
549.635; 3326.800;  224.350;    0.000
549.764; 3405.800;  200.350;    0.000
549.893; 3383.800;  224.350;    0.000
550.023; 3304.800;  207.350;    0.000
550.152; 3488.800;  167.350;    0.000
550.281; 3502.800;  219.350;    0.000
550.410; 3376.800;  217.350;    0.000
550.539; 3519.800;  211.350;    0.000
550.669; 3477.800;  173.350;    0.000
550.798; 3475.800;  211.350;    0.000
550.927; 3546.800;  195.350;    0.000
551.056; 3451.800;  176.350;    0.000
551.185; 3483.800;  203.350;    0.000
551.314; 3478.800;  178.350;    0.000
551.443; 3347.800;  185.350;    0.000
551.573; 3464.800;  167.350;    0.000
551.702; 3611.800;  193.350;    0.000
551.831; 3593.800;  245.350;    0.000
551.960; 3370.800;  190.350;    0.000
552.089; 3529.800;  202.350;    0.000
552.218; 3617.800;  211.350;    0.000
552.347; 3635.800;  184.350;    0.000
552.476; 3612.800;  200.350;    0.000
552.605; 3614.800;  174.350;    0.000
552.734; 3608.800;  206.350;    0.000
552.863; 3628.800;  189.350;    0.000
552.992; 3775.800;  209.350;    0.000
553.121; 3727.800;  201.350;    0.000
553.249; 3798.800;  208.350;    0.000
553.378; 3709.800;  142.350;    0.000
553.507; 3817.800;  208.350;    0.000
553.636; 3585.800;  192.350;    0.000
553.765; 3831.800;  182.350;    0.000
553.894; 3564.800;  183.350;    0.000
554.023; 3610.800;  182.350;    0.000
554.151; 3666.800;  211.350;    0.000
554.280; 3514.800;  179.350;    0.000
554.409; 3437.800;  182.350;    0.000
554.538; 3503.800;  209.350;    0.000
554.666; 3536.800;  182.350;    0.000
554.795; 3544.800;  179.350;    0.000
554.924; 3444.800;  217.350;    0.000
555.052; 3530.800;  220.350;    0.000
555.181; 3543.800;  228.350;    0.000
555.310; 3479.800;  212.350;    0.000
555.439; 3505.800;  199.350;    0.000
555.567; 3469.800;  220.350;    0.000
555.696; 3466.800;  187.350;    0.000
555.824; 3399.800;  189.350;    0.000
555.953; 3377.800;  217.350;    0.000
556.082; 3348.800;  187.350;    0.000
556.210; 3316.800;  245.350;    0.000
556.339; 3464.800;  195.350;    0.000
556.467; 3573.800;  218.350;    0.000
556.596; 3444.800;  198.350;    0.000
556.724; 3371.800;  201.350;    0.000
556.853; 3293.800;  196.350;    0.000
556.981; 3371.800;  175.350;    0.000
557.110; 3324.800;  210.350;    0.000
557.238; 3325.800;  190.350;    0.000
557.367; 3359.800;  192.350;    0.000
557.495; 3240.800;  219.350;    0.000
557.623; 3427.800;  203.350;    0.000
557.752; 3385.800;  166.350;    0.000
557.880; 3360.800;  172.350;    0.000
558.008; 3453.800;  221.350;    0.000
558.137; 3461.800;  211.350;    0.000
558.265; 3377.800;  157.350;    0.000
558.393; 3404.800;  198.350;    0.000
558.522; 3451.800;  209.350;    0.000
558.650; 3512.800;  260.350;    0.000
558.778; 3330.800;  203.350;    0.000
558.906; 3444.800;  210.350;    0.000
559.035; 3445.800;  194.350;    0.000
559.163; 3543.800;  192.350;    0.000
559.291; 3339.800;  215.350;    0.000
559.419; 3446.800;  197.350;    0.000
559.548; 3461.800;  160.350;    0.000
559.676; 3530.800;  200.350;    0.000
559.804; 3629.800;  223.350;    0.000
559.932; 3441.800;  213.350;    0.000
560.060; 3546.800;  224.350;    0.000
560.188; 3506.800;  221.350;    0.000
560.316; 3546.800;  223.350;    0.000
560.444; 3628.800;  159.350;    0.000
560.572; 3636.800;  204.350;    0.000
560.700; 3738.800;  213.350;    0.000
560.828; 3708.800;  216.350;    0.000
560.956; 3698.800;  207.350;    0.000
561.085; 3691.800;  231.350;    0.000
561.212; 3527.800;  197.350;    0.000
561.340; 3636.800;  192.350;    0.000
561.468; 3711.800;  215.350;    0.000
561.596; 3776.800;  215.350;    0.000
561.724; 3725.800;  181.350;    0.000
561.852; 3651.800;  184.350;    0.000
561.980; 3687.800;  217.350;    0.000
562.108; 3861.800;  199.350;    0.000
562.236; 3549.800;  181.350;    0.000
562.364; 3800.800;  234.350;    0.000
562.492; 3783.800;  225.350;    0.000
562.619; 3805.800;  204.350;    0.000
562.747; 3926.800;  223.350;    0.000
562.875; 3714.800;  210.350;    0.000
563.003; 3857.800;  232.350;    0.000
563.130; 3841.800;  224.350;    0.000
563.258; 3948.800;  213.350;    0.000
563.386; 3940.800;  191.350;    0.000
563.514; 3998.800;  252.350;    0.000
563.641; 4078.800;  201.350;    0.000
563.769; 4216.800;  201.350;    0.000
563.897; 4227.800;  176.350;    0.000
564.024; 4529.800;  167.350;    0.000
564.152; 4616.800;  205.350;    0.000
564.280; 4378.800;  222.350;    0.000
564.407; 4489.800;  192.350;    0.000
564.535; 4555.800;  231.350;    0.000
564.662; 4506.800;  197.350;    0.000
564.790; 4545.800;  200.350;    0.000
564.917; 4546.800;  172.350;    0.000
565.045; 4668.800;  187.350;    0.000
565.173; 4489.800;  173.350;    0.000
565.300; 4604.800;  196.350;    0.000
565.428; 4614.800;  195.350;    0.000
565.555; 4668.800;  191.350;    0.000
565.682; 4947.800;  169.350;    0.000
565.810; 5026.800;  198.350;    0.000
565.937; 5165.800;  213.350;    0.000
566.065; 5200.800;  221.350;    0.000
566.192; 5507.800;  173.350;    0.000
566.320; 5445.800;  214.350;    0.000
566.447; 5720.800;  214.350;    0.000
566.574; 5530.800;  188.350;    0.000
566.702; 5807.800;  198.350;    0.000
566.829; 5925.800;  200.350;    0.000
566.956; 6026.800;  194.350;    0.000
567.083; 5987.800;  176.350;    0.000
567.211; 5946.800;  189.350;    0.000
567.338; 6105.800;  184.350;    0.000
567.465; 6054.800;  181.350;    0.000
567.593; 6402.800;  194.350;    0.000
567.720; 6291.800;  193.350;    0.000
567.847; 6160.800;  196.350;    0.000
567.974; 6462.800;  199.350;    0.000
568.101; 6596.800;  150.350;    0.000
568.228; 7576.800;  174.350;    0.000
568.356; 8175.800;  164.350;    0.000
568.483; 8053.800;  163.350;    0.000
568.610; 7726.800;  187.350;    0.000
568.737; 8679.800;  192.350;    0.000
568.864;10573.800;  218.350;    0.000
568.991;10115.800;  169.350;    0.000
569.118; 8798.800;  161.350;    0.000
569.245; 7814.800;  161.350;    0.000
569.372; 7143.800;  187.350;    0.000
569.499; 6728.800;  146.350;    0.000
569.626; 6311.800;  172.350;    0.000
569.753; 6162.800;  188.350;    0.000
569.880; 5946.800;  180.350;    0.000
570.007; 5741.800;  187.350;    0.000
570.134; 5593.800;  196.350;    0.000
570.261; 5583.800;  127.350;    0.000
570.388; 5346.800;  189.350;    0.000
570.515; 5408.800;  219.350;    0.000
570.642; 5296.800;  187.350;    0.000
570.768; 5262.800;  175.350;    0.000
570.895; 5101.800;  165.350;    0.000
571.022; 5070.800;  180.350;    0.000
571.149; 5035.800;  209.350;    0.000
571.276; 4771.800;  187.350;    0.000
571.402; 4716.800;  227.350;    0.000
571.529; 4886.800;  166.350;    0.000
571.656; 4606.800;  203.350;    0.000
571.783; 4667.800;  156.350;    0.000
571.909; 4619.800;  195.350;    0.000
572.036; 4605.800;  165.350;    0.000
572.163; 4454.800;  156.350;    0.000
572.289; 4496.800;  193.350;    0.000
572.416; 4339.800;  199.350;    0.000
572.543; 4283.800;  185.350;    0.000
572.669; 4348.800;  180.350;    0.000
572.796; 4444.800;  173.350;    0.000
572.922; 4217.800;  186.350;    0.000
573.049; 4227.800;  185.350;    0.000
573.176; 4161.800;  196.350;    0.000
573.302; 4303.800;  189.350;    0.000
573.429; 4325.800;  186.350;    0.000
573.555; 4154.800;  220.350;    0.000
573.682; 3939.800;  196.350;    0.000
573.808; 4040.800;  201.350;    0.000
573.935; 3951.800;  188.350;    0.000
574.061; 4088.800;  216.350;    0.000
574.188; 4064.800;  161.350;    0.000
574.314; 3939.800;  189.350;    0.000
574.440; 3903.800;  190.350;    0.000
574.567; 3941.800;  201.350;    0.000
574.693; 3863.800;  175.350;    0.000
574.820; 4001.800;  188.350;    0.000
574.946; 4075.800;  182.350;    0.000
575.072; 4073.800;  188.350;    0.000
575.198; 4148.800;  232.350;    0.000
575.325; 4063.800;  159.350;    0.000
575.451; 3954.800;  231.350;    0.000
575.577; 3985.800;  196.350;    0.000
575.704; 3960.800;  177.350;    0.000
575.830; 3977.800;  171.350;    0.000
575.956; 3991.800;  163.350;    0.000
576.082; 3896.800;  197.350;    0.000
576.208; 3948.800;  181.350;    0.000
576.335; 3861.800;  218.350;    0.000
576.461; 3862.800;  207.350;    0.000
576.587; 3951.800;  173.350;    0.000
576.713; 3971.800;  170.350;    0.000
576.839; 3949.800;  186.350;    0.000
576.965; 3890.800;  194.350;    0.000
577.091; 3854.800;  167.350;    0.000
577.217; 4021.800;  212.350;    0.000
577.343; 3879.800;  214.350;    0.000
577.469; 3966.800;  208.350;    0.000
577.596; 3884.800;  188.350;    0.000
577.722; 3924.800;  221.350;    0.000
577.848; 3884.800;  197.350;    0.000
577.974; 4079.800;  222.350;    0.000
578.099; 3818.800;  187.350;    0.000
578.225; 3913.800;  213.350;    0.000
578.351; 3863.800;  190.350;    0.000
578.477; 3877.800;  212.350;    0.000
578.603; 3917.800;  178.350;    0.000
578.729; 3996.800;  193.350;    0.000
578.855; 4034.800;  194.350;    0.000
578.981; 4071.800;  152.350;    0.000
579.107; 3872.800;  175.350;    0.000
579.232; 4084.800;  192.350;    0.000
579.358; 3961.800;  186.350;    0.000
579.484; 3992.800;  186.350;    0.000
579.610; 3917.800;  199.350;    0.000
579.735; 4039.800;  197.350;    0.000
579.861; 4083.800;  203.350;    0.000
579.987; 4206.800;  220.350;    0.000
580.113; 4203.800;  210.350;    0.000
580.238; 3926.800;  189.350;    0.000
580.364; 4107.800;  214.350;    0.000
580.490; 4213.800;  205.350;    0.000
580.615; 4184.800;  231.350;    0.000
580.741; 4121.800;  212.350;    0.000
580.867; 4168.800;  196.350;    0.000
580.992; 4163.800;  214.350;    0.000
581.118; 4146.800;  178.350;    0.000
581.243; 4213.800;  209.350;    0.000
581.369; 4138.800;  173.350;    0.000
581.494; 4305.800;  209.350;    0.000
581.620; 4217.800;  204.350;    0.000
581.745; 4352.800;  168.350;    0.000
581.871; 4534.800;  236.350;    0.000
581.996; 4256.800;  212.350;    0.000
582.122; 4540.800;  192.350;    0.000
582.247; 4414.800;  179.350;    0.000
582.373; 4451.800;  189.350;    0.000
582.498; 4460.800;  217.350;    0.000
582.624; 4617.800;  231.350;    0.000
582.749; 4617.800;  237.350;    0.000
582.874; 4726.800;  205.350;    0.000
583.000; 4759.800;  204.350;    0.000
583.125; 4699.800;  192.350;    0.000
583.250; 4768.800;  229.350;    0.000
583.376; 4836.800;  256.350;    0.000
583.501; 5020.800;  200.350;    0.000
583.626; 4891.800;  207.350;    0.000
583.751; 5073.800;  215.350;    0.000
583.877; 5165.800;  212.350;    0.000
584.002; 5151.800;  227.350;    0.000
584.127; 5307.800;  153.350;    0.000
584.252; 5297.800;  197.350;    0.000
584.377; 5218.800;  183.350;    0.000
584.503; 5660.800;  211.350;    0.000
584.628; 5701.800;  215.350;    0.000
584.753; 5743.800;  194.350;    0.000
584.878; 5894.800;  154.350;    0.000
585.003; 5878.800;  213.350;    0.000
585.128; 5933.800;  199.350;    0.000
585.253; 6270.800;  219.350;    0.000
585.378; 6329.800;  174.350;    0.000
585.503; 6472.800;  202.350;    0.000
585.628; 6540.800;  186.350;    0.000
585.753; 6780.800;  209.350;    0.000
585.878; 7020.800;  167.350;    0.000
586.003; 7052.800;  226.350;    0.000
586.128; 7269.800;  206.350;    0.000
586.253; 7545.800;  198.350;    0.000
586.378; 7861.800;  180.350;    0.000
586.503; 8223.800;  201.350;    0.000
586.628; 8543.800;  206.350;    0.000
586.753; 8906.800;  178.350;    0.000
586.878; 9400.800;  228.350;    0.000
587.003; 9918.800;  199.350;    0.000
587.127;10599.800;  194.350;    0.000
587.252;10913.800;  212.350;    0.000
587.377;11990.800;  172.350;    0.000
587.502;12739.800;  219.350;    0.000
587.627;13596.800;  247.350;    0.000
587.751;14701.800;  184.350;    0.000
587.876;16104.800;  215.350;    0.000
588.001;17670.801;  163.350;    0.000
588.125;19965.801;  185.350;    0.000
588.250;22443.801;  171.350;    0.000
588.375;25924.801;  255.350;    0.000
588.499;30383.801;  185.350;    0.000
588.624;37746.801;  167.350;    0.000
588.749;48530.801;  170.350;    0.000
588.873;64031.801;  173.350;    0.000
588.998;65250.801;  203.350;    0.000
589.122;65250.801;  184.350;    0.000
589.247;65250.801;  217.350;    0.000
589.372;61244.801;  250.350;    0.000
589.496;65250.801;  200.350;    0.000
589.621;65250.801;  199.350;    0.000
589.745;65250.801;  235.350;    0.000
589.870;55607.801;  206.350;    0.000
589.994;41959.801;  194.350;    0.000
590.118;34226.801;  177.350;    0.000
590.243;28142.801;  231.350;    0.000
590.367;24647.801;  173.350;    0.000
590.492;21889.801;  170.350;    0.000
590.616;19349.801;  182.350;    0.000
590.740;17648.801;  178.350;    0.000
590.865;15786.800;  219.350;    0.000
590.989;15053.800;  210.350;    0.000
591.114;13988.800;  194.350;    0.000
591.238;12716.800;  154.350;    0.000
591.362;12351.800;  210.350;    0.000
591.486;11708.800;  215.350;    0.000
591.611;11022.800;  194.350;    0.000
591.735;10595.800;  206.350;    0.000
591.859;10255.800;  188.350;    0.000
591.983; 9793.800;  202.350;    0.000
592.107; 9205.800;  175.350;    0.000
592.232; 8976.800;  214.350;    0.000
592.356; 8799.800;  232.350;    0.000
592.480; 8485.800;  203.350;    0.000
592.604; 8300.800;  204.350;    0.000
592.728; 7960.800;  187.350;    0.000
592.852; 7795.800;  204.350;    0.000
592.976; 7707.800;  163.350;    0.000
593.100; 7406.800;  177.350;    0.000
593.224; 7257.800;  209.350;    0.000
593.349; 7213.800;  255.350;    0.000
593.473; 6949.800;  225.350;    0.000
593.597; 6965.800;  211.350;    0.000
593.721; 6682.800;  222.350;    0.000
593.844; 6422.800;  202.350;    0.000
593.968; 6548.800;  223.350;    0.000
594.092; 6440.800;  162.350;    0.000
594.216; 6134.800;  211.350;    0.000
594.340; 6196.800;  198.350;    0.000
594.464; 6086.800;  242.350;    0.000
594.588; 5869.800;  213.350;    0.000
594.712; 5885.800;  198.350;    0.000
594.836; 5716.800;  207.350;    0.000
594.959; 5729.800;  192.350;    0.000
595.083; 5424.800;  180.350;    0.000
595.207; 5442.800;  242.350;    0.000
595.331; 5194.800;  172.350;    0.000
595.455; 5257.800;  185.350;    0.000
595.578; 5044.800;  221.350;    0.000
595.702; 5065.800;  233.350;    0.000
595.826; 4948.800;  164.350;    0.000
595.949; 5124.800;  215.350;    0.000
596.073; 4772.800;  198.350;    0.000
596.197; 4777.800;  266.350;    0.000
596.320; 4794.800;  236.350;    0.000
596.444; 4553.800;  215.350;    0.000
596.568; 4725.800;  213.350;    0.000
596.691; 4495.800;  198.350;    0.000
596.815; 4488.800;  210.350;    0.000
596.938; 4554.800;  207.350;    0.000
597.062; 4406.800;  187.350;    0.000
597.186; 4344.800;  234.350;    0.000
597.309; 4401.800;  176.350;    0.000
597.433; 4379.800;  222.350;    0.000
597.556; 4252.800;  219.350;    0.000
597.680; 4226.800;  227.350;    0.000
597.803; 4203.800;  240.350;    0.000
597.926; 4212.800;  227.350;    0.000
598.050; 4093.800;  198.350;    0.000
598.173; 4111.800;  235.350;    0.000
598.297; 4192.800;  233.350;    0.000
598.420; 3909.800;  211.350;    0.000
598.543; 3947.800;  207.350;    0.000
598.667; 4038.800;  232.350;    0.000
598.790; 3867.800;  205.350;    0.000
598.913; 3883.800;  200.350;    0.000
599.037; 3908.800;  193.350;    0.000
599.160; 4075.800;  199.350;    0.000
599.283; 3946.800;  237.350;    0.000
599.406; 3767.800;  168.350;    0.000
599.530; 3951.800;  231.350;    0.000
599.653; 3925.800;  220.350;    0.000
599.776; 3687.800;  203.350;    0.000
599.899; 3854.800;  202.350;    0.000
600.022; 3657.800;  189.350;    0.000
600.145; 3795.800;  175.350;    0.000
600.269; 3774.800;  235.350;    0.000
600.392; 3709.800;  213.350;    0.000
600.515; 3702.800;  236.350;    0.000
600.638; 3578.800;  198.350;    0.000
600.761; 3649.800;  195.350;    0.000
600.884; 3486.800;  221.350;    0.000
601.007; 3666.800;  236.350;    0.000
601.130; 3666.800;  223.350;    0.000
601.253; 3654.800;  250.350;    0.000
601.376; 3556.800;  195.350;    0.000
601.499; 3616.800;  168.350;    0.000
601.622; 3578.800;  221.350;    0.000
601.745; 3576.800;  223.350;    0.000
601.868; 3546.800;  204.350;    0.000
601.991; 3519.800;  207.350;    0.000
602.113; 3541.800;  223.350;    0.000
602.236; 3550.800;  182.350;    0.000
602.359; 3589.800;  235.350;    0.000
602.482; 3470.800;  173.350;    0.000
602.605; 3347.800;  227.350;    0.000
602.728; 3482.800;  227.350;    0.000
602.850; 3350.800;  250.350;    0.000
602.973; 3474.800;  195.350;    0.000
603.096; 3418.800;  270.350;    0.000
603.219; 3327.800;  197.350;    0.000
603.341; 3350.800;  195.350;    0.000
603.464; 3406.800;  204.350;    0.000
603.587; 3286.800;  243.350;    0.000
603.709; 3350.800;  188.350;    0.000
603.832; 3485.800;  214.350;    0.000
603.955; 3342.800;  213.350;    0.000
604.077; 3340.800;  201.350;    0.000
604.200; 3504.800;  209.350;    0.000
604.323; 3370.800;  201.350;    0.000
604.445; 3374.800;  202.350;    0.000
604.568; 3344.800;  230.350;    0.000
604.690; 3151.800;  212.350;    0.000
604.813; 3231.800;  226.350;    0.000
604.935; 3350.800;  216.350;    0.000
605.058; 3180.800;  182.350;    0.000
605.180; 3261.800;  204.350;    0.000
605.303; 3235.800;  199.350;    0.000
605.425; 3253.800;  178.350;    0.000
605.547; 3186.800;  209.350;    0.000
605.670; 3175.800;  206.350;    0.000
605.792; 3206.800;  199.350;    0.000
605.915; 3111.800;  221.350;    0.000
606.037; 3166.800;  222.350;    0.000
606.159; 3166.800;  160.350;    0.000
606.282; 3271.800;  188.350;    0.000
606.404; 3266.800;  205.350;    0.000
606.526; 3245.800;  228.350;    0.000
606.648; 3214.800;  184.350;    0.000
606.771; 3232.800;  195.350;    0.000
606.893; 3091.800;  193.350;    0.000
607.015; 3278.800;  202.350;    0.000
607.137; 3140.800;  189.350;    0.000
607.260; 3122.800;  201.350;    0.000
607.382; 3175.800;  211.350;    0.000
607.504; 3151.800;  206.350;    0.000
607.626; 3260.800;  236.350;    0.000
607.748; 3345.800;  228.350;    0.000
607.870; 3024.800;  212.350;    0.000
607.992; 3219.800;  201.350;    0.000
608.114; 3087.800;  214.350;    0.000
608.237; 3213.800;  235.350;    0.000
608.359; 3062.800;  215.350;    0.000
608.481; 3105.800;  183.350;    0.000
608.603; 3211.800;  206.350;    0.000
608.725; 2963.800;  238.350;    0.000
608.847; 3146.800;  237.350;    0.000
608.969; 3054.800;  227.350;    0.000
609.090; 3202.800;  205.350;    0.000
609.212; 3013.800;  182.350;    0.000
609.334; 3091.800;  210.350;    0.000
609.456; 3112.800;  208.350;    0.000
609.578; 2976.800;  195.350;    0.000
609.700; 3026.800;  196.350;    0.000
609.822; 3010.800;  184.350;    0.000
609.944; 2979.800;  258.350;    0.000
610.065; 3003.800;  219.350;    0.000
610.187; 3113.800;  217.350;    0.000
610.309; 3048.800;  179.350;    0.000
610.431; 3008.800;  189.350;    0.000
610.552; 3085.800;  212.350;    0.000
610.674; 3141.800;  211.350;    0.000
610.796; 3072.800;  168.350;    0.000
610.918; 2971.800;  201.350;    0.000
611.039; 3071.800;  212.350;    0.000
611.161; 3144.800;  207.350;    0.000
611.282; 2960.800;  219.350;    0.000
611.404; 3055.800;  243.350;    0.000
611.526; 3057.800;  180.350;    0.000
611.647; 3083.800;  235.350;    0.000
611.769; 2923.800;  189.350;    0.000
611.890; 3041.800;  201.350;    0.000
612.012; 3031.800;  191.350;    0.000
612.133; 3132.800;  227.350;    0.000
612.255; 3051.800;  191.350;    0.000
612.377; 3051.800;  192.350;    0.000
612.498; 3020.800;  202.350;    0.000
612.619; 3009.800;  207.350;    0.000
612.741; 3007.800;  241.350;    0.000
612.862; 3085.800;  219.350;    0.000
612.984; 2905.800;  203.350;    0.000
613.105; 2897.800;  228.350;    0.000
613.226; 2942.800;  199.350;    0.000
613.348; 2967.800;  238.350;    0.000
613.469; 2966.800;  239.350;    0.000
613.590; 2916.800;  183.350;    0.000
613.712; 2848.800;  245.350;    0.000
613.833; 2962.800;  241.350;    0.000
613.954; 3097.800;  208.350;    0.000
614.076; 3058.800;  181.350;    0.000
614.197; 2991.800;  217.350;    0.000
614.318; 3093.800;  182.350;    0.000
614.439; 2934.800;  204.350;    0.000
614.560; 2986.800;  219.350;    0.000
614.682; 2882.800;  238.350;    0.000
614.803; 2989.800;  240.350;    0.000
614.924; 3076.800;  212.350;    0.000
615.045; 3070.800;  225.350;    0.000
615.166; 3214.800;  227.350;    0.000
615.287; 3224.800;  230.350;    0.000
615.408; 3826.800;  187.350;    0.000
615.529; 4135.800;  211.350;    0.000
615.650; 3774.800;  202.350;    0.000
615.771; 3564.800;  203.350;    0.000
615.892; 3665.800;  222.350;    0.000
616.013; 4192.800;  215.350;    0.000
616.134; 5093.800;  193.350;    0.000
616.255; 4820.800;  242.350;    0.000
616.376; 4153.800;  205.350;    0.000
616.497; 3794.800;  200.350;    0.000
616.618; 3583.800;  177.350;    0.000
616.739; 3564.800;  218.350;    0.000
616.860; 3471.800;  214.350;    0.000
616.981; 3386.800;  208.350;    0.000
617.102; 3266.800;  203.350;    0.000
617.222; 3331.800;  212.350;    0.000
617.343; 3065.800;  162.350;    0.000
617.464; 3313.800;  230.350;    0.000
617.585; 3144.800;  197.350;    0.000
617.705; 3114.800;  209.350;    0.000
617.826; 3133.800;  229.350;    0.000
617.947; 3014.800;  216.350;    0.000
618.068; 3070.800;  192.350;    0.000
618.188; 3031.800;  230.350;    0.000
618.309; 3120.800;  238.350;    0.000
618.430; 3064.800;  242.350;    0.000
618.550; 3008.800;  235.350;    0.000
618.671; 2924.800;  207.350;    0.000
618.791; 3003.800;  228.350;    0.000
618.912; 3055.800;  266.350;    0.000
619.033; 2975.800;  232.350;    0.000
619.153; 3037.800;  207.350;    0.000
619.274; 2829.800;  193.350;    0.000
619.394; 2951.800;  237.350;    0.000
619.515; 2887.800;  216.350;    0.000
619.635; 2867.800;  203.350;    0.000
619.756; 2928.800;  227.350;    0.000
619.876; 2890.800;  244.350;    0.000
619.996; 2917.800;  220.350;    0.000
620.117; 2889.800;  231.350;    0.000
620.237; 2817.800;  235.350;    0.000
620.358; 2897.800;  241.350;    0.000
620.478; 2934.800;  237.350;    0.000
620.598; 2916.800;  255.350;    0.000
620.719; 2902.800;  243.350;    0.000
620.839; 2920.800;  237.350;    0.000
620.959; 2928.800;  216.350;    0.000
621.079; 2892.800;  240.350;    0.000
621.200; 2753.800;  195.350;    0.000
621.320; 2794.800;  287.350;    0.000
621.440; 2877.800;  236.350;    0.000
621.560; 2873.800;  231.350;    0.000
621.681; 2861.800;  177.350;    0.000
621.801; 2808.800;  257.350;    0.000
621.921; 2768.800;  241.350;    0.000
622.041; 2842.800;  239.350;    0.000
622.161; 2748.800;  233.350;    0.000
622.281; 2856.800;  204.350;    0.000
622.401; 2809.800;  204.350;    0.000
622.521; 2775.800;  242.350;    0.000
622.641; 2744.800;  205.350;    0.000
622.761; 2767.800;  254.350;    0.000
622.882; 2737.800;  225.350;    0.000
623.002; 2766.800;  255.350;    0.000
623.121; 2717.800;  244.350;    0.000
623.241; 2771.800;  238.350;    0.000
623.361; 2653.800;  208.350;    0.000
623.481; 2732.800;  194.350;    0.000
623.601; 2702.800;  249.350;    0.000
623.721; 2768.800;  229.350;    0.000
623.841; 2699.800;  244.350;    0.000
623.961; 2676.800;  253.350;    0.000
624.081; 2671.800;  218.350;    0.000
624.201; 2698.800;  218.350;    0.000
624.320; 2605.800;  212.350;    0.000
624.440; 2727.800;  251.350;    0.000
624.560; 2795.800;  244.350;    0.000
624.680; 2673.800;  224.350;    0.000
624.799; 2734.800;  198.350;    0.000
624.919; 2714.800;  215.350;    0.000
625.039; 2701.800;  225.350;    0.000
625.159; 2757.800;  209.350;    0.000
625.278; 2658.800;  211.350;    0.000
625.398; 2668.800;  260.350;    0.000
625.518; 2552.800;  205.350;    0.000
625.637; 2688.800;  240.350;    0.000
625.757; 2628.800;  208.350;    0.000
625.876; 2704.800;  221.350;    0.000
625.996; 2645.800;  245.350;    0.000
626.115; 2619.800;  196.350;    0.000
626.235; 2675.800;  241.350;    0.000
626.354; 2711.800;  231.350;    0.000
626.474; 2585.800;  220.350;    0.000
626.594; 2612.800;  210.350;    0.000
626.713; 2633.800;  229.350;    0.000
626.832; 2619.800;  236.350;    0.000
626.952; 2603.800;  223.350;    0.000
627.071; 2578.800;  211.350;    0.000
627.191; 2691.800;  220.350;    0.000
627.310; 2506.800;  206.350;    0.000
627.429; 2703.800;  223.350;    0.000
627.549; 2551.800;  205.350;    0.000
627.668; 2622.800;  227.350;    0.000
627.787; 2605.800;  221.350;    0.000
627.907; 2586.800;  194.350;    0.000
628.026; 2531.800;  231.350;    0.000
628.145; 2551.800;  210.350;    0.000
628.264; 2592.800;  245.350;    0.000
628.384; 2602.800;  234.350;    0.000
628.503; 2558.800;  210.350;    0.000
628.622; 2563.800;  223.350;    0.000
628.741; 2581.800;  210.350;    0.000
628.860; 2561.800;  222.350;    0.000
628.980; 2604.800;  184.350;    0.000
629.099; 2580.800;  234.350;    0.000
629.218; 2593.800;  157.350;    0.000
629.337; 2648.800;  220.350;    0.000
629.456; 2600.800;  210.350;    0.000
629.575; 2593.800;  239.350;    0.000
629.694; 2565.800;  216.350;    0.000
629.813; 2610.800;  218.350;    0.000
629.932; 2447.800;  175.350;    0.000
630.051; 2555.800;  218.350;    0.000
630.170; 2590.800;  215.350;    0.000
630.289; 2498.800;  203.350;    0.000
630.408; 2480.800;  180.350;    0.000
630.527; 2503.800;  249.350;    0.000
630.646; 2419.800;  186.350;    0.000
630.764; 2528.800;  189.350;    0.000
630.883; 2664.800;  221.350;    0.000
631.002; 2531.800;  191.350;    0.000
631.121; 2587.800;  210.350;    0.000
631.240; 2573.800;  256.350;    0.000
631.359; 2637.800;  246.350;    0.000
631.477; 2609.800;  230.350;    0.000
631.596; 2749.800;  229.350;    0.000
631.715; 2683.800;  242.350;    0.000
631.834; 2474.800;  261.350;    0.000
631.952; 2410.800;  250.350;    0.000
632.071; 2558.800;  218.350;    0.000
632.190; 2434.800;  200.350;    0.000
632.308; 2483.800;  226.350;    0.000
632.427; 2484.800;  234.350;    0.000
632.546; 2524.800;  250.350;    0.000
632.664; 2588.800;  224.350;    0.000
632.783; 2598.800;  211.350;    0.000
632.901; 2595.800;  254.350;    0.000
633.020; 2521.800;  204.350;    0.000
633.138; 2491.800;  228.350;    0.000
633.257; 2535.800;  219.350;    0.000
633.375; 2502.800;  243.350;    0.000
633.494; 2513.800;  242.350;    0.000
633.612; 2554.800;  227.350;    0.000
633.731; 2433.800;  221.350;    0.000
633.849; 2463.800;  239.350;    0.000
633.968; 2448.800;  219.350;    0.000
634.086; 2436.800;  218.350;    0.000
634.204; 2474.800;  203.350;    0.000
634.323; 2508.800;  222.350;    0.000
634.441; 2489.800;  257.350;    0.000
634.559; 2409.800;  201.350;    0.000
634.678; 2487.800;  214.350;    0.000
634.796; 2578.800;  207.350;    0.000
634.914; 2411.800;  226.350;    0.000
635.032; 2432.800;  250.350;    0.000
635.151; 2428.800;  228.350;    0.000
635.269; 2465.800;  188.350;    0.000
635.387; 2448.800;  247.350;    0.000
635.505; 2425.800;  250.350;    0.000
635.623; 2403.800;  230.350;    0.000
635.742; 2447.800;  209.350;    0.000
635.860; 2434.800;  239.350;    0.000
635.978; 2421.800;  213.350;    0.000
636.096; 2480.800;  176.350;    0.000
636.214; 2391.800;  246.350;    0.000
636.332; 2429.800;  224.350;    0.000
636.450; 2408.800;  215.350;    0.000
636.568; 2520.800;  246.350;    0.000
636.686; 2359.800;  225.350;    0.000
636.804; 2503.800;  218.350;    0.000
636.922; 2530.800;  195.350;    0.000
637.040; 2335.800;  213.350;    0.000
637.158; 2469.800;  228.350;    0.000
637.276; 2493.800;  206.350;    0.000
637.394; 2377.800;  224.350;    0.000
637.512; 2444.800;  245.350;    0.000
637.629; 2485.800;  234.350;    0.000
637.747; 2452.800;  233.350;    0.000
637.865; 2368.800;  236.350;    0.000
637.983; 2430.800;  235.350;    0.000
638.101; 2291.800;  232.350;    0.000
638.218; 2360.800;  256.350;    0.000
638.336; 2441.800;  216.350;    0.000
638.454; 2393.800;  255.350;    0.000
638.572; 2544.800;  237.350;    0.000
638.689; 2417.800;  271.350;    0.000
638.807; 2399.800;  243.350;    0.000
638.925; 2502.800;  259.350;    0.000
639.042; 2394.800;  185.350;    0.000
639.160; 2421.800;  250.350;    0.000
639.278; 2264.800;  207.350;    0.000
639.395; 2429.800;  243.350;    0.000
639.513; 2308.800;  235.350;    0.000
639.630; 2314.800;  230.350;    0.000
639.748; 2416.800;  192.350;    0.000
639.865; 2461.800;  219.350;    0.000
639.983; 2404.800;  183.350;    0.000
640.100; 2387.800;  251.350;    0.000
640.218; 2390.800;  246.350;    0.000
640.335; 2339.800;  227.350;    0.000
640.453; 2314.800;  259.350;    0.000
640.570; 2325.800;  251.350;    0.000
640.688; 2357.800;  223.350;    0.000
640.805; 2230.800;  246.350;    0.000
640.922; 2429.800;  249.350;    0.000
641.040; 2440.800;  257.350;    0.000
641.157; 2298.800;  207.350;    0.000
641.274; 2454.800;  241.350;    0.000
641.391; 2352.800;  246.350;    0.000
641.509; 2332.800;  216.350;    0.000
641.626; 2457.800;  252.350;    0.000
641.743; 2416.800;  215.350;    0.000
641.860; 2420.800;  234.350;    0.000
641.978; 2385.800;  216.350;    0.000
642.095; 2335.800;  247.350;    0.000
642.212; 2356.800;  199.350;    0.000
642.329; 2375.800;  237.350;    0.000
642.446; 2319.800;  222.350;    0.000
642.563; 2400.800;  287.350;    0.000
642.681; 2325.800;  261.350;    0.000
642.798; 2365.800;  251.350;    0.000
642.915; 2309.800;  238.350;    0.000
643.032; 2383.800;  246.350;    0.000
643.149; 2365.800;  239.350;    0.000
643.266; 2392.800;  238.350;    0.000
643.383; 2334.800;  231.350;    0.000
643.500; 2434.800;  212.350;    0.000
643.617; 2335.800;  236.350;    0.000
643.734; 2366.800;  239.350;    0.000
643.850; 2393.800;  234.350;    0.000
643.967; 2434.800;  253.350;    0.000
644.084; 2324.800;  253.350;    0.000
644.201; 2425.800;  227.350;    0.000
644.318; 2434.800;  247.350;    0.000
644.435; 2302.800;  264.350;    0.000
644.552; 2338.800;  230.350;    0.000
644.668; 2425.800;  250.350;    0.000
644.785; 2486.800;  235.350;    0.000
644.902; 2468.800;  227.350;    0.000
645.019; 2426.800;  203.350;    0.000
645.135; 2430.800;  210.350;    0.000
645.252; 2384.800;  206.350;    0.000
645.369; 2476.800;  235.350;    0.000
645.485; 2363.800;  223.350;    0.000
645.602; 2504.800;  205.350;    0.000
645.719; 2470.800;  222.350;    0.000
645.835; 2435.800;  246.350;    0.000
645.952; 2479.800;  239.350;    0.000
646.068; 2469.800;  225.350;    0.000
646.185; 2477.800;  248.350;    0.000
646.302; 2510.800;  226.350;    0.000
646.418; 2417.800;  228.350;    0.000
646.535; 2571.800;  219.350;    0.000
646.651; 2448.800;  204.350;    0.000
646.768; 2402.800;  247.350;    0.000
646.884; 2610.800;  228.350;    0.000
647.000; 2520.800;  223.350;    0.000
647.117; 2509.800;  251.350;    0.000
647.233; 2505.800;  223.350;    0.000
647.350; 2534.800;  237.350;    0.000
647.466; 2596.800;  223.350;    0.000
647.582; 2525.800;  243.350;    0.000
647.699; 2654.800;  223.350;    0.000
647.815; 2598.800;  215.350;    0.000
647.931; 2512.800;  214.350;    0.000
648.047; 2563.800;  199.350;    0.000
648.164; 2654.800;  233.350;    0.000
648.280; 2636.800;  231.350;    0.000
648.396; 2614.800;  215.350;    0.000
648.512; 2725.800;  252.350;    0.000
648.629; 2533.800;  237.350;    0.000
648.745; 2556.800;  216.350;    0.000
648.861; 2747.800;  207.350;    0.000
648.977; 2622.800;  247.350;    0.000
649.093; 2628.800;  221.350;    0.000
649.209; 2632.800;  232.350;    0.000
649.325; 2737.800;  245.350;    0.000
649.441; 2627.800;  253.350;    0.000
649.557; 2698.800;  221.350;    0.000
649.673; 2645.800;  182.350;    0.000
649.789; 2797.800;  245.350;    0.000
649.905; 2536.800;  204.350;    0.000
650.021; 2687.800;  270.350;    0.000
650.137; 2574.800;  218.350;    0.000
650.253; 2770.800;  268.350;    0.000
650.369; 2636.800;  222.350;    0.000
650.485; 2723.800;  215.350;    0.000
650.601; 2735.800;  218.350;    0.000
650.717; 2674.800;  208.350;    0.000
650.833; 2734.800;  263.350;    0.000
650.948; 2679.800;  266.350;    0.000
651.064; 2685.800;  271.350;    0.000
651.180; 2747.800;  232.350;    0.000
651.296; 2744.800;  237.350;    0.000
651.411; 2744.800;  233.350;    0.000
651.527; 2773.800;  232.350;    0.000
651.643; 2754.800;  259.350;    0.000
651.759; 2861.800;  257.350;    0.000
651.874; 2809.800;  216.350;    0.000
651.990; 2797.800;  234.350;    0.000
652.105; 2888.800;  195.350;    0.000
652.221; 2842.800;  245.350;    0.000
652.337; 2812.800;  210.350;    0.000
652.452; 2908.800;  259.350;    0.000
652.568; 2888.800;  202.350;    0.000
652.683; 2969.800;  233.350;    0.000
652.799; 3016.800;  230.350;    0.000
652.914; 2969.800;  198.350;    0.000
653.030; 2975.800;  203.350;    0.000
653.145; 3103.800;  228.350;    0.000
653.261; 3060.800;  244.350;    0.000
653.376; 3203.800;  214.350;    0.000
653.492; 3150.800;  246.350;    0.000
653.607; 3325.800;  241.350;    0.000
653.722; 3275.800;  257.350;    0.000
653.838; 3401.800;  265.350;    0.000
653.953; 3335.800;  252.350;    0.000
654.068; 3476.800;  270.350;    0.000
654.184; 3628.800;  248.350;    0.000
654.299; 3651.800;  226.350;    0.000
654.414; 3662.800;  190.350;    0.000
654.530; 3665.800;  263.350;    0.000
654.645; 3879.800;  240.350;    0.000
654.760; 4021.800;  243.350;    0.000
654.875; 4095.800;  210.350;    0.000
654.990; 4210.800;  250.350;    0.000
655.106; 4188.800;  277.350;    0.000
655.221; 4535.800;  249.350;    0.000
655.336; 4498.800;  239.350;    0.000
655.451; 4891.800;  226.350;    0.000
655.566; 5012.800;  236.350;    0.000
655.681; 5265.800;  272.350;    0.000
655.796; 5483.800;  224.350;    0.000
655.911; 5614.800;  247.350;    0.000
656.026; 6091.800;  240.350;    0.000
656.141; 6471.800;  239.350;    0.000
656.256; 6638.800;  241.350;    0.000
656.371; 6789.800;  213.350;    0.000
656.486; 6812.800;  275.350;    0.000
656.601; 6773.800;  225.350;    0.000
656.716; 6315.800;  239.350;    0.000
656.831; 6310.800;  260.350;    0.000
656.946; 5916.800;  250.350;    0.000
657.060; 5627.800;  257.350;    0.000
657.175; 5422.800;  256.350;    0.000
657.290; 5281.800;  255.350;    0.000
657.405; 5112.800;  303.350;    0.000
657.520; 4923.800;  272.350;    0.000
657.634; 4775.800;  268.350;    0.000
657.749; 4566.800;  261.350;    0.000
657.864; 4486.800;  235.350;    0.000
657.979; 4377.800;  257.350;    0.000
658.093; 4273.800;  243.350;    0.000
658.208; 4117.800;  281.350;    0.000
658.323; 3974.800;  240.350;    0.000
658.437; 4056.800;  285.350;    0.000
658.552; 3808.800;  262.350;    0.000
658.666; 3790.800;  269.350;    0.000
658.781; 3786.800;  244.350;    0.000
658.895; 3648.800;  259.350;    0.000
659.010; 3629.800;  254.350;    0.000
659.125; 3557.800;  210.350;    0.000
659.239; 3440.800;  212.350;    0.000
659.353; 3484.800;  269.350;    0.000
659.468; 3283.800;  269.350;    0.000
659.582; 3422.800;  244.350;    0.000
659.697; 3210.800;  262.350;    0.000
659.811; 3191.800;  271.350;    0.000
659.926; 3089.800;  232.350;    0.000
660.040; 3103.800;  250.350;    0.000
660.154; 3032.800;  209.350;    0.000
660.269; 3132.800;  212.350;    0.000
660.383; 3063.800;  237.350;    0.000
660.497; 2944.800;  231.350;    0.000
660.612; 3085.800;  232.350;    0.000
660.726; 3193.800;  276.350;    0.000
660.840; 3053.800;  235.350;    0.000
660.954; 2895.800;  224.350;    0.000
661.068; 2867.800;  241.350;    0.000
661.183; 2850.800;  223.350;    0.000
661.297; 2952.800;  255.350;    0.000
661.411; 2754.800;  223.350;    0.000
661.525; 2757.800;  249.350;    0.000
661.639; 2721.800;  264.350;    0.000
661.753; 2694.800;  225.350;    0.000
661.867; 2699.800;  245.350;    0.000
661.981; 2552.800;  225.350;    0.000
662.095; 2688.800;  262.350;    0.000
662.209; 2612.800;  225.350;    0.000
662.323; 2594.800;  228.350;    0.000
662.437; 2529.800;  230.350;    0.000
662.551; 2587.800;  234.350;    0.000
662.665; 2405.800;  212.350;    0.000
662.779; 2619.800;  254.350;    0.000
662.893; 2530.800;  269.350;    0.000
663.007; 2434.800;  196.350;    0.000
663.121; 2559.800;  262.350;    0.000
663.235; 2408.800;  263.350;    0.000
663.349; 2431.800;  242.350;    0.000
663.462; 2436.800;  234.350;    0.000
663.576; 2460.800;  219.350;    0.000
663.690; 2457.800;  234.350;    0.000
663.804; 2293.800;  205.350;    0.000
663.917; 2259.800;  224.350;    0.000
664.031; 2365.800;  208.350;    0.000
664.145; 2375.800;  241.350;    0.000
664.258; 2354.800;  188.350;    0.000
664.372; 2332.800;  214.350;    0.000
664.486; 2299.800;  203.350;    0.000
664.599; 2320.800;  217.350;    0.000
664.713; 2341.800;  286.350;    0.000
664.827; 2220.800;  199.350;    0.000
664.940; 2291.800;  250.350;    0.000
665.054; 2261.800;  261.350;    0.000
665.167; 2201.800;  258.350;    0.000
665.281; 2228.800;  234.350;    0.000
665.394; 2279.800;  213.350;    0.000
665.508; 2301.800;  222.350;    0.000
665.621; 2246.800;  254.350;    0.000
665.735; 2172.800;  252.350;    0.000
665.848; 2311.800;  248.350;    0.000
665.961; 2209.800;  234.350;    0.000
666.075; 2334.800;  262.350;    0.000
666.188; 2192.800;  270.350;    0.000
666.301; 2203.800;  237.350;    0.000
666.415; 2161.800;  245.350;    0.000
666.528; 2186.800;  248.350;    0.000
666.641; 2140.800;  210.350;    0.000
666.755; 2147.800;  218.350;    0.000
666.868; 2127.800;  224.350;    0.000
666.981; 2158.800;  244.350;    0.000
667.094; 2148.800;  279.350;    0.000
667.207; 2215.800;  190.350;    0.000
667.321; 1989.800;  210.350;    0.000
667.434; 2069.800;  205.350;    0.000
667.547; 2202.800;  253.350;    0.000
667.660; 2099.800;  243.350;    0.000
667.773; 2061.800;  242.350;    0.000
667.886; 2076.800;  218.350;    0.000
667.999; 2146.800;  226.350;    0.000
668.112; 2032.800;  258.350;    0.000
668.225; 2081.800;  243.350;    0.000
668.338; 2036.800;  224.350;    0.000
668.451; 1929.800;  250.350;    0.000
668.564; 2016.800;  260.350;    0.000
668.677; 2037.800;  204.350;    0.000
668.790; 1964.800;  229.350;    0.000
668.903; 2001.800;  269.350;    0.000
669.016; 1920.800;  228.350;    0.000
669.129; 1897.800;  253.350;    0.000
669.242; 1944.800;  245.350;    0.000
669.354; 1947.800;  234.350;    0.000
669.467; 2000.800;  256.350;    0.000
669.580; 1929.800;  223.350;    0.000
669.693; 1998.800;  252.350;    0.000
669.806; 1969.800;  212.350;    0.000
669.918; 1943.800;  228.350;    0.000
670.031; 1979.800;  265.350;    0.000
670.144; 1908.800;  255.350;    0.000
670.256; 1938.800;  229.350;    0.000
670.369; 1948.800;  301.350;    0.000
670.482; 1891.800;  263.350;    0.000
670.594; 1959.800;  246.350;    0.000
670.707; 1911.800;  255.350;    0.000
670.820; 1876.800;  256.350;    0.000
670.932; 1927.800;  210.350;    0.000
671.045; 1859.800;  249.350;    0.000
671.157; 1947.800;  254.350;    0.000
671.270; 1895.800;  265.350;    0.000
671.382; 1923.800;  219.350;    0.000
671.495; 1943.800;  242.350;    0.000
671.607; 1951.800;  266.350;    0.000
671.720; 1871.800;  238.350;    0.000
671.832; 1909.800;  220.350;    0.000
671.944; 1967.800;  251.350;    0.000
672.057; 1879.800;  232.350;    0.000
672.169; 1891.800;  240.350;    0.000
672.281; 1979.800;  270.350;    0.000
672.394; 1952.800;  257.350;    0.000
672.506; 1915.800;  247.350;    0.000
672.618; 1975.800;  229.350;    0.000
672.731; 1855.800;  227.350;    0.000
672.843; 1925.800;  282.350;    0.000
672.955; 1953.800;  262.350;    0.000
673.067; 1847.800;  277.350;    0.000
673.180; 1893.800;  280.350;    0.000
673.292; 1881.800;  241.350;    0.000
673.404; 1814.800;  234.350;    0.000
673.516; 1762.800;  224.350;    0.000
673.628; 1897.800;  272.350;    0.000
673.740; 1858.800;  249.350;    0.000
673.852; 1922.800;  288.350;    0.000
673.964; 1890.800;  278.350;    0.000
674.076; 1894.800;  273.350;    0.000
674.188; 1858.800;  251.350;    0.000
674.300; 1872.800;  244.350;    0.000
674.412; 1858.800;  267.350;    0.000
674.524; 1910.800;  276.350;    0.000
674.636; 1948.800;  234.350;    0.000
674.748; 1874.800;  267.350;    0.000
674.860; 1781.800;  255.350;    0.000
674.972; 1826.800;  253.350;    0.000
675.084; 1774.800;  253.350;    0.000
675.196; 1877.800;  300.350;    0.000
675.307; 1852.800;  307.350;    0.000
675.419; 1732.800;  245.350;    0.000
675.531; 1862.800;  292.350;    0.000
675.643; 1802.800;  244.350;    0.000
675.755; 1798.800;  265.350;    0.000
675.866; 1827.800;  281.350;    0.000
675.978; 1765.800;  266.350;    0.000
676.090; 1798.800;  267.350;    0.000
676.201; 1774.800;  265.350;    0.000
676.313; 1794.800;  222.350;    0.000
676.425; 1901.800;  248.350;    0.000
676.536; 1790.800;  234.350;    0.000
676.648; 1782.800;  261.350;    0.000
676.759; 1764.800;  280.350;    0.000
676.871; 1726.800;  260.350;    0.000
676.983; 1818.800;  277.350;    0.000
677.094; 1734.800;  252.350;    0.000
677.206; 1858.800;  238.350;    0.000
677.317; 1761.800;  269.350;    0.000
677.429; 1756.800;  245.350;    0.000
677.540; 1778.800;  244.350;    0.000
677.651; 1706.800;  225.350;    0.000
677.763; 1768.800;  216.350;    0.000
677.874; 1732.800;  226.350;    0.000
677.986; 1701.800;  234.350;    0.000
678.097; 1688.800;  237.350;    0.000
678.208; 1764.800;  278.350;    0.000
678.320; 1767.800;  243.350;    0.000
678.431; 1661.800;  248.350;    0.000
678.542; 1782.800;  240.350;    0.000
678.653; 1715.800;  250.350;    0.000
678.765; 1713.800;  258.350;    0.000
678.876; 1669.800;  221.350;    0.000
678.987; 1678.800;  229.350;    0.000
679.098; 1706.800;  233.350;    0.000
679.209; 1683.800;  274.350;    0.000
679.320; 1626.800;  216.350;    0.000
679.432; 1722.800;  246.350;    0.000
679.543; 1652.800;  226.350;    0.000
679.654; 1630.800;  232.350;    0.000
679.765; 1709.800;  246.350;    0.000
679.876; 1660.800;  263.350;    0.000
679.987; 1582.800;  216.350;    0.000
680.098; 1633.800;  262.350;    0.000
680.209; 1750.800;  219.350;    0.000
680.320; 1700.800;  232.350;    0.000
680.431; 1633.800;  261.350;    0.000
680.542; 1598.800;  219.350;    0.000
680.653; 1722.800;  238.350;    0.000
680.763; 1576.800;  191.350;    0.000
680.874; 1631.800;  267.350;    0.000
680.985; 1564.800;  240.350;    0.000
681.096; 1590.800;  251.350;    0.000
681.207; 1778.800;  232.350;    0.000
681.318; 1701.800;  211.350;    0.000
681.428; 1731.800;  233.350;    0.000
681.539; 1537.800;  197.350;    0.000
681.650; 1540.800;  197.350;    0.000
681.760; 1678.800;  243.350;    0.000
681.871; 1622.800;  245.350;    0.000
681.982; 1633.800;  218.350;    0.000
682.093; 1590.800;  262.350;    0.000
682.203; 1653.800;  250.350;    0.000
682.314; 1674.800;  239.350;    0.000
682.424; 1666.800;  250.350;    0.000
682.535; 1566.800;  206.350;    0.000
682.646; 1648.800;  302.350;    0.000
682.756; 1656.800;  258.350;    0.000
682.867; 1642.800;  265.350;    0.000
682.977; 1582.800;  218.350;    0.000
683.088; 1644.800;  264.350;    0.000
683.198; 1647.800;  236.350;    0.000
683.308; 1627.800;  246.350;    0.000
683.419; 1592.800;  296.350;    0.000
683.529; 1672.800;  242.350;    0.000
683.640; 1599.800;  245.350;    0.000
683.750; 1635.800;  213.350;    0.000
683.860; 1631.800;  256.350;    0.000
683.971; 1601.800;  251.350;    0.000
684.081; 1635.800;  232.350;    0.000
684.191; 1675.800;  252.350;    0.000
684.301; 1613.800;  214.350;    0.000
684.412; 1627.800;  261.350;    0.000
684.522; 1606.800;  243.350;    0.000
684.632; 1661.800;  257.350;    0.000
684.742; 1729.800;  271.350;    0.000
684.852; 1638.800;  258.350;    0.000
684.963; 1633.800;  262.350;    0.000
685.073; 1584.800;  219.350;    0.000
685.183; 1600.800;  270.350;    0.000
685.293; 1638.800;  233.350;    0.000
685.403; 1680.800;  274.350;    0.000
685.513; 1610.800;  280.350;    0.000
685.623; 1643.800;  267.350;    0.000
685.733; 1595.800;  274.350;    0.000
685.843; 1650.800;  274.350;    0.000
685.953; 1533.800;  244.350;    0.000
686.063; 1586.800;  261.350;    0.000
686.173; 1673.800;  283.350;    0.000
686.283; 1657.800;  260.350;    0.000
686.393; 1620.800;  256.350;    0.000
686.503; 1574.800;  295.350;    0.000
686.612; 1698.800;  294.350;    0.000
686.722; 1662.800;  263.350;    0.000
686.832; 1614.800;  291.350;    0.000
686.942; 1563.800;  229.350;    0.000
687.052; 1666.800;  241.350;    0.000
687.161; 1632.800;  304.350;    0.000
687.271; 1586.800;  223.350;    0.000
687.381; 1630.800;  273.350;    0.000
687.491; 1575.800;  246.350;    0.000
687.600; 1652.800;  242.350;    0.000
687.710; 1549.800;  225.350;    0.000
687.820; 1586.800;  259.350;    0.000
687.929; 1620.800;  232.350;    0.000
688.039; 1651.800;  248.350;    0.000
688.148; 1505.800;  250.350;    0.000
688.258; 1598.800;  240.350;    0.000
688.367; 1596.800;  253.350;    0.000
688.477; 1619.800;  229.350;    0.000
688.586; 1613.800;  259.350;    0.000
688.696; 1594.800;  250.350;    0.000
688.805; 1624.800;  279.350;    0.000
688.915; 1521.800;  250.350;    0.000
689.024; 1541.800;  240.350;    0.000
689.134; 1596.800;  269.350;    0.000
689.243; 1526.800;  214.350;    0.000
689.352; 1691.800;  257.350;    0.000
689.462; 1630.800;  248.350;    0.000
689.571; 1540.800;  233.350;    0.000
689.680; 1595.800;  236.350;    0.000
689.790; 1602.800;  238.350;    0.000
689.899; 1637.800;  232.350;    0.000
690.008; 1552.800;  259.350;    0.000
690.117; 1497.800;  254.350;    0.000
690.227; 1507.800;  251.350;    0.000
690.336; 1670.800;  240.350;    0.000
690.445; 1560.800;  235.350;    0.000
690.554; 1597.800;  243.350;    0.000
690.663; 1568.800;  214.350;    0.000
690.772; 1549.800;  247.350;    0.000
690.881; 1584.800;  249.350;    0.000
690.990; 1593.800;  265.350;    0.000
691.099; 1544.800;  217.350;    0.000
691.209; 1553.800;  272.350;    0.000
691.318; 1618.800;  223.350;    0.000
691.427; 1605.800;  212.350;    0.000
691.536; 1646.800;  260.350;    0.000
691.644; 1541.800;  246.350;    0.000
691.753; 1588.800;  251.350;    0.000
691.862; 1656.800;  239.350;    0.000
691.971; 1500.800;  253.350;    0.000
692.080; 1546.800;  255.350;    0.000
692.189; 1566.800;  228.350;    0.000
692.298; 1519.800;  243.350;    0.000
692.406; 1549.800;  269.350;    0.000
692.515; 1565.800;  254.350;    0.000
692.624; 1484.800;  225.350;    0.000
692.733; 1524.800;  245.350;    0.000
692.842; 1607.800;  259.350;    0.000
692.950; 1588.800;  226.350;    0.000
693.059; 1480.800;  216.350;    0.000
693.168; 1567.800;  266.350;    0.000
693.276; 1551.800;  236.350;    0.000
693.385; 1519.800;  257.350;    0.000
693.494; 1591.800;  268.350;    0.000
693.602; 1511.800;  239.350;    0.000
693.711; 1561.800;  224.350;    0.000
693.819; 1555.800;  263.350;    0.000
693.928; 1585.800;  270.350;    0.000
694.036; 1541.800;  247.350;    0.000
694.145; 1555.800;  261.350;    0.000
694.253; 1612.800;  261.350;    0.000
694.362; 1563.800;  253.350;    0.000
694.470; 1576.800;  270.350;    0.000
694.579; 1520.800;  233.350;    0.000
694.687; 1521.800;  260.350;    0.000
694.795; 1569.800;  228.350;    0.000
694.904; 1573.800;  228.350;    0.000
695.012; 1589.800;  288.350;    0.000
695.120; 1635.800;  230.350;    0.000
695.229; 1612.800;  287.350;    0.000
695.337; 1522.800;  249.350;    0.000
695.445; 1634.800;  283.350;    0.000
695.553; 1538.800;  251.350;    0.000
695.662; 1565.800;  236.350;    0.000
695.770; 1505.800;  267.350;    0.000
695.878; 1574.800;  268.350;    0.000
695.986; 1638.800;  297.350;    0.000
696.094; 1552.800;  275.350;    0.000
696.202; 1582.800;  201.350;    0.000
696.310; 1548.800;  283.350;    0.000
696.419; 1586.800;  261.350;    0.000
696.527; 1550.800;  252.350;    0.000
696.635; 1611.800;  249.350;    0.000
696.743; 1528.800;  236.350;    0.000
696.851; 1565.800;  241.350;    0.000
696.959; 1586.800;  278.350;    0.000
697.067; 1492.800;  239.350;    0.000
697.174; 1511.800;  260.350;    0.000
697.282; 1579.800;  259.350;    0.000
697.390; 1634.800;  302.350;    0.000
697.498; 1576.800;  216.350;    0.000
697.606; 1583.800;  245.350;    0.000
697.714; 1589.800;  279.350;    0.000
697.822; 1651.800;  267.350;    0.000
697.929; 1504.800;  234.350;    0.000
698.037; 1537.800;  255.350;    0.000
698.145; 1573.800;  226.350;    0.000
698.253; 1518.800;  261.350;    0.000
698.360; 1573.800;  299.350;    0.000
698.468; 1603.800;  254.350;    0.000
698.576; 1594.800;  307.350;    0.000
698.683; 1548.800;  280.350;    0.000
698.791; 1504.800;  284.350;    0.000
698.899; 1618.800;  279.350;    0.000
699.006; 1645.800;  264.350;    0.000
699.114; 1620.800;  263.350;    0.000
699.221; 1557.800;  291.350;    0.000
699.329; 1567.800;  309.350;    0.000
699.436; 1630.800;  261.350;    0.000
699.544; 1484.800;  259.350;    0.000
699.651; 1555.800;  251.350;    0.000
699.759; 1528.800;  251.350;    0.000
699.866; 1541.800;  266.350;    0.000
699.974; 1418.800;  264.350;    0.000
700.081; 1557.800;  295.350;    0.000
700.188; 1513.800;  293.350;    0.000
700.296; 1609.800;  233.350;    0.000
700.403; 1530.800;  290.350;    0.000
700.510; 1504.800;  275.350;    0.000
700.618; 1536.800;  273.350;    0.000
700.725; 1522.800;  262.350;    0.000
700.832; 1500.800;  250.350;    0.000
700.940; 1610.800;  300.350;    0.000
701.047; 1539.800;  245.350;    0.000
701.154; 1537.800;  280.350;    0.000
701.261; 1546.800;  270.350;    0.000
701.368; 1543.800;  286.350;    0.000
701.475; 1494.800;  301.350;    0.000
701.582; 1521.800;  286.350;    0.000
701.690; 1484.800;  279.350;    0.000
701.797; 1504.800;  292.350;    0.000
701.904; 1547.800;  314.350;    0.000
702.011; 1550.800;  340.350;    0.000
702.118; 1508.800;  276.350;    0.000
702.225; 1595.800;  351.350;    0.000
702.332; 1563.800;  301.350;    0.000
702.439; 1475.800;  334.350;    0.000
702.546; 1594.800;  325.350;    0.000
702.652; 1585.800;  343.350;    0.000
702.759; 1521.800;  339.350;    0.000
702.866; 1591.800;  344.350;    0.000
702.973; 1623.800;  330.350;    0.000
703.080; 1566.800;  322.350;    0.000
703.187; 1558.800;  327.350;    0.000
703.294; 1564.800;  339.350;    0.000
703.400; 1475.800;  325.350;    0.000
703.507;  471.800;  372.350;    0.000
703.614;  338.800;  348.350;    0.000
703.720;  322.800;  333.350;    0.000
703.827;  301.800;  331.350;    0.000
703.934;  325.800;  330.350;    0.000
704.040;  329.800;  327.350;    0.000
704.147;  364.800;  327.350;    0.000
704.254;  352.800;  354.350;    0.000
704.360;  308.800;  337.350;    0.000
704.467;  346.800;  370.350;    0.000
704.573;  318.800;  367.350;    0.000
704.680;  335.800;  339.350;    0.000
704.786;  317.800;  356.350;    0.000
704.893;  319.800;  352.350;    0.000
704.999;  324.800;  332.350;    0.000
705.106;  388.800;  359.350;    0.000

