
Integration time [ms]:   0.300
Averaging Nr. [scans]: 1
Smoothing Nr. [pixels]: 0
Data measured with spectrometer [name]: NIR
Wave   ;Sample   ;Dark     ;Reference
[nm]   ;[counts] ;[counts] ;[counts] 

691.496;   54.925;  102.875;    0.000
691.696;   47.925;  181.875;    0.000
691.896;   -0.075;  138.875;    0.000
692.096;   61.925;  182.875;    0.000
692.296;  -22.075;  145.875;    0.000
692.496;   58.925;  154.875;    0.000
692.695;   -3.075;  108.875;    0.000
692.895;   76.925;  176.875;    0.000
693.095;   47.925;  138.875;    0.000
693.295;   57.925;  192.875;    0.000
693.495;   64.925;  170.875;    0.000
693.695;   87.925;  147.875;    0.000
693.894;    9.925;  191.875;    0.000
694.094;   40.925;  148.875;    0.000
694.294;    5.925;  147.875;    0.000
694.494;  195.925;  140.875;    0.000
694.693; 1744.925;  137.875;    0.000
694.893; 1925.925;  141.875;    0.000
695.093; 1943.925;  105.875;    0.000
695.293; 1973.925;  115.875;    0.000
695.492; 2038.925;   81.875;    0.000
695.692; 1921.925;  162.875;    0.000
695.891; 2123.925;  162.875;    0.000
696.091; 2130.925;  166.875;    0.000
696.291; 2103.925;  143.875;    0.000
696.490; 2142.925;  170.875;    0.000
696.690; 1983.925;  142.875;    0.000
696.889; 2072.925;  186.875;    0.000
697.089; 2064.925;  120.875;    0.000
697.288; 2132.925;  215.875;    0.000
697.488; 2112.925;  178.875;    0.000
697.687; 2024.925;  170.875;    0.000
697.887; 2009.925;  140.875;    0.000
698.086; 2037.925;  131.875;    0.000
698.286; 2005.925;  117.875;    0.000
698.485; 2057.925;  136.875;    0.000
698.684; 2083.925;  126.875;    0.000
698.884; 2131.925;  161.875;    0.000
699.083; 2081.925;   95.875;    0.000
699.282; 2101.925;  120.875;    0.000
699.482; 2181.925;  131.875;    0.000
699.681; 2008.925;  168.875;    0.000
699.880; 2142.925;  154.875;    0.000
700.080; 2087.925;  149.875;    0.000
700.279; 2039.925;   99.875;    0.000
700.478; 2145.925;  157.875;    0.000
700.677; 2135.925;  111.875;    0.000
700.877; 2020.925;  126.875;    0.000
701.076; 2180.925;  142.875;    0.000
701.275; 2118.925;  107.875;    0.000
701.474; 2095.925;   72.875;    0.000
701.673; 2146.925;   87.875;    0.000
701.872; 2093.925;  170.875;    0.000
702.071; 2085.925;  136.875;    0.000
702.271; 2168.925;  121.875;    0.000
702.470; 2152.925;  139.875;    0.000
702.669; 2128.925;  121.875;    0.000
702.868; 2261.925;  146.875;    0.000
703.067; 2131.925;  159.875;    0.000
703.266; 2323.925;  122.875;    0.000
703.465; 2221.925;  121.875;    0.000
703.664; 2259.925;  144.875;    0.000
703.863; 2171.925;  140.875;    0.000
704.062; 2176.925;  109.875;    0.000
704.260; 2218.925;  164.875;    0.000
704.459; 2255.925;  124.875;    0.000
704.658; 2134.925;  109.875;    0.000
704.857; 2190.925;  149.875;    0.000
705.056; 2073.925;  112.875;    0.000
705.255; 2050.925;   95.875;    0.000
705.454; 2216.925;  105.875;    0.000
705.652; 2172.925;  134.875;    0.000
705.851; 2222.925;   92.875;    0.000
706.050; 2383.925;  127.875;    0.000
706.249; 2178.925;  111.875;    0.000
706.447; 2215.925;   98.875;    0.000
706.646; 2167.925;  108.875;    0.000
706.845; 2468.925;   95.875;    0.000
707.043; 2316.925;   95.875;    0.000
707.242; 2168.925;   97.875;    0.000
707.441; 2314.925;  142.875;    0.000
707.639; 2274.925;  121.875;    0.000
707.838; 2217.925;  141.875;    0.000
708.037; 2245.925;  125.875;    0.000
708.235; 2289.925;  100.875;    0.000
708.434; 2208.925;  106.875;    0.000
708.632; 2188.925;   86.875;    0.000
708.831; 2389.925;  138.875;    0.000
709.029; 2195.925;   86.875;    0.000
709.228; 2321.925;  103.875;    0.000
709.426; 2331.925;  146.875;    0.000
709.625; 2229.925;  136.875;    0.000
709.823; 2191.925;  114.875;    0.000
710.022; 2184.925;  144.875;    0.000
710.220; 2281.925;  109.875;    0.000
710.418; 2410.925;  116.875;    0.000
710.617; 2175.925;   67.875;    0.000
710.815; 2336.925;  104.875;    0.000
711.013; 2353.925;  109.875;    0.000
711.212; 2323.925;  106.875;    0.000
711.410; 2378.925;   95.875;    0.000
711.608; 2226.925;  155.875;    0.000
711.807; 2387.925;  103.875;    0.000
712.005; 2267.925;  104.875;    0.000
712.203; 2352.925;   94.875;    0.000
712.401; 2314.925;  125.875;    0.000
712.599; 2338.925;  127.875;    0.000
712.798; 2432.925;  141.875;    0.000
712.996; 2160.925;   85.875;    0.000
713.194; 2449.925;   96.875;    0.000
713.392; 2330.925;   54.875;    0.000
713.590; 2412.925;  123.875;    0.000
713.788; 2331.925;  130.875;    0.000
713.986; 2295.925;  104.875;    0.000
714.184; 2431.925;   91.875;    0.000
714.382; 2510.925;  120.875;    0.000
714.580; 2357.925;   71.875;    0.000
714.778; 2524.925;   92.875;    0.000
714.976; 2366.925;  129.875;    0.000
715.174; 2512.925;   99.875;    0.000
715.372; 2670.925;  119.875;    0.000
715.570; 2849.925;   95.875;    0.000
715.768; 3115.925;  113.875;    0.000
715.966; 3062.925;   64.875;    0.000
716.164; 3001.925;  135.875;    0.000
716.362; 3016.925;  125.875;    0.000
716.560; 2883.925;  135.875;    0.000
716.758; 2688.925;   84.875;    0.000
716.955; 2688.925;  109.875;    0.000
717.153; 2733.925;   73.875;    0.000
717.351; 2655.925;  110.875;    0.000
717.549; 2618.925;  149.875;    0.000
717.746; 2695.925;  121.875;    0.000
717.944; 2625.925;  128.875;    0.000
718.142; 2675.925;  124.875;    0.000
718.340; 2568.925;   96.875;    0.000
718.537; 2750.925;  138.875;    0.000
718.735; 2696.925;  144.875;    0.000
718.933; 2607.925;   97.875;    0.000
719.130; 2698.925;  109.875;    0.000
719.328; 2613.925;  123.875;    0.000
719.525; 2548.925;  118.875;    0.000
719.723; 2539.925;  117.875;    0.000
719.920; 2542.925;   72.875;    0.000
720.118; 2582.925;   92.875;    0.000
720.316; 2669.925;  141.875;    0.000
720.513; 2629.925;   98.875;    0.000
720.711; 2522.925;  146.875;    0.000
720.908; 2604.925;  113.875;    0.000
721.105; 2516.925;  157.875;    0.000
721.303; 2597.925;  106.875;    0.000
721.500; 2511.925;   88.875;    0.000
721.698; 2522.925;   88.875;    0.000
721.895; 2583.925;   94.875;    0.000
722.092; 2559.925;   82.875;    0.000
722.290; 2643.925;  136.875;    0.000
722.487; 2540.925;   67.875;    0.000
722.684; 2762.925;  115.875;    0.000
722.882; 2674.925;  104.875;    0.000
723.079; 2618.925;  122.875;    0.000
723.276; 2582.925;   91.875;    0.000
723.473; 2585.925;   89.875;    0.000
723.671; 2756.925;   97.875;    0.000
723.868; 2646.925;  117.875;    0.000
724.065; 2740.925;  102.875;    0.000
724.262; 2602.925;  137.875;    0.000
724.459; 2647.925;   48.875;    0.000
724.656; 2539.925;  122.875;    0.000
724.854; 2730.925;   96.875;    0.000
725.051; 2777.925;  120.875;    0.000
725.248; 2652.925;  146.875;    0.000
725.445; 2528.925;  117.875;    0.000
725.642; 2602.925;  106.875;    0.000
725.839; 2682.925;  143.875;    0.000
726.036; 2595.925;   79.875;    0.000
726.233; 2695.925;   90.875;    0.000
726.430; 2661.925;  124.875;    0.000
726.627; 2680.925;   98.875;    0.000
726.824; 2706.925;   91.875;    0.000
727.021; 2720.925;  131.875;    0.000
727.218; 2504.925;  110.875;    0.000
727.414; 2899.925;   83.875;    0.000
727.611; 2613.925;   86.875;    0.000
727.808; 2602.925;  131.875;    0.000
728.005; 2683.925;  105.875;    0.000
728.202; 2661.925;  128.875;    0.000
728.399; 2700.925;  113.875;    0.000
728.595; 2703.925;  102.875;    0.000
728.792; 2644.925;   91.875;    0.000
728.989; 2590.925;  122.875;    0.000
729.186; 2733.925;  103.875;    0.000
729.382; 2795.925;  106.875;    0.000
729.579; 2758.925;  114.875;    0.000
729.776; 2727.925;  115.875;    0.000
729.972; 2666.925;  108.875;    0.000
730.169; 2791.925;  111.875;    0.000
730.366; 2718.925;  100.875;    0.000
730.562; 2636.925;   86.875;    0.000
730.759; 2758.925;   93.875;    0.000
730.955; 2702.925;  127.875;    0.000
731.152; 2760.925;   99.875;    0.000
731.348; 2720.925;   97.875;    0.000
731.545; 2725.925;   98.875;    0.000
731.741; 2924.925;  130.875;    0.000
731.938; 2796.925;  115.875;    0.000
732.134; 2763.925;  107.875;    0.000
732.331; 2769.925;   80.875;    0.000
732.527; 2797.925;  108.875;    0.000
732.724; 2759.925;  104.875;    0.000
732.920; 2869.925;  109.875;    0.000
733.116; 2776.925;  117.875;    0.000
733.313; 2879.925;   81.875;    0.000
733.509; 2871.925;   87.875;    0.000
733.705; 2674.925;  143.875;    0.000
733.902; 2733.925;   74.875;    0.000
734.098; 2851.925;   90.875;    0.000
734.294; 2744.925;  104.875;    0.000
734.490; 2752.925;  139.875;    0.000
734.687; 2844.925;  113.875;    0.000
734.883; 2643.925;   72.875;    0.000
735.079; 2860.925;  100.875;    0.000
735.275; 2809.925;  113.875;    0.000
735.471; 2665.925;   55.875;    0.000
735.667; 2719.925;  106.875;    0.000
735.863; 2838.925;  131.875;    0.000
736.060; 2929.925;  127.875;    0.000
736.256; 2945.925;   76.875;    0.000
736.452; 2811.925;  127.875;    0.000
736.648; 2932.925;  136.875;    0.000
736.844; 2840.925;  113.875;    0.000
737.040; 3005.925;  125.875;    0.000
737.236; 2881.925;   99.875;    0.000
737.432; 3004.925;   75.875;    0.000
737.628; 2837.925;  155.875;    0.000
737.824; 3035.925;  116.875;    0.000
738.019; 2759.925;   92.875;    0.000
738.215; 2855.925;  113.875;    0.000
738.411; 2881.925;  135.875;    0.000
738.607; 2911.925;   53.875;    0.000
738.803; 3000.925;   79.875;    0.000
738.999; 2958.925;  117.875;    0.000
739.195; 2966.925;  106.875;    0.000
739.390; 2945.925;  125.875;    0.000
739.586; 2972.925;  102.875;    0.000
739.782; 2919.925;  125.875;    0.000
739.978; 2994.925;  124.875;    0.000
740.173; 3134.925;   96.875;    0.000
740.369; 3017.925;  118.875;    0.000
740.565; 3039.925;  128.875;    0.000
740.760; 3016.925;  118.875;    0.000
740.956; 3036.925;  109.875;    0.000
741.152; 3056.925;  151.875;    0.000
741.347; 3087.925;  112.875;    0.000
741.543; 3156.925;  113.875;    0.000
741.738; 3413.925;  128.875;    0.000
741.934; 3329.925;  144.875;    0.000
742.129; 3583.925;  105.875;    0.000
742.325; 3982.925;  137.875;    0.000
742.520; 4479.925;  128.875;    0.000
742.716; 4035.925;  121.875;    0.000
742.911; 3905.925;   75.875;    0.000
743.107; 3850.925;  100.875;    0.000
743.302; 3694.925;   72.875;    0.000
743.498; 3904.925;  137.875;    0.000
743.693; 3644.925;  124.875;    0.000
743.888; 4115.925;  121.875;    0.000
744.084; 4608.925;   93.875;    0.000
744.279; 5942.925;   75.875;    0.000
744.474; 6047.925;  136.875;    0.000
744.670; 5187.925;  109.875;    0.000
744.865; 4520.925;  142.875;    0.000
745.060; 4203.925;   84.875;    0.000
745.255; 4208.925;  149.875;    0.000
745.451; 4206.925;  101.875;    0.000
745.646; 4030.925;  132.875;    0.000
745.841; 3929.925;  126.875;    0.000
746.036; 4040.925;  125.875;    0.000
746.231; 4067.925;  150.875;    0.000
746.426; 4274.925;  118.875;    0.000
746.622; 5294.925;  135.875;    0.000
746.817; 6543.925;  122.875;    0.000
747.012; 7713.925;  134.875;    0.000
747.207; 6910.925;  124.875;    0.000
747.402; 5664.925;  122.875;    0.000
747.597; 5240.925;   95.875;    0.000
747.792; 5088.925;  168.875;    0.000
747.987; 4823.925;  110.875;    0.000
748.182; 4600.925;  119.875;    0.000
748.377; 4505.925;   70.875;    0.000
748.572; 4207.925;  113.875;    0.000
748.767; 3921.925;  123.875;    0.000
748.961; 3990.925;  110.875;    0.000
749.156; 4139.925;  135.875;    0.000
749.351; 3773.925;   98.875;    0.000
749.546; 3966.925;  126.875;    0.000
749.741; 3539.925;  129.875;    0.000
749.936; 3692.925;   86.875;    0.000
750.130; 3596.925;   97.875;    0.000
750.325; 3763.925;  110.875;    0.000
750.520; 3564.925;  120.875;    0.000
750.715; 3878.925;  122.875;    0.000
750.909; 3679.925;  120.875;    0.000
751.104; 3509.925;  118.875;    0.000
751.299; 3722.925;  122.875;    0.000
751.493; 3553.925;  129.875;    0.000
751.688; 3646.925;  138.875;    0.000
751.882; 3444.925;   87.875;    0.000
752.077; 3587.925;  142.875;    0.000
752.272; 3566.925;  110.875;    0.000
752.466; 3481.925;  154.875;    0.000
752.661; 3412.925;   96.875;    0.000
752.855; 3397.925;   93.875;    0.000
753.050; 3304.925;  122.875;    0.000
753.244; 3394.925;  110.875;    0.000
753.439; 3381.925;  116.875;    0.000
753.633; 3441.925;  131.875;    0.000
753.828; 3269.925;  130.875;    0.000
754.022; 3213.925;   96.875;    0.000
754.216; 3220.925;  114.875;    0.000
754.411; 3327.925;  145.875;    0.000
754.605; 3237.925;   65.875;    0.000
754.799; 3201.925;  116.875;    0.000
754.994; 3263.925;  117.875;    0.000
755.188; 3297.925;  124.875;    0.000
755.382; 3328.925;   80.875;    0.000
755.576; 3329.925;   90.875;    0.000
755.771; 3399.925;  115.875;    0.000
755.965; 3302.925;  106.875;    0.000
756.159; 3163.925;   87.875;    0.000
756.353; 3263.925;  125.875;    0.000
756.547; 3233.925;  146.875;    0.000
756.742; 3092.925;  111.875;    0.000
756.936; 3146.925;  108.875;    0.000
757.130; 3170.925;  101.875;    0.000
757.324; 3316.925;  114.875;    0.000
757.518; 3211.925;  136.875;    0.000
757.712; 3281.925;  123.875;    0.000
757.906; 3292.925;  115.875;    0.000
758.100; 3314.925;  186.875;    0.000
758.294; 3345.925;  118.875;    0.000
758.488; 3176.925;  167.875;    0.000
758.682; 3115.925;  137.875;    0.000
758.876; 3205.925;  135.875;    0.000
759.070; 3104.925;  132.875;    0.000
759.264; 3301.925;  118.875;    0.000
759.458; 3157.925;  111.875;    0.000
759.651; 3092.925;  142.875;    0.000
759.845; 3043.925;  105.875;    0.000
760.039; 3307.925;   73.875;    0.000
760.233; 3315.925;  156.875;    0.000
760.427; 3215.925;  119.875;    0.000
760.620; 3085.925;  136.875;    0.000
760.814; 3146.925;  126.875;    0.000
761.008; 3162.925;  126.875;    0.000
761.202; 3256.925;  123.875;    0.000
761.395; 3350.925;  141.875;    0.000
761.589; 3185.925;  107.875;    0.000
761.783; 3188.925;  122.875;    0.000
761.976; 3294.925;  120.875;    0.000
762.170; 3261.925;  147.875;    0.000
762.363; 3148.925;  144.875;    0.000
762.557; 3265.925;  119.875;    0.000
762.750; 3261.925;  118.875;    0.000
762.944; 3252.925;  145.875;    0.000
763.138; 3289.925;  123.875;    0.000
763.331; 3165.925;  129.875;    0.000
763.524; 3327.925;  109.875;    0.000
763.718; 3349.925;  150.875;    0.000
763.911; 3285.925;  140.875;    0.000
764.105; 3315.925;   97.875;    0.000
764.298; 3135.925;  128.875;    0.000
764.492; 3414.925;  132.875;    0.000
764.685; 3337.925;   92.875;    0.000
764.878; 3155.925;  111.875;    0.000
765.072; 3320.925;  116.875;    0.000
765.265; 3292.925;  135.875;    0.000
765.458; 3228.925;   69.875;    0.000
765.651; 3137.925;  145.875;    0.000
765.845; 3210.925;   95.875;    0.000
766.038; 3285.925;  147.875;    0.000
766.231; 3581.925;  119.875;    0.000
766.424; 5001.925;  126.875;    0.000
766.617; 5673.925;   92.875;    0.000
766.811; 3650.925;  109.875;    0.000
767.004; 3209.925;  107.875;    0.000
767.197; 3285.925;  171.875;    0.000
767.390; 3237.925;  114.875;    0.000
767.583; 3229.925;  109.875;    0.000
767.776; 3390.925;  130.875;    0.000
767.969; 3305.925;  103.875;    0.000
768.162; 3265.925;  139.875;    0.000
768.355; 3349.925;  142.875;    0.000
768.548; 3443.925;  140.875;    0.000
768.741; 3350.925;   82.875;    0.000
768.934; 3407.925;  107.875;    0.000
769.127; 3405.925;  121.875;    0.000
769.320; 3399.925;  106.875;    0.000
769.513; 3544.925;  145.875;    0.000
769.706; 3694.925;  120.875;    0.000
769.898; 4968.925;  135.875;    0.000
770.091; 4427.925;  146.875;    0.000
770.284; 3528.925;  108.875;    0.000
770.477; 3557.925;  148.875;    0.000
770.670; 3582.925;  163.875;    0.000
770.862; 3677.925;   97.875;    0.000
771.055; 3458.925;  116.875;    0.000
771.248; 3473.925;  143.875;    0.000
771.441; 3461.925;  125.875;    0.000
771.633; 3530.925;  125.875;    0.000
771.826; 3729.925;  132.875;    0.000
772.018; 3722.925;  123.875;    0.000
772.211; 3733.925;  143.875;    0.000
772.404; 3713.925;  144.875;    0.000
772.596; 3674.925;  130.875;    0.000
772.789; 3911.925;  109.875;    0.000
772.981; 3922.925;  151.875;    0.000
773.174; 3795.925;  119.875;    0.000
773.366; 3899.925;  179.875;    0.000
773.559; 4032.925;  106.875;    0.000
773.751; 4382.925;  120.875;    0.000
773.944; 4054.925;  159.875;    0.000
774.136; 4246.925;  131.875;    0.000
774.329; 4270.925;  141.875;    0.000
774.521; 4299.925;  114.875;    0.000
774.713; 4712.925;  169.875;    0.000
774.906; 4688.925;  151.875;    0.000
775.098; 4848.925;   99.875;    0.000
775.290; 4986.925;  166.875;    0.000
775.483; 5230.925;  146.875;    0.000
775.675; 5617.925;  106.875;    0.000
775.867; 5881.925;   91.875;    0.000
776.059; 6129.925;  137.875;    0.000
776.251; 7210.925;  124.875;    0.000
776.444; 7810.925;  168.875;    0.000
776.636; 9097.925;  138.875;    0.000
776.828;11265.925;  155.875;    0.000
777.020;16523.926;  160.875;    0.000
777.212;25454.926;  153.875;    0.000
777.404;29580.926;  135.875;    0.000
777.596;27077.926;  144.875;    0.000
777.788;19535.926;  127.875;    0.000
777.980;14032.925;  141.875;    0.000
778.172;11516.925;  138.875;    0.000
778.364; 9499.925;  143.875;    0.000
778.556; 8329.925;  123.875;    0.000
778.748; 7856.925;  103.875;    0.000
778.940; 6931.925;  176.875;    0.000
779.132; 6543.925;  144.875;    0.000
779.324; 5874.925;   75.875;    0.000
779.516; 5671.925;  117.875;    0.000
779.708; 5319.925;  151.875;    0.000
779.900; 5292.925;  127.875;    0.000
780.091; 4906.925;  155.875;    0.000
780.283; 4766.925;  157.875;    0.000
780.475; 4506.925;  140.875;    0.000
780.667; 4594.925;  141.875;    0.000
780.859; 4397.925;  113.875;    0.000
781.050; 4178.925;  153.875;    0.000
781.242; 4196.925;  118.875;    0.000
781.434; 3966.925;  121.875;    0.000
781.625; 4156.925;  146.875;    0.000
781.817; 3915.925;  154.875;    0.000
782.008; 3908.925;  144.875;    0.000
782.200; 3801.925;  152.875;    0.000
782.392; 3680.925;  160.875;    0.000
782.583; 3813.925;  122.875;    0.000
782.775; 3748.925;  144.875;    0.000
782.966; 3729.925;  143.875;    0.000
783.158; 3569.925;  125.875;    0.000
783.349; 3651.925;  173.875;    0.000
783.541; 3415.925;  166.875;    0.000
783.732; 3593.925;  163.875;    0.000
783.924; 3457.925;  157.875;    0.000
784.115; 3455.925;  158.875;    0.000
784.306; 3528.925;  160.875;    0.000
784.498; 3764.925;  132.875;    0.000
784.689; 3415.925;  181.875;    0.000
784.880; 3577.925;  156.875;    0.000
785.072; 3510.925;  134.875;    0.000
785.263; 3313.925;  155.875;    0.000
785.454; 3443.925;  141.875;    0.000
785.645; 3438.925;  114.875;    0.000
785.837; 3343.925;  137.875;    0.000
786.028; 3238.925;  158.875;    0.000
786.219; 3323.925;  135.875;    0.000
786.410; 3308.925;  152.875;    0.000
786.601; 3306.925;  132.875;    0.000
786.792; 3328.925;  152.875;    0.000
786.984; 3360.925;  162.875;    0.000
787.175; 3416.925;   97.875;    0.000
787.366; 3249.925;  129.875;    0.000
787.557; 3246.925;  135.875;    0.000
787.748; 3191.925;  127.875;    0.000
787.939; 3305.925;  152.875;    0.000
788.130; 3243.925;  182.875;    0.000
788.321; 3365.925;  130.875;    0.000
788.512; 3328.925;  161.875;    0.000
788.703; 3344.925;  127.875;    0.000
788.894; 3389.925;  121.875;    0.000
789.084; 3276.925;  134.875;    0.000
789.275; 3363.925;  108.875;    0.000
789.466; 3191.925;  152.875;    0.000
789.657; 3315.925;  115.875;    0.000
789.848; 3325.925;  150.875;    0.000
790.039; 3351.925;  132.875;    0.000
790.229; 3256.925;  169.875;    0.000
790.420; 3388.925;  159.875;    0.000
790.611; 3158.925;  123.875;    0.000
790.801; 3325.925;  144.875;    0.000
790.992; 3406.925;  177.875;    0.000
791.183; 3273.925;  128.875;    0.000
791.373; 3211.925;  123.875;    0.000
791.564; 3184.925;  131.875;    0.000
791.755; 3311.925;  103.875;    0.000
791.945; 3370.925;  104.875;    0.000
792.136; 3273.925;  115.875;    0.000
792.326; 3424.925;   99.875;    0.000
792.517; 3307.925;  139.875;    0.000
792.707; 3372.925;  155.875;    0.000
792.898; 3302.925;  139.875;    0.000
793.088; 3549.925;  153.875;    0.000
793.279; 3481.925;  137.875;    0.000
793.469; 3630.925;  109.875;    0.000
793.660; 3531.925;  119.875;    0.000
793.850; 3686.925;  119.875;    0.000
794.040; 3907.925;  132.875;    0.000
794.231; 3981.925;  122.875;    0.000
794.421; 4274.925;  124.875;    0.000
794.611; 4712.925;  151.875;    0.000
794.802; 5632.925;  121.875;    0.000
794.992; 6176.925;  139.875;    0.000
795.182; 6075.925;  132.875;    0.000
795.372; 5494.925;  149.875;    0.000
795.563; 5023.925;  153.875;    0.000
795.753; 4675.925;  120.875;    0.000
795.943; 4399.925;  121.875;    0.000
796.133; 4020.925;   97.875;    0.000
796.323; 4128.925;  122.875;    0.000
796.513; 3702.925;  142.875;    0.000
796.703; 3896.925;  125.875;    0.000
796.893; 3716.925;  126.875;    0.000
797.083; 3539.925;  150.875;    0.000
797.273; 3703.925;  108.875;    0.000
797.463; 3640.925;  156.875;    0.000
797.653; 3485.925;   80.875;    0.000
797.843; 3523.925;   88.875;    0.000
798.033; 3310.925;   96.875;    0.000
798.223; 3276.925;  159.875;    0.000
798.413; 3331.925;  155.875;    0.000
798.603; 3325.925;  125.875;    0.000
798.793; 3166.925;  141.875;    0.000
798.983; 3080.925;  113.875;    0.000
799.172; 3259.925;   85.875;    0.000
799.362; 3138.925;  141.875;    0.000
799.552; 3099.925;  122.875;    0.000
799.742; 3066.925;  124.875;    0.000
799.932; 3169.925;  102.875;    0.000
800.121; 3180.925;  146.875;    0.000
800.311; 3046.925;  122.875;    0.000
800.501; 3030.925;  120.875;    0.000
800.690; 3116.925;  141.875;    0.000
800.880; 3177.925;  146.875;    0.000
801.070; 3033.925;  122.875;    0.000
801.259; 2980.925;  138.875;    0.000
801.449; 3110.925;  115.875;    0.000
801.638; 3149.925;  132.875;    0.000
801.828; 3087.925;   92.875;    0.000
802.017; 3161.925;  150.875;    0.000
802.207; 3175.925;  134.875;    0.000
802.396; 3204.925;  133.875;    0.000
802.586; 3185.925;  117.875;    0.000
802.775; 3046.925;  155.875;    0.000
802.965; 3323.925;  132.875;    0.000
803.154; 3094.925;  176.875;    0.000
803.343; 2979.925;  106.875;    0.000
803.533; 3201.925;  154.875;    0.000
803.722; 3130.925;   97.875;    0.000
803.911; 3060.925;  107.875;    0.000
804.101; 3102.925;  145.875;    0.000
804.290; 3162.925;  130.875;    0.000
804.479; 3085.925;  152.875;    0.000
804.668; 3234.925;  160.875;    0.000
804.857; 3061.925;  161.875;    0.000
805.047; 3058.925;  126.875;    0.000
805.236; 3186.925;  136.875;    0.000
805.425; 3309.925;  153.875;    0.000
805.614; 3190.925;  139.875;    0.000
805.803; 3193.925;  144.875;    0.000
805.992; 3170.925;  160.875;    0.000
806.181; 3194.925;  139.875;    0.000
806.370; 3227.925;  104.875;    0.000
806.559; 3106.925;  103.875;    0.000
806.748; 3189.925;  145.875;    0.000
806.937; 3252.925;  151.875;    0.000
807.126; 3474.925;  119.875;    0.000
807.315; 3394.925;  139.875;    0.000
807.504; 3164.925;  143.875;    0.000
807.693; 3391.925;  164.875;    0.000
807.882; 3345.925;  135.875;    0.000
808.071; 3386.925;  131.875;    0.000
808.260; 3418.925;  113.875;    0.000
808.448; 3429.925;  161.875;    0.000
808.637; 3452.925;  125.875;    0.000
808.826; 3413.925;  155.875;    0.000
809.015; 3494.925;  113.875;    0.000
809.203; 3598.925;  152.875;    0.000
809.392; 3705.925;   90.875;    0.000
809.581; 3597.925;  186.875;    0.000
809.770; 3645.925;   99.875;    0.000
809.958; 3850.925;  146.875;    0.000
810.147; 3502.925;  115.875;    0.000
810.335; 3621.925;  122.875;    0.000
810.524; 3775.925;  150.875;    0.000
810.713; 3829.925;  121.875;    0.000
810.901; 3878.925;  156.875;    0.000
811.090; 4026.925;  161.875;    0.000
811.278; 4005.925;  138.875;    0.000
811.467; 4170.925;  184.875;    0.000
811.655; 4329.925;  150.875;    0.000
811.844; 4264.925;  137.875;    0.000
812.032; 4354.925;  142.875;    0.000
812.220; 4319.925;  134.875;    0.000
812.409; 4420.925;  143.875;    0.000
812.597; 4369.925;  164.875;    0.000
812.785; 4531.925;  188.875;    0.000
812.974; 4526.925;  156.875;    0.000
813.162; 4510.925;  166.875;    0.000
813.350; 4631.925;  115.875;    0.000
813.539; 4709.925;  167.875;    0.000
813.727; 4690.925;  165.875;    0.000
813.915; 4846.925;  137.875;    0.000
814.103; 5034.925;  166.875;    0.000
814.291; 5134.925;  151.875;    0.000
814.479; 5201.925;  147.875;    0.000
814.668; 5284.925;  166.875;    0.000
814.856; 5342.925;  160.875;    0.000
815.044; 5674.925;  172.875;    0.000
815.232; 5772.925;  193.875;    0.000
815.420; 5953.925;  173.875;    0.000
815.608; 6313.925;  134.875;    0.000
815.796; 6326.925;  105.875;    0.000
815.984; 6508.925;  125.875;    0.000
816.172; 7093.925;  160.875;    0.000
816.360; 7483.925;  162.875;    0.000
816.548; 7849.925;  160.875;    0.000
816.736; 8426.925;  132.875;    0.000
816.924; 9305.925;  184.875;    0.000
817.111;10099.925;  145.875;    0.000
817.299;10938.925;  132.875;    0.000
817.487;12549.925;  193.875;    0.000
817.675;14630.925;  153.875;    0.000
817.863;18041.926;  153.875;    0.000
818.050;25404.926;  172.875;    0.000
818.238;41946.926;  131.875;    0.000
818.426;56269.926;  160.875;    0.000
818.613;45506.926;  136.875;    0.000
818.801;36227.926;  162.875;    0.000
818.989;34033.926;  153.875;    0.000
819.176;36466.926;  181.875;    0.000
819.364;49113.926;  165.875;    0.000
819.552;63202.926;  111.875;    0.000
819.739;53530.926;  192.875;    0.000
819.927;41067.926;  146.875;    0.000
820.114;33796.926;  154.875;    0.000
820.302;28909.926;  144.875;    0.000
820.489;24832.926;  133.875;    0.000
820.677;22084.926;  135.875;    0.000
820.864;20242.926;  130.875;    0.000
821.052;18495.926;   88.875;    0.000
821.239;17359.926;  143.875;    0.000
821.426;16645.926;  186.875;    0.000
821.614;17109.926;  171.875;    0.000
821.801;17656.926;   90.875;    0.000
821.988;15390.925;  143.875;    0.000
822.176;14624.925;   95.875;    0.000
822.363;14337.925;  148.875;    0.000
822.550;13405.925;  139.875;    0.000
822.737;12179.925;  122.875;    0.000
822.924;11244.925;  171.875;    0.000
823.112;10581.925;  147.875;    0.000
823.299; 9829.925;  111.875;    0.000
823.486; 9183.925;  161.875;    0.000
823.673; 8982.925;  124.875;    0.000
823.860; 8473.925;  151.875;    0.000
824.047; 8251.925;  145.875;    0.000
824.234; 9099.925;  139.875;    0.000
824.421; 9178.925;  110.875;    0.000
824.608; 8126.925;  145.875;    0.000
824.795; 7585.925;  115.875;    0.000
824.982; 7042.925;  148.875;    0.000
825.169; 6574.925;  135.875;    0.000
825.356; 6314.925;  122.875;    0.000
825.543; 6030.925;  142.875;    0.000
825.730; 6007.925;   89.875;    0.000
825.917; 5574.925;  127.875;    0.000
826.104; 5390.925;  187.875;    0.000
826.290; 5496.925;  138.875;    0.000
826.477; 5040.925;  140.875;    0.000
826.664; 5038.925;  106.875;    0.000
826.851; 4782.925;  155.875;    0.000
827.038; 4924.925;  125.875;    0.000
827.224; 4817.925;  126.875;    0.000
827.411; 4651.925;  163.875;    0.000
827.598; 4478.925;  140.875;    0.000
827.784; 4546.925;  117.875;    0.000
827.971; 4265.925;  114.875;    0.000
828.157; 4177.925;  146.875;    0.000
828.344; 4152.925;  161.875;    0.000
828.531; 4146.925;  155.875;    0.000
828.717; 3920.925;  130.875;    0.000
828.904; 3827.925;  138.875;    0.000
829.090; 3817.925;  176.875;    0.000
829.277; 3945.925;  152.875;    0.000
829.463; 3794.925;  139.875;    0.000
829.650; 3761.925;  168.875;    0.000
829.836; 3620.925;  176.875;    0.000
830.022; 3601.925;  159.875;    0.000
830.209; 3673.925;  135.875;    0.000
830.395; 3506.925;  177.875;    0.000
830.581; 3567.925;  125.875;    0.000
830.768; 3289.925;  155.875;    0.000
830.954; 3355.925;  187.875;    0.000
831.140; 3417.925;  135.875;    0.000
831.327; 3374.925;  158.875;    0.000
831.513; 3244.925;  126.875;    0.000
831.699; 3215.925;  167.875;    0.000
831.885; 3054.925;  165.875;    0.000
832.071; 3279.925;  167.875;    0.000
832.257; 3018.925;  144.875;    0.000
832.444; 2987.925;  158.875;    0.000
832.630; 3146.925;  167.875;    0.000
832.816; 3056.925;  150.875;    0.000
833.002; 2914.925;  157.875;    0.000
833.188; 2930.925;  169.875;    0.000
833.374; 2864.925;  144.875;    0.000
833.560; 2892.925;  179.875;    0.000
833.746; 2757.925;  134.875;    0.000
833.932; 2912.925;  150.875;    0.000
834.118; 2750.925;   98.875;    0.000
834.303; 2689.925;  121.875;    0.000
834.489; 2787.925;  179.875;    0.000
834.675; 2751.925;  136.875;    0.000
834.861; 2753.925;  130.875;    0.000
835.047; 2868.925;  132.875;    0.000
835.233; 2519.925;  104.875;    0.000
835.418; 2754.925;  143.875;    0.000
835.604; 2606.925;  127.875;    0.000
835.790; 2711.925;  138.875;    0.000
835.976; 2537.925;  137.875;    0.000
836.161; 2766.925;  155.875;    0.000
836.347; 2652.925;  101.875;    0.000
836.533; 2564.925;  121.875;    0.000
836.718; 2628.925;  150.875;    0.000
836.904; 2599.925;  168.875;    0.000
837.089; 2588.925;  169.875;    0.000
837.275; 2453.925;  172.875;    0.000
837.460; 2489.925;  140.875;    0.000
837.646; 2499.925;  144.875;    0.000
837.831; 2494.925;  137.875;    0.000
838.017; 2509.925;  176.875;    0.000
838.202; 2407.925;  107.875;    0.000
838.388; 2505.925;  181.875;    0.000
838.573; 2570.925;  151.875;    0.000
838.759; 2340.925;  160.875;    0.000
838.944; 2553.925;  121.875;    0.000
839.129; 2470.925;  145.875;    0.000
839.315; 2449.925;  166.875;    0.000
839.500; 2430.925;  143.875;    0.000
839.685; 2467.925;   93.875;    0.000
839.870; 2497.925;  160.875;    0.000
840.056; 2422.925;  132.875;    0.000
840.241; 2477.925;  154.875;    0.000
840.426; 2414.925;  161.875;    0.000
840.611; 2560.925;  186.875;    0.000
840.796; 2455.925;  135.875;    0.000
840.981; 2502.925;  147.875;    0.000
841.166; 2601.925;  138.875;    0.000
841.352; 2472.925;  156.875;    0.000
841.537; 2475.925;  170.875;    0.000
841.722; 2542.925;  143.875;    0.000
841.907; 2534.925;  143.875;    0.000
842.092; 2457.925;  166.875;    0.000
842.277; 2657.925;  113.875;    0.000
842.461; 2694.925;  126.875;    0.000
842.646; 2802.925;  145.875;    0.000
842.831; 2734.925;  193.875;    0.000
843.016; 2781.925;  162.875;    0.000
843.201; 2785.925;  144.875;    0.000
843.386; 2940.925;  160.875;    0.000
843.571; 3102.925;  136.875;    0.000
843.755; 3176.925;  134.875;    0.000
843.940; 3481.925;  136.875;    0.000
844.125; 3821.925;  169.875;    0.000
844.310; 4607.925;  189.875;    0.000
844.494; 6034.925;  167.875;    0.000
844.679; 8759.925;  184.875;    0.000
844.864; 9167.925;  147.875;    0.000
845.048; 6665.925;  140.875;    0.000
845.233; 5692.925;  178.875;    0.000
845.418; 4734.925;  145.875;    0.000
845.602; 4284.925;  147.875;    0.000
845.787; 3750.925;  147.875;    0.000
845.971; 3579.925;  165.875;    0.000
846.156; 3251.925;  106.875;    0.000
846.340; 3046.925;  168.875;    0.000
846.525; 2957.925;  155.875;    0.000
846.709; 2894.925;  157.875;    0.000
846.893; 2854.925;  166.875;    0.000
847.078; 2690.925;  138.875;    0.000
847.262; 2530.925;  171.875;    0.000
847.447; 2619.925;  135.875;    0.000
847.631; 2522.925;  136.875;    0.000
847.815; 2484.925;  136.875;    0.000
848.000; 2376.925;  126.875;    0.000
848.184; 2494.925;  131.875;    0.000
848.368; 2242.925;  153.875;    0.000
848.552; 2310.925;  137.875;    0.000
848.736; 2271.925;  151.875;    0.000
848.921; 2325.925;  156.875;    0.000
849.105; 2090.925;  153.875;    0.000
849.289; 2162.925;  180.875;    0.000
849.473; 2056.925;  156.875;    0.000
849.657; 2180.925;  157.875;    0.000
849.841; 2183.925;  147.875;    0.000
850.025; 2136.925;  194.875;    0.000
850.209; 2030.925;  147.875;    0.000
850.393; 2089.925;  141.875;    0.000
850.577; 2107.925;  156.875;    0.000
850.761; 1960.925;  157.875;    0.000
850.945; 2057.925;  128.875;    0.000
851.129; 2126.925;  151.875;    0.000
851.313; 1985.925;  180.875;    0.000
851.497; 1984.925;  123.875;    0.000
851.680; 1893.925;  188.875;    0.000
851.864; 1951.925;  177.875;    0.000
852.048; 2110.925;  163.875;    0.000
852.232; 2069.925;  149.875;    0.000
852.416; 2011.925;  187.875;    0.000
852.599; 1943.925;  169.875;    0.000
852.783; 1860.925;  154.875;    0.000
852.967; 1930.925;  191.875;    0.000
853.150; 2001.925;  170.875;    0.000
853.334; 1968.925;  173.875;    0.000
853.518; 1988.925;  186.875;    0.000
853.701; 1887.925;  142.875;    0.000
853.885; 1916.925;  153.875;    0.000
854.068; 1813.925;  132.875;    0.000
854.252; 1903.925;  184.875;    0.000
854.435; 2015.925;  152.875;    0.000
854.619; 1942.925;  152.875;    0.000
854.802; 1903.925;  164.875;    0.000
854.986; 1913.925;  151.875;    0.000
855.169; 1944.925;  153.875;    0.000
855.353; 1880.925;  183.875;    0.000
855.536; 1924.925;  113.875;    0.000
855.719; 1958.925;  181.875;    0.000
855.903; 1987.925;  159.875;    0.000
856.086; 1967.925;  142.875;    0.000
856.269; 1869.925;  171.875;    0.000
856.452; 2009.925;  132.875;    0.000
856.636; 2000.925;  140.875;    0.000
856.819; 2152.925;  165.875;    0.000
857.002; 2336.925;  170.875;    0.000
857.185; 2223.925;  173.875;    0.000
857.368; 2165.925;  129.875;    0.000
857.552; 2139.925;  151.875;    0.000
857.735; 2127.925;  146.875;    0.000
857.918; 2165.925;  114.875;    0.000
858.101; 2112.925;  152.875;    0.000
858.284; 2133.925;  164.875;    0.000
858.467; 2106.925;  147.875;    0.000
858.650; 2106.925;  146.875;    0.000
858.833; 2217.925;  118.875;    0.000
859.016; 2351.925;  161.875;    0.000
859.199; 2303.925;  135.875;    0.000
859.382; 2394.925;  157.875;    0.000
859.564; 2700.925;  124.875;    0.000
859.747; 2743.925;  154.875;    0.000
859.930; 2466.925;  138.875;    0.000
860.113; 2382.925;  153.875;    0.000
860.296; 2570.925;  180.875;    0.000
860.478; 2163.925;  145.875;    0.000
860.661; 2326.925;  160.875;    0.000
860.844; 2308.925;   96.875;    0.000
861.027; 2212.925;  128.875;    0.000
861.209; 2146.925;  127.875;    0.000
861.392; 2112.925;  126.875;    0.000
861.575; 2266.925;  155.875;    0.000
861.757; 2281.925;  141.875;    0.000
861.940; 2273.925;  181.875;    0.000
862.122; 2366.925;  145.875;    0.000
862.305; 2427.925;  124.875;    0.000
862.487; 2542.925;  151.875;    0.000
862.670; 2443.925;  132.875;    0.000
862.852; 3133.925;  112.875;    0.000
863.035; 4048.925;  116.875;    0.000
863.217; 3924.925;  131.875;    0.000
863.400; 3418.925;  145.875;    0.000
863.582; 3050.925;  147.875;    0.000
863.764; 2881.925;  163.875;    0.000
863.947; 2877.925;  129.875;    0.000
864.129; 2635.925;  159.875;    0.000
864.311; 2600.925;  144.875;    0.000
864.493; 2656.925;  141.875;    0.000
864.676; 2489.925;  159.875;    0.000
864.858; 2467.925;  146.875;    0.000
865.040; 2478.925;  163.875;    0.000
865.222; 2533.925;  133.875;    0.000
865.404; 2593.925;  148.875;    0.000
865.587; 2663.925;  177.875;    0.000
865.769; 2902.925;  172.875;    0.000
865.951; 2880.925;  145.875;    0.000
866.133; 2749.925;  168.875;    0.000
866.315; 2711.925;  147.875;    0.000
866.497; 2702.925;  164.875;    0.000
866.679; 2736.925;  143.875;    0.000
866.861; 2895.925;  170.875;    0.000
867.043; 2967.925;  185.875;    0.000
867.225; 3078.925;  149.875;    0.000
867.407; 3422.925;  143.875;    0.000
867.589; 3807.925;  169.875;    0.000
867.770; 4744.925;  166.875;    0.000
867.952; 6618.925;  158.875;    0.000
868.134; 9368.925;  170.875;    0.000
868.316; 9396.925;  157.875;    0.000
868.498; 9108.925;  186.875;    0.000
868.679; 7627.925;  158.875;    0.000
868.861; 6314.925;  180.875;    0.000
869.043; 5003.925;  164.875;    0.000
869.224; 4501.925;  156.875;    0.000
869.406; 3879.925;  176.875;    0.000
869.588; 3812.925;  152.875;    0.000
869.769; 3534.925;  131.875;    0.000
869.951; 3416.925;  203.875;    0.000
870.132; 3371.925;  143.875;    0.000
870.314; 3956.925;  129.875;    0.000
870.495; 4187.925;  175.875;    0.000
870.677; 3792.925;  165.875;    0.000
870.858; 3557.925;  151.875;    0.000
871.040; 3700.925;  155.875;    0.000
871.221; 4331.925;  144.875;    0.000
871.403; 4200.925;  131.875;    0.000
871.584; 3585.925;  174.875;    0.000
871.765; 3835.925;  169.875;    0.000
871.947; 4005.925;  187.875;    0.000
872.128; 3690.925;  181.875;    0.000
872.309; 3213.925;  129.875;    0.000
872.491; 2851.925;  142.875;    0.000
872.672; 2694.925;  158.875;    0.000
872.853; 2611.925;  179.875;    0.000
873.034; 2458.925;  164.875;    0.000
873.215; 2443.925;  168.875;    0.000
873.396; 2240.925;  114.875;    0.000
873.578; 2170.925;  126.875;    0.000
873.759; 2150.925;  177.875;    0.000
873.940; 1982.925;  169.875;    0.000
874.121; 1950.925;  133.875;    0.000
874.302; 2099.925;  164.875;    0.000
874.483; 1886.925;  162.875;    0.000
874.664; 1910.925;  140.875;    0.000
874.845; 1992.925;  124.875;    0.000
875.026; 1930.925;  146.875;    0.000
875.207; 1918.925;  147.875;    0.000
875.388; 1776.925;  174.875;    0.000
875.568; 1792.925;  179.875;    0.000
875.749; 1769.925;  155.875;    0.000
875.930; 1868.925;  166.875;    0.000
876.111; 1854.925;  153.875;    0.000
876.292; 1711.925;  146.875;    0.000
876.472; 1711.925;  167.875;    0.000
876.653; 1729.925;  145.875;    0.000
876.834; 1591.925;  172.875;    0.000
877.015; 1744.925;  184.875;    0.000
877.195; 1700.925;  160.875;    0.000
877.376; 1698.925;  163.875;    0.000
877.556; 1605.925;  164.875;    0.000
877.737; 1616.925;  179.875;    0.000
877.918; 1631.925;  137.875;    0.000
878.098; 1605.925;  117.875;    0.000
878.279; 1636.925;  135.875;    0.000
878.459; 1601.925;  149.875;    0.000
878.640; 1629.925;  171.875;    0.000
878.820; 1510.925;  142.875;    0.000
879.000; 1633.925;  166.875;    0.000
879.181; 1625.925;  177.875;    0.000
879.361; 1545.925;  176.875;    0.000
879.542; 1563.925;  159.875;    0.000
879.722; 1586.925;  122.875;    0.000
879.902; 1545.925;  166.875;    0.000
880.083; 1495.925;  164.875;    0.000
880.263; 1539.925;  139.875;    0.000
880.443; 1666.925;  179.875;    0.000
880.623; 1794.925;  154.875;    0.000
880.803; 1993.925;  160.875;    0.000
880.984; 1842.925;  181.875;    0.000
881.164; 1752.925;  167.875;    0.000
881.344; 1616.925;  141.875;    0.000
881.524; 1708.925;  190.875;    0.000
881.704; 1665.925;  165.875;    0.000
881.884; 1728.925;  144.875;    0.000
882.064; 1865.925;  135.875;    0.000
882.244; 1941.925;  186.875;    0.000
882.424; 1851.925;  150.875;    0.000
882.604; 1693.925;  168.875;    0.000
882.784; 1699.925;  155.875;    0.000
882.964; 1633.925;  137.875;    0.000
883.144; 1621.925;  136.875;    0.000
883.324; 1554.925;  200.875;    0.000
883.504; 1587.925;  203.875;    0.000
883.683; 1538.925;  149.875;    0.000
883.863; 1525.925;  160.875;    0.000
884.043; 1481.925;  161.875;    0.000
884.223; 1532.925;  147.875;    0.000
884.402; 1454.925;  175.875;    0.000
884.582; 1500.925;  188.875;    0.000
884.762; 1507.925;  173.875;    0.000
884.941; 1529.925;  164.875;    0.000
885.121; 1495.925;  147.875;    0.000
885.301; 1396.925;  135.875;    0.000
885.480; 1451.925;  145.875;    0.000
885.660; 1492.925;  144.875;    0.000
885.839; 1461.925;  155.875;    0.000
886.019; 1492.925;  207.875;    0.000
886.198; 1445.925;  165.875;    0.000
886.378; 1510.925;  120.875;    0.000
886.557; 1489.925;  133.875;    0.000
886.737; 1407.925;  119.875;    0.000
886.916; 1459.925;  129.875;    0.000
887.095; 1377.925;  158.875;    0.000
887.275; 1452.925;  169.875;    0.000
887.454; 1415.925;  184.875;    0.000
887.633; 1414.925;  143.875;    0.000
887.813; 1330.925;  154.875;    0.000
887.992; 1327.925;  188.875;    0.000
888.171; 1379.925;  176.875;    0.000
888.350; 1334.925;  161.875;    0.000
888.530; 1368.925;  163.875;    0.000
888.709; 1378.925;  136.875;    0.000
888.888; 1342.925;  177.875;    0.000
889.067; 1370.925;  169.875;    0.000
889.246; 1462.925;  188.875;    0.000
889.425; 1351.925;  187.875;    0.000
889.604; 1494.925;  169.875;    0.000
889.783; 1404.925;  182.875;    0.000
889.962; 1310.925;  112.875;    0.000
890.141; 1328.925;  231.875;    0.000
890.320; 1326.925;  161.875;    0.000
890.499; 1444.925;  164.875;    0.000
890.678; 1279.925;  176.875;    0.000
890.857; 1392.925;  163.875;    0.000
891.036; 1425.925;  161.875;    0.000
891.214; 1350.925;  156.875;    0.000
891.393; 1277.925;  167.875;    0.000
891.572; 1398.925;  163.875;    0.000
891.751; 1343.925;  205.875;    0.000
891.930; 1373.925;  162.875;    0.000
892.108; 1352.925;  153.875;    0.000
892.287; 1345.925;  153.875;    0.000
892.466; 1318.925;  201.875;    0.000
892.644; 1412.925;  158.875;    0.000
892.823; 1297.925;  122.875;    0.000
893.001; 1347.925;  148.875;    0.000
893.180; 1417.925;  142.875;    0.000
893.359; 1364.925;  192.875;    0.000
893.537; 1445.925;  166.875;    0.000
893.716; 1403.925;  144.875;    0.000
893.894; 1384.925;  145.875;    0.000
894.073; 1335.925;  180.875;    0.000
894.251; 1295.925;  165.875;    0.000
894.429; 1271.925;  182.875;    0.000
894.608; 1370.925;  181.875;    0.000
894.786; 1411.925;  180.875;    0.000
894.964; 1316.925;  207.875;    0.000
895.143; 1316.925;  190.875;    0.000
895.321; 1420.925;  206.875;    0.000
895.499; 1342.925;  164.875;    0.000
895.677; 1404.925;  199.875;    0.000
895.856; 1361.925;  203.875;    0.000
896.034; 1451.925;  200.875;    0.000
896.212; 1419.925;  198.875;    0.000
896.390; 1326.925;  161.875;    0.000
896.568; 1301.925;  205.875;    0.000
896.746; 1297.925;  185.875;    0.000
896.924; 1436.925;  179.875;    0.000
897.102; 1424.925;  190.875;    0.000
897.280; 1380.925;  160.875;    0.000
897.458; 1371.925;  196.875;    0.000
897.636; 1379.925;  168.875;    0.000
897.814; 1433.925;  159.875;    0.000
897.992; 1435.925;  216.875;    0.000
898.170; 1401.925;  195.875;    0.000
898.348; 1406.925;  185.875;    0.000
898.526; 1388.925;  199.875;    0.000
898.704; 1505.925;  215.875;    0.000
898.882; 1390.925;  195.875;    0.000
899.059; 1367.925;  197.875;    0.000
899.237; 1410.925;  168.875;    0.000
899.415; 1591.925;  221.875;    0.000
899.593; 1417.925;  171.875;    0.000
899.770; 1400.925;  191.875;    0.000
899.948; 1424.925;  206.875;    0.000
900.125; 1410.925;  175.875;    0.000
900.303; 1358.925;  176.875;    0.000
900.481; 1443.925;  199.875;    0.000
900.658; 1535.925;  217.875;    0.000
900.836; 1447.925;  192.875;    0.000
901.013; 1440.925;  221.875;    0.000
901.191; 1536.925;  203.875;    0.000
901.368; 1466.925;  189.875;    0.000
901.546; 1626.925;  212.875;    0.000
901.723; 1568.925;  189.875;    0.000
901.901; 1577.925;  198.875;    0.000
902.078; 1595.925;  193.875;    0.000
902.255; 1634.925;  176.875;    0.000
902.433; 1598.925;  201.875;    0.000
902.610; 1505.925;  170.875;    0.000
902.787; 1705.925;  164.875;    0.000
902.964; 1642.925;  216.875;    0.000
903.142; 1726.925;  153.875;    0.000
903.319; 1800.925;  204.875;    0.000
903.496; 1771.925;  188.875;    0.000
903.673; 1763.925;  209.875;    0.000
903.850; 1838.925;  173.875;    0.000
904.027; 1870.925;  186.875;    0.000
904.204; 1903.925;  241.875;    0.000
904.381; 2042.925;  187.875;    0.000
904.558; 2516.925;  196.875;    0.000
904.735; 2844.925;  206.875;    0.000
904.912; 2706.925;  228.875;    0.000
905.089; 2810.925;  172.875;    0.000
905.266; 2620.925;  175.875;    0.000
905.443; 2419.925;  239.875;    0.000
905.620; 2197.925;  176.875;    0.000
905.797; 2066.925;  205.875;    0.000
905.974; 2036.925;  187.875;    0.000
906.151; 1995.925;  135.875;    0.000
906.327; 1978.925;  209.875;    0.000
906.504; 1979.925;  145.875;    0.000
906.681; 1950.925;  178.875;    0.000
906.858; 1913.925;  179.875;    0.000
907.034; 1754.925;  221.875;    0.000
907.211; 1744.925;  166.875;    0.000
907.388; 1776.925;  206.875;    0.000
907.564; 1736.925;  150.875;    0.000
907.741; 1659.925;  187.875;    0.000
907.917; 1712.925;  180.875;    0.000
908.094; 1689.925;  206.875;    0.000
908.271; 1557.925;  184.875;    0.000
908.447; 1715.925;  212.875;    0.000
908.623; 1518.925;  193.875;    0.000
908.800; 1581.925;  185.875;    0.000
908.976; 1607.925;  202.875;    0.000
909.153; 1509.925;  175.875;    0.000
909.329; 1532.925;  193.875;    0.000
909.505; 1498.925;  154.875;    0.000
909.682; 1551.925;  188.875;    0.000
909.858; 1514.925;  162.875;    0.000
910.034; 1507.925;  181.875;    0.000
910.211; 1417.925;  142.875;    0.000
910.387; 1538.925;  200.875;    0.000
910.563; 1480.925;  163.875;    0.000
910.739; 1470.925;  156.875;    0.000
910.915; 1464.925;  202.875;    0.000
911.091; 1463.925;  186.875;    0.000
911.268; 1484.925;  167.875;    0.000
911.444; 1467.925;  193.875;    0.000
911.620; 1398.925;  175.875;    0.000
911.796; 1517.925;  168.875;    0.000
911.972; 1452.925;  154.875;    0.000
912.148; 1371.925;  201.875;    0.000
912.324; 1498.925;  146.875;    0.000
912.500; 1474.925;  185.875;    0.000
912.676; 1469.925;  183.875;    0.000
912.851; 1389.925;  204.875;    0.000
913.027; 1374.925;  196.875;    0.000
913.203; 1480.925;  174.875;    0.000
913.379; 1440.925;  210.875;    0.000
913.555; 1451.925;  197.875;    0.000
913.730; 1467.925;  209.875;    0.000
913.906; 1380.925;  169.875;    0.000
914.082; 1391.925;  236.875;    0.000
914.258; 1497.925;  216.875;    0.000
914.433; 1354.925;  212.875;    0.000
914.609; 1430.925;  180.875;    0.000
914.784; 1419.925;  176.875;    0.000
914.960; 1422.925;  227.875;    0.000
915.136; 1359.925;  149.875;    0.000
915.311; 1458.925;  165.875;    0.000
915.487; 1428.925;  167.875;    0.000
915.662; 1396.925;  225.875;    0.000
915.838; 1434.925;  165.875;    0.000
916.013; 1492.925;  188.875;    0.000
916.189; 1366.925;  200.875;    0.000
916.364; 1423.925;  201.875;    0.000
916.539; 1519.925;  240.875;    0.000
916.715; 1458.925;  180.875;    0.000
916.890; 1505.925;  191.875;    0.000
917.065; 1444.925;  211.875;    0.000
917.240; 1416.925;  212.875;    0.000
917.416; 1468.925;  207.875;    0.000
917.591; 1478.925;  189.875;    0.000
917.766; 1541.925;  205.875;    0.000
917.941; 1501.925;  191.875;    0.000
918.116; 1483.925;  195.875;    0.000
918.292; 1427.925;  183.875;    0.000
918.467; 1536.925;  206.875;    0.000
918.642; 1391.925;  190.875;    0.000
918.817; 1453.925;  193.875;    0.000
918.992; 1372.925;  171.875;    0.000
919.167; 1464.925;  191.875;    0.000
919.342; 1447.925;  202.875;    0.000
919.517; 1510.925;  182.875;    0.000
919.692; 1561.925;  190.875;    0.000
919.867; 1489.925;  221.875;    0.000
920.041; 1547.925;  195.875;    0.000
920.216; 1480.925;  226.875;    0.000
920.391; 1626.925;  230.875;    0.000
920.566; 1601.925;  210.875;    0.000
920.741; 1759.925;  204.875;    0.000
920.915; 1734.925;  213.875;    0.000
921.090; 1931.925;  194.875;    0.000
921.265; 2408.925;  234.875;    0.000
921.439; 3031.925;  228.875;    0.000
921.614; 2596.925;  199.875;    0.000
921.789; 2188.925;  194.875;    0.000
921.963; 2000.925;  236.875;    0.000
922.138; 1831.925;  192.875;    0.000
922.312; 1964.925;  203.875;    0.000
922.487; 1913.925;  207.875;    0.000
922.661; 2039.925;  216.875;    0.000
922.836; 2405.925;  199.875;    0.000
923.010; 2586.925;  179.875;    0.000
923.185; 2339.925;  241.875;    0.000
923.359; 2123.925;  199.875;    0.000
923.534; 2100.925;  227.875;    0.000
923.708; 2151.925;  213.875;    0.000
923.882; 2332.925;  203.875;    0.000
924.057; 2228.925;  194.875;    0.000
924.231; 2138.925;  185.875;    0.000
924.405; 1835.925;  223.875;    0.000
924.579; 1930.925;  196.875;    0.000
924.753; 1893.925;  209.875;    0.000
924.928; 1783.925;  202.875;    0.000
925.102; 1826.925;  184.875;    0.000
925.276; 1828.925;  191.875;    0.000
925.450; 1870.925;  199.875;    0.000
925.624; 1853.925;  190.875;    0.000
925.798; 1878.925;  214.875;    0.000
925.972; 2106.925;  193.875;    0.000
926.146; 2117.925;  191.875;    0.000
926.320; 2396.925;  177.875;    0.000
926.494; 2573.925;  190.875;    0.000
926.668; 2684.925;  182.875;    0.000
926.842; 2826.925;  182.875;    0.000
927.016; 2821.925;  235.875;    0.000
927.190; 2743.925;  234.875;    0.000
927.363; 2743.925;  214.875;    0.000
927.537; 2437.925;  198.875;    0.000
927.711; 2422.925;  154.875;    0.000
927.885; 2493.925;  167.875;    0.000
928.058; 2368.925;  210.875;    0.000
928.232; 2218.925;  206.875;    0.000
928.406; 2155.925;  176.875;    0.000
928.579; 2150.925;  182.875;    0.000
928.753; 2125.925;  179.875;    0.000
928.927; 2061.925;  186.875;    0.000
929.100; 1976.925;  188.875;    0.000
929.274; 1936.925;  167.875;    0.000
929.447; 1882.925;  152.875;    0.000
929.621; 1787.925;  195.875;    0.000
929.794; 1917.925;  200.875;    0.000
929.968; 1805.925;  203.875;    0.000
930.141; 1779.925;  237.875;    0.000
930.315; 1758.925;  165.875;    0.000
930.488; 1776.925;  175.875;    0.000
930.661; 1755.925;  173.875;    0.000
930.835; 1761.925;  171.875;    0.000
931.008; 1726.925;  210.875;    0.000
931.181; 1668.925;  206.875;    0.000
931.354; 1609.925;  195.875;    0.000
931.528; 1644.925;  178.875;    0.000
931.701; 1571.925;  179.875;    0.000
931.874; 1572.925;  150.875;    0.000
932.047; 1581.925;  154.875;    0.000
932.220; 1511.925;  185.875;    0.000
932.393; 1587.925;  166.875;    0.000
932.566; 1594.925;  171.875;    0.000
932.739; 1519.925;  196.875;    0.000
932.912; 1587.925;  212.875;    0.000
933.085; 1436.925;  234.875;    0.000
933.258; 1574.925;  212.875;    0.000
933.431; 1426.925;  181.875;    0.000
933.604; 1532.925;  201.875;    0.000
933.777; 1510.925;  201.875;    0.000
933.950; 1453.925;  176.875;    0.000
934.123; 1446.925;  175.875;    0.000
934.296; 1456.925;  174.875;    0.000
934.468; 1429.925;  186.875;    0.000
934.641; 1454.925;  192.875;    0.000
934.814; 1471.925;  187.875;    0.000
934.987; 1446.925;  165.875;    0.000
935.159; 1449.925;  162.875;    0.000
935.332; 1379.925;  210.875;    0.000
935.505; 1470.925;  191.875;    0.000
935.677; 1400.925;  159.875;    0.000
935.850; 1444.925;  170.875;    0.000
936.022; 1465.925;  172.875;    0.000
936.195; 1462.925;  202.875;    0.000
936.367; 1406.925;  179.875;    0.000
936.540; 1545.925;  207.875;    0.000
936.712; 1485.925;  200.875;    0.000
936.885; 1415.925;  219.875;    0.000
937.057; 1452.925;  150.875;    0.000
937.229; 1516.925;  187.875;    0.000
937.402; 1453.925;  169.875;    0.000
937.574; 1533.925;  127.875;    0.000
937.746; 1582.925;  171.875;    0.000
937.919; 1663.925;  176.875;    0.000
938.091; 1687.925;  193.875;    0.000
938.263; 1801.925;  200.875;    0.000
938.435; 1969.925;  181.875;    0.000
938.608; 2230.925;  191.875;    0.000
938.780; 2590.925;  173.875;    0.000
938.952; 2746.925;  184.875;    0.000
939.124; 2733.925;  171.875;    0.000
939.296; 3169.925;  156.875;    0.000
939.468; 3320.925;  147.875;    0.000
939.640; 2854.925;  186.875;    0.000
939.812; 2750.925;  217.875;    0.000
939.984; 2267.925;  155.875;    0.000
940.156; 2139.925;  191.875;    0.000
940.328; 1985.925;  201.875;    0.000
940.500; 1810.925;  176.875;    0.000
940.672; 1856.925;  190.875;    0.000
940.843; 1816.925;  143.875;    0.000
941.015; 1740.925;  189.875;    0.000
941.187; 1703.925;  172.875;    0.000
941.359; 1684.925;  175.875;    0.000
941.531; 1691.925;  154.875;    0.000
941.702; 1599.925;  183.875;    0.000
941.874; 1575.925;  140.875;    0.000
942.046; 1506.925;  177.875;    0.000
942.217; 1507.925;  147.875;    0.000
942.389; 1524.925;  196.875;    0.000
942.560; 1534.925;  163.875;    0.000
942.732; 1558.925;  187.875;    0.000
942.904; 1470.925;  226.875;    0.000
943.075; 1354.925;  159.875;    0.000
943.247; 1427.925;  209.875;    0.000
943.418; 1250.925;  167.875;    0.000
943.589; 1378.925;  195.875;    0.000
943.761; 1382.925;  190.875;    0.000
943.932; 1452.925;  187.875;    0.000
944.104; 1342.925;  194.875;    0.000
944.275; 1392.925;  177.875;    0.000
944.446; 1370.925;  155.875;    0.000
944.617; 1384.925;  176.875;    0.000
944.789; 1243.925;  171.875;    0.000
944.960; 1294.925;  172.875;    0.000
945.131; 1329.925;  158.875;    0.000
945.302; 1386.925;  201.875;    0.000
945.473; 1273.925;  141.875;    0.000
945.645; 1366.925;  197.875;    0.000
945.816; 1348.925;  165.875;    0.000
945.987; 1381.925;  190.875;    0.000
946.158; 1362.925;  158.875;    0.000
946.329; 1409.925;  160.875;    0.000
946.500; 1196.925;  190.875;    0.000
946.671; 1331.925;  152.875;    0.000
946.842; 1373.925;  182.875;    0.000
947.013; 1260.925;  160.875;    0.000
947.183; 1345.925;  203.875;    0.000
947.354; 1241.925;  174.875;    0.000
947.525; 1236.925;  173.875;    0.000
947.696; 1275.925;  170.875;    0.000
947.867; 1305.925;  187.875;    0.000
948.037; 1207.925;  165.875;    0.000
948.208; 1295.925;  154.875;    0.000
948.379; 1359.925;  176.875;    0.000
948.550; 1298.925;  176.875;    0.000
948.720; 1297.925;  169.875;    0.000
948.891; 1296.925;  216.875;    0.000
949.061; 1224.925;  200.875;    0.000
949.232; 1198.925;  163.875;    0.000
949.403; 1170.925;  157.875;    0.000
949.573; 1187.925;  158.875;    0.000
949.744; 1273.925;  213.875;    0.000
949.914; 1169.925;  177.875;    0.000
950.085; 1192.925;  195.875;    0.000
950.255; 1276.925;  166.875;    0.000
950.425; 1228.925;  196.875;    0.000
950.596; 1257.925;  176.875;    0.000
950.766; 1305.925;  228.875;    0.000
950.936; 1215.925;  185.875;    0.000
951.107; 1213.925;  178.875;    0.000
951.277; 1265.925;  227.875;    0.000
951.447; 1227.925;  219.875;    0.000
951.617; 1193.925;  219.875;    0.000
951.788; 1182.925;  198.875;    0.000
951.958; 1209.925;  202.875;    0.000
952.128; 1171.925;  197.875;    0.000
952.298; 1208.925;  211.875;    0.000
952.468; 1207.925;  233.875;    0.000
952.638; 1134.925;  222.875;    0.000
952.808; 1163.925;  210.875;    0.000
952.978; 1210.925;  216.875;    0.000
953.148; 1195.925;  203.875;    0.000
953.318; 1186.925;  212.875;    0.000
953.488; 1202.925;  156.875;    0.000
953.658; 1190.925;  226.875;    0.000
953.828; 1082.925;  223.875;    0.000
953.998; 1152.925;  209.875;    0.000
954.167; 1196.925;  203.875;    0.000
954.337; 1160.925;  209.875;    0.000
954.507; 1108.925;  252.875;    0.000
954.677; 1142.925;  207.875;    0.000
954.846; 1121.925;  240.875;    0.000
955.016; 1085.925;  197.875;    0.000
955.186; 1141.925;  208.875;    0.000
955.355; 1113.925;  243.875;    0.000
955.525; 1102.925;  211.875;    0.000
955.695; 1071.925;  187.875;    0.000
955.864; 1147.925;  204.875;    0.000
956.034; 1163.925;  199.875;    0.000
956.203; 1087.925;  257.875;    0.000
956.373; 1020.925;  193.875;    0.000
956.542; 1122.925;  187.875;    0.000
956.711; 1072.925;  259.875;    0.000
956.881; 1088.925;  227.875;    0.000
957.050; 1128.925;  260.875;    0.000
957.220; 1101.925;  246.875;    0.000
957.389;  984.925;  211.875;    0.000
957.558; 1073.925;  197.875;    0.000
957.727; 1091.925;  227.875;    0.000
957.897; 1071.925;  219.875;    0.000
958.066; 1039.925;  180.875;    0.000
958.235; 1009.925;  179.875;    0.000
958.404; 1035.925;  194.875;    0.000
958.573; 1008.925;  235.875;    0.000
958.743; 1072.925;  191.875;    0.000
958.912; 1142.925;  181.875;    0.000
959.081; 1013.925;  193.875;    0.000
959.250;  946.925;  180.875;    0.000
959.419;  999.925;  205.875;    0.000
959.588; 1079.925;  241.875;    0.000
959.757; 1064.925;  202.875;    0.000
959.926; 1101.925;  212.875;    0.000
960.094; 1054.925;  199.875;    0.000
960.263; 1088.925;  226.875;    0.000
960.432; 1014.925;  188.875;    0.000
960.601;  929.925;  200.875;    0.000
960.770;  987.925;  197.875;    0.000
960.939; 1004.925;  195.875;    0.000
961.107; 1041.925;  198.875;    0.000
961.276; 1036.925;  151.875;    0.000
961.445; 1031.925;  227.875;    0.000
961.613; 1090.925;  186.875;    0.000
961.782; 1055.925;  187.875;    0.000
961.951; 1011.925;  194.875;    0.000
962.119; 1017.925;  227.875;    0.000
962.288;  978.925;  181.875;    0.000
962.456;  984.925;  206.875;    0.000
962.625; 1032.925;  181.875;    0.000
962.793; 1040.925;  216.875;    0.000
962.962; 1067.925;  237.875;    0.000
963.130; 1056.925;  194.875;    0.000
963.298;  959.925;  190.875;    0.000
963.467; 1063.925;  204.875;    0.000
963.635;  983.925;  159.875;    0.000
963.803;  968.925;  208.875;    0.000
963.972;  985.925;  206.875;    0.000
964.140; 1062.925;  178.875;    0.000
964.308;  914.925;  185.875;    0.000
964.477;  946.925;  189.875;    0.000
964.645; 1043.925;  201.875;    0.000
964.813; 1029.925;  200.875;    0.000
964.981; 1070.925;  160.875;    0.000
965.149; 1014.925;  230.875;    0.000
965.317; 1050.925;  214.875;    0.000
965.485; 1030.925;  190.875;    0.000
965.653;  989.925;  239.875;    0.000
965.821; 1006.925;  211.875;    0.000
965.989;  968.925;  216.875;    0.000
966.157;  922.925;  198.875;    0.000
966.325; 1044.925;  200.875;    0.000
966.493;  971.925;  187.875;    0.000
966.661; 1046.925;  181.875;    0.000
966.829;  969.925;  181.875;    0.000
966.996; 1022.925;  220.875;    0.000
967.164; 1049.925;  179.875;    0.000
967.332; 1066.925;  203.875;    0.000
967.500; 1022.925;  200.875;    0.000
967.667; 1019.925;  196.875;    0.000
967.835; 1092.925;  199.875;    0.000
968.003; 1099.925;  191.875;    0.000
968.170; 1122.925;  141.875;    0.000
968.338; 1056.925;  185.875;    0.000
968.505; 1006.925;  199.875;    0.000
968.673; 1061.925;  191.875;    0.000
968.841;  996.925;  165.875;    0.000
969.008;  990.925;  192.875;    0.000
969.175;  961.925;  172.875;    0.000
969.343;  998.925;  191.875;    0.000
969.510; 1029.925;  199.875;    0.000
969.678;  959.925;  156.875;    0.000
969.845; 1042.925;  191.875;    0.000
970.012;  979.925;  205.875;    0.000
970.180;  998.925;  201.875;    0.000
970.347;  973.925;  229.875;    0.000
970.514;  964.925;  207.875;    0.000
970.681; 1092.925;  169.875;    0.000
970.849;  950.925;  196.875;    0.000
971.016;  898.925;  212.875;    0.000
971.183;  969.925;  178.875;    0.000
971.350; 1035.925;  193.875;    0.000
971.517; 1047.925;  190.875;    0.000
971.684; 1020.925;  261.875;    0.000
971.851; 1024.925;  203.875;    0.000
972.018;  937.925;  184.875;    0.000
972.185;  948.925;  226.875;    0.000
972.352;  982.925;  180.875;    0.000
972.519; 1029.925;  226.875;    0.000
972.686;  953.925;  233.875;    0.000
972.853; 1029.925;  173.875;    0.000
973.020; 1011.925;  208.875;    0.000
973.186;  990.925;  173.875;    0.000
973.353;  951.925;  218.875;    0.000
973.520;  973.925;  218.875;    0.000
973.687;  999.925;  176.875;    0.000
973.853;  988.925;  203.875;    0.000
974.020;  994.925;  196.875;    0.000
974.187;  946.925;  188.875;    0.000
974.353; 1015.925;  230.875;    0.000
974.520;  998.925;  195.875;    0.000
974.687;  895.925;  209.875;    0.000
974.853;  960.925;  189.875;    0.000
975.020;  960.925;  179.875;    0.000
975.186;  960.925;  204.875;    0.000
975.353;  996.925;  201.875;    0.000
975.519; 1038.925;  200.875;    0.000
975.685;  951.925;  176.875;    0.000
975.852;  993.925;  197.875;    0.000
976.018;  987.925;  201.875;    0.000
976.184; 1045.925;  176.875;    0.000
976.351;  988.925;  221.875;    0.000
976.517;  978.925;  203.875;    0.000
976.683; 1035.925;  236.875;    0.000
976.849; 1002.925;  190.875;    0.000
977.016;  951.925;  173.875;    0.000
977.182;  991.925;  200.875;    0.000
977.348;  912.925;  179.875;    0.000
977.514;  914.925;  159.875;    0.000
977.680;  978.925;  200.875;    0.000
977.846;  992.925;  206.875;    0.000
978.012;  934.925;  219.875;    0.000
978.178;  965.925;  229.875;    0.000
978.344;  912.925;  195.875;    0.000
978.510;  966.925;  209.875;    0.000
978.676;  911.925;  190.875;    0.000
978.842;  958.925;  195.875;    0.000
979.008;  989.925;  186.875;    0.000
979.174;  999.925;  185.875;    0.000
979.340;  966.925;  198.875;    0.000
979.505;  960.925;  214.875;    0.000
979.671; 1020.925;  159.875;    0.000
979.837;  907.925;  202.875;    0.000
980.003;  904.925;  190.875;    0.000
980.168;  964.925;  216.875;    0.000
980.334;  987.925;  194.875;    0.000
980.499;  959.925;  229.875;    0.000
980.665; 1068.925;  240.875;    0.000
980.831; 1013.925;  202.875;    0.000
980.996;  927.925;  179.875;    0.000
981.162; 1040.925;  212.875;    0.000
981.327; 1016.925;  202.875;    0.000
981.493;  945.925;  219.875;    0.000
981.658;  941.925;  218.875;    0.000
981.823;  978.925;  207.875;    0.000
981.989;  985.925;  207.875;    0.000
982.154; 1001.925;  224.875;    0.000
982.319;  999.925;  217.875;    0.000
982.485;  987.925;  266.875;    0.000
982.650; 1066.925;  245.875;    0.000
982.815;  993.925;  229.875;    0.000
982.980; 1013.925;  203.875;    0.000
983.146;  924.925;  242.875;    0.000
983.311; 1014.925;  144.875;    0.000
983.476;  976.925;  222.875;    0.000
983.641;  905.925;  206.875;    0.000
983.806;  949.925;  217.875;    0.000
983.971; 1053.925;  254.875;    0.000
984.136; 1030.925;  217.875;    0.000
984.301;  917.925;  202.875;    0.000
984.466;  915.925;  206.875;    0.000
984.631;  985.925;  224.875;    0.000
984.796; 1017.925;  218.875;    0.000
984.961; 1024.925;  202.875;    0.000
985.126; 1027.925;  238.875;    0.000
985.291; 1016.925;  220.875;    0.000
985.455;  983.925;  223.875;    0.000
985.620;  993.925;  218.875;    0.000
985.785;  965.925;  228.875;    0.000
985.950;  988.925;  212.875;    0.000
986.114;  999.925;  215.875;    0.000
986.279;  974.925;  243.875;    0.000
986.444; 1059.925;  222.875;    0.000
986.608; 1023.925;  243.875;    0.000
986.773; 1051.925;  213.875;    0.000
986.937; 1026.925;  267.875;    0.000
987.102; 1096.925;  235.875;    0.000
987.266;  984.925;  210.875;    0.000
987.431; 1042.925;  239.875;    0.000
987.595; 1036.925;  230.875;    0.000
987.760; 1034.925;  229.875;    0.000
987.924; 1001.925;  217.875;    0.000
988.088;  975.925;  210.875;    0.000
988.253;  954.925;  215.875;    0.000
988.417; 1009.925;  186.875;    0.000
988.581;  994.925;  214.875;    0.000
988.746;  963.925;  212.875;    0.000
988.910;  992.925;  192.875;    0.000
989.074; 1030.925;  195.875;    0.000
989.238;  971.925;  226.875;    0.000
989.402;  968.925;  214.875;    0.000
989.566;  958.925;  201.875;    0.000
989.731; 1003.925;  199.875;    0.000
989.895;  970.925;  205.875;    0.000
990.059;  958.925;  204.875;    0.000
990.223;  953.925;  182.875;    0.000
990.387;  908.925;  220.875;    0.000
990.551;  936.925;  199.875;    0.000
990.714;  962.925;  202.875;    0.000
990.878; 1006.925;  201.875;    0.000
991.042;  897.925;  202.875;    0.000
991.206;  893.925;  215.875;    0.000
991.370;  975.925;  217.875;    0.000
991.534;  878.925;  152.875;    0.000
991.697;  942.925;  194.875;    0.000
991.861; 1013.925;  208.875;    0.000
992.025;  945.925;  209.875;    0.000
992.188;  900.925;  182.875;    0.000
992.352;  944.925;  181.875;    0.000
992.516;  852.925;  192.875;    0.000
992.679;  945.925;  183.875;    0.000
992.843;  901.925;  156.875;    0.000
993.006;  869.925;  192.875;    0.000
993.170;  941.925;  172.875;    0.000
993.333;  949.925;  195.875;    0.000
993.497;  911.925;  185.875;    0.000
993.660;  917.925;  155.875;    0.000
993.824;  863.925;  199.875;    0.000
993.987;  883.925;  211.875;    0.000
994.150;  891.925;  173.875;    0.000
994.314;  962.925;  202.875;    0.000
994.477;  839.925;  171.875;    0.000
994.640;  932.925;  191.875;    0.000
994.803;  950.925;  203.875;    0.000
994.967;  940.925;  198.875;    0.000
995.130;  938.925;  192.875;    0.000
995.293;  906.925;  211.875;    0.000
995.456;  951.925;  207.875;    0.000
995.619;  986.925;  207.875;    0.000
995.782;  943.925;  186.875;    0.000
995.945;  868.925;  203.875;    0.000
996.108;  888.925;  195.875;    0.000
996.271;  932.925;  195.875;    0.000
996.434;  908.925;  179.875;    0.000
996.597;  888.925;  170.875;    0.000
996.760;  861.925;  161.875;    0.000
996.923;  837.925;  177.875;    0.000
997.086;  935.925;  199.875;    0.000
997.248;  949.925;  225.875;    0.000
997.411;  823.925;  194.875;    0.000
997.574;  873.925;  204.875;    0.000
997.737;  851.925;  236.875;    0.000
997.899;  908.925;  191.875;    0.000
998.062;  885.925;  178.875;    0.000
998.225;  886.925;  176.875;    0.000
998.387;  857.925;  203.875;    0.000
998.550;  922.925;  155.875;    0.000
998.712;  851.925;  169.875;    0.000
998.875;  933.925;  234.875;    0.000
999.037;  870.925;  211.875;    0.000
999.200;  937.925;  185.875;    0.000
999.362;  944.925;  199.875;    0.000
999.525;  878.925;  234.875;    0.000
999.687;  887.925;  194.875;    0.000
999.849;  906.925;  223.875;    0.000
1000.012;  925.925;  222.875;    0.000
1000.174;  921.925;  187.875;    0.000
1000.336;  940.925;  204.875;    0.000
1000.499;  940.925;  240.875;    0.000
1000.661;  954.925;  215.875;    0.000
1000.823;  949.925;  206.875;    0.000
1000.985;  891.925;  197.875;    0.000
1001.147;  967.925;  221.875;    0.000
1001.309;  939.925;  207.875;    0.000
1001.471;  890.925;  227.875;    0.000
1001.633;  957.925;  208.875;    0.000
1001.796;  924.925;  158.875;    0.000
1001.958;  940.925;  210.875;    0.000
1002.119;  958.925;  223.875;    0.000
1002.281;  980.925;  211.875;    0.000
1002.443;  937.925;  227.875;    0.000
1002.605;  985.925;  186.875;    0.000
1002.767; 1035.925;  242.875;    0.000
1002.929; 1148.925;  219.875;    0.000
1003.091; 1025.925;  191.875;    0.000
1003.252; 1123.925;  233.875;    0.000
1003.414; 1111.925;  214.875;    0.000
1003.576; 1078.925;  186.875;    0.000
1003.738; 1227.925;  175.875;    0.000
1003.899; 1315.925;  237.875;    0.000
1004.061; 1380.925;  220.875;    0.000
1004.222; 1414.925;  186.875;    0.000
1004.384; 1436.925;  216.875;    0.000
1004.546; 1490.925;  203.875;    0.000
1004.707; 1428.925;  216.875;    0.000
1004.869; 1419.925;  219.875;    0.000
1005.030; 1552.925;  188.875;    0.000
1005.191; 1435.925;  223.875;    0.000
1005.353; 1498.925;  227.875;    0.000
1005.514; 1371.925;  235.875;    0.000
1005.675; 1350.925;  201.875;    0.000
1005.837; 1425.925;  199.875;    0.000
1005.998; 1348.925;  219.875;    0.000
1006.159; 1290.925;  235.875;    0.000
1006.321; 1314.925;  199.875;    0.000
1006.482; 1328.925;  222.875;    0.000
1006.643; 1249.925;  195.875;    0.000
1006.804; 1417.925;  205.875;    0.000
1006.965; 1402.925;  199.875;    0.000
1007.126; 1322.925;  231.875;    0.000
1007.287; 1313.925;  208.875;    0.000
1007.448; 1365.925;  205.875;    0.000
1007.609; 1387.925;  256.875;    0.000
1007.770; 1372.925;  231.875;    0.000
1007.931; 1382.925;  223.875;    0.000
1008.092; 1383.925;  217.875;    0.000
1008.253; 1383.925;  236.875;    0.000
1008.414; 1366.925;  197.875;    0.000
1008.575; 1483.925;  233.875;    0.000
1008.736; 1314.925;  193.875;    0.000
1008.896; 1372.925;  238.875;    0.000
1009.057; 1402.925;  245.875;    0.000
1009.218; 1500.925;  240.875;    0.000
1009.379; 1450.925;  210.875;    0.000
1009.539; 1514.925;  234.875;    0.000
1009.700; 1437.925;  228.875;    0.000
1009.860; 1530.925;  238.875;    0.000
1010.021; 1377.925;  199.875;    0.000
1010.182; 1422.925;  214.875;    0.000
1010.342; 1518.925;  216.875;    0.000
1010.503; 1547.925;  207.875;    0.000
1010.663; 1530.925;  258.875;    0.000
1010.823; 1577.925;  243.875;    0.000
1010.984; 1738.925;  268.875;    0.000
1011.144; 1608.925;  217.875;    0.000
1011.305; 1828.925;  237.875;    0.000
1011.465; 1778.925;  216.875;    0.000
1011.625; 1961.925;  195.875;    0.000
1011.785; 1922.925;  201.875;    0.000
1011.946; 1829.925;  200.875;    0.000
1012.106; 1957.925;  206.875;    0.000
1012.266; 1832.925;  227.875;    0.000
1012.426; 1871.925;  221.875;    0.000
1012.586; 1824.925;  198.875;    0.000
1012.746; 1835.925;  215.875;    0.000
1012.906; 1807.925;  226.875;    0.000
1013.066; 1761.925;  221.875;    0.000
1013.226; 1672.925;  202.875;    0.000
1013.386; 1849.925;  210.875;    0.000
1013.546; 1758.925;  243.875;    0.000
1013.706; 1702.925;  200.875;    0.000
1013.866; 1673.925;  232.875;    0.000
1014.026; 1683.925;  206.875;    0.000
1014.186; 1645.925;  222.875;    0.000
1014.346; 1726.925;  233.875;    0.000
1014.505; 1704.925;  241.875;    0.000
1014.665; 1755.925;  225.875;    0.000
1014.825; 1688.925;  196.875;    0.000
1014.985; 1733.925;  234.875;    0.000
1015.144; 1840.925;  232.875;    0.000
1015.304; 1755.925;  214.875;    0.000
1015.464; 1722.925;  210.875;    0.000
1015.623; 1737.925;  219.875;    0.000
1015.783; 1831.925;  216.875;    0.000
1015.942; 1863.925;  267.875;    0.000
1016.102; 1996.925;  234.875;    0.000
1016.261; 1842.925;  230.875;    0.000
1016.420; 2037.925;  225.875;    0.000
1016.580; 2228.925;  205.875;    0.000
1016.739; 2138.925;  199.875;    0.000
1016.899; 2167.925;  218.875;    0.000
1017.058; 2310.925;  204.875;    0.000
1017.217; 2415.925;  196.875;    0.000
1017.376; 2329.925;  204.875;    0.000
1017.536; 2344.925;  195.875;    0.000
1017.695; 2206.925;  216.875;    0.000
1017.854; 2214.925;  235.875;    0.000
1018.013; 2142.925;  189.875;    0.000
1018.172; 1975.925;  217.875;    0.000
1018.331; 2063.925;  215.875;    0.000
1018.490; 2084.925;  233.875;    0.000
1018.649; 1902.925;  211.875;    0.000
1018.808; 2114.925;  196.875;    0.000
1018.967; 2218.925;  222.875;    0.000
1019.126; 2336.925;  221.875;    0.000
1019.285; 2245.925;  212.875;    0.000
1019.444; 2232.925;  231.875;    0.000
1019.603; 2132.925;  227.875;    0.000
1019.762; 2172.925;  192.875;    0.000
1019.921; 2235.925;  240.875;    0.000
1020.079; 2037.925;  209.875;    0.000
1020.238; 2249.925;  211.875;    0.000
1020.397; 2307.925;  253.875;    0.000
1020.555; 2203.925;  179.875;    0.000
1020.714; 2276.925;  225.875;    0.000
1020.873; 2347.925;  232.875;    0.000
1021.031; 2311.925;  245.875;    0.000
1021.190; 2360.925;  230.875;    0.000
1021.348; 2294.925;  221.875;    0.000
1021.507; 2307.925;  212.875;    0.000
1021.665; 2456.925;  211.875;    0.000
1021.824; 2440.925;  206.875;    0.000
1021.982; 2187.925;  218.875;    0.000
1022.141; 2236.925;  232.875;    0.000
1022.299; 2464.925;  193.875;    0.000
1022.457; 2495.925;  217.875;    0.000
1022.616; 2331.925;  248.875;    0.000
1022.774; 2242.925;  222.875;    0.000
1022.932; 2351.925;  211.875;    0.000
1023.090; 2409.925;  288.875;    0.000
1023.249; 2500.925;  214.875;    0.000
1023.407; 2338.925;  233.875;    0.000
1023.565; 2272.925;  208.875;    0.000
1023.723; 2448.925;  217.875;    0.000
1023.881; 2465.925;  235.875;    0.000
1024.039; 2471.925;  228.875;    0.000
1024.197; 2324.925;  216.875;    0.000
1024.355; 2301.925;  251.875;    0.000
1024.513; 2393.925;  232.875;    0.000
1024.671; 2733.925;  217.875;    0.000
1024.829; 2560.925;  255.875;    0.000
1024.987; 2317.925;  203.875;    0.000
1025.145; 2489.925;  239.875;    0.000
1025.302; 2479.925;  209.875;    0.000
1025.460; 2649.925;  224.875;    0.000
1025.618; 2745.925;  193.875;    0.000
1025.776; 2393.925;  209.875;    0.000
1025.933; 2341.925;  229.875;    0.000
1026.091; 2594.925;  218.875;    0.000
1026.249; 2619.925;  269.875;    0.000
1026.406; 2685.925;  264.875;    0.000
1026.564; 2531.925;  230.875;    0.000
1026.721; 2515.925;  198.875;    0.000
1026.879; 2392.925;  216.875;    0.000
1027.036; 2628.925;  226.875;    0.000
1027.194; 2901.925;  245.875;    0.000
1027.351; 2654.925;  236.875;    0.000
1027.509; 2558.925;  262.875;    0.000
1027.666; 2425.925;  227.875;    0.000
1027.823; 2705.925;  214.875;    0.000
1027.981; 2939.925;  258.875;    0.000
1028.138; 2844.925;  239.875;    0.000
1028.295; 2636.925;  226.875;    0.000
1028.452; 2425.925;  225.875;    0.000
1028.609; 2549.925;  276.875;    0.000
1028.767; 2890.925;  228.875;    0.000
1028.924; 3133.925;  213.875;    0.000
1029.081; 3001.925;  232.875;    0.000
1029.238; 2683.925;  250.875;    0.000
1029.395; 2465.925;  255.875;    0.000
1029.552; 2718.925;  217.875;    0.000
1029.709; 3083.925;  210.875;    0.000
1029.866; 3101.925;  243.875;    0.000
1030.023; 2900.925;  202.875;    0.000
1030.180; 2569.925;  233.875;    0.000
1030.337; 2564.925;  234.875;    0.000
1030.494; 2714.925;  222.875;    0.000
1030.650; 2927.925;  241.875;    0.000
1030.807; 3071.925;  206.875;    0.000
1030.964; 2955.925;  206.875;    0.000
1031.121; 2837.925;  228.875;    0.000
1031.277; 2646.925;  228.875;    0.000
1031.434; 2792.925;  234.875;    0.000
1031.591; 2980.925;  250.875;    0.000
1031.747; 3196.925;  246.875;    0.000
1031.904; 2987.925;  201.875;    0.000
1032.060; 2840.925;  237.875;    0.000
1032.217; 2895.925;  232.875;    0.000
1032.373; 2825.925;  210.875;    0.000
1032.530; 3045.925;  246.875;    0.000
1032.686; 3364.925;  196.875;    0.000
1032.843; 3309.925;  212.875;    0.000
1032.999; 3110.925;  243.875;    0.000
1033.155; 3237.925;  234.875;    0.000
1033.312; 3161.925;  246.875;    0.000
1033.468; 3399.925;  233.875;    0.000
1033.624; 3903.925;  237.875;    0.000
1033.780; 4048.925;  263.875;    0.000
1033.937; 4271.925;  214.875;    0.000
1034.093; 4035.925;  230.875;    0.000
1034.249; 4342.925;  206.875;    0.000
1034.405; 4072.925;  238.875;    0.000
1034.561; 4343.925;  231.875;    0.000
1034.717; 4504.925;  228.875;    0.000
1034.873; 4546.925;  262.875;    0.000
1035.029; 4736.925;  252.875;    0.000
1035.185; 4439.925;  232.875;    0.000
1035.341; 4370.925;  245.875;    0.000
1035.497; 4737.925;  253.875;    0.000
1035.653; 4466.925;  252.875;    0.000
1035.809; 5295.925;  245.875;    0.000
1035.964; 5352.925;  229.875;    0.000
1036.120; 5082.925;  226.875;    0.000
1036.276; 4885.925;  236.875;    0.000
1036.432; 4810.925;  203.875;    0.000
1036.587; 4704.925;  228.875;    0.000
1036.743; 4997.925;  240.875;    0.000
1036.899; 5112.925;  220.875;    0.000
1037.054; 5187.925;  153.875;    0.000
1037.210; 5664.925;  219.875;    0.000
1037.365; 5829.925;  229.875;    0.000
1037.521; 5417.925;  257.875;    0.000
1037.676; 5723.925;  211.875;    0.000
1037.832; 4978.925;  234.875;    0.000
1037.987; 5281.925;  235.875;    0.000
1038.143; 5279.925;  176.875;    0.000
1038.298; 5931.925;  262.875;    0.000
1038.453; 5750.925;  209.875;    0.000
1038.609; 6006.925;  230.875;    0.000
1038.764; 5853.925;  253.875;    0.000
1038.919; 6060.925;  195.875;    0.000
1039.074; 6312.925;  234.875;    0.000
1039.229; 5704.925;  234.875;    0.000
1039.385; 5596.925;  266.875;    0.000
1039.540; 6077.925;  252.875;    0.000
1039.695; 6439.925;  231.875;    0.000
1039.850; 6679.925;  208.875;    0.000
1040.005; 6767.925;  232.875;    0.000
1040.160; 7449.925;  214.875;    0.000
1040.315; 7151.925;  221.875;    0.000
1040.470; 6990.925;  207.875;    0.000
1040.625; 6324.925;  249.875;    0.000
1040.780; 6444.925;  251.875;    0.000
1040.935; 6515.925;  254.875;    0.000
1041.089; 6602.925;  210.875;    0.000
1041.244; 7242.925;  225.875;    0.000
1041.399; 7645.925;  208.875;    0.000
1041.554; 7997.925;  249.875;    0.000
1041.708; 7972.925;  254.875;    0.000
1041.863; 8050.925;  248.875;    0.000
1042.018; 8804.925;  280.875;    0.000
1042.172; 8227.925;  233.875;    0.000
1042.327; 7459.925;  256.875;    0.000
1042.481; 7615.925;  210.875;    0.000
1042.636; 7888.925;  229.875;    0.000
1042.791; 8553.925;  215.875;    0.000
1042.945; 8948.925;  256.875;    0.000
1043.099; 9266.925;  251.875;    0.000
1043.254; 9174.925;  204.875;    0.000
1043.408; 9835.925;  278.875;    0.000
1043.563;10035.925;  211.875;    0.000
1043.717; 9425.925;  259.875;    0.000
1043.871; 9128.925;  233.875;    0.000
1044.025; 9040.925;  221.875;    0.000
1044.180; 8446.925;  208.875;    0.000
1044.334; 8920.925;  255.875;    0.000
1044.488; 9347.925;  269.875;    0.000
1044.642;10351.925;  228.875;    0.000
1044.796;11471.925;  232.875;    0.000
1044.950;11786.925;  249.875;    0.000
1045.104;10899.925;  205.875;    0.000
1045.258;11670.925;  206.875;    0.000
1045.412;11996.925;  251.875;    0.000
1045.566;10698.925;  249.875;    0.000
1045.720;11020.925;  206.875;    0.000
1045.874; 9986.925;  232.875;    0.000
1046.028; 9902.925;  266.875;    0.000
1046.182;10095.925;  217.875;    0.000
1046.336;10882.925;  216.875;    0.000
1046.489;11275.925;  236.875;    0.000
1046.643;11638.925;  253.875;    0.000
1046.797;11594.925;  244.875;    0.000
1046.951;12212.925;  234.875;    0.000
1047.104;12362.925;  281.875;    0.000
1047.258;13034.925;  253.875;    0.000
1047.411;13030.925;  228.875;    0.000
1047.565;12138.925;  273.875;    0.000
1047.719;11921.925;  232.875;    0.000
1047.872;11578.925;  230.875;    0.000
1048.026;11572.925;  282.875;    0.000
1048.179;11602.925;  225.875;    0.000
1048.332;11184.925;  234.875;    0.000
1048.486;10569.925;  223.875;    0.000
1048.639;11740.925;  248.875;    0.000
1048.792;12691.925;  244.875;    0.000
1048.946;13584.925;  210.875;    0.000
1049.099;15335.925;  242.875;    0.000
1049.252;14591.925;  269.875;    0.000
1049.406;13761.925;  285.875;    0.000
1049.559;14274.925;  277.875;    0.000
1049.712;14669.925;  254.875;    0.000
1049.865;15288.925;  252.875;    0.000
1050.018;14312.925;  270.875;    0.000
1050.171;13225.925;  230.875;    0.000
1050.324;13514.925;  268.875;    0.000
1050.477;12993.925;  262.875;    0.000
1050.630;12109.925;  243.875;    0.000
1050.783;14063.925;  216.875;    0.000
1050.936;14465.925;  250.875;    0.000
1051.089;13734.925;  247.875;    0.000
1051.242;15077.925;  300.875;    0.000
1051.394;15531.925;  233.875;    0.000
1051.547;14794.925;  263.875;    0.000
1051.700;15311.925;  238.875;    0.000
1051.853;15772.925;  299.875;    0.000
1052.005;17427.926;  275.875;    0.000
1052.158;17090.926;  304.875;    0.000
1052.311;18960.926;  251.875;    0.000
1052.463;17502.926;  276.875;    0.000
1052.616;16137.925;  271.875;    0.000
1052.768;15912.925;  285.875;    0.000
1052.921;16080.925;  261.875;    0.000
1053.073;16471.926;  333.875;    0.000
1053.226;16448.926;  271.875;    0.000
1053.378;17195.926;  309.875;    0.000
1053.531;16841.926;  266.875;    0.000
1053.683;16887.926;  278.875;    0.000
1053.835;15084.925;  274.875;    0.000
1053.988;12561.925;  287.875;    0.000
1054.140; 3820.925;  350.875;    0.000
1054.292; 1089.925;  338.875;    0.000
1054.444;  898.925;  270.875;    0.000
1054.596;  851.925;  294.875;    0.000
1054.749;  759.925;  285.875;    0.000
1054.901;  717.925;  254.875;    0.000
1055.053;  711.925;  320.875;    0.000
1055.205;  706.925;  284.875;    0.000
1055.357;  668.925;  298.875;    0.000
1055.509;  652.925;  304.875;    0.000
1055.661;  665.925;  350.875;    0.000
1055.813;  644.925;  289.875;    0.000
1055.965;  594.925;  277.875;    0.000
1056.116;  625.925;  288.875;    0.000
1056.268;  607.925;  311.875;    0.000
1056.420;  639.925;  308.875;    0.000

