
Integration time [ms]:   0.300
Averaging Nr. [scans]: 1
Smoothing Nr. [pixels]: 0
Data measured with spectrometer [name]: NIR
Wave   ;Sample   ;Dark     ;Reference
[nm]   ;[counts] ;[counts] ;[counts] 

691.496;   45.050;  102.875;    0.000
691.696;   74.050;  181.875;    0.000
691.896;   21.050;  138.875;    0.000
692.096;   60.050;  182.875;    0.000
692.296;   23.050;  145.875;    0.000
692.496;   62.050;  154.875;    0.000
692.695;   49.050;  108.875;    0.000
692.895;   88.050;  176.875;    0.000
693.095;   46.050;  138.875;    0.000
693.295;  115.050;  192.875;    0.000
693.495;   73.050;  170.875;    0.000
693.695;   52.050;  147.875;    0.000
693.894;   68.050;  191.875;    0.000
694.094;   59.050;  148.875;    0.000
694.294;   43.050;  147.875;    0.000
694.494;  204.050;  140.875;    0.000
694.693; 1502.050;  137.875;    0.000
694.893; 1610.050;  141.875;    0.000
695.093; 1683.050;  105.875;    0.000
695.293; 1727.050;  115.875;    0.000
695.492; 1708.050;   81.875;    0.000
695.692; 1693.050;  162.875;    0.000
695.891; 1745.050;  162.875;    0.000
696.091; 1785.050;  166.875;    0.000
696.291; 1717.050;  143.875;    0.000
696.490; 1702.050;  170.875;    0.000
696.690; 1674.050;  142.875;    0.000
696.889; 1740.050;  186.875;    0.000
697.089; 1738.050;  120.875;    0.000
697.288; 1772.050;  215.875;    0.000
697.488; 1851.050;  178.875;    0.000
697.687; 1689.050;  170.875;    0.000
697.887; 1714.050;  140.875;    0.000
698.086; 1717.050;  131.875;    0.000
698.286; 1656.050;  117.875;    0.000
698.485; 1749.050;  136.875;    0.000
698.684; 1736.050;  126.875;    0.000
698.884; 1767.050;  161.875;    0.000
699.083; 1810.050;   95.875;    0.000
699.282; 1838.050;  120.875;    0.000
699.482; 1936.050;  131.875;    0.000
699.681; 1698.050;  168.875;    0.000
699.880; 1733.050;  154.875;    0.000
700.080; 1773.050;  149.875;    0.000
700.279; 1665.050;   99.875;    0.000
700.478; 1770.050;  157.875;    0.000
700.677; 1751.050;  111.875;    0.000
700.877; 1760.050;  126.875;    0.000
701.076; 1804.050;  142.875;    0.000
701.275; 1714.050;  107.875;    0.000
701.474; 1875.050;   72.875;    0.000
701.673; 1833.050;   87.875;    0.000
701.872; 1744.050;  170.875;    0.000
702.071; 1808.050;  136.875;    0.000
702.271; 1809.050;  121.875;    0.000
702.470; 1785.050;  139.875;    0.000
702.669; 1786.050;  121.875;    0.000
702.868; 1940.050;  146.875;    0.000
703.067; 1786.050;  159.875;    0.000
703.266; 1908.050;  122.875;    0.000
703.465; 1888.050;  121.875;    0.000
703.664; 1921.050;  144.875;    0.000
703.863; 1860.050;  140.875;    0.000
704.062; 1819.050;  109.875;    0.000
704.260; 1840.050;  164.875;    0.000
704.459; 1794.050;  124.875;    0.000
704.658; 1844.050;  109.875;    0.000
704.857; 1808.050;  149.875;    0.000
705.056; 1741.050;  112.875;    0.000
705.255; 1698.050;   95.875;    0.000
705.454; 1861.050;  105.875;    0.000
705.652; 1798.050;  134.875;    0.000
705.851; 1964.050;   92.875;    0.000
706.050; 1990.050;  127.875;    0.000
706.249; 1769.050;  111.875;    0.000
706.447; 1824.050;   98.875;    0.000
706.646; 1747.050;  108.875;    0.000
706.845; 2046.050;   95.875;    0.000
707.043; 1937.050;   95.875;    0.000
707.242; 1826.050;   97.875;    0.000
707.441; 1940.050;  142.875;    0.000
707.639; 1885.050;  121.875;    0.000
707.838; 1851.050;  141.875;    0.000
708.037; 1860.050;  125.875;    0.000
708.235; 1951.050;  100.875;    0.000
708.434; 1848.050;  106.875;    0.000
708.632; 1854.050;   86.875;    0.000
708.831; 1961.050;  138.875;    0.000
709.029; 1764.050;   86.875;    0.000
709.228; 1943.050;  103.875;    0.000
709.426; 1968.050;  146.875;    0.000
709.625; 1897.050;  136.875;    0.000
709.823; 1866.050;  114.875;    0.000
710.022; 1852.050;  144.875;    0.000
710.220; 1829.050;  109.875;    0.000
710.418; 1996.050;  116.875;    0.000
710.617; 1788.050;   67.875;    0.000
710.815; 1859.050;  104.875;    0.000
711.013; 2002.050;  109.875;    0.000
711.212; 1936.050;  106.875;    0.000
711.410; 2022.050;   95.875;    0.000
711.608; 1946.050;  155.875;    0.000
711.807; 2065.050;  103.875;    0.000
712.005; 1955.050;  104.875;    0.000
712.203; 1934.050;   94.875;    0.000
712.401; 1943.050;  125.875;    0.000
712.599; 1937.050;  127.875;    0.000
712.798; 2044.050;  141.875;    0.000
712.996; 1925.050;   85.875;    0.000
713.194; 2021.050;   96.875;    0.000
713.392; 1887.050;   54.875;    0.000
713.590; 1950.050;  123.875;    0.000
713.788; 1914.050;  130.875;    0.000
713.986; 2010.050;  104.875;    0.000
714.184; 2042.050;   91.875;    0.000
714.382; 2111.050;  120.875;    0.000
714.580; 1955.050;   71.875;    0.000
714.778; 2041.050;   92.875;    0.000
714.976; 1975.050;  129.875;    0.000
715.174; 2085.050;   99.875;    0.000
715.372; 2281.050;  119.875;    0.000
715.570; 2383.050;   95.875;    0.000
715.768; 2562.050;  113.875;    0.000
715.966; 2547.050;   64.875;    0.000
716.164; 2490.050;  135.875;    0.000
716.362; 2494.050;  125.875;    0.000
716.560; 2411.050;  135.875;    0.000
716.758; 2281.050;   84.875;    0.000
716.955; 2261.050;  109.875;    0.000
717.153; 2325.050;   73.875;    0.000
717.351; 2149.050;  110.875;    0.000
717.549; 2159.050;  149.875;    0.000
717.746; 2232.050;  121.875;    0.000
717.944; 2152.050;  128.875;    0.000
718.142; 2248.050;  124.875;    0.000
718.340; 2162.050;   96.875;    0.000
718.537; 2231.050;  138.875;    0.000
718.735; 2234.050;  144.875;    0.000
718.933; 2210.050;   97.875;    0.000
719.130; 2352.050;  109.875;    0.000
719.328; 2211.050;  123.875;    0.000
719.525; 2165.050;  118.875;    0.000
719.723; 2159.050;  117.875;    0.000
719.920; 2035.050;   72.875;    0.000
720.118; 2200.050;   92.875;    0.000
720.316; 2217.050;  141.875;    0.000
720.513; 2118.050;   98.875;    0.000
720.711; 2163.050;  146.875;    0.000
720.908; 2111.050;  113.875;    0.000
721.105; 2140.050;  157.875;    0.000
721.303; 2184.050;  106.875;    0.000
721.500; 2125.050;   88.875;    0.000
721.698; 2079.050;   88.875;    0.000
721.895; 2185.050;   94.875;    0.000
722.092; 2134.050;   82.875;    0.000
722.290; 2094.050;  136.875;    0.000
722.487; 2096.050;   67.875;    0.000
722.684; 2385.050;  115.875;    0.000
722.882; 2124.050;  104.875;    0.000
723.079; 2133.050;  122.875;    0.000
723.276; 2163.050;   91.875;    0.000
723.473; 2188.050;   89.875;    0.000
723.671; 2182.050;   97.875;    0.000
723.868; 2164.050;  117.875;    0.000
724.065; 2256.050;  102.875;    0.000
724.262; 2119.050;  137.875;    0.000
724.459; 2206.050;   48.875;    0.000
724.656; 2113.050;  122.875;    0.000
724.854; 2266.050;   96.875;    0.000
725.051; 2200.050;  120.875;    0.000
725.248; 2245.050;  146.875;    0.000
725.445; 2053.050;  117.875;    0.000
725.642; 2160.050;  106.875;    0.000
725.839; 2261.050;  143.875;    0.000
726.036; 2128.050;   79.875;    0.000
726.233; 2178.050;   90.875;    0.000
726.430; 2200.050;  124.875;    0.000
726.627; 2266.050;   98.875;    0.000
726.824; 2270.050;   91.875;    0.000
727.021; 2196.050;  131.875;    0.000
727.218; 2101.050;  110.875;    0.000
727.414; 2362.050;   83.875;    0.000
727.611; 2185.050;   86.875;    0.000
727.808; 2259.050;  131.875;    0.000
728.005; 2264.050;  105.875;    0.000
728.202; 2244.050;  128.875;    0.000
728.399; 2199.050;  113.875;    0.000
728.595; 2186.050;  102.875;    0.000
728.792; 2205.050;   91.875;    0.000
728.989; 2182.050;  122.875;    0.000
729.186; 2310.050;  103.875;    0.000
729.382; 2265.050;  106.875;    0.000
729.579; 2239.050;  114.875;    0.000
729.776; 2308.050;  115.875;    0.000
729.972; 2207.050;  108.875;    0.000
730.169; 2343.050;  111.875;    0.000
730.366; 2230.050;  100.875;    0.000
730.562; 2345.050;   86.875;    0.000
730.759; 2290.050;   93.875;    0.000
730.955; 2257.050;  127.875;    0.000
731.152; 2271.050;   99.875;    0.000
731.348; 2287.050;   97.875;    0.000
731.545; 2236.050;   98.875;    0.000
731.741; 2391.050;  130.875;    0.000
731.938; 2366.050;  115.875;    0.000
732.134; 2437.050;  107.875;    0.000
732.331; 2285.050;   80.875;    0.000
732.527; 2322.050;  108.875;    0.000
732.724; 2315.050;  104.875;    0.000
732.920; 2273.050;  109.875;    0.000
733.116; 2134.050;  117.875;    0.000
733.313; 2338.050;   81.875;    0.000
733.509; 2447.050;   87.875;    0.000
733.705; 2231.050;  143.875;    0.000
733.902; 2362.050;   74.875;    0.000
734.098; 2277.050;   90.875;    0.000
734.294; 2209.050;  104.875;    0.000
734.490; 2339.050;  139.875;    0.000
734.687; 2345.050;  113.875;    0.000
734.883; 2185.050;   72.875;    0.000
735.079; 2418.050;  100.875;    0.000
735.275; 2340.050;  113.875;    0.000
735.471; 2097.050;   55.875;    0.000
735.667; 2270.050;  106.875;    0.000
735.863; 2430.050;  131.875;    0.000
736.060; 2463.050;  127.875;    0.000
736.256; 2474.050;   76.875;    0.000
736.452; 2318.050;  127.875;    0.000
736.648; 2409.050;  136.875;    0.000
736.844; 2331.050;  113.875;    0.000
737.040; 2357.050;  125.875;    0.000
737.236; 2411.050;   99.875;    0.000
737.432; 2423.050;   75.875;    0.000
737.628; 2430.050;  155.875;    0.000
737.824; 2509.050;  116.875;    0.000
738.019; 2294.050;   92.875;    0.000
738.215; 2375.050;  113.875;    0.000
738.411; 2381.050;  135.875;    0.000
738.607; 2373.050;   53.875;    0.000
738.803; 2506.050;   79.875;    0.000
738.999; 2391.050;  117.875;    0.000
739.195; 2427.050;  106.875;    0.000
739.390; 2434.050;  125.875;    0.000
739.586; 2390.050;  102.875;    0.000
739.782; 2455.050;  125.875;    0.000
739.978; 2519.050;  124.875;    0.000
740.173; 2605.050;   96.875;    0.000
740.369; 2477.050;  118.875;    0.000
740.565; 2507.050;  128.875;    0.000
740.760; 2643.050;  118.875;    0.000
740.956; 2545.050;  109.875;    0.000
741.152; 2550.050;  151.875;    0.000
741.347; 2672.050;  112.875;    0.000
741.543; 2533.050;  113.875;    0.000
741.738; 2695.050;  128.875;    0.000
741.934; 2736.050;  144.875;    0.000
742.129; 2921.050;  105.875;    0.000
742.325; 3218.050;  137.875;    0.000
742.520; 3702.050;  128.875;    0.000
742.716; 3335.050;  121.875;    0.000
742.911; 3224.050;   75.875;    0.000
743.107; 3210.050;  100.875;    0.000
743.302; 3069.050;   72.875;    0.000
743.498; 3241.050;  137.875;    0.000
743.693; 3175.050;  124.875;    0.000
743.888; 3426.050;  121.875;    0.000
744.084; 3835.050;   93.875;    0.000
744.279; 4750.050;   75.875;    0.000
744.474; 4856.050;  136.875;    0.000
744.670; 4261.050;  109.875;    0.000
744.865; 3871.050;  142.875;    0.000
745.060; 3481.050;   84.875;    0.000
745.255; 3599.050;  149.875;    0.000
745.451; 3470.050;  101.875;    0.000
745.646; 3280.050;  132.875;    0.000
745.841; 3307.050;  126.875;    0.000
746.036; 3374.050;  125.875;    0.000
746.231; 3383.050;  150.875;    0.000
746.426; 3515.050;  118.875;    0.000
746.622; 4350.050;  135.875;    0.000
746.817; 5389.050;  122.875;    0.000
747.012; 6341.050;  134.875;    0.000
747.207; 5761.050;  124.875;    0.000
747.402; 4659.050;  122.875;    0.000
747.597; 4273.050;   95.875;    0.000
747.792; 4242.050;  168.875;    0.000
747.987; 3998.050;  110.875;    0.000
748.182; 3852.050;  119.875;    0.000
748.377; 3737.050;   70.875;    0.000
748.572; 3570.050;  113.875;    0.000
748.767; 3309.050;  123.875;    0.000
748.961; 3345.050;  110.875;    0.000
749.156; 3494.050;  135.875;    0.000
749.351; 3118.050;   98.875;    0.000
749.546; 3297.050;  126.875;    0.000
749.741; 2950.050;  129.875;    0.000
749.936; 3082.050;   86.875;    0.000
750.130; 2939.050;   97.875;    0.000
750.325; 3135.050;  110.875;    0.000
750.520; 2996.050;  120.875;    0.000
750.715; 3207.050;  122.875;    0.000
750.909; 3027.050;  120.875;    0.000
751.104; 2989.050;  118.875;    0.000
751.299; 2997.050;  122.875;    0.000
751.493; 3012.050;  129.875;    0.000
751.688; 3065.050;  138.875;    0.000
751.882; 2715.050;   87.875;    0.000
752.077; 2884.050;  142.875;    0.000
752.272; 2966.050;  110.875;    0.000
752.466; 2918.050;  154.875;    0.000
752.661; 2832.050;   96.875;    0.000
752.855; 2695.050;   93.875;    0.000
753.050; 2818.050;  122.875;    0.000
753.244; 2811.050;  110.875;    0.000
753.439; 2743.050;  116.875;    0.000
753.633; 2804.050;  131.875;    0.000
753.828; 2723.050;  130.875;    0.000
754.022; 2683.050;   96.875;    0.000
754.216; 2575.050;  114.875;    0.000
754.411; 2701.050;  145.875;    0.000
754.605; 2710.050;   65.875;    0.000
754.799; 2601.050;  116.875;    0.000
754.994; 2567.050;  117.875;    0.000
755.188; 2779.050;  124.875;    0.000
755.382; 2794.050;   80.875;    0.000
755.576; 2877.050;   90.875;    0.000
755.771; 2792.050;  115.875;    0.000
755.965; 2635.050;  106.875;    0.000
756.159; 2525.050;   87.875;    0.000
756.353; 2767.050;  125.875;    0.000
756.547; 2684.050;  146.875;    0.000
756.742; 2586.050;  111.875;    0.000
756.936; 2651.050;  108.875;    0.000
757.130; 2582.050;  101.875;    0.000
757.324; 2679.050;  114.875;    0.000
757.518; 2652.050;  136.875;    0.000
757.712; 2671.050;  123.875;    0.000
757.906; 2741.050;  115.875;    0.000
758.100; 2859.050;  186.875;    0.000
758.294; 2843.050;  118.875;    0.000
758.488; 2700.050;  167.875;    0.000
758.682; 2589.050;  137.875;    0.000
758.876; 2710.050;  135.875;    0.000
759.070; 2549.050;  132.875;    0.000
759.264; 2705.050;  118.875;    0.000
759.458; 2758.050;  111.875;    0.000
759.651; 2560.050;  142.875;    0.000
759.845; 2589.050;  105.875;    0.000
760.039; 2688.050;   73.875;    0.000
760.233; 2742.050;  156.875;    0.000
760.427; 2663.050;  119.875;    0.000
760.620; 2624.050;  136.875;    0.000
760.814; 2660.050;  126.875;    0.000
761.008; 2608.050;  126.875;    0.000
761.202; 2731.050;  123.875;    0.000
761.395; 2717.050;  141.875;    0.000
761.589; 2618.050;  107.875;    0.000
761.783; 2568.050;  122.875;    0.000
761.976; 2646.050;  120.875;    0.000
762.170; 2669.050;  147.875;    0.000
762.363; 2696.050;  144.875;    0.000
762.557; 2755.050;  119.875;    0.000
762.750; 2638.050;  118.875;    0.000
762.944; 2661.050;  145.875;    0.000
763.138; 2674.050;  123.875;    0.000
763.331; 2662.050;  129.875;    0.000
763.524; 2675.050;  109.875;    0.000
763.718; 2707.050;  150.875;    0.000
763.911; 2702.050;  140.875;    0.000
764.105; 2695.050;   97.875;    0.000
764.298; 2597.050;  128.875;    0.000
764.492; 2845.050;  132.875;    0.000
764.685; 2813.050;   92.875;    0.000
764.878; 2475.050;  111.875;    0.000
765.072; 2677.050;  116.875;    0.000
765.265; 2716.050;  135.875;    0.000
765.458; 2724.050;   69.875;    0.000
765.651; 2606.050;  145.875;    0.000
765.845; 2701.050;   95.875;    0.000
766.038; 2788.050;  147.875;    0.000
766.231; 2872.050;  119.875;    0.000
766.424; 4452.050;  126.875;    0.000
766.617; 4791.050;   92.875;    0.000
766.811; 3074.050;  109.875;    0.000
767.004; 2668.050;  107.875;    0.000
767.197; 2786.050;  171.875;    0.000
767.390; 2730.050;  114.875;    0.000
767.583; 2703.050;  109.875;    0.000
767.776; 2925.050;  130.875;    0.000
767.969; 2774.050;  103.875;    0.000
768.162; 2775.050;  139.875;    0.000
768.355; 2835.050;  142.875;    0.000
768.548; 2985.050;  140.875;    0.000
768.741; 2892.050;   82.875;    0.000
768.934; 2805.050;  107.875;    0.000
769.127; 2897.050;  121.875;    0.000
769.320; 2887.050;  106.875;    0.000
769.513; 2902.050;  145.875;    0.000
769.706; 3052.050;  120.875;    0.000
769.898; 4240.050;  135.875;    0.000
770.091; 3782.050;  146.875;    0.000
770.284; 2895.050;  108.875;    0.000
770.477; 2865.050;  148.875;    0.000
770.670; 2942.050;  163.875;    0.000
770.862; 3156.050;   97.875;    0.000
771.055; 2885.050;  116.875;    0.000
771.248; 2951.050;  143.875;    0.000
771.441; 2874.050;  125.875;    0.000
771.633; 3047.050;  125.875;    0.000
771.826; 3196.050;  132.875;    0.000
772.018; 3000.050;  123.875;    0.000
772.211; 3135.050;  143.875;    0.000
772.404; 3123.050;  144.875;    0.000
772.596; 3073.050;  130.875;    0.000
772.789; 3184.050;  109.875;    0.000
772.981; 3296.050;  151.875;    0.000
773.174; 3217.050;  119.875;    0.000
773.366; 3379.050;  179.875;    0.000
773.559; 3424.050;  106.875;    0.000
773.751; 3560.050;  120.875;    0.000
773.944; 3534.050;  159.875;    0.000
774.136; 3560.050;  131.875;    0.000
774.329; 3583.050;  141.875;    0.000
774.521; 3560.050;  114.875;    0.000
774.713; 3942.050;  169.875;    0.000
774.906; 3907.050;  151.875;    0.000
775.098; 4008.050;   99.875;    0.000
775.290; 4179.050;  166.875;    0.000
775.483; 4486.050;  146.875;    0.000
775.675; 4721.050;  106.875;    0.000
775.867; 4949.050;   91.875;    0.000
776.059; 5104.050;  137.875;    0.000
776.251; 6149.050;  124.875;    0.000
776.444; 6707.050;  168.875;    0.000
776.636; 7692.050;  138.875;    0.000
776.828; 9438.050;  155.875;    0.000
777.020;13824.050;  160.875;    0.000
777.212;20688.051;  153.875;    0.000
777.404;24051.051;  135.875;    0.000
777.596;21944.051;  144.875;    0.000
777.788;15979.050;  127.875;    0.000
777.980;11602.050;  141.875;    0.000
778.172; 9526.050;  138.875;    0.000
778.364; 8099.050;  143.875;    0.000
778.556; 6908.050;  123.875;    0.000
778.748; 6705.050;  103.875;    0.000
778.940; 5945.050;  176.875;    0.000
779.132; 5423.050;  144.875;    0.000
779.324; 5007.050;   75.875;    0.000
779.516; 4822.050;  117.875;    0.000
779.708; 4426.050;  151.875;    0.000
779.900; 4478.050;  127.875;    0.000
780.091; 3989.050;  155.875;    0.000
780.283; 3933.050;  157.875;    0.000
780.475; 3847.050;  140.875;    0.000
780.667; 4037.050;  141.875;    0.000
780.859; 3667.050;  113.875;    0.000
781.050; 3444.050;  153.875;    0.000
781.242; 3512.050;  118.875;    0.000
781.434; 3311.050;  121.875;    0.000
781.625; 3506.050;  146.875;    0.000
781.817; 3235.050;  154.875;    0.000
782.008; 3292.050;  144.875;    0.000
782.200; 3130.050;  152.875;    0.000
782.392; 3033.050;  160.875;    0.000
782.583; 3187.050;  122.875;    0.000
782.775; 3113.050;  144.875;    0.000
782.966; 3092.050;  143.875;    0.000
783.158; 2953.050;  125.875;    0.000
783.349; 3180.050;  173.875;    0.000
783.541; 2733.050;  166.875;    0.000
783.732; 2964.050;  163.875;    0.000
783.924; 2930.050;  157.875;    0.000
784.115; 2906.050;  158.875;    0.000
784.306; 2988.050;  160.875;    0.000
784.498; 3196.050;  132.875;    0.000
784.689; 2878.050;  181.875;    0.000
784.880; 2927.050;  156.875;    0.000
785.072; 2921.050;  134.875;    0.000
785.263; 2800.050;  155.875;    0.000
785.454; 2958.050;  141.875;    0.000
785.645; 2819.050;  114.875;    0.000
785.837; 2921.050;  137.875;    0.000
786.028; 2752.050;  158.875;    0.000
786.219; 2800.050;  135.875;    0.000
786.410; 2811.050;  152.875;    0.000
786.601; 2757.050;  132.875;    0.000
786.792; 2788.050;  152.875;    0.000
786.984; 2772.050;  162.875;    0.000
787.175; 2894.050;   97.875;    0.000
787.366; 2805.050;  129.875;    0.000
787.557; 2658.050;  135.875;    0.000
787.748; 2710.050;  127.875;    0.000
787.939; 2706.050;  152.875;    0.000
788.130; 2713.050;  182.875;    0.000
788.321; 2904.050;  130.875;    0.000
788.512; 2867.050;  161.875;    0.000
788.703; 2853.050;  127.875;    0.000
788.894; 2979.050;  121.875;    0.000
789.084; 2836.050;  134.875;    0.000
789.275; 2918.050;  108.875;    0.000
789.466; 2665.050;  152.875;    0.000
789.657; 2754.050;  115.875;    0.000
789.848; 2817.050;  150.875;    0.000
790.039; 2830.050;  132.875;    0.000
790.229; 2809.050;  169.875;    0.000
790.420; 2916.050;  159.875;    0.000
790.611; 2717.050;  123.875;    0.000
790.801; 2794.050;  144.875;    0.000
790.992; 2795.050;  177.875;    0.000
791.183; 2676.050;  128.875;    0.000
791.373; 2616.050;  123.875;    0.000
791.564; 2634.050;  131.875;    0.000
791.755; 2697.050;  103.875;    0.000
791.945; 2967.050;  104.875;    0.000
792.136; 2792.050;  115.875;    0.000
792.326; 2828.050;   99.875;    0.000
792.517; 2821.050;  139.875;    0.000
792.707; 2830.050;  155.875;    0.000
792.898; 2711.050;  139.875;    0.000
793.088; 3040.050;  153.875;    0.000
793.279; 2764.050;  137.875;    0.000
793.469; 3024.050;  109.875;    0.000
793.660; 2897.050;  119.875;    0.000
793.850; 3061.050;  119.875;    0.000
794.040; 3224.050;  132.875;    0.000
794.231; 3268.050;  122.875;    0.000
794.421; 3732.050;  124.875;    0.000
794.611; 3958.050;  151.875;    0.000
794.802; 4604.050;  121.875;    0.000
794.992; 5216.050;  139.875;    0.000
795.182; 5180.050;  132.875;    0.000
795.372; 4530.050;  149.875;    0.000
795.563; 4209.050;  153.875;    0.000
795.753; 4026.050;  120.875;    0.000
795.943; 3630.050;  121.875;    0.000
796.133; 3412.050;   97.875;    0.000
796.323; 3469.050;  122.875;    0.000
796.513; 3178.050;  142.875;    0.000
796.703; 3289.050;  125.875;    0.000
796.893; 3041.050;  126.875;    0.000
797.083; 3000.050;  150.875;    0.000
797.273; 3126.050;  108.875;    0.000
797.463; 3129.050;  156.875;    0.000
797.653; 2832.050;   80.875;    0.000
797.843; 2798.050;   88.875;    0.000
798.033; 2718.050;   96.875;    0.000
798.223; 2903.050;  159.875;    0.000
798.413; 2982.050;  155.875;    0.000
798.603; 2818.050;  125.875;    0.000
798.793; 2493.050;  141.875;    0.000
798.983; 2691.050;  113.875;    0.000
799.172; 2803.050;   85.875;    0.000
799.362; 2553.050;  141.875;    0.000
799.552; 2629.050;  122.875;    0.000
799.742; 2570.050;  124.875;    0.000
799.932; 2493.050;  102.875;    0.000
800.121; 2651.050;  146.875;    0.000
800.311; 2554.050;  122.875;    0.000
800.501; 2460.050;  120.875;    0.000
800.690; 2635.050;  141.875;    0.000
800.880; 2650.050;  146.875;    0.000
801.070; 2479.050;  122.875;    0.000
801.259; 2457.050;  138.875;    0.000
801.449; 2640.050;  115.875;    0.000
801.638; 2703.050;  132.875;    0.000
801.828; 2519.050;   92.875;    0.000
802.017; 2619.050;  150.875;    0.000
802.207; 2640.050;  134.875;    0.000
802.396; 2660.050;  133.875;    0.000
802.586; 2727.050;  117.875;    0.000
802.775; 2411.050;  155.875;    0.000
802.965; 2753.050;  132.875;    0.000
803.154; 2510.050;  176.875;    0.000
803.343; 2442.050;  106.875;    0.000
803.533; 2595.050;  154.875;    0.000
803.722; 2505.050;   97.875;    0.000
803.911; 2550.050;  107.875;    0.000
804.101; 2591.050;  145.875;    0.000
804.290; 2633.050;  130.875;    0.000
804.479; 2595.050;  152.875;    0.000
804.668; 2698.050;  160.875;    0.000
804.857; 2455.050;  161.875;    0.000
805.047; 2399.050;  126.875;    0.000
805.236; 2716.050;  136.875;    0.000
805.425; 2693.050;  153.875;    0.000
805.614; 2569.050;  139.875;    0.000
805.803; 2623.050;  144.875;    0.000
805.992; 2613.050;  160.875;    0.000
806.181; 2604.050;  139.875;    0.000
806.370; 2628.050;  104.875;    0.000
806.559; 2576.050;  103.875;    0.000
806.748; 2619.050;  145.875;    0.000
806.937; 2700.050;  151.875;    0.000
807.126; 2826.050;  119.875;    0.000
807.315; 2718.050;  139.875;    0.000
807.504; 2478.050;  143.875;    0.000
807.693; 2785.050;  164.875;    0.000
807.882; 2696.050;  135.875;    0.000
808.071; 2703.050;  131.875;    0.000
808.260; 2675.050;  113.875;    0.000
808.448; 2751.050;  161.875;    0.000
808.637; 2810.050;  125.875;    0.000
808.826; 2798.050;  155.875;    0.000
809.015; 2869.050;  113.875;    0.000
809.203; 3019.050;  152.875;    0.000
809.392; 2973.050;   90.875;    0.000
809.581; 2945.050;  186.875;    0.000
809.770; 2905.050;   99.875;    0.000
809.958; 3144.050;  146.875;    0.000
810.147; 2791.050;  115.875;    0.000
810.335; 2974.050;  122.875;    0.000
810.524; 3200.050;  150.875;    0.000
810.713; 3110.050;  121.875;    0.000
810.901; 3052.050;  156.875;    0.000
811.090; 3387.050;  161.875;    0.000
811.278; 3185.050;  138.875;    0.000
811.467; 3410.050;  184.875;    0.000
811.655; 3413.050;  150.875;    0.000
811.844; 3348.050;  137.875;    0.000
812.032; 3469.050;  142.875;    0.000
812.220; 3434.050;  134.875;    0.000
812.409; 3585.050;  143.875;    0.000
812.597; 3472.050;  164.875;    0.000
812.785; 3522.050;  188.875;    0.000
812.974; 3610.050;  156.875;    0.000
813.162; 3701.050;  166.875;    0.000
813.350; 3738.050;  115.875;    0.000
813.539; 3752.050;  167.875;    0.000
813.727; 3715.050;  165.875;    0.000
813.915; 3917.050;  137.875;    0.000
814.103; 4014.050;  166.875;    0.000
814.291; 4133.050;  151.875;    0.000
814.479; 4056.050;  147.875;    0.000
814.668; 4111.050;  166.875;    0.000
814.856; 4182.050;  160.875;    0.000
815.044; 4341.050;  172.875;    0.000
815.232; 4524.050;  193.875;    0.000
815.420; 4708.050;  173.875;    0.000
815.608; 4921.050;  134.875;    0.000
815.796; 4877.050;  105.875;    0.000
815.984; 4914.050;  125.875;    0.000
816.172; 5316.050;  160.875;    0.000
816.360; 5728.050;  162.875;    0.000
816.548; 5870.050;  160.875;    0.000
816.736; 6618.050;  132.875;    0.000
816.924; 7087.050;  184.875;    0.000
817.111; 7640.050;  145.875;    0.000
817.299; 8274.050;  132.875;    0.000
817.487; 9399.050;  193.875;    0.000
817.675;10973.050;  153.875;    0.000
817.863;13421.050;  153.875;    0.000
818.050;19036.051;  172.875;    0.000
818.238;32881.051;  131.875;    0.000
818.426;45961.051;  160.875;    0.000
818.613;37346.051;  136.875;    0.000
818.801;29158.051;  162.875;    0.000
818.989;27184.051;  153.875;    0.000
819.176;28846.051;  181.875;    0.000
819.364;39772.051;  165.875;    0.000
819.552;53645.051;  111.875;    0.000
819.739;45399.051;  192.875;    0.000
819.927;34722.051;  146.875;    0.000
820.114;28205.051;  154.875;    0.000
820.302;23166.051;  144.875;    0.000
820.489;19622.051;  133.875;    0.000
820.677;17587.051;  135.875;    0.000
820.864;15821.050;  130.875;    0.000
821.052;14444.050;   88.875;    0.000
821.239;13621.050;  143.875;    0.000
821.426;12775.050;  186.875;    0.000
821.614;13591.050;  171.875;    0.000
821.801;13774.050;   90.875;    0.000
821.988;11956.050;  143.875;    0.000
822.176;11388.050;   95.875;    0.000
822.363;11183.050;  148.875;    0.000
822.550;10479.050;  139.875;    0.000
822.737; 9629.050;  122.875;    0.000
822.924; 8540.050;  171.875;    0.000
823.112; 8306.050;  147.875;    0.000
823.299; 7815.050;  111.875;    0.000
823.486; 7293.050;  161.875;    0.000
823.673; 7202.050;  124.875;    0.000
823.860; 6706.050;  151.875;    0.000
824.047; 6333.050;  145.875;    0.000
824.234; 7319.050;  139.875;    0.000
824.421; 7130.050;  110.875;    0.000
824.608; 6523.050;  145.875;    0.000
824.795; 5945.050;  115.875;    0.000
824.982; 5532.050;  148.875;    0.000
825.169; 5241.050;  135.875;    0.000
825.356; 5001.050;  122.875;    0.000
825.543; 4781.050;  142.875;    0.000
825.730; 4776.050;   89.875;    0.000
825.917; 4624.050;  127.875;    0.000
826.104; 4272.050;  187.875;    0.000
826.290; 4364.050;  138.875;    0.000
826.477; 4090.050;  140.875;    0.000
826.664; 3976.050;  106.875;    0.000
826.851; 3762.050;  155.875;    0.000
827.038; 3868.050;  125.875;    0.000
827.224; 3746.050;  126.875;    0.000
827.411; 3677.050;  163.875;    0.000
827.598; 3626.050;  140.875;    0.000
827.784; 3567.050;  117.875;    0.000
827.971; 3450.050;  114.875;    0.000
828.157; 3311.050;  146.875;    0.000
828.344; 3290.050;  161.875;    0.000
828.531; 3247.050;  155.875;    0.000
828.717; 3241.050;  130.875;    0.000
828.904; 3121.050;  138.875;    0.000
829.090; 3085.050;  176.875;    0.000
829.277; 3205.050;  152.875;    0.000
829.463; 2991.050;  139.875;    0.000
829.650; 2926.050;  168.875;    0.000
829.836; 2878.050;  176.875;    0.000
830.022; 2914.050;  159.875;    0.000
830.209; 2978.050;  135.875;    0.000
830.395; 2855.050;  177.875;    0.000
830.581; 2873.050;  125.875;    0.000
830.768; 2715.050;  155.875;    0.000
830.954; 2625.050;  187.875;    0.000
831.140; 2793.050;  135.875;    0.000
831.327; 2657.050;  158.875;    0.000
831.513; 2628.050;  126.875;    0.000
831.699; 2597.050;  167.875;    0.000
831.885; 2426.050;  165.875;    0.000
832.071; 2688.050;  167.875;    0.000
832.257; 2478.050;  144.875;    0.000
832.444; 2534.050;  158.875;    0.000
832.630; 2518.050;  167.875;    0.000
832.816; 2449.050;  150.875;    0.000
833.002; 2420.050;  157.875;    0.000
833.188; 2305.050;  169.875;    0.000
833.374; 2383.050;  144.875;    0.000
833.560; 2365.050;  179.875;    0.000
833.746; 2276.050;  134.875;    0.000
833.932; 2300.050;  150.875;    0.000
834.118; 2250.050;   98.875;    0.000
834.303; 2231.050;  121.875;    0.000
834.489; 2242.050;  179.875;    0.000
834.675; 2232.050;  136.875;    0.000
834.861; 2222.050;  130.875;    0.000
835.047; 2325.050;  132.875;    0.000
835.233; 2063.050;  104.875;    0.000
835.418; 2297.050;  143.875;    0.000
835.604; 2158.050;  127.875;    0.000
835.790; 2167.050;  138.875;    0.000
835.976; 2052.050;  137.875;    0.000
836.161; 2407.050;  155.875;    0.000
836.347; 2220.050;  101.875;    0.000
836.533; 2095.050;  121.875;    0.000
836.718; 2109.050;  150.875;    0.000
836.904; 2104.050;  168.875;    0.000
837.089; 2193.050;  169.875;    0.000
837.275; 2068.050;  172.875;    0.000
837.460; 2057.050;  140.875;    0.000
837.646; 2042.050;  144.875;    0.000
837.831; 2062.050;  137.875;    0.000
838.017; 2148.050;  176.875;    0.000
838.202; 2012.050;  107.875;    0.000
838.388; 2184.050;  181.875;    0.000
838.573; 2105.050;  151.875;    0.000
838.759; 2021.050;  160.875;    0.000
838.944; 2134.050;  121.875;    0.000
839.129; 2028.050;  145.875;    0.000
839.315; 2040.050;  166.875;    0.000
839.500; 2052.050;  143.875;    0.000
839.685; 2088.050;   93.875;    0.000
839.870; 2091.050;  160.875;    0.000
840.056; 2058.050;  132.875;    0.000
840.241; 2110.050;  154.875;    0.000
840.426; 1984.050;  161.875;    0.000
840.611; 2148.050;  186.875;    0.000
840.796; 1989.050;  135.875;    0.000
840.981; 2127.050;  147.875;    0.000
841.166; 2233.050;  138.875;    0.000
841.352; 1986.050;  156.875;    0.000
841.537; 2146.050;  170.875;    0.000
841.722; 2072.050;  143.875;    0.000
841.907; 2141.050;  143.875;    0.000
842.092; 2098.050;  166.875;    0.000
842.277; 2197.050;  113.875;    0.000
842.461; 2273.050;  126.875;    0.000
842.646; 2410.050;  145.875;    0.000
842.831; 2358.050;  193.875;    0.000
843.016; 2373.050;  162.875;    0.000
843.201; 2398.050;  144.875;    0.000
843.386; 2482.050;  160.875;    0.000
843.571; 2541.050;  136.875;    0.000
843.755; 2811.050;  134.875;    0.000
843.940; 3044.050;  136.875;    0.000
844.125; 3265.050;  169.875;    0.000
844.310; 3893.050;  189.875;    0.000
844.494; 5164.050;  167.875;    0.000
844.679; 7429.050;  184.875;    0.000
844.864; 7852.050;  147.875;    0.000
845.048; 5744.050;  140.875;    0.000
845.233; 4898.050;  178.875;    0.000
845.418; 4116.050;  145.875;    0.000
845.602; 3654.050;  147.875;    0.000
845.787; 3382.050;  147.875;    0.000
845.971; 3196.050;  165.875;    0.000
846.156; 2755.050;  106.875;    0.000
846.340; 2558.050;  168.875;    0.000
846.525; 2575.050;  155.875;    0.000
846.709; 2359.050;  157.875;    0.000
846.893; 2508.050;  166.875;    0.000
847.078; 2343.050;  138.875;    0.000
847.262; 2167.050;  171.875;    0.000
847.447; 2267.050;  135.875;    0.000
847.631; 2167.050;  136.875;    0.000
847.815; 2098.050;  136.875;    0.000
848.000; 1977.050;  126.875;    0.000
848.184; 2115.050;  131.875;    0.000
848.368; 1969.050;  153.875;    0.000
848.552; 1919.050;  137.875;    0.000
848.736; 2027.050;  151.875;    0.000
848.921; 1886.050;  156.875;    0.000
849.105; 1703.050;  153.875;    0.000
849.289; 1888.050;  180.875;    0.000
849.473; 1791.050;  156.875;    0.000
849.657; 1853.050;  157.875;    0.000
849.841; 1827.050;  147.875;    0.000
850.025; 1779.050;  194.875;    0.000
850.209; 1734.050;  147.875;    0.000
850.393; 1731.050;  141.875;    0.000
850.577; 1840.050;  156.875;    0.000
850.761; 1671.050;  157.875;    0.000
850.945; 1797.050;  128.875;    0.000
851.129; 1771.050;  151.875;    0.000
851.313; 1763.050;  180.875;    0.000
851.497; 1792.050;  123.875;    0.000
851.680; 1679.050;  188.875;    0.000
851.864; 1722.050;  177.875;    0.000
852.048; 1729.050;  163.875;    0.000
852.232; 1779.050;  149.875;    0.000
852.416; 1688.050;  187.875;    0.000
852.599; 1585.050;  169.875;    0.000
852.783; 1619.050;  154.875;    0.000
852.967; 1644.050;  191.875;    0.000
853.150; 1719.050;  170.875;    0.000
853.334; 1604.050;  173.875;    0.000
853.518; 1690.050;  186.875;    0.000
853.701; 1581.050;  142.875;    0.000
853.885; 1612.050;  153.875;    0.000
854.068; 1519.050;  132.875;    0.000
854.252; 1676.050;  184.875;    0.000
854.435; 1639.050;  152.875;    0.000
854.619; 1688.050;  152.875;    0.000
854.802; 1630.050;  164.875;    0.000
854.986; 1637.050;  151.875;    0.000
855.169; 1652.050;  153.875;    0.000
855.353; 1623.050;  183.875;    0.000
855.536; 1630.050;  113.875;    0.000
855.719; 1715.050;  181.875;    0.000
855.903; 1710.050;  159.875;    0.000
856.086; 1618.050;  142.875;    0.000
856.269; 1607.050;  171.875;    0.000
856.452; 1593.050;  132.875;    0.000
856.636; 1755.050;  140.875;    0.000
856.819; 1863.050;  165.875;    0.000
857.002; 1999.050;  170.875;    0.000
857.185; 1957.050;  173.875;    0.000
857.368; 1880.050;  129.875;    0.000
857.552; 1841.050;  151.875;    0.000
857.735; 1873.050;  146.875;    0.000
857.918; 1787.050;  114.875;    0.000
858.101; 1806.050;  152.875;    0.000
858.284; 1714.050;  164.875;    0.000
858.467; 1784.050;  147.875;    0.000
858.650; 1824.050;  146.875;    0.000
858.833; 1885.050;  118.875;    0.000
859.016; 1989.050;  161.875;    0.000
859.199; 1891.050;  135.875;    0.000
859.382; 2058.050;  157.875;    0.000
859.564; 2304.050;  124.875;    0.000
859.747; 2284.050;  154.875;    0.000
859.930; 2098.050;  138.875;    0.000
860.113; 2115.050;  153.875;    0.000
860.296; 2287.050;  180.875;    0.000
860.478; 1920.050;  145.875;    0.000
860.661; 2018.050;  160.875;    0.000
860.844; 2003.050;   96.875;    0.000
861.027; 1953.050;  128.875;    0.000
861.209; 1905.050;  127.875;    0.000
861.392; 1908.050;  126.875;    0.000
861.575; 1913.050;  155.875;    0.000
861.757; 1983.050;  141.875;    0.000
861.940; 1988.050;  181.875;    0.000
862.122; 2056.050;  145.875;    0.000
862.305; 2012.050;  124.875;    0.000
862.487; 2120.050;  151.875;    0.000
862.670; 1977.050;  132.875;    0.000
862.852; 2644.050;  112.875;    0.000
863.035; 3294.050;  116.875;    0.000
863.217; 3316.050;  131.875;    0.000
863.400; 2892.050;  145.875;    0.000
863.582; 2614.050;  147.875;    0.000
863.764; 2464.050;  163.875;    0.000
863.947; 2555.050;  129.875;    0.000
864.129; 2348.050;  159.875;    0.000
864.311; 2212.050;  144.875;    0.000
864.493; 2333.050;  141.875;    0.000
864.676; 2190.050;  159.875;    0.000
864.858; 2119.050;  146.875;    0.000
865.040; 2114.050;  163.875;    0.000
865.222; 2168.050;  133.875;    0.000
865.404; 2260.050;  148.875;    0.000
865.587; 2355.050;  177.875;    0.000
865.769; 2493.050;  172.875;    0.000
865.951; 2447.050;  145.875;    0.000
866.133; 2298.050;  168.875;    0.000
866.315; 2316.050;  147.875;    0.000
866.497; 2339.050;  164.875;    0.000
866.679; 2378.050;  143.875;    0.000
866.861; 2555.050;  170.875;    0.000
867.043; 2565.050;  185.875;    0.000
867.225; 2726.050;  149.875;    0.000
867.407; 3015.050;  143.875;    0.000
867.589; 3267.050;  169.875;    0.000
867.770; 3911.050;  166.875;    0.000
867.952; 5460.050;  158.875;    0.000
868.134; 7773.050;  170.875;    0.000
868.316; 7735.050;  157.875;    0.000
868.498; 7385.050;  186.875;    0.000
868.679; 6321.050;  158.875;    0.000
868.861; 5448.050;  180.875;    0.000
869.043; 4276.050;  164.875;    0.000
869.224; 3901.050;  156.875;    0.000
869.406; 3432.050;  176.875;    0.000
869.588; 3330.050;  152.875;    0.000
869.769; 3002.050;  131.875;    0.000
869.951; 2996.050;  203.875;    0.000
870.132; 2902.050;  143.875;    0.000
870.314; 3382.050;  129.875;    0.000
870.495; 3399.050;  175.875;    0.000
870.677; 3131.050;  165.875;    0.000
870.858; 3052.050;  151.875;    0.000
871.040; 3173.050;  155.875;    0.000
871.221; 3663.050;  144.875;    0.000
871.403; 3659.050;  131.875;    0.000
871.584; 3153.050;  174.875;    0.000
871.765; 3162.050;  169.875;    0.000
871.947; 3364.050;  187.875;    0.000
872.128; 3133.050;  181.875;    0.000
872.309; 2779.050;  129.875;    0.000
872.491; 2518.050;  142.875;    0.000
872.672; 2255.050;  158.875;    0.000
872.853; 2316.050;  179.875;    0.000
873.034; 2146.050;  164.875;    0.000
873.215; 2111.050;  168.875;    0.000
873.396; 1971.050;  114.875;    0.000
873.578; 1829.050;  126.875;    0.000
873.759; 1756.050;  177.875;    0.000
873.940; 1835.050;  169.875;    0.000
874.121; 1699.050;  133.875;    0.000
874.302; 1835.050;  164.875;    0.000
874.483; 1608.050;  162.875;    0.000
874.664; 1690.050;  140.875;    0.000
874.845; 1733.050;  124.875;    0.000
875.026; 1689.050;  146.875;    0.000
875.207; 1615.050;  147.875;    0.000
875.388; 1568.050;  174.875;    0.000
875.568; 1551.050;  179.875;    0.000
875.749; 1586.050;  155.875;    0.000
875.930; 1608.050;  166.875;    0.000
876.111; 1539.050;  153.875;    0.000
876.292; 1434.050;  146.875;    0.000
876.472; 1537.050;  167.875;    0.000
876.653; 1441.050;  145.875;    0.000
876.834; 1404.050;  172.875;    0.000
877.015; 1447.050;  184.875;    0.000
877.195; 1403.050;  160.875;    0.000
877.376; 1496.050;  163.875;    0.000
877.556; 1440.050;  164.875;    0.000
877.737; 1456.050;  179.875;    0.000
877.918; 1419.050;  137.875;    0.000
878.098; 1373.050;  117.875;    0.000
878.279; 1488.050;  135.875;    0.000
878.459; 1324.050;  149.875;    0.000
878.640; 1394.050;  171.875;    0.000
878.820; 1337.050;  142.875;    0.000
879.000; 1402.050;  166.875;    0.000
879.181; 1398.050;  177.875;    0.000
879.361; 1318.050;  176.875;    0.000
879.542; 1341.050;  159.875;    0.000
879.722; 1330.050;  122.875;    0.000
879.902; 1355.050;  166.875;    0.000
880.083; 1327.050;  164.875;    0.000
880.263; 1327.050;  139.875;    0.000
880.443; 1414.050;  179.875;    0.000
880.623; 1665.050;  154.875;    0.000
880.803; 1813.050;  160.875;    0.000
880.984; 1641.050;  181.875;    0.000
881.164; 1521.050;  167.875;    0.000
881.344; 1443.050;  141.875;    0.000
881.524; 1444.050;  190.875;    0.000
881.704; 1500.050;  165.875;    0.000
881.884; 1532.050;  144.875;    0.000
882.064; 1670.050;  135.875;    0.000
882.244; 1683.050;  186.875;    0.000
882.424; 1656.050;  150.875;    0.000
882.604; 1440.050;  168.875;    0.000
882.784; 1446.050;  155.875;    0.000
882.964; 1453.050;  137.875;    0.000
883.144; 1347.050;  136.875;    0.000
883.324; 1348.050;  200.875;    0.000
883.504; 1424.050;  203.875;    0.000
883.683; 1335.050;  149.875;    0.000
883.863; 1314.050;  160.875;    0.000
884.043; 1321.050;  161.875;    0.000
884.223; 1346.050;  147.875;    0.000
884.402; 1266.050;  175.875;    0.000
884.582; 1233.050;  188.875;    0.000
884.762; 1285.050;  173.875;    0.000
884.941; 1272.050;  164.875;    0.000
885.121; 1339.050;  147.875;    0.000
885.301; 1237.050;  135.875;    0.000
885.480; 1246.050;  145.875;    0.000
885.660; 1278.050;  144.875;    0.000
885.839; 1368.050;  155.875;    0.000
886.019; 1301.050;  207.875;    0.000
886.198; 1224.050;  165.875;    0.000
886.378; 1299.050;  120.875;    0.000
886.557; 1265.050;  133.875;    0.000
886.737; 1174.050;  119.875;    0.000
886.916; 1266.050;  129.875;    0.000
887.095; 1188.050;  158.875;    0.000
887.275; 1277.050;  169.875;    0.000
887.454; 1230.050;  184.875;    0.000
887.633; 1211.050;  143.875;    0.000
887.813; 1225.050;  154.875;    0.000
887.992; 1150.050;  188.875;    0.000
888.171; 1198.050;  176.875;    0.000
888.350; 1215.050;  161.875;    0.000
888.530; 1179.050;  163.875;    0.000
888.709; 1132.050;  136.875;    0.000
888.888; 1189.050;  177.875;    0.000
889.067; 1129.050;  169.875;    0.000
889.246; 1283.050;  188.875;    0.000
889.425; 1177.050;  187.875;    0.000
889.604; 1262.050;  169.875;    0.000
889.783; 1194.050;  182.875;    0.000
889.962; 1120.050;  112.875;    0.000
890.141; 1121.050;  231.875;    0.000
890.320; 1224.050;  161.875;    0.000
890.499; 1231.050;  164.875;    0.000
890.678; 1121.050;  176.875;    0.000
890.857; 1214.050;  163.875;    0.000
891.036; 1186.050;  161.875;    0.000
891.214; 1236.050;  156.875;    0.000
891.393; 1083.050;  167.875;    0.000
891.572; 1140.050;  163.875;    0.000
891.751; 1151.050;  205.875;    0.000
891.930; 1175.050;  162.875;    0.000
892.108; 1158.050;  153.875;    0.000
892.287; 1157.050;  153.875;    0.000
892.466; 1162.050;  201.875;    0.000
892.644; 1253.050;  158.875;    0.000
892.823; 1101.050;  122.875;    0.000
893.001; 1177.050;  148.875;    0.000
893.180; 1164.050;  142.875;    0.000
893.359; 1215.050;  192.875;    0.000
893.537; 1224.050;  166.875;    0.000
893.716; 1242.050;  144.875;    0.000
893.894; 1166.050;  145.875;    0.000
894.073; 1180.050;  180.875;    0.000
894.251; 1153.050;  165.875;    0.000
894.429; 1108.050;  182.875;    0.000
894.608; 1235.050;  181.875;    0.000
894.786; 1193.050;  180.875;    0.000
894.964; 1154.050;  207.875;    0.000
895.143; 1118.050;  190.875;    0.000
895.321; 1162.050;  206.875;    0.000
895.499; 1201.050;  164.875;    0.000
895.677; 1276.050;  199.875;    0.000
895.856; 1195.050;  203.875;    0.000
896.034; 1229.050;  200.875;    0.000
896.212; 1157.050;  198.875;    0.000
896.390; 1250.050;  161.875;    0.000
896.568; 1244.050;  205.875;    0.000
896.746; 1183.050;  185.875;    0.000
896.924; 1220.050;  179.875;    0.000
897.102; 1238.050;  190.875;    0.000
897.280; 1249.050;  160.875;    0.000
897.458; 1242.050;  196.875;    0.000
897.636; 1249.050;  168.875;    0.000
897.814; 1218.050;  159.875;    0.000
897.992; 1223.050;  216.875;    0.000
898.170; 1284.050;  195.875;    0.000
898.348; 1257.050;  185.875;    0.000
898.526; 1212.050;  199.875;    0.000
898.704; 1263.050;  215.875;    0.000
898.882; 1237.050;  195.875;    0.000
899.059; 1222.050;  197.875;    0.000
899.237; 1160.050;  168.875;    0.000
899.415; 1368.050;  221.875;    0.000
899.593; 1213.050;  171.875;    0.000
899.770; 1214.050;  191.875;    0.000
899.948; 1211.050;  206.875;    0.000
900.125; 1190.050;  175.875;    0.000
900.303; 1170.050;  176.875;    0.000
900.481; 1238.050;  199.875;    0.000
900.658; 1253.050;  217.875;    0.000
900.836; 1221.050;  192.875;    0.000
901.013; 1285.050;  221.875;    0.000
901.191; 1369.050;  203.875;    0.000
901.368; 1261.050;  189.875;    0.000
901.546; 1336.050;  212.875;    0.000
901.723; 1292.050;  189.875;    0.000
901.901; 1438.050;  198.875;    0.000
902.078; 1310.050;  193.875;    0.000
902.255; 1340.050;  176.875;    0.000
902.433; 1344.050;  201.875;    0.000
902.610; 1344.050;  170.875;    0.000
902.787; 1459.050;  164.875;    0.000
902.964; 1417.050;  216.875;    0.000
903.142; 1440.050;  153.875;    0.000
903.319; 1518.050;  204.875;    0.000
903.496; 1572.050;  188.875;    0.000
903.673; 1553.050;  209.875;    0.000
903.850; 1604.050;  173.875;    0.000
904.027; 1568.050;  186.875;    0.000
904.204; 1671.050;  241.875;    0.000
904.381; 1786.050;  187.875;    0.000
904.558; 2096.050;  196.875;    0.000
904.735; 2508.050;  206.875;    0.000
904.912; 2284.050;  228.875;    0.000
905.089; 2379.050;  172.875;    0.000
905.266; 2171.050;  175.875;    0.000
905.443; 2126.050;  239.875;    0.000
905.620; 1854.050;  176.875;    0.000
905.797; 1736.050;  205.875;    0.000
905.974; 1789.050;  187.875;    0.000
906.151; 1727.050;  135.875;    0.000
906.327; 1673.050;  209.875;    0.000
906.504; 1629.050;  145.875;    0.000
906.681; 1704.050;  178.875;    0.000
906.858; 1622.050;  179.875;    0.000
907.034; 1611.050;  221.875;    0.000
907.211; 1438.050;  166.875;    0.000
907.388; 1530.050;  206.875;    0.000
907.564; 1538.050;  150.875;    0.000
907.741; 1473.050;  187.875;    0.000
907.917; 1471.050;  180.875;    0.000
908.094; 1433.050;  206.875;    0.000
908.271; 1417.050;  184.875;    0.000
908.447; 1435.050;  212.875;    0.000
908.623; 1320.050;  193.875;    0.000
908.800; 1353.050;  185.875;    0.000
908.976; 1352.050;  202.875;    0.000
909.153; 1344.050;  175.875;    0.000
909.329; 1381.050;  193.875;    0.000
909.505; 1318.050;  154.875;    0.000
909.682; 1388.050;  188.875;    0.000
909.858; 1252.050;  162.875;    0.000
910.034; 1330.050;  181.875;    0.000
910.211; 1178.050;  142.875;    0.000
910.387; 1271.050;  200.875;    0.000
910.563; 1280.050;  163.875;    0.000
910.739; 1216.050;  156.875;    0.000
910.915; 1229.050;  202.875;    0.000
911.091; 1257.050;  186.875;    0.000
911.268; 1287.050;  167.875;    0.000
911.444; 1230.050;  193.875;    0.000
911.620; 1272.050;  175.875;    0.000
911.796; 1350.050;  168.875;    0.000
911.972; 1240.050;  154.875;    0.000
912.148; 1207.050;  201.875;    0.000
912.324; 1263.050;  146.875;    0.000
912.500; 1262.050;  185.875;    0.000
912.676; 1231.050;  183.875;    0.000
912.851; 1260.050;  204.875;    0.000
913.027; 1199.050;  196.875;    0.000
913.203; 1287.050;  174.875;    0.000
913.379; 1213.050;  210.875;    0.000
913.555; 1195.050;  197.875;    0.000
913.730; 1238.050;  209.875;    0.000
913.906; 1223.050;  169.875;    0.000
914.082; 1185.050;  236.875;    0.000
914.258; 1304.050;  216.875;    0.000
914.433; 1213.050;  212.875;    0.000
914.609; 1241.050;  180.875;    0.000
914.784; 1185.050;  176.875;    0.000
914.960; 1246.050;  227.875;    0.000
915.136; 1204.050;  149.875;    0.000
915.311; 1288.050;  165.875;    0.000
915.487; 1222.050;  167.875;    0.000
915.662; 1262.050;  225.875;    0.000
915.838; 1337.050;  165.875;    0.000
916.013; 1296.050;  188.875;    0.000
916.189; 1182.050;  200.875;    0.000
916.364; 1345.050;  201.875;    0.000
916.539; 1339.050;  240.875;    0.000
916.715; 1332.050;  180.875;    0.000
916.890; 1258.050;  191.875;    0.000
917.065; 1207.050;  211.875;    0.000
917.240; 1222.050;  212.875;    0.000
917.416; 1259.050;  207.875;    0.000
917.591; 1230.050;  189.875;    0.000
917.766; 1201.050;  205.875;    0.000
917.941; 1309.050;  191.875;    0.000
918.116; 1297.050;  195.875;    0.000
918.292; 1309.050;  183.875;    0.000
918.467; 1351.050;  206.875;    0.000
918.642; 1342.050;  190.875;    0.000
918.817; 1260.050;  193.875;    0.000
918.992; 1162.050;  171.875;    0.000
919.167; 1234.050;  191.875;    0.000
919.342; 1335.050;  202.875;    0.000
919.517; 1333.050;  182.875;    0.000
919.692; 1278.050;  190.875;    0.000
919.867; 1249.050;  221.875;    0.000
920.041; 1427.050;  195.875;    0.000
920.216; 1347.050;  226.875;    0.000
920.391; 1448.050;  230.875;    0.000
920.566; 1425.050;  210.875;    0.000
920.741; 1540.050;  204.875;    0.000
920.915; 1515.050;  213.875;    0.000
921.090; 1669.050;  194.875;    0.000
921.265; 2110.050;  234.875;    0.000
921.439; 2746.050;  228.875;    0.000
921.614; 2356.050;  199.875;    0.000
921.789; 1981.050;  194.875;    0.000
921.963; 1748.050;  236.875;    0.000
922.138; 1663.050;  192.875;    0.000
922.312; 1713.050;  203.875;    0.000
922.487; 1720.050;  207.875;    0.000
922.661; 1834.050;  216.875;    0.000
922.836; 2086.050;  199.875;    0.000
923.010; 2287.050;  179.875;    0.000
923.185; 2108.050;  241.875;    0.000
923.359; 1872.050;  199.875;    0.000
923.534; 1875.050;  227.875;    0.000
923.708; 1901.050;  213.875;    0.000
923.882; 2169.050;  203.875;    0.000
924.057; 1982.050;  194.875;    0.000
924.231; 1890.050;  185.875;    0.000
924.405; 1701.050;  223.875;    0.000
924.579; 1656.050;  196.875;    0.000
924.753; 1684.050;  209.875;    0.000
924.928; 1547.050;  202.875;    0.000
925.102; 1633.050;  184.875;    0.000
925.276; 1630.050;  191.875;    0.000
925.450; 1638.050;  199.875;    0.000
925.624; 1616.050;  190.875;    0.000
925.798; 1725.050;  214.875;    0.000
925.972; 1808.050;  193.875;    0.000
926.146; 1843.050;  191.875;    0.000
926.320; 2047.050;  177.875;    0.000
926.494; 2218.050;  190.875;    0.000
926.668; 2372.050;  182.875;    0.000
926.842; 2356.050;  182.875;    0.000
927.016; 2421.050;  235.875;    0.000
927.190; 2373.050;  234.875;    0.000
927.363; 2403.050;  214.875;    0.000
927.537; 2094.050;  198.875;    0.000
927.711; 2154.050;  154.875;    0.000
927.885; 2066.050;  167.875;    0.000
928.058; 2088.050;  210.875;    0.000
928.232; 1907.050;  206.875;    0.000
928.406; 1921.050;  176.875;    0.000
928.579; 1813.050;  182.875;    0.000
928.753; 1833.050;  179.875;    0.000
928.927; 1794.050;  186.875;    0.000
929.100; 1773.050;  188.875;    0.000
929.274; 1682.050;  167.875;    0.000
929.447; 1654.050;  152.875;    0.000
929.621; 1608.050;  195.875;    0.000
929.794; 1757.050;  200.875;    0.000
929.968; 1552.050;  203.875;    0.000
930.141; 1629.050;  237.875;    0.000
930.315; 1585.050;  165.875;    0.000
930.488; 1516.050;  175.875;    0.000
930.661; 1488.050;  173.875;    0.000
930.835; 1468.050;  171.875;    0.000
931.008; 1522.050;  210.875;    0.000
931.181; 1492.050;  206.875;    0.000
931.354; 1428.050;  195.875;    0.000
931.528; 1428.050;  178.875;    0.000
931.701; 1370.050;  179.875;    0.000
931.874; 1393.050;  150.875;    0.000
932.047; 1382.050;  154.875;    0.000
932.220; 1328.050;  185.875;    0.000
932.393; 1330.050;  166.875;    0.000
932.566; 1305.050;  171.875;    0.000
932.739; 1364.050;  196.875;    0.000
932.912; 1351.050;  212.875;    0.000
933.085; 1316.050;  234.875;    0.000
933.258; 1395.050;  212.875;    0.000
933.431; 1162.050;  181.875;    0.000
933.604; 1376.050;  201.875;    0.000
933.777; 1317.050;  201.875;    0.000
933.950; 1246.050;  176.875;    0.000
934.123; 1235.050;  175.875;    0.000
934.296; 1211.050;  174.875;    0.000
934.468; 1230.050;  186.875;    0.000
934.641; 1218.050;  192.875;    0.000
934.814; 1269.050;  187.875;    0.000
934.987; 1211.050;  165.875;    0.000
935.159; 1307.050;  162.875;    0.000
935.332; 1241.050;  210.875;    0.000
935.505; 1245.050;  191.875;    0.000
935.677; 1210.050;  159.875;    0.000
935.850; 1217.050;  170.875;    0.000
936.022; 1293.050;  172.875;    0.000
936.195; 1244.050;  202.875;    0.000
936.367; 1264.050;  179.875;    0.000
936.540; 1355.050;  207.875;    0.000
936.712; 1322.050;  200.875;    0.000
936.885; 1246.050;  219.875;    0.000
937.057; 1236.050;  150.875;    0.000
937.229; 1354.050;  187.875;    0.000
937.402; 1315.050;  169.875;    0.000
937.574; 1353.050;  127.875;    0.000
937.746; 1283.050;  171.875;    0.000
937.919; 1420.050;  176.875;    0.000
938.091; 1541.050;  193.875;    0.000
938.263; 1575.050;  200.875;    0.000
938.435; 1750.050;  181.875;    0.000
938.608; 1985.050;  191.875;    0.000
938.780; 2234.050;  173.875;    0.000
938.952; 2318.050;  184.875;    0.000
939.124; 2339.050;  171.875;    0.000
939.296; 2669.050;  156.875;    0.000
939.468; 2906.050;  147.875;    0.000
939.640; 2403.050;  186.875;    0.000
939.812; 2367.050;  217.875;    0.000
939.984; 2001.050;  155.875;    0.000
940.156; 1846.050;  191.875;    0.000
940.328; 1785.050;  201.875;    0.000
940.500; 1585.050;  176.875;    0.000
940.672; 1665.050;  190.875;    0.000
940.843; 1560.050;  143.875;    0.000
941.015; 1591.050;  189.875;    0.000
941.187; 1438.050;  172.875;    0.000
941.359; 1506.050;  175.875;    0.000
941.531; 1518.050;  154.875;    0.000
941.702; 1384.050;  183.875;    0.000
941.874; 1335.050;  140.875;    0.000
942.046; 1395.050;  177.875;    0.000
942.217; 1349.050;  147.875;    0.000
942.389; 1359.050;  196.875;    0.000
942.560; 1434.050;  163.875;    0.000
942.732; 1431.050;  187.875;    0.000
942.904; 1245.050;  226.875;    0.000
943.075; 1208.050;  159.875;    0.000
943.247; 1199.050;  209.875;    0.000
943.418; 1207.050;  167.875;    0.000
943.589; 1225.050;  195.875;    0.000
943.761; 1232.050;  190.875;    0.000
943.932; 1302.050;  187.875;    0.000
944.104; 1177.050;  194.875;    0.000
944.275; 1215.050;  177.875;    0.000
944.446; 1216.050;  155.875;    0.000
944.617; 1174.050;  176.875;    0.000
944.789; 1093.050;  171.875;    0.000
944.960; 1084.050;  172.875;    0.000
945.131; 1121.050;  158.875;    0.000
945.302; 1190.050;  201.875;    0.000
945.473; 1033.050;  141.875;    0.000
945.645; 1142.050;  197.875;    0.000
945.816; 1126.050;  165.875;    0.000
945.987; 1190.050;  190.875;    0.000
946.158; 1187.050;  158.875;    0.000
946.329; 1190.050;  160.875;    0.000
946.500; 1101.050;  190.875;    0.000
946.671; 1085.050;  152.875;    0.000
946.842; 1189.050;  182.875;    0.000
947.013; 1075.050;  160.875;    0.000
947.183; 1153.050;  203.875;    0.000
947.354; 1102.050;  174.875;    0.000
947.525; 1088.050;  173.875;    0.000
947.696; 1098.050;  170.875;    0.000
947.867; 1063.050;  187.875;    0.000
948.037; 1064.050;  165.875;    0.000
948.208; 1089.050;  154.875;    0.000
948.379; 1136.050;  176.875;    0.000
948.550; 1025.050;  176.875;    0.000
948.720; 1091.050;  169.875;    0.000
948.891; 1152.050;  216.875;    0.000
949.061; 1084.050;  200.875;    0.000
949.232; 1082.050;  163.875;    0.000
949.403; 1052.050;  157.875;    0.000
949.573; 1043.050;  158.875;    0.000
949.744; 1096.050;  213.875;    0.000
949.914; 1010.050;  177.875;    0.000
950.085; 1079.050;  195.875;    0.000
950.255; 1124.050;  166.875;    0.000
950.425; 1009.050;  196.875;    0.000
950.596; 1080.050;  176.875;    0.000
950.766; 1109.050;  228.875;    0.000
950.936;  991.050;  185.875;    0.000
951.107; 1016.050;  178.875;    0.000
951.277; 1056.050;  227.875;    0.000
951.447; 1004.050;  219.875;    0.000
951.617; 1030.050;  219.875;    0.000
951.788; 1043.050;  198.875;    0.000
951.958;  964.050;  202.875;    0.000
952.128; 1012.050;  197.875;    0.000
952.298; 1090.050;  211.875;    0.000
952.468; 1113.050;  233.875;    0.000
952.638; 1039.050;  222.875;    0.000
952.808;  998.050;  210.875;    0.000
952.978; 1042.050;  216.875;    0.000
953.148; 1003.050;  203.875;    0.000
953.318;  916.050;  212.875;    0.000
953.488;  997.050;  156.875;    0.000
953.658; 1029.050;  226.875;    0.000
953.828;  959.050;  223.875;    0.000
953.998; 1039.050;  209.875;    0.000
954.167; 1000.050;  203.875;    0.000
954.337;  996.050;  209.875;    0.000
954.507;  998.050;  252.875;    0.000
954.677;  985.050;  207.875;    0.000
954.846; 1019.050;  240.875;    0.000
955.016;  918.050;  197.875;    0.000
955.186;  964.050;  208.875;    0.000
955.355;  965.050;  243.875;    0.000
955.525;  940.050;  211.875;    0.000
955.695;  947.050;  187.875;    0.000
955.864; 1057.050;  204.875;    0.000
956.034;  970.050;  199.875;    0.000
956.203;  974.050;  257.875;    0.000
956.373;  880.050;  193.875;    0.000
956.542;  939.050;  187.875;    0.000
956.711;  920.050;  259.875;    0.000
956.881;  915.050;  227.875;    0.000
957.050;  921.050;  260.875;    0.000
957.220;  884.050;  246.875;    0.000
957.389;  913.050;  211.875;    0.000
957.558;  940.050;  197.875;    0.000
957.727;  985.050;  227.875;    0.000
957.897;  958.050;  219.875;    0.000
958.066;  900.050;  180.875;    0.000
958.235;  914.050;  179.875;    0.000
958.404;  938.050;  194.875;    0.000
958.573;  932.050;  235.875;    0.000
958.743;  939.050;  191.875;    0.000
958.912;  898.050;  181.875;    0.000
959.081;  873.050;  193.875;    0.000
959.250;  889.050;  180.875;    0.000
959.419;  920.050;  205.875;    0.000
959.588;  923.050;  241.875;    0.000
959.757;  821.050;  202.875;    0.000
959.926;  918.050;  212.875;    0.000
960.094;  846.050;  199.875;    0.000
960.263;  922.050;  226.875;    0.000
960.432;  889.050;  188.875;    0.000
960.601;  820.050;  200.875;    0.000
960.770;  825.050;  197.875;    0.000
960.939;  851.050;  195.875;    0.000
961.107;  873.050;  198.875;    0.000
961.276;  858.050;  151.875;    0.000
961.445;  866.050;  227.875;    0.000
961.613;  868.050;  186.875;    0.000
961.782;  935.050;  187.875;    0.000
961.951;  832.050;  194.875;    0.000
962.119;  927.050;  227.875;    0.000
962.288;  931.050;  181.875;    0.000
962.456;  894.050;  206.875;    0.000
962.625;  923.050;  181.875;    0.000
962.793;  870.050;  216.875;    0.000
962.962;  905.050;  237.875;    0.000
963.130;  909.050;  194.875;    0.000
963.298;  901.050;  190.875;    0.000
963.467;  915.050;  204.875;    0.000
963.635;  817.050;  159.875;    0.000
963.803;  902.050;  208.875;    0.000
963.972;  876.050;  206.875;    0.000
964.140;  840.050;  178.875;    0.000
964.308;  821.050;  185.875;    0.000
964.477;  928.050;  189.875;    0.000
964.645;  849.050;  201.875;    0.000
964.813;  894.050;  200.875;    0.000
964.981;  848.050;  160.875;    0.000
965.149;  906.050;  230.875;    0.000
965.317;  926.050;  214.875;    0.000
965.485;  998.050;  190.875;    0.000
965.653;  893.050;  239.875;    0.000
965.821;  864.050;  211.875;    0.000
965.989;  871.050;  216.875;    0.000
966.157;  893.050;  198.875;    0.000
966.325;  883.050;  200.875;    0.000
966.493;  810.050;  187.875;    0.000
966.661;  936.050;  181.875;    0.000
966.829;  897.050;  181.875;    0.000
966.996;  896.050;  220.875;    0.000
967.164;  893.050;  179.875;    0.000
967.332;  971.050;  203.875;    0.000
967.500;  880.050;  200.875;    0.000
967.667;  912.050;  196.875;    0.000
967.835;  922.050;  199.875;    0.000
968.003;  940.050;  191.875;    0.000
968.170;  915.050;  141.875;    0.000
968.338;  918.050;  185.875;    0.000
968.505;  860.050;  199.875;    0.000
968.673;  971.050;  191.875;    0.000
968.841;  908.050;  165.875;    0.000
969.008;  887.050;  192.875;    0.000
969.175;  889.050;  172.875;    0.000
969.343;  920.050;  191.875;    0.000
969.510;  861.050;  199.875;    0.000
969.678;  874.050;  156.875;    0.000
969.845;  887.050;  191.875;    0.000
970.012;  868.050;  205.875;    0.000
970.180;  898.050;  201.875;    0.000
970.347;  886.050;  229.875;    0.000
970.514;  881.050;  207.875;    0.000
970.681;  861.050;  169.875;    0.000
970.849;  886.050;  196.875;    0.000
971.016;  865.050;  212.875;    0.000
971.183;  811.050;  178.875;    0.000
971.350;  898.050;  193.875;    0.000
971.517;  874.050;  190.875;    0.000
971.684;  887.050;  261.875;    0.000
971.851;  864.050;  203.875;    0.000
972.018;  803.050;  184.875;    0.000
972.185;  887.050;  226.875;    0.000
972.352;  879.050;  180.875;    0.000
972.519;  833.050;  226.875;    0.000
972.686;  844.050;  233.875;    0.000
972.853;  877.050;  173.875;    0.000
973.020;  871.050;  208.875;    0.000
973.186;  869.050;  173.875;    0.000
973.353;  808.050;  218.875;    0.000
973.520;  860.050;  218.875;    0.000
973.687;  782.050;  176.875;    0.000
973.853;  827.050;  203.875;    0.000
974.020;  830.050;  196.875;    0.000
974.187;  814.050;  188.875;    0.000
974.353;  876.050;  230.875;    0.000
974.520;  895.050;  195.875;    0.000
974.687;  767.050;  209.875;    0.000
974.853;  861.050;  189.875;    0.000
975.020;  839.050;  179.875;    0.000
975.186;  804.050;  204.875;    0.000
975.353;  863.050;  201.875;    0.000
975.519;  869.050;  200.875;    0.000
975.685;  778.050;  176.875;    0.000
975.852;  859.050;  197.875;    0.000
976.018;  904.050;  201.875;    0.000
976.184;  825.050;  176.875;    0.000
976.351;  828.050;  221.875;    0.000
976.517;  893.050;  203.875;    0.000
976.683;  877.050;  236.875;    0.000
976.849;  850.050;  190.875;    0.000
977.016;  802.050;  173.875;    0.000
977.182;  852.050;  200.875;    0.000
977.348;  796.050;  179.875;    0.000
977.514;  756.050;  159.875;    0.000
977.680;  817.050;  200.875;    0.000
977.846;  871.050;  206.875;    0.000
978.012;  788.050;  219.875;    0.000
978.178;  850.050;  229.875;    0.000
978.344;  802.050;  195.875;    0.000
978.510;  850.050;  209.875;    0.000
978.676;  751.050;  190.875;    0.000
978.842;  828.050;  195.875;    0.000
979.008;  861.050;  186.875;    0.000
979.174;  825.050;  185.875;    0.000
979.340;  837.050;  198.875;    0.000
979.505;  803.050;  214.875;    0.000
979.671;  822.050;  159.875;    0.000
979.837;  840.050;  202.875;    0.000
980.003;  792.050;  190.875;    0.000
980.168;  934.050;  216.875;    0.000
980.334;  823.050;  194.875;    0.000
980.499;  849.050;  229.875;    0.000
980.665;  892.050;  240.875;    0.000
980.831;  886.050;  202.875;    0.000
980.996;  817.050;  179.875;    0.000
981.162;  921.050;  212.875;    0.000
981.327;  874.050;  202.875;    0.000
981.493;  884.050;  219.875;    0.000
981.658;  859.050;  218.875;    0.000
981.823;  888.050;  207.875;    0.000
981.989;  858.050;  207.875;    0.000
982.154;  845.050;  224.875;    0.000
982.319;  874.050;  217.875;    0.000
982.485;  889.050;  266.875;    0.000
982.650;  932.050;  245.875;    0.000
982.815;  845.050;  229.875;    0.000
982.980;  886.050;  203.875;    0.000
983.146;  837.050;  242.875;    0.000
983.311;  816.050;  144.875;    0.000
983.476;  794.050;  222.875;    0.000
983.641;  808.050;  206.875;    0.000
983.806;  787.050;  217.875;    0.000
983.971;  824.050;  254.875;    0.000
984.136;  926.050;  217.875;    0.000
984.301;  757.050;  202.875;    0.000
984.466;  842.050;  206.875;    0.000
984.631;  815.050;  224.875;    0.000
984.796;  806.050;  218.875;    0.000
984.961;  791.050;  202.875;    0.000
985.126;  826.050;  238.875;    0.000
985.291;  889.050;  220.875;    0.000
985.455;  833.050;  223.875;    0.000
985.620;  833.050;  218.875;    0.000
985.785;  849.050;  228.875;    0.000
985.950;  837.050;  212.875;    0.000
986.114;  888.050;  215.875;    0.000
986.279;  914.050;  243.875;    0.000
986.444;  856.050;  222.875;    0.000
986.608;  900.050;  243.875;    0.000
986.773;  802.050;  213.875;    0.000
986.937;  966.050;  267.875;    0.000
987.102;  951.050;  235.875;    0.000
987.266;  822.050;  210.875;    0.000
987.431;  832.050;  239.875;    0.000
987.595;  793.050;  230.875;    0.000
987.760;  889.050;  229.875;    0.000
987.924;  857.050;  217.875;    0.000
988.088;  841.050;  210.875;    0.000
988.253;  806.050;  215.875;    0.000
988.417;  812.050;  186.875;    0.000
988.581;  834.050;  214.875;    0.000
988.746;  842.050;  212.875;    0.000
988.910;  772.050;  192.875;    0.000
989.074;  829.050;  195.875;    0.000
989.238;  812.050;  226.875;    0.000
989.402;  835.050;  214.875;    0.000
989.566;  823.050;  201.875;    0.000
989.731;  886.050;  199.875;    0.000
989.895;  868.050;  205.875;    0.000
990.059;  878.050;  204.875;    0.000
990.223;  835.050;  182.875;    0.000
990.387;  803.050;  220.875;    0.000
990.551;  757.050;  199.875;    0.000
990.714;  792.050;  202.875;    0.000
990.878;  819.050;  201.875;    0.000
991.042;  793.050;  202.875;    0.000
991.206;  841.050;  215.875;    0.000
991.370;  876.050;  217.875;    0.000
991.534;  746.050;  152.875;    0.000
991.697;  855.050;  194.875;    0.000
991.861;  872.050;  208.875;    0.000
992.025;  802.050;  209.875;    0.000
992.188;  816.050;  182.875;    0.000
992.352;  783.050;  181.875;    0.000
992.516;  779.050;  192.875;    0.000
992.679;  792.050;  183.875;    0.000
992.843;  777.050;  156.875;    0.000
993.006;  788.050;  192.875;    0.000
993.170;  809.050;  172.875;    0.000
993.333;  813.050;  195.875;    0.000
993.497;  796.050;  185.875;    0.000
993.660;  802.050;  155.875;    0.000
993.824;  806.050;  199.875;    0.000
993.987;  844.050;  211.875;    0.000
994.150;  764.050;  173.875;    0.000
994.314;  792.050;  202.875;    0.000
994.477;  803.050;  171.875;    0.000
994.640;  771.050;  191.875;    0.000
994.803;  786.050;  203.875;    0.000
994.967;  804.050;  198.875;    0.000
995.130;  824.050;  192.875;    0.000
995.293;  729.050;  211.875;    0.000
995.456;  811.050;  207.875;    0.000
995.619;  851.050;  207.875;    0.000
995.782;  828.050;  186.875;    0.000
995.945;  740.050;  203.875;    0.000
996.108;  766.050;  195.875;    0.000
996.271;  795.050;  195.875;    0.000
996.434;  721.050;  179.875;    0.000
996.597;  828.050;  170.875;    0.000
996.760;  710.050;  161.875;    0.000
996.923;  783.050;  177.875;    0.000
997.086;  747.050;  199.875;    0.000
997.248;  832.050;  225.875;    0.000
997.411;  760.050;  194.875;    0.000
997.574;  811.050;  204.875;    0.000
997.737;  761.050;  236.875;    0.000
997.899;  777.050;  191.875;    0.000
998.062;  828.050;  178.875;    0.000
998.225;  780.050;  176.875;    0.000
998.387;  829.050;  203.875;    0.000
998.550;  752.050;  155.875;    0.000
998.712;  728.050;  169.875;    0.000
998.875;  800.050;  234.875;    0.000
999.037;  728.050;  211.875;    0.000
999.200;  764.050;  185.875;    0.000
999.362;  770.050;  199.875;    0.000
999.525;  784.050;  234.875;    0.000
999.687;  802.050;  194.875;    0.000
999.849;  760.050;  223.875;    0.000
1000.012;  794.050;  222.875;    0.000
1000.174;  813.050;  187.875;    0.000
1000.336;  794.050;  204.875;    0.000
1000.499;  789.050;  240.875;    0.000
1000.661;  860.050;  215.875;    0.000
1000.823;  749.050;  206.875;    0.000
1000.985;  796.050;  197.875;    0.000
1001.147;  819.050;  221.875;    0.000
1001.309;  802.050;  207.875;    0.000
1001.471;  822.050;  227.875;    0.000
1001.633;  776.050;  208.875;    0.000
1001.796;  750.050;  158.875;    0.000
1001.958;  783.050;  210.875;    0.000
1002.119;  783.050;  223.875;    0.000
1002.281;  855.050;  211.875;    0.000
1002.443;  858.050;  227.875;    0.000
1002.605;  875.050;  186.875;    0.000
1002.767;  831.050;  242.875;    0.000
1002.929;  977.050;  219.875;    0.000
1003.091;  863.050;  191.875;    0.000
1003.252;  989.050;  233.875;    0.000
1003.414;  913.050;  214.875;    0.000
1003.576;  913.050;  186.875;    0.000
1003.738; 1016.050;  175.875;    0.000
1003.899; 1205.050;  237.875;    0.000
1004.061; 1200.050;  220.875;    0.000
1004.222; 1214.050;  186.875;    0.000
1004.384; 1204.050;  216.875;    0.000
1004.546; 1294.050;  203.875;    0.000
1004.707; 1148.050;  216.875;    0.000
1004.869; 1200.050;  219.875;    0.000
1005.030; 1293.050;  188.875;    0.000
1005.191; 1248.050;  223.875;    0.000
1005.353; 1291.050;  227.875;    0.000
1005.514; 1138.050;  235.875;    0.000
1005.675; 1172.050;  201.875;    0.000
1005.837; 1142.050;  199.875;    0.000
1005.998; 1162.050;  219.875;    0.000
1006.159; 1095.050;  235.875;    0.000
1006.321; 1095.050;  199.875;    0.000
1006.482; 1148.050;  222.875;    0.000
1006.643; 1159.050;  195.875;    0.000
1006.804; 1177.050;  205.875;    0.000
1006.965; 1159.050;  199.875;    0.000
1007.126; 1109.050;  231.875;    0.000
1007.287; 1142.050;  208.875;    0.000
1007.448; 1131.050;  205.875;    0.000
1007.609; 1162.050;  256.875;    0.000
1007.770; 1141.050;  231.875;    0.000
1007.931; 1146.050;  223.875;    0.000
1008.092; 1233.050;  217.875;    0.000
1008.253; 1161.050;  236.875;    0.000
1008.414; 1127.050;  197.875;    0.000
1008.575; 1244.050;  233.875;    0.000
1008.736; 1087.050;  193.875;    0.000
1008.896; 1168.050;  238.875;    0.000
1009.057; 1188.050;  245.875;    0.000
1009.218; 1163.050;  240.875;    0.000
1009.379; 1174.050;  210.875;    0.000
1009.539; 1255.050;  234.875;    0.000
1009.700; 1188.050;  228.875;    0.000
1009.860; 1274.050;  238.875;    0.000
1010.021; 1201.050;  199.875;    0.000
1010.182; 1211.050;  214.875;    0.000
1010.342; 1257.050;  216.875;    0.000
1010.503; 1324.050;  207.875;    0.000
1010.663; 1309.050;  258.875;    0.000
1010.823; 1292.050;  243.875;    0.000
1010.984; 1463.050;  268.875;    0.000
1011.144; 1360.050;  217.875;    0.000
1011.305; 1564.050;  237.875;    0.000
1011.465; 1494.050;  216.875;    0.000
1011.625; 1616.050;  195.875;    0.000
1011.785; 1595.050;  201.875;    0.000
1011.946; 1510.050;  200.875;    0.000
1012.106; 1698.050;  206.875;    0.000
1012.266; 1453.050;  227.875;    0.000
1012.426; 1512.050;  221.875;    0.000
1012.586; 1519.050;  198.875;    0.000
1012.746; 1483.050;  215.875;    0.000
1012.906; 1621.050;  226.875;    0.000
1013.066; 1464.050;  221.875;    0.000
1013.226; 1376.050;  202.875;    0.000
1013.386; 1479.050;  210.875;    0.000
1013.546; 1489.050;  243.875;    0.000
1013.706; 1424.050;  200.875;    0.000
1013.866; 1428.050;  232.875;    0.000
1014.026; 1418.050;  206.875;    0.000
1014.186; 1469.050;  222.875;    0.000
1014.346; 1474.050;  233.875;    0.000
1014.505; 1480.050;  241.875;    0.000
1014.665; 1434.050;  225.875;    0.000
1014.825; 1391.050;  196.875;    0.000
1014.985; 1594.050;  234.875;    0.000
1015.144; 1551.050;  232.875;    0.000
1015.304; 1520.050;  214.875;    0.000
1015.464; 1443.050;  210.875;    0.000
1015.623; 1525.050;  219.875;    0.000
1015.783; 1573.050;  216.875;    0.000
1015.942; 1537.050;  267.875;    0.000
1016.102; 1654.050;  234.875;    0.000
1016.261; 1501.050;  230.875;    0.000
1016.420; 1714.050;  225.875;    0.000
1016.580; 1832.050;  205.875;    0.000
1016.739; 1672.050;  199.875;    0.000
1016.899; 1737.050;  218.875;    0.000
1017.058; 1938.050;  204.875;    0.000
1017.217; 2067.050;  196.875;    0.000
1017.376; 1816.050;  204.875;    0.000
1017.536; 1868.050;  195.875;    0.000
1017.695; 1810.050;  216.875;    0.000
1017.854; 1865.050;  235.875;    0.000
1018.013; 1765.050;  189.875;    0.000
1018.172; 1608.050;  217.875;    0.000
1018.331; 1674.050;  215.875;    0.000
1018.490; 1821.050;  233.875;    0.000
1018.649; 1578.050;  211.875;    0.000
1018.808; 1700.050;  196.875;    0.000
1018.967; 1730.050;  222.875;    0.000
1019.126; 1901.050;  221.875;    0.000
1019.285; 1950.050;  212.875;    0.000
1019.444; 1829.050;  231.875;    0.000
1019.603; 1756.050;  227.875;    0.000
1019.762; 1779.050;  192.875;    0.000
1019.921; 1772.050;  240.875;    0.000
1020.079; 1709.050;  209.875;    0.000
1020.238; 1870.050;  211.875;    0.000
1020.397; 1832.050;  253.875;    0.000
1020.555; 1789.050;  179.875;    0.000
1020.714; 1860.050;  225.875;    0.000
1020.873; 1950.050;  232.875;    0.000
1021.031; 1717.050;  245.875;    0.000
1021.190; 1910.050;  230.875;    0.000
1021.348; 1874.050;  221.875;    0.000
1021.507; 1894.050;  212.875;    0.000
1021.665; 1897.050;  211.875;    0.000
1021.824; 1948.050;  206.875;    0.000
1021.982; 1807.050;  218.875;    0.000
1022.141; 1909.050;  232.875;    0.000
1022.299; 2077.050;  193.875;    0.000
1022.457; 1988.050;  217.875;    0.000
1022.616; 1836.050;  248.875;    0.000
1022.774; 1861.050;  222.875;    0.000
1022.932; 1960.050;  211.875;    0.000
1023.090; 1970.050;  288.875;    0.000
1023.249; 1986.050;  214.875;    0.000
1023.407; 1830.050;  233.875;    0.000
1023.565; 1902.050;  208.875;    0.000
1023.723; 1966.050;  217.875;    0.000
1023.881; 2027.050;  235.875;    0.000
1024.039; 1943.050;  228.875;    0.000
1024.197; 1901.050;  216.875;    0.000
1024.355; 1837.050;  251.875;    0.000
1024.513; 1979.050;  232.875;    0.000
1024.671; 2205.050;  217.875;    0.000
1024.829; 1975.050;  255.875;    0.000
1024.987; 1948.050;  203.875;    0.000
1025.145; 1980.050;  239.875;    0.000
1025.302; 2005.050;  209.875;    0.000
1025.460; 2038.050;  224.875;    0.000
1025.618; 2119.050;  193.875;    0.000
1025.776; 1926.050;  209.875;    0.000
1025.933; 1932.050;  229.875;    0.000
1026.091; 2010.050;  218.875;    0.000
1026.249; 2203.050;  269.875;    0.000
1026.406; 2135.050;  264.875;    0.000
1026.564; 2017.050;  230.875;    0.000
1026.721; 2008.050;  198.875;    0.000
1026.879; 1945.050;  216.875;    0.000
1027.036; 2219.050;  226.875;    0.000
1027.194; 2355.050;  245.875;    0.000
1027.351; 2042.050;  236.875;    0.000
1027.509; 1970.050;  262.875;    0.000
1027.666; 1960.050;  227.875;    0.000
1027.823; 2161.050;  214.875;    0.000
1027.981; 2491.050;  258.875;    0.000
1028.138; 2303.050;  239.875;    0.000
1028.295; 2129.050;  226.875;    0.000
1028.452; 2012.050;  225.875;    0.000
1028.609; 2054.050;  276.875;    0.000
1028.767; 2297.050;  228.875;    0.000
1028.924; 2453.050;  213.875;    0.000
1029.081; 2364.050;  232.875;    0.000
1029.238; 2200.050;  250.875;    0.000
1029.395; 1989.050;  255.875;    0.000
1029.552; 2146.050;  217.875;    0.000
1029.709; 2514.050;  210.875;    0.000
1029.866; 2576.050;  243.875;    0.000
1030.023; 2356.050;  202.875;    0.000
1030.180; 2064.050;  233.875;    0.000
1030.337; 1977.050;  234.875;    0.000
1030.494; 2149.050;  222.875;    0.000
1030.650; 2500.050;  241.875;    0.000
1030.807; 2608.050;  206.875;    0.000
1030.964; 2450.050;  206.875;    0.000
1031.121; 2212.050;  228.875;    0.000
1031.277; 2136.050;  228.875;    0.000
1031.434; 2210.050;  234.875;    0.000
1031.591; 2384.050;  250.875;    0.000
1031.747; 2543.050;  246.875;    0.000
1031.904; 2596.050;  201.875;    0.000
1032.060; 2266.050;  237.875;    0.000
1032.217; 2223.050;  232.875;    0.000
1032.373; 2226.050;  210.875;    0.000
1032.530; 2485.050;  246.875;    0.000
1032.686; 2758.050;  196.875;    0.000
1032.843; 2655.050;  212.875;    0.000
1032.999; 2601.050;  243.875;    0.000
1033.155; 2505.050;  234.875;    0.000
1033.312; 2482.050;  246.875;    0.000
1033.468; 2529.050;  233.875;    0.000
1033.624; 3065.050;  237.875;    0.000
1033.780; 3274.050;  263.875;    0.000
1033.937; 3386.050;  214.875;    0.000
1034.093; 3299.050;  230.875;    0.000
1034.249; 3290.050;  206.875;    0.000
1034.405; 3192.050;  238.875;    0.000
1034.561; 3307.050;  231.875;    0.000
1034.717; 3383.050;  228.875;    0.000
1034.873; 3527.050;  262.875;    0.000
1035.029; 3535.050;  252.875;    0.000
1035.185; 3436.050;  232.875;    0.000
1035.341; 3181.050;  245.875;    0.000
1035.497; 3389.050;  253.875;    0.000
1035.653; 3315.050;  252.875;    0.000
1035.809; 3945.050;  245.875;    0.000
1035.964; 4164.050;  229.875;    0.000
1036.120; 4002.050;  226.875;    0.000
1036.276; 3942.050;  236.875;    0.000
1036.432; 3691.050;  203.875;    0.000
1036.587; 3632.050;  228.875;    0.000
1036.743; 3942.050;  240.875;    0.000
1036.899; 4023.050;  220.875;    0.000
1037.054; 4015.050;  153.875;    0.000
1037.210; 4483.050;  219.875;    0.000
1037.365; 4416.050;  229.875;    0.000
1037.521; 4353.050;  257.875;    0.000
1037.676; 4235.050;  211.875;    0.000
1037.832; 3741.050;  234.875;    0.000
1037.987; 3875.050;  235.875;    0.000
1038.143; 3882.050;  176.875;    0.000
1038.298; 4468.050;  262.875;    0.000
1038.453; 4463.050;  209.875;    0.000
1038.609; 4780.050;  230.875;    0.000
1038.764; 4713.050;  253.875;    0.000
1038.919; 4733.050;  195.875;    0.000
1039.074; 4688.050;  234.875;    0.000
1039.229; 4235.050;  234.875;    0.000
1039.385; 4166.050;  266.875;    0.000
1039.540; 4610.050;  252.875;    0.000
1039.695; 4904.050;  231.875;    0.000
1039.850; 4972.050;  208.875;    0.000
1040.005; 5069.050;  232.875;    0.000
1040.160; 5619.050;  214.875;    0.000
1040.315; 5519.050;  221.875;    0.000
1040.470; 5256.050;  207.875;    0.000
1040.625; 4446.050;  249.875;    0.000
1040.780; 4600.050;  251.875;    0.000
1040.935; 4817.050;  254.875;    0.000
1041.089; 4919.050;  210.875;    0.000
1041.244; 5506.050;  225.875;    0.000
1041.399; 5473.050;  208.875;    0.000
1041.554; 5622.050;  249.875;    0.000
1041.708; 5798.050;  254.875;    0.000
1041.863; 5851.050;  248.875;    0.000
1042.018; 6297.050;  280.875;    0.000
1042.172; 6538.050;  233.875;    0.000
1042.327; 5801.050;  256.875;    0.000
1042.481; 5943.050;  210.875;    0.000
1042.636; 6069.050;  229.875;    0.000
1042.791; 6644.050;  215.875;    0.000
1042.945; 6641.050;  256.875;    0.000
1043.099; 6860.050;  251.875;    0.000
1043.254; 6821.050;  204.875;    0.000
1043.408; 7300.050;  278.875;    0.000
1043.563; 7480.050;  211.875;    0.000
1043.717; 7084.050;  259.875;    0.000
1043.871; 6578.050;  233.875;    0.000
1044.025; 6710.050;  221.875;    0.000
1044.180; 6596.050;  208.875;    0.000
1044.334; 6842.050;  255.875;    0.000
1044.488; 7266.050;  269.875;    0.000
1044.642; 7601.050;  228.875;    0.000
1044.796; 8531.050;  232.875;    0.000
1044.950; 8938.050;  249.875;    0.000
1045.104; 7967.050;  205.875;    0.000
1045.258; 9041.050;  206.875;    0.000
1045.412; 8812.050;  251.875;    0.000
1045.566; 8119.050;  249.875;    0.000
1045.720; 8373.050;  206.875;    0.000
1045.874; 7753.050;  232.875;    0.000
1046.028; 7564.050;  266.875;    0.000
1046.182; 7318.050;  217.875;    0.000
1046.336; 7845.050;  216.875;    0.000
1046.489; 8346.050;  236.875;    0.000
1046.643; 8838.050;  253.875;    0.000
1046.797; 8702.050;  244.875;    0.000
1046.951; 9147.050;  234.875;    0.000
1047.104; 9414.050;  281.875;    0.000
1047.258; 9597.050;  253.875;    0.000
1047.411; 9441.050;  228.875;    0.000
1047.565; 9187.050;  273.875;    0.000
1047.719; 8667.050;  232.875;    0.000
1047.872; 8619.050;  230.875;    0.000
1048.026; 8906.050;  282.875;    0.000
1048.179; 8882.050;  225.875;    0.000
1048.332; 8231.050;  234.875;    0.000
1048.486; 7905.050;  223.875;    0.000
1048.639; 8877.050;  248.875;    0.000
1048.792; 9525.050;  244.875;    0.000
1048.946; 9895.050;  210.875;    0.000
1049.099;11095.050;  242.875;    0.000
1049.252;10886.050;  269.875;    0.000
1049.406;10296.050;  285.875;    0.000
1049.559;10676.050;  277.875;    0.000
1049.712;10731.050;  254.875;    0.000
1049.865;10953.050;  252.875;    0.000
1050.018;10471.050;  270.875;    0.000
1050.171; 9540.050;  230.875;    0.000
1050.324; 9486.050;  268.875;    0.000
1050.477; 9307.050;  262.875;    0.000
1050.630; 9024.050;  243.875;    0.000
1050.783;10181.050;  216.875;    0.000
1050.936;10158.050;  250.875;    0.000
1051.089;10037.050;  247.875;    0.000
1051.242;10985.050;  300.875;    0.000
1051.394;11138.050;  233.875;    0.000
1051.547;10954.050;  263.875;    0.000
1051.700;11651.050;  238.875;    0.000
1051.853;11504.050;  299.875;    0.000
1052.005;12564.050;  275.875;    0.000
1052.158;12437.050;  304.875;    0.000
1052.311;14089.050;  251.875;    0.000
1052.463;12181.050;  276.875;    0.000
1052.616;11820.050;  271.875;    0.000
1052.768;11708.050;  285.875;    0.000
1052.921;11464.050;  261.875;    0.000
1053.073;12314.050;  333.875;    0.000
1053.226;12002.050;  271.875;    0.000
1053.378;12156.050;  309.875;    0.000
1053.531;11748.050;  266.875;    0.000
1053.683;12116.050;  278.875;    0.000
1053.835;11179.050;  274.875;    0.000
1053.988; 9107.050;  287.875;    0.000
1054.140; 2904.050;  350.875;    0.000
1054.292;  970.050;  338.875;    0.000
1054.444;  802.050;  270.875;    0.000
1054.596;  731.050;  294.875;    0.000
1054.749;  667.050;  285.875;    0.000
1054.901;  636.050;  254.875;    0.000
1055.053;  593.050;  320.875;    0.000
1055.205;  657.050;  284.875;    0.000
1055.357;  549.050;  298.875;    0.000
1055.509;  553.050;  304.875;    0.000
1055.661;  606.050;  350.875;    0.000
1055.813;  522.050;  289.875;    0.000
1055.965;  566.050;  277.875;    0.000
1056.116;  530.050;  288.875;    0.000
1056.268;  590.050;  311.875;    0.000
1056.420;  569.050;  308.875;    0.000

