
Integration time [ms]:   0.300
Averaging Nr. [scans]: 1
Smoothing Nr. [pixels]: 0
Data measured with spectrometer [name]: UV1
Wave   ;Sample   ;Dark     ;Reference
[nm]   ;[counts] ;[counts] ;[counts] 

236.381;  140.400;  160.350;    0.000
236.451;  172.400;  198.350;    0.000
236.520;  188.400;  179.350;    0.000
236.590;  186.400;  205.350;    0.000
236.660;  170.400;  199.350;    0.000
236.730;  188.400;  178.350;    0.000
236.799;  208.400;  201.350;    0.000
236.869;  188.400;  197.350;    0.000
236.939;  149.400;  180.350;    0.000
237.009;  207.400;  165.350;    0.000
237.078;  194.400;  191.350;    0.000
237.148;  180.400;  146.350;    0.000
237.218;  194.400;  142.350;    0.000
237.287;  161.400;  190.350;    0.000
237.357;  154.400;  182.350;    0.000
237.427;  199.400;  139.350;    0.000
237.496;  858.400;  221.350;    0.000
237.566;  861.400;  183.350;    0.000
237.636;  853.400;  157.350;    0.000
237.705;  863.400;  189.350;    0.000
237.775;  828.400;  169.350;    0.000
237.845;  875.400;  156.350;    0.000
237.914;  847.400;  185.350;    0.000
237.984;  867.400;  194.350;    0.000
238.054;  824.400;  138.350;    0.000
238.123;  810.400;  166.350;    0.000
238.193;  822.400;  174.350;    0.000
238.263;  832.400;  158.350;    0.000
238.332;  838.400;  167.350;    0.000
238.402;  858.400;  173.350;    0.000
238.471;  777.400;  153.350;    0.000
238.541;  851.400;  167.350;    0.000
238.611;  858.400;  165.350;    0.000
238.680;  885.400;  157.350;    0.000
238.750;  821.400;  152.350;    0.000
238.819;  847.400;  190.350;    0.000
238.889;  862.400;  151.350;    0.000
238.958;  805.400;  166.350;    0.000
239.028;  779.400;  180.350;    0.000
239.097;  831.400;  170.350;    0.000
239.167;  882.400;  177.350;    0.000
239.237;  861.400;  195.350;    0.000
239.306;  809.400;  145.350;    0.000
239.376;  838.400;  158.350;    0.000
239.445;  832.400;  187.350;    0.000
239.515;  851.400;  160.350;    0.000
239.584;  791.400;  173.350;    0.000
239.654;  833.400;  184.350;    0.000
239.723;  857.400;  195.350;    0.000
239.793;  856.400;  183.350;    0.000
239.862;  840.400;  190.350;    0.000
239.932;  784.400;  168.350;    0.000
240.001;  837.400;  164.350;    0.000
240.070;  833.400;  183.350;    0.000
240.140;  808.400;  175.350;    0.000
240.209;  736.400;  135.350;    0.000
240.279;  830.400;  176.350;    0.000
240.348;  817.400;  184.350;    0.000
240.418;  783.400;  157.350;    0.000
240.487;  788.400;  189.350;    0.000
240.556;  848.400;  157.350;    0.000
240.626;  797.400;  174.350;    0.000
240.695;  823.400;  180.350;    0.000
240.765;  838.400;  152.350;    0.000
240.834;  810.400;  136.350;    0.000
240.903;  792.400;  196.350;    0.000
240.973;  777.400;  183.350;    0.000
241.042;  774.400;  150.350;    0.000
241.112;  801.400;  168.350;    0.000
241.181;  845.400;  152.350;    0.000
241.250;  766.400;  132.350;    0.000
241.320;  851.400;  209.350;    0.000
241.389;  793.400;  169.350;    0.000
241.458;  821.400;  204.350;    0.000
241.528;  825.400;  176.350;    0.000
241.597;  937.400;  170.350;    0.000
241.666;  780.400;  168.350;    0.000
241.736;  841.400;  172.350;    0.000
241.805;  811.400;  160.350;    0.000
241.874;  793.400;  176.350;    0.000
241.943;  839.400;  165.350;    0.000
242.013;  838.400;  206.350;    0.000
242.082;  813.400;  162.350;    0.000
242.151;  786.400;  180.350;    0.000
242.221;  831.400;  154.350;    0.000
242.290;  806.400;  122.350;    0.000
242.359;  775.400;  121.350;    0.000
242.428;  831.400;  187.350;    0.000
242.498;  739.400;  140.350;    0.000
242.567;  860.400;  173.350;    0.000
242.636;  781.400;  155.350;    0.000
242.705;  788.400;  108.350;    0.000
242.774;  768.400;  145.350;    0.000
242.844;  802.400;  162.350;    0.000
242.913;  792.400;  178.350;    0.000
242.982;  775.400;  163.350;    0.000
243.051;  806.400;  138.350;    0.000
243.120;  760.400;  172.350;    0.000
243.190;  713.400;  155.350;    0.000
243.259;  780.400;  159.350;    0.000
243.328;  762.400;  173.350;    0.000
243.397;  765.400;  175.350;    0.000
243.466;  790.400;  170.350;    0.000
243.535;  761.400;  161.350;    0.000
243.605;  780.400;  149.350;    0.000
243.674;  781.400;  162.350;    0.000
243.743;  805.400;  175.350;    0.000
243.812;  735.400;  159.350;    0.000
243.881;  733.400;  158.350;    0.000
243.950;  760.400;  154.350;    0.000
244.019;  733.400;  185.350;    0.000
244.088;  823.400;  175.350;    0.000
244.158;  786.400;  167.350;    0.000
244.227;  763.400;  159.350;    0.000
244.296;  728.400;  143.350;    0.000
244.365;  791.400;  182.350;    0.000
244.434;  748.400;  117.350;    0.000
244.503;  707.400;  109.350;    0.000
244.572;  736.400;  147.350;    0.000
244.641;  700.400;  129.350;    0.000
244.710;  754.400;  159.350;    0.000
244.779;  734.400;  166.350;    0.000
244.848;  758.400;  122.350;    0.000
244.917;  756.400;  167.350;    0.000
244.986;  774.400;  158.350;    0.000
245.055;  751.400;  175.350;    0.000
245.124;  773.400;  153.350;    0.000
245.193;  723.400;  155.350;    0.000
245.262;  744.400;  137.350;    0.000
245.331;  719.400;  145.350;    0.000
245.400;  716.400;  107.350;    0.000
245.469;  781.400;  162.350;    0.000
245.538;  730.400;  165.350;    0.000
245.607;  774.400;  178.350;    0.000
245.676;  650.400;  166.350;    0.000
245.745;  746.400;  169.350;    0.000
245.814;  663.400;  155.350;    0.000
245.883;  693.400;  186.350;    0.000
245.952;  691.400;  165.350;    0.000
246.021;  663.400;  169.350;    0.000
246.090;  731.400;  170.350;    0.000
246.159;  704.400;  155.350;    0.000
246.227;  709.400;  161.350;    0.000
246.296;  666.400;  142.350;    0.000
246.365;  674.400;  160.350;    0.000
246.434;  722.400;  199.350;    0.000
246.503;  688.400;  155.350;    0.000
246.572;  761.400;  206.350;    0.000
246.641;  665.400;  177.350;    0.000
246.710;  697.400;  178.350;    0.000
246.779;  651.400;  193.350;    0.000
246.847;  678.400;  147.350;    0.000
246.916;  695.400;  131.350;    0.000
246.985;  713.400;  168.350;    0.000
247.054;  637.400;  143.350;    0.000
247.123;  642.400;  130.350;    0.000
247.192;  719.400;  175.350;    0.000
247.260;  656.400;  171.350;    0.000
247.329;  713.400;  162.350;    0.000
247.398;  663.400;  163.350;    0.000
247.467;  621.400;  155.350;    0.000
247.536;  672.400;  149.350;    0.000
247.604;  730.400;  191.350;    0.000
247.673;  691.400;  193.350;    0.000
247.742;  686.400;  159.350;    0.000
247.811;  673.400;  167.350;    0.000
247.879;  682.400;  176.350;    0.000
247.948;  671.400;  157.350;    0.000
248.017;  654.400;  150.350;    0.000
248.086;  679.400;  153.350;    0.000
248.154;  663.400;  157.350;    0.000
248.223;  697.400;  198.350;    0.000
248.292;  650.400;  188.350;    0.000
248.361;  667.400;  157.350;    0.000
248.429;  638.400;  138.350;    0.000
248.498;  658.400;  166.350;    0.000
248.567;  691.400;  179.350;    0.000
248.635;  669.400;  210.350;    0.000
248.704;  678.400;  168.350;    0.000
248.773;  661.400;  147.350;    0.000
248.841;  699.400;  155.350;    0.000
248.910;  664.400;  183.350;    0.000
248.979;  613.400;  171.350;    0.000
249.047;  593.400;  152.350;    0.000
249.116;  697.400;  155.350;    0.000
249.185;  650.400;  217.350;    0.000
249.253;  618.400;  149.350;    0.000
249.322;  639.400;  167.350;    0.000
249.390;  669.400;  182.350;    0.000
249.459;  697.400;  173.350;    0.000
249.528;  691.400;  162.350;    0.000
249.596;  605.400;  162.350;    0.000
249.665;  620.400;  163.350;    0.000
249.733;  599.400;  147.350;    0.000
249.802;  673.400;  170.350;    0.000
249.871;  684.400;  179.350;    0.000
249.939;  635.400;  179.350;    0.000
250.008;  648.400;  201.350;    0.000
250.076;  648.400;  189.350;    0.000
250.145;  631.400;  171.350;    0.000
250.213;  640.400;  161.350;    0.000
250.282;  610.400;  171.350;    0.000
250.350;  586.400;  138.350;    0.000
250.419;  666.400;  172.350;    0.000
250.487;  696.400;  207.350;    0.000
250.556;  646.400;  160.350;    0.000
250.624;  685.400;  187.350;    0.000
250.693;  619.400;  141.350;    0.000
250.761;  603.400;  182.350;    0.000
250.830;  642.400;  203.350;    0.000
250.898;  627.400;  160.350;    0.000
250.967;  675.400;  143.350;    0.000
251.035;  564.400;  142.350;    0.000
251.104;  632.400;  159.350;    0.000
251.172;  645.400;  189.350;    0.000
251.241;  660.400;  134.350;    0.000
251.309;  608.400;  179.350;    0.000
251.378;  628.400;  203.350;    0.000
251.446;  592.400;  151.350;    0.000
251.514;  653.400;  176.350;    0.000
251.583;  648.400;  173.350;    0.000
251.651;  608.400;  163.350;    0.000
251.720;  656.400;  151.350;    0.000
251.788;  618.400;  205.350;    0.000
251.856;  577.400;  126.350;    0.000
251.925;  602.400;  118.350;    0.000
251.993;  598.400;  139.350;    0.000
252.062;  672.400;  161.350;    0.000
252.130;  611.400;  180.350;    0.000
252.198;  623.400;  141.350;    0.000
252.267;  573.400;  145.350;    0.000
252.335;  587.400;  159.350;    0.000
252.403;  560.400;  158.350;    0.000
252.472;  580.400;  142.350;    0.000
252.540;  614.400;  162.350;    0.000
252.608;  603.400;  180.350;    0.000
252.677;  526.400;  137.350;    0.000
252.745;  608.400;  183.350;    0.000
252.813;  516.400;  151.350;    0.000
252.881;  557.400;  109.350;    0.000
252.950;  556.400;  174.350;    0.000
253.018;  565.400;  136.350;    0.000
253.086;  504.400;  149.350;    0.000
253.155;  520.400;  127.350;    0.000
253.223;  537.400;  156.350;    0.000
253.291;  486.400;  163.350;    0.000
253.359;  469.400;  174.350;    0.000
253.428;  494.400;  174.350;    0.000
253.496;  508.400;  161.350;    0.000
253.564;  441.400;  128.350;    0.000
253.632;  481.400;  153.350;    0.000
253.700;  489.400;  185.350;    0.000
253.769;  473.400;  163.350;    0.000
253.837;  536.400;  176.350;    0.000
253.905;  523.400;  164.350;    0.000
253.973;  517.400;  156.350;    0.000
254.041;  477.400;  154.350;    0.000
254.110;  507.400;  165.350;    0.000
254.178;  502.400;  148.350;    0.000
254.246;  470.400;  138.350;    0.000
254.314;  467.400;  164.350;    0.000
254.382;  515.400;  167.350;    0.000
254.450;  516.400;  134.350;    0.000
254.518;  461.400;  192.350;    0.000
254.587;  469.400;  139.350;    0.000
254.655;  440.400;  162.350;    0.000
254.723;  460.400;  131.350;    0.000
254.791;  494.400;  181.350;    0.000
254.859;  489.400;  146.350;    0.000
254.927;  539.400;  189.350;    0.000
254.995;  478.400;  141.350;    0.000
255.063;  504.400;  181.350;    0.000
255.131;  479.400;  156.350;    0.000
255.199;  445.400;  175.350;    0.000
255.267;  472.400;  120.350;    0.000
255.336;  481.400;  186.350;    0.000
255.404;  510.400;  134.350;    0.000
255.472;  504.400;  172.350;    0.000
255.540;  501.400;  157.350;    0.000
255.608;  468.400;  186.350;    0.000
255.676;  511.400;  155.350;    0.000
255.744;  515.400;  143.350;    0.000
255.812;  512.400;  134.350;    0.000
255.880;  573.400;  188.350;    0.000
255.948;  498.400;  163.350;    0.000
256.016;  518.400;  175.350;    0.000
256.084;  534.400;  191.350;    0.000
256.152;  488.400;  187.350;    0.000
256.220;  501.400;  152.350;    0.000
256.288;  579.400;  141.350;    0.000
256.356;  489.400;  139.350;    0.000
256.424;  555.400;  121.350;    0.000
256.491;  548.400;  139.350;    0.000
256.559;  537.400;  144.350;    0.000
256.627;  556.400;  158.350;    0.000
256.695;  511.400;  121.350;    0.000
256.763;  616.400;  150.350;    0.000
256.831;  558.400;  181.350;    0.000
256.899;  571.400;  146.350;    0.000
256.967;  588.400;   71.350;    0.000
257.035;  592.400;  164.350;    0.000
257.103;  614.400;  191.350;    0.000
257.171;  527.400;  140.350;    0.000
257.238;  578.400;  165.350;    0.000
257.306;  540.400;  127.350;    0.000
257.374;  586.400;  120.350;    0.000
257.442;  609.400;  139.350;    0.000
257.510;  586.400;  158.350;    0.000
257.578;  591.400;  164.350;    0.000
257.646;  578.400;  151.350;    0.000
257.713;  555.400;  136.350;    0.000
257.781;  633.400;  137.350;    0.000
257.849;  661.400;  151.350;    0.000
257.917;  646.400;  154.350;    0.000
257.985;  607.400;  113.350;    0.000
258.052;  636.400;  140.350;    0.000
258.120;  639.400;  176.350;    0.000
258.188;  683.400;  157.350;    0.000
258.256;  633.400;  153.350;    0.000
258.324;  702.400;  184.350;    0.000
258.391;  724.400;  144.350;    0.000
258.459;  736.400;  162.350;    0.000
258.527;  638.400;  154.350;    0.000
258.595;  681.400;  122.350;    0.000
258.662;  691.400;  164.350;    0.000
258.730;  734.400;  114.350;    0.000
258.798;  698.400;  131.350;    0.000
258.865;  725.400;  171.350;    0.000
258.933;  711.400;  145.350;    0.000
259.001;  734.400;  150.350;    0.000
259.069;  733.400;  123.350;    0.000
259.136;  743.400;  139.350;    0.000
259.204;  809.400;  165.350;    0.000
259.272;  762.400;  114.350;    0.000
259.339;  871.400;  179.350;    0.000
259.407;  845.400;  153.350;    0.000
259.475;  818.400;  143.350;    0.000
259.542;  817.400;  136.350;    0.000
259.610;  789.400;  133.350;    0.000
259.677;  872.400;  159.350;    0.000
259.745;  877.400;  130.350;    0.000
259.813;  857.400;  175.350;    0.000
259.880;  907.400;  158.350;    0.000
259.948;  857.400;  124.350;    0.000
260.016;  896.400;  105.350;    0.000
260.083;  869.400;  169.350;    0.000
260.151;  895.400;  133.350;    0.000
260.218;  948.400;  143.350;    0.000
260.286;  931.400;  134.350;    0.000
260.353;  938.400;  160.350;    0.000
260.421;  913.400;  128.350;    0.000
260.489;  972.400;  150.350;    0.000
260.556; 1016.400;  179.350;    0.000
260.624;  944.400;  113.350;    0.000
260.691; 1003.400;  128.350;    0.000
260.759; 1019.400;  146.350;    0.000
260.826;  956.400;  111.350;    0.000
260.894; 1016.400;  115.350;    0.000
260.961;  972.400;  138.350;    0.000
261.029; 1010.400;  152.350;    0.000
261.096; 1016.400;  175.350;    0.000
261.164; 1062.400;  131.350;    0.000
261.231; 1020.400;  141.350;    0.000
261.299; 1036.400;  125.350;    0.000
261.366; 1023.400;  142.350;    0.000
261.434;  996.400;  133.350;    0.000
261.501; 1065.400;  137.350;    0.000
261.568; 1074.400;  184.350;    0.000
261.636; 1074.400;  138.350;    0.000
261.703; 1200.400;  161.350;    0.000
261.771; 1094.400;  160.350;    0.000
261.838; 1129.400;  178.350;    0.000
261.906; 1141.400;  128.350;    0.000
261.973; 1167.400;  139.350;    0.000
262.040; 1178.400;  148.350;    0.000
262.108; 1157.400;  130.350;    0.000
262.175; 1167.400;  117.350;    0.000
262.243; 1211.400;  174.350;    0.000
262.310; 1148.400;  145.350;    0.000
262.377; 1175.400;  108.350;    0.000
262.445; 1211.400;  147.350;    0.000
262.512; 1198.400;  124.350;    0.000
262.579; 1204.400;  127.350;    0.000
262.647; 1262.400;  166.350;    0.000
262.714; 1190.400;  150.350;    0.000
262.781; 1260.400;  121.350;    0.000
262.849; 1261.400;  126.350;    0.000
262.916; 1204.400;  119.350;    0.000
262.983; 1293.400;  155.350;    0.000
263.051; 1161.400;  137.350;    0.000
263.118; 1286.400;  160.350;    0.000
263.185; 1289.400;  151.350;    0.000
263.252; 1280.400;  167.350;    0.000
263.320; 1359.400;  123.350;    0.000
263.387; 1229.400;  134.350;    0.000
263.454; 1421.400;  144.350;    0.000
263.522; 1259.400;  153.350;    0.000
263.589; 1412.400;  161.350;    0.000
263.656; 1348.400;  117.350;    0.000
263.723; 1361.400;  101.350;    0.000
263.790; 1341.400;  128.350;    0.000
263.858; 1364.400;  142.350;    0.000
263.925; 1432.400;  182.350;    0.000
263.992; 1386.400;  146.350;    0.000
264.059; 1391.400;  132.350;    0.000
264.126; 1517.400;  154.350;    0.000
264.194; 1412.400;  153.350;    0.000
264.261; 1460.400;  157.350;    0.000
264.328; 1463.400;  171.350;    0.000
264.395; 1410.400;  166.350;    0.000
264.462; 1417.400;  165.350;    0.000
264.529; 1464.400;  124.350;    0.000
264.597; 1446.400;  120.350;    0.000
264.664; 1536.400;  159.350;    0.000
264.731; 1477.400;  145.350;    0.000
264.798; 1501.400;  100.350;    0.000
264.865; 1456.400;  166.350;    0.000
264.932; 1541.400;  132.350;    0.000
264.999; 1512.400;  137.350;    0.000
265.066; 1469.400;  124.350;    0.000
265.133; 1561.400;  162.350;    0.000
265.201; 1554.400;  163.350;    0.000
265.268; 1653.400;  174.350;    0.000
265.335; 1536.400;  132.350;    0.000
265.402; 1569.400;  116.350;    0.000
265.469; 1579.400;  121.350;    0.000
265.536; 1567.400;  157.350;    0.000
265.603; 1525.400;  151.350;    0.000
265.670; 1578.400;  164.350;    0.000
265.737; 1543.400;  142.350;    0.000
265.804; 1558.400;  146.350;    0.000
265.871; 1622.400;  168.350;    0.000
265.938; 1625.400;  131.350;    0.000
266.005; 1723.400;  208.350;    0.000
266.072; 1668.400;  125.350;    0.000
266.139; 1613.400;  161.350;    0.000
266.206; 1585.400;  134.350;    0.000
266.273; 1707.400;  155.350;    0.000
266.340; 1616.400;  122.350;    0.000
266.407; 1664.400;  134.350;    0.000
266.474; 1681.400;  126.350;    0.000
266.541; 1657.400;  153.350;    0.000
266.608; 1648.400;  129.350;    0.000
266.675; 1742.400;  185.350;    0.000
266.742; 1764.400;  153.350;    0.000
266.808; 1705.400;  169.350;    0.000
266.875; 1743.400;  156.350;    0.000
266.942; 1758.400;  172.350;    0.000
267.009; 1739.400;  150.350;    0.000
267.076; 1788.400;  184.350;    0.000
267.143; 1713.400;  170.350;    0.000
267.210; 1728.400;  132.350;    0.000
267.277; 1739.400;  146.350;    0.000
267.344; 1768.400;  159.350;    0.000
267.410; 1762.400;  174.350;    0.000
267.477; 1829.400;  169.350;    0.000
267.544; 1778.400;  130.350;    0.000
267.611; 1652.400;  169.350;    0.000
267.678; 1758.400;  197.350;    0.000
267.745; 1759.400;  185.350;    0.000
267.811; 1749.400;  160.350;    0.000
267.878; 1821.400;  143.350;    0.000
267.945; 1806.400;  126.350;    0.000
268.012; 1769.400;  172.350;    0.000
268.079; 1816.400;  156.350;    0.000
268.145; 1827.400;  128.350;    0.000
268.212; 1809.400;  107.350;    0.000
268.279; 1865.400;  135.350;    0.000
268.346; 1821.400;  166.350;    0.000
268.412; 1818.400;  150.350;    0.000
268.479; 1786.400;  176.350;    0.000
268.546; 1771.400;  119.350;    0.000
268.613; 1823.400;  201.350;    0.000
268.679; 1851.400;  141.350;    0.000
268.746; 1783.400;  177.350;    0.000
268.813; 1769.400;  134.350;    0.000
268.879; 1706.400;  141.350;    0.000
268.946; 1814.400;  172.350;    0.000
269.013; 1850.400;  150.350;    0.000
269.079; 1766.400;  124.350;    0.000
269.146; 1719.400;  135.350;    0.000
269.213; 1809.400;  200.350;    0.000
269.280; 1801.400;  142.350;    0.000
269.346; 1835.400;  153.350;    0.000
269.413; 1861.400;  140.350;    0.000
269.479; 1820.400;  171.350;    0.000
269.546; 1789.400;  156.350;    0.000
269.613; 1757.400;  145.350;    0.000
269.679; 1804.400;  168.350;    0.000
269.746; 1741.400;  136.350;    0.000
269.813; 1806.400;  153.350;    0.000
269.879; 1835.400;  162.350;    0.000
269.946; 1759.400;  156.350;    0.000
270.012; 1810.400;  178.350;    0.000
270.079; 1741.400;  132.350;    0.000
270.145; 1789.400;  146.350;    0.000
270.212; 1760.400;  145.350;    0.000
270.279; 1794.400;  184.350;    0.000
270.345; 1769.400;  143.350;    0.000
270.412; 1789.400;  158.350;    0.000
270.478; 1759.400;  143.350;    0.000
270.545; 1792.400;  150.350;    0.000
270.611; 1877.400;  156.350;    0.000
270.678; 1759.400;  121.350;    0.000
270.744; 1727.400;  161.350;    0.000
270.811; 1728.400;  173.350;    0.000
270.877; 1728.400;  115.350;    0.000
270.944; 1817.400;  114.350;    0.000
271.010; 1750.400;  122.350;    0.000
271.077; 1808.400;  142.350;    0.000
271.143; 1780.400;  152.350;    0.000
271.210; 1736.400;  135.350;    0.000
271.276; 1791.400;  107.350;    0.000
271.342; 1839.400;  173.350;    0.000
271.409; 1806.400;  171.350;    0.000
271.475; 1816.400;  136.350;    0.000
271.542; 1754.400;  121.350;    0.000
271.608; 1742.400;  133.350;    0.000
271.675; 1770.400;  136.350;    0.000
271.741; 1795.400;  151.350;    0.000
271.807; 1840.400;  130.350;    0.000
271.874; 1729.400;  168.350;    0.000
271.940; 1769.400;  156.350;    0.000
272.007; 1753.400;  122.350;    0.000
272.073; 1720.400;  121.350;    0.000
272.139; 1824.400;  137.350;    0.000
272.206; 1767.400;  152.350;    0.000
272.272; 1805.400;  162.350;    0.000
272.338; 1787.400;  197.350;    0.000
272.405; 1826.400;  144.350;    0.000
272.471; 1766.400;  160.350;    0.000
272.537; 1744.400;  142.350;    0.000
272.604; 1785.400;  141.350;    0.000
272.670; 1834.400;  182.350;    0.000
272.736; 1819.400;  126.350;    0.000
272.802; 1795.400;  146.350;    0.000
272.869; 1822.400;  163.350;    0.000
272.935; 1827.400;  132.350;    0.000
273.001; 1809.400;  119.350;    0.000
273.068; 1864.400;  137.350;    0.000
273.134; 1810.400;  155.350;    0.000
273.200; 1837.400;  165.350;    0.000
273.266; 1826.400;  156.350;    0.000
273.333; 1891.400;  143.350;    0.000
273.399; 1822.400;  128.350;    0.000
273.465; 1893.400;  167.350;    0.000
273.531; 1893.400;  122.350;    0.000
273.597; 1937.400;  182.350;    0.000
273.664; 1854.400;  177.350;    0.000
273.730; 1857.400;  124.350;    0.000
273.796; 1811.400;  143.350;    0.000
273.862; 1853.400;  155.350;    0.000
273.928; 1871.400;  137.350;    0.000
273.995; 1887.400;  188.350;    0.000
274.061; 1943.400;  154.350;    0.000
274.127; 1856.400;  161.350;    0.000
274.193; 1923.400;   95.350;    0.000
274.259; 1950.400;  128.350;    0.000
274.325; 1900.400;  146.350;    0.000
274.391; 1940.400;  113.350;    0.000
274.457; 1930.400;  150.350;    0.000
274.524; 1970.400;  165.350;    0.000
274.590; 1921.400;  140.350;    0.000
274.656; 2012.400;  165.350;    0.000
274.722; 1978.400;  118.350;    0.000
274.788; 1989.400;  143.350;    0.000
274.854; 1995.400;  150.350;    0.000
274.920; 1999.400;   88.350;    0.000
274.986; 2046.400;  178.350;    0.000
275.052; 2115.400;  145.350;    0.000
275.118; 2023.400;  105.350;    0.000
275.184; 2116.400;  129.350;    0.000
275.250; 2118.400;  138.350;    0.000
275.316; 2043.400;  173.350;    0.000
275.382; 2066.400;  106.350;    0.000
275.448; 2172.400;  160.350;    0.000
275.514; 2118.400;  162.350;    0.000
275.580; 2075.400;  135.350;    0.000
275.646; 2188.400;  120.350;    0.000
275.712; 2193.400;  157.350;    0.000
275.778; 2156.400;  128.350;    0.000
275.844; 2227.400;  117.350;    0.000
275.910; 2260.400;  121.350;    0.000
275.976; 2318.400;  172.350;    0.000
276.042; 2249.400;  114.350;    0.000
276.108; 2322.400;  200.350;    0.000
276.174; 2344.400;  132.350;    0.000
276.240; 2268.400;  128.350;    0.000
276.306; 2427.400;  124.350;    0.000
276.372; 2465.400;  133.350;    0.000
276.437; 2395.400;  146.350;    0.000
276.503; 2520.400;  136.350;    0.000
276.569; 2488.400;  162.350;    0.000
276.635; 2542.400;  128.350;    0.000
276.701; 2585.400;  148.350;    0.000
276.767; 2708.400;  155.350;    0.000
276.833; 2710.400;  128.350;    0.000
276.899; 2742.400;  145.350;    0.000
276.964; 2873.400;  124.350;    0.000
277.030; 2881.400;  130.350;    0.000
277.096; 2988.400;  139.350;    0.000
277.162; 3159.400;  164.350;    0.000
277.228; 3159.400;  108.350;    0.000
277.293; 3239.400;  138.350;    0.000
277.359; 3381.400;  123.350;    0.000
277.425; 3474.400;  183.350;    0.000
277.491; 3830.400;  144.350;    0.000
277.557; 4386.400;  130.350;    0.000
277.622; 5718.400;  151.350;    0.000
277.688; 5821.400;  169.350;    0.000
277.754; 5989.400;  199.350;    0.000
277.820; 6365.400;  170.350;    0.000
277.885; 7427.400;  173.350;    0.000
277.951; 8955.400;  187.350;    0.000
278.017; 7877.400;  152.350;    0.000
278.083; 7053.400;  137.350;    0.000
278.148; 6709.400;  147.350;    0.000
278.214; 6844.400;  162.350;    0.000
278.280; 7348.400;  171.350;    0.000
278.345; 6795.400;  174.350;    0.000
278.411; 6065.400;  152.350;    0.000
278.477; 6551.400;  173.350;    0.000
278.542; 6974.400;  161.350;    0.000
278.608; 7518.400;  155.350;    0.000
278.674; 8130.400;  169.350;    0.000
278.739; 8763.400;  142.350;    0.000
278.805;10042.400;  164.350;    0.000
278.871;12045.400;  160.350;    0.000
278.936;14513.400;  121.350;    0.000
279.002;21083.400;  166.350;    0.000
279.067;27368.400;  199.350;    0.000
279.133;26243.400;  150.350;    0.000
279.199;24387.400;  154.350;    0.000
279.264;25351.400;  154.350;    0.000
279.330;29162.400;  159.350;    0.000
279.395;37154.398;  143.350;    0.000
279.461;46036.398;  173.350;    0.000
279.527;50262.398;  163.350;    0.000
279.592;48258.398;  167.350;    0.000
279.658;40929.398;  189.350;    0.000
279.723;40061.398;  153.350;    0.000
279.789;41514.398;  174.350;    0.000
279.854;37653.398;  129.350;    0.000
279.920;31107.400;  165.350;    0.000
279.985;28581.400;  152.350;    0.000
280.051;29375.400;  164.350;    0.000
280.116;34465.398;  187.350;    0.000
280.182;43681.398;  160.350;    0.000
280.247;48696.398;  124.350;    0.000
280.313;42271.398;  154.350;    0.000
280.378;31206.400;  152.350;    0.000
280.444;23633.400;  165.350;    0.000
280.509;19145.400;  164.350;    0.000
280.574;16154.400;  160.350;    0.000
280.640;13856.400;  167.350;    0.000
280.705;12195.400;  190.350;    0.000
280.771;11137.400;  154.350;    0.000
280.836;10405.400;  158.350;    0.000
280.902; 9359.400;  124.350;    0.000
280.967; 8792.400;  179.350;    0.000
281.032; 8352.400;  187.350;    0.000
281.098; 7945.400;  155.350;    0.000
281.163; 7475.400;  133.350;    0.000
281.229; 7072.400;  170.350;    0.000
281.294; 6876.400;  175.350;    0.000
281.359; 6518.400;  163.350;    0.000
281.425; 6343.400;  161.350;    0.000
281.490; 5946.400;  162.350;    0.000
281.555; 5898.400;  137.350;    0.000
281.621; 5740.400;  163.350;    0.000
281.686; 5407.400;  155.350;    0.000
281.751; 5426.400;  158.350;    0.000
281.816; 5035.400;  139.350;    0.000
281.882; 4997.400;  150.350;    0.000
281.947; 4810.400;  165.350;    0.000
282.012; 4844.400;  171.350;    0.000
282.078; 4629.400;  177.350;    0.000
282.143; 4478.400;  149.350;    0.000
282.208; 4431.400;  181.350;    0.000
282.273; 4417.400;  166.350;    0.000
282.339; 4344.400;  165.350;    0.000
282.404; 4213.400;  166.350;    0.000
282.469; 4057.400;  150.350;    0.000
282.534; 3990.400;  176.350;    0.000
282.600; 4027.400;  117.350;    0.000
282.665; 3932.400;  134.350;    0.000
282.730; 3913.400;  155.350;    0.000
282.795; 3877.400;  193.350;    0.000
282.860; 3815.400;  160.350;    0.000
282.926; 3850.400;  174.350;    0.000
282.991; 3600.400;  161.350;    0.000
283.056; 3763.400;  157.350;    0.000
283.121; 3737.400;  178.350;    0.000
283.186; 3684.400;  152.350;    0.000
283.251; 3623.400;  167.350;    0.000
283.316; 3622.400;  186.350;    0.000
283.382; 3648.400;  148.350;    0.000
283.447; 3451.400;  191.350;    0.000
283.512; 3632.400;  132.350;    0.000
283.577; 3536.400;  179.350;    0.000
283.642; 3423.400;  185.350;    0.000
283.707; 3372.400;  136.350;    0.000
283.772; 3474.400;  119.350;    0.000
283.837; 3394.400;  136.350;    0.000
283.902; 3384.400;  135.350;    0.000
283.967; 3402.400;  146.350;    0.000
284.032; 3450.400;  140.350;    0.000
284.097; 3549.400;  199.350;    0.000
284.163; 3483.400;  144.350;    0.000
284.228; 3542.400;  183.350;    0.000
284.293; 3439.400;  141.350;    0.000
284.358; 3403.400;  146.350;    0.000
284.423; 3461.400;  127.350;    0.000
284.488; 3540.400;  186.350;    0.000
284.553; 3619.400;  155.350;    0.000
284.618; 3660.400;  118.350;    0.000
284.683; 3748.400;  145.350;    0.000
284.748; 3939.400;  139.350;    0.000
284.812; 4260.400;  147.350;    0.000
284.877; 4500.400;  123.350;    0.000
284.942; 5142.400;  153.350;    0.000
285.007; 6004.400;  168.350;    0.000
285.072; 8336.400;  181.350;    0.000
285.137;12280.400;  147.350;    0.000
285.202;16290.400;  175.350;    0.000
285.267;14457.400;  182.350;    0.000
285.332; 9816.400;  136.350;    0.000
285.397; 7412.400;  138.350;    0.000
285.462; 6144.400;  151.350;    0.000
285.527; 5377.400;  159.350;    0.000
285.591; 4853.400;  177.350;    0.000
285.656; 4504.400;  144.350;    0.000
285.721; 4210.400;  125.350;    0.000
285.786; 4016.400;  169.350;    0.000
285.851; 3843.400;  175.350;    0.000
285.916; 3839.400;  164.350;    0.000
285.981; 3680.400;  134.350;    0.000
286.045; 3621.400;  154.350;    0.000
286.110; 3544.400;  136.350;    0.000
286.175; 3388.400;  155.350;    0.000
286.240; 3412.400;  138.350;    0.000
286.305; 3432.400;  213.350;    0.000
286.369; 3313.400;  221.350;    0.000
286.434; 3336.400;  172.350;    0.000
286.499; 3352.400;  161.350;    0.000
286.564; 3270.400;  189.350;    0.000
286.628; 3202.400;  144.350;    0.000
286.693; 3253.400;  176.350;    0.000
286.758; 3220.400;  168.350;    0.000
286.823; 3198.400;  142.350;    0.000
286.887; 3169.400;  134.350;    0.000
286.952; 3069.400;  180.350;    0.000
287.017; 3073.400;  204.350;    0.000
287.082; 3088.400;  120.350;    0.000
287.146; 2987.400;  173.350;    0.000
287.211; 3025.400;  167.350;    0.000
287.276; 2975.400;  164.350;    0.000
287.340; 3145.400;  138.350;    0.000
287.405; 3024.400;  172.350;    0.000
287.470; 2954.400;  142.350;    0.000
287.534; 3043.400;  155.350;    0.000
287.599; 3068.400;  166.350;    0.000
287.663; 2973.400;  171.350;    0.000
287.728; 2988.400;  190.350;    0.000
287.793; 2945.400;  197.350;    0.000
287.857; 3044.400;  165.350;    0.000
287.922; 2928.400;  147.350;    0.000
287.987; 3039.400;  167.350;    0.000
288.051; 3034.400;  151.350;    0.000
288.116; 3045.400;  154.350;    0.000
288.180; 2990.400;  186.350;    0.000
288.245; 2900.400;  161.350;    0.000
288.309; 2916.400;  177.350;    0.000
288.374; 2961.400;  151.350;    0.000
288.439; 2943.400;  169.350;    0.000
288.503; 2869.400;  133.350;    0.000
288.568; 2978.400;  206.350;    0.000
288.632; 2912.400;  192.350;    0.000
288.697; 2935.400;  183.350;    0.000
288.761; 2906.400;  148.350;    0.000
288.826; 2853.400;  136.350;    0.000
288.890; 2837.400;  185.350;    0.000
288.955; 2886.400;  150.350;    0.000
289.019; 2848.400;  165.350;    0.000
289.084; 2843.400;  150.350;    0.000
289.148; 2875.400;  146.350;    0.000
289.212; 2925.400;  172.350;    0.000
289.277; 2921.400;  177.350;    0.000
289.341; 2924.400;  190.350;    0.000
289.406; 2798.400;  117.350;    0.000
289.470; 2754.400;  173.350;    0.000
289.535; 2885.400;  170.350;    0.000
289.599; 2833.400;  154.350;    0.000
289.663; 2846.400;  173.350;    0.000
289.728; 2745.400;  176.350;    0.000
289.792; 2771.400;  138.350;    0.000
289.857; 2819.400;  203.350;    0.000
289.921; 2813.400;  143.350;    0.000
289.985; 2759.400;  150.350;    0.000
290.050; 2811.400;  170.350;    0.000
290.114; 2882.400;  125.350;    0.000
290.178; 2892.400;  161.350;    0.000
290.243; 2785.400;  119.350;    0.000
290.307; 2902.400;  169.350;    0.000
290.371; 2836.400;  169.350;    0.000
290.436; 2957.400;  170.350;    0.000
290.500; 2826.400;  144.350;    0.000
290.564; 2881.400;  179.350;    0.000
290.629; 2829.400;  166.350;    0.000
290.693; 2854.400;  156.350;    0.000
290.757; 2747.400;  147.350;    0.000
290.821; 2859.400;  170.350;    0.000
290.886; 2835.400;  167.350;    0.000
290.950; 2821.400;  187.350;    0.000
291.014; 2775.400;  164.350;    0.000
291.078; 2808.400;  115.350;    0.000
291.143; 2932.400;  149.350;    0.000
291.207; 2954.400;  163.350;    0.000
291.271; 2881.400;  177.350;    0.000
291.335; 2956.400;  148.350;    0.000
291.399; 3032.400;  155.350;    0.000
291.464; 3144.400;  114.350;    0.000
291.528; 3383.400;  153.350;    0.000
291.592; 3287.400;  156.350;    0.000
291.656; 3146.400;  170.350;    0.000
291.720; 2992.400;  159.350;    0.000
291.784; 3012.400;  159.350;    0.000
291.849; 3044.400;  154.350;    0.000
291.913; 3064.400;  118.350;    0.000
291.977; 2989.400;  157.350;    0.000
292.041; 3080.400;  163.350;    0.000
292.105; 3180.400;  135.350;    0.000
292.169; 3114.400;  155.350;    0.000
292.233; 3170.400;  163.350;    0.000
292.297; 3193.400;  144.350;    0.000
292.361; 3094.400;  143.350;    0.000
292.425; 3304.400;  177.350;    0.000
292.490; 3323.400;  159.350;    0.000
292.554; 3549.400;  137.350;    0.000
292.618; 3649.400;  144.350;    0.000
292.682; 3953.400;  169.350;    0.000
292.746; 4504.400;  166.350;    0.000
292.810; 5766.400;  147.350;    0.000
292.874; 7093.400;  160.350;    0.000
292.938; 7219.400;  174.350;    0.000
293.002; 6443.400;  148.350;    0.000
293.066; 6030.400;  115.350;    0.000
293.130; 5567.400;  133.350;    0.000
293.194; 5435.400;  148.350;    0.000
293.258; 5114.400;  167.350;    0.000
293.322; 5152.400;  166.350;    0.000
293.386; 5105.400;  193.350;    0.000
293.450; 5448.400;  142.350;    0.000
293.514; 6132.400;  170.350;    0.000
293.577; 7935.400;  153.350;    0.000
293.641;10210.400;  171.350;    0.000
293.705;11141.400;  168.350;    0.000
293.769;10012.400;  155.350;    0.000
293.833; 8698.400;  161.350;    0.000
293.897; 7674.400;  124.350;    0.000
293.961; 6859.400;  165.350;    0.000
294.025; 6401.400;  118.350;    0.000
294.089; 5946.400;  125.350;    0.000
294.152; 5589.400;  160.350;    0.000
294.216; 5139.400;  160.350;    0.000
294.280; 4900.400;  158.350;    0.000
294.344; 4567.400;  119.350;    0.000
294.408; 4373.400;  168.350;    0.000
294.472; 4295.400;  156.350;    0.000
294.536; 4260.400;  192.350;    0.000
294.599; 3900.400;  171.350;    0.000
294.663; 3852.400;  139.350;    0.000
294.727; 3719.400;  136.350;    0.000
294.791; 3694.400;  118.350;    0.000
294.855; 3518.400;  118.350;    0.000
294.918; 3564.400;  127.350;    0.000
294.982; 3562.400;  167.350;    0.000
295.046; 3442.400;  178.350;    0.000
295.110; 3241.400;  157.350;    0.000
295.173; 3251.400;  101.350;    0.000
295.237; 3328.400;  145.350;    0.000
295.301; 3175.400;  135.350;    0.000
295.364; 3143.400;  185.350;    0.000
295.428; 3155.400;  112.350;    0.000
295.492; 3116.400;  142.350;    0.000
295.556; 3098.400;  170.350;    0.000
295.619; 2978.400;  193.350;    0.000
295.683; 2994.400;  144.350;    0.000
295.747; 2954.400;  152.350;    0.000
295.810; 2910.400;  139.350;    0.000
295.874; 2963.400;  157.350;    0.000
295.938; 2995.400;  128.350;    0.000
296.001; 2953.400;  164.350;    0.000
296.065; 2787.400;  184.350;    0.000
296.128; 2811.400;  127.350;    0.000
296.192; 2802.400;  166.350;    0.000
296.256; 2778.400;  154.350;    0.000
296.319; 2779.400;  128.350;    0.000
296.383; 2768.400;  146.350;    0.000
296.447; 2740.400;  155.350;    0.000
296.510; 2757.400;  177.350;    0.000
296.574; 2725.400;  169.350;    0.000
296.637; 2710.400;  140.350;    0.000
296.701; 2746.400;  181.350;    0.000
296.764; 2752.400;  131.350;    0.000
296.828; 2839.400;  194.350;    0.000
296.891; 2699.400;  146.350;    0.000
296.955; 2745.400;  160.350;    0.000
297.018; 2737.400;  174.350;    0.000
297.082; 2690.400;  153.350;    0.000
297.145; 2596.400;  133.350;    0.000
297.209; 2640.400;  149.350;    0.000
297.272; 2597.400;  150.350;    0.000
297.336; 2681.400;  119.350;    0.000
297.399; 2643.400;  160.350;    0.000
297.463; 2536.400;  158.350;    0.000
297.526; 2620.400;  160.350;    0.000
297.590; 2531.400;  173.350;    0.000
297.653; 2493.400;  121.350;    0.000
297.717; 2568.400;  168.350;    0.000
297.780; 2494.400;  131.350;    0.000
297.843; 2514.400;  154.350;    0.000
297.907; 2594.400;  126.350;    0.000
297.970; 2549.400;  180.350;    0.000
298.034; 2594.400;  140.350;    0.000
298.097; 2479.400;  207.350;    0.000
298.160; 2605.400;  177.350;    0.000
298.224; 2433.400;  165.350;    0.000
298.287; 2513.400;  160.350;    0.000
298.350; 2609.400;  176.350;    0.000
298.414; 2502.400;  155.350;    0.000
298.477; 2433.400;  132.350;    0.000
298.540; 2469.400;  162.350;    0.000
298.604; 2465.400;  180.350;    0.000
298.667; 2539.400;  208.350;    0.000
298.730; 2441.400;  177.350;    0.000
298.794; 2399.400;  126.350;    0.000
298.857; 2381.400;  171.350;    0.000
298.920; 2449.400;  124.350;    0.000
298.984; 2408.400;  146.350;    0.000
299.047; 2449.400;  140.350;    0.000
299.110; 2392.400;  159.350;    0.000
299.173; 2377.400;  177.350;    0.000
299.237; 2435.400;  196.350;    0.000
299.300; 2334.400;  121.350;    0.000
299.363; 2355.400;  172.350;    0.000
299.426; 2340.400;  117.350;    0.000
299.489; 2373.400;  138.350;    0.000
299.553; 2348.400;  198.350;    0.000
299.616; 2375.400;  158.350;    0.000
299.679; 2390.400;  148.350;    0.000
299.742; 2348.400;  138.350;    0.000
299.805; 2311.400;  157.350;    0.000
299.868; 2272.400;  183.350;    0.000
299.932; 2340.400;  137.350;    0.000
299.995; 2319.400;  152.350;    0.000
300.058; 2314.400;  171.350;    0.000
300.121; 2312.400;  172.350;    0.000
300.184; 2358.400;  161.350;    0.000
300.247; 2330.400;  156.350;    0.000
300.310; 2364.400;  154.350;    0.000
300.374; 2243.400;  147.350;    0.000
300.437; 2264.400;  144.350;    0.000
300.500; 2273.400;  152.350;    0.000
300.563; 2325.400;  160.350;    0.000
300.626; 2310.400;  167.350;    0.000
300.689; 2230.400;  193.350;    0.000
300.752; 2226.400;  134.350;    0.000
300.815; 2315.400;  194.350;    0.000
300.878; 2299.400;  156.350;    0.000
300.941; 2263.400;  177.350;    0.000
301.004; 2287.400;  160.350;    0.000
301.067; 2251.400;  153.350;    0.000
301.130; 2132.400;  167.350;    0.000
301.193; 2232.400;  156.350;    0.000
301.256; 2214.400;  176.350;    0.000
301.319; 2148.400;  172.350;    0.000
301.382; 2216.400;  150.350;    0.000
301.445; 2226.400;  183.350;    0.000
301.508; 2208.400;  118.350;    0.000
301.571; 2153.400;  142.350;    0.000
301.634; 2200.400;  164.350;    0.000
301.697; 2164.400;  169.350;    0.000
301.760; 2281.400;  197.350;    0.000
301.823; 2210.400;  155.350;    0.000
301.885; 2165.400;  165.350;    0.000
301.948; 2210.400;  168.350;    0.000
302.011; 2186.400;  172.350;    0.000
302.074; 2247.400;  182.350;    0.000
302.137; 2171.400;  161.350;    0.000
302.200; 2177.400;  174.350;    0.000
302.263; 2165.400;  158.350;    0.000
302.326; 2169.400;  168.350;    0.000
302.388; 2244.400;  165.350;    0.000
302.451; 2240.400;  158.350;    0.000
302.514; 2195.400;  181.350;    0.000
302.577; 2215.400;  147.350;    0.000
302.640; 2153.400;  178.350;    0.000
302.703; 2092.400;  164.350;    0.000
302.765; 2136.400;  149.350;    0.000
302.828; 2256.400;  192.350;    0.000
302.891; 2224.400;  201.350;    0.000
302.954; 2193.400;  135.350;    0.000
303.016; 2154.400;  180.350;    0.000
303.079; 2160.400;  192.350;    0.000
303.142; 2160.400;  176.350;    0.000
303.205; 2198.400;  176.350;    0.000
303.267; 2173.400;  163.350;    0.000
303.330; 2083.400;  162.350;    0.000
303.393; 2200.400;  164.350;    0.000
303.456; 2218.400;  180.350;    0.000
303.518; 2089.400;  162.350;    0.000
303.581; 2215.400;  137.350;    0.000
303.644; 2194.400;  135.350;    0.000
303.706; 2150.400;  170.350;    0.000
303.769; 2169.400;  216.350;    0.000
303.832; 2177.400;  143.350;    0.000
303.894; 2226.400;  162.350;    0.000
303.957; 2171.400;  149.350;    0.000
304.020; 2225.400;  111.350;    0.000
304.082; 2135.400;  158.350;    0.000
304.145; 2167.400;  149.350;    0.000
304.207; 2149.400;  169.350;    0.000
304.270; 2272.400;  170.350;    0.000
304.333; 2193.400;  185.350;    0.000
304.395; 2162.400;  179.350;    0.000
304.458; 2188.400;  174.350;    0.000
304.520; 2237.400;  160.350;    0.000
304.583; 2268.400;  175.350;    0.000
304.646; 2157.400;  160.350;    0.000
304.708; 2167.400;  173.350;    0.000
304.771; 2090.400;  115.350;    0.000
304.833; 2123.400;  172.350;    0.000
304.896; 2182.400;  187.350;    0.000
304.958; 2279.400;  142.350;    0.000
305.021; 2176.400;  164.350;    0.000
305.083; 2099.400;  139.350;    0.000
305.146; 2182.400;  162.350;    0.000
305.208; 2151.400;  135.350;    0.000
305.271; 2128.400;  159.350;    0.000
305.333; 2150.400;  210.350;    0.000
305.396; 2232.400;  151.350;    0.000
305.458; 2209.400;  195.350;    0.000
305.520; 2180.400;  179.350;    0.000
305.583; 2140.400;  157.350;    0.000
305.645; 2175.400;  187.350;    0.000
305.708; 2146.400;  159.350;    0.000
305.770; 2267.400;  189.350;    0.000
305.833; 2236.400;  147.350;    0.000
305.895; 2268.400;  154.350;    0.000
305.957; 2218.400;  143.350;    0.000
306.020; 2177.400;  133.350;    0.000
306.082; 2178.400;  146.350;    0.000
306.144; 2170.400;  171.350;    0.000
306.207; 2218.400;  151.350;    0.000
306.269; 2261.400;  169.350;    0.000
306.331; 2201.400;  162.350;    0.000
306.394; 2191.400;  171.350;    0.000
306.456; 2209.400;  155.350;    0.000
306.518; 2237.400;  183.350;    0.000
306.581; 2203.400;  180.350;    0.000
306.643; 2247.400;  199.350;    0.000
306.705; 2228.400;  163.350;    0.000
306.768; 2175.400;  183.350;    0.000
306.830; 2225.400;  183.350;    0.000
306.892; 2182.400;  190.350;    0.000
306.954; 2236.400;  161.350;    0.000
307.017; 2246.400;  151.350;    0.000
307.079; 2254.400;  147.350;    0.000
307.141; 2195.400;  179.350;    0.000
307.203; 2279.400;  143.350;    0.000
307.266; 2274.400;  142.350;    0.000
307.328; 2241.400;  161.350;    0.000
307.390; 2329.400;  189.350;    0.000
307.452; 2274.400;  155.350;    0.000
307.514; 2396.400;  211.350;    0.000
307.577; 2275.400;  201.350;    0.000
307.639; 2275.400;  192.350;    0.000
307.701; 2319.400;  162.350;    0.000
307.763; 2345.400;  155.350;    0.000
307.825; 2256.400;  193.350;    0.000
307.887; 2344.400;  214.350;    0.000
307.949; 2208.400;  208.350;    0.000
308.012; 2346.400;  175.350;    0.000
308.074; 2361.400;  155.350;    0.000
308.136; 2368.400;  172.350;    0.000
308.198; 2350.400;  171.350;    0.000
308.260; 2326.400;  182.350;    0.000
308.322; 2391.400;  177.350;    0.000
308.384; 2319.400;  207.350;    0.000
308.446; 2328.400;  170.350;    0.000
308.508; 2379.400;  177.350;    0.000
308.570; 2449.400;  195.350;    0.000
308.632; 2416.400;  190.350;    0.000
308.694; 2326.400;  161.350;    0.000
308.756; 2466.400;  173.350;    0.000
308.818; 2460.400;  190.350;    0.000
308.880; 2453.400;  197.350;    0.000
308.942; 2450.400;  223.350;    0.000
309.004; 2561.400;  176.350;    0.000
309.066; 2523.400;  182.350;    0.000
309.128; 2466.400;  185.350;    0.000
309.190; 2639.400;  166.350;    0.000
309.252; 2815.400;  191.350;    0.000
309.314; 2709.400;  208.350;    0.000
309.376; 2758.400;  205.350;    0.000
309.438; 2673.400;  166.350;    0.000
309.500; 2664.400;  195.350;    0.000
309.562; 2676.400;  163.350;    0.000
309.624; 2731.400;  162.350;    0.000
309.686; 2783.400;  194.350;    0.000
309.747; 2865.400;  179.350;    0.000
309.809; 2778.400;  211.350;    0.000
309.871; 2728.400;  191.350;    0.000
309.933; 2582.400;  151.350;    0.000
309.995; 2644.400;  179.350;    0.000
310.057; 2593.400;  175.350;    0.000
310.119; 2535.400;  161.350;    0.000
310.180; 2528.400;  167.350;    0.000
310.242; 2527.400;  171.350;    0.000
310.304; 2560.400;  209.350;    0.000
310.366; 2445.400;  229.350;    0.000
310.428; 2550.400;  132.350;    0.000
310.489; 2436.400;  165.350;    0.000
310.551; 2366.400;  193.350;    0.000
310.613; 2476.400;  182.350;    0.000
310.675; 2443.400;  186.350;    0.000
310.737; 2421.400;  192.350;    0.000
310.798; 2542.400;  194.350;    0.000
310.860; 2489.400;  220.350;    0.000
310.922; 2466.400;  161.350;    0.000
310.983; 2454.400;  203.350;    0.000
311.045; 2375.400;  198.350;    0.000
311.107; 2481.400;  179.350;    0.000
311.169; 2377.400;  154.350;    0.000
311.230; 2431.400;  134.350;    0.000
311.292; 2335.400;  215.350;    0.000
311.354; 2434.400;  171.350;    0.000
311.415; 2409.400;  195.350;    0.000
311.477; 2437.400;  185.350;    0.000
311.539; 2488.400;  183.350;    0.000
311.600; 2398.400;  183.350;    0.000
311.662; 2471.400;  207.350;    0.000
311.724; 2413.400;  193.350;    0.000
311.785; 2521.400;  180.350;    0.000
311.847; 2408.400;  155.350;    0.000
311.908; 2363.400;  179.350;    0.000
311.970; 2454.400;  193.350;    0.000
312.032; 2299.400;  188.350;    0.000
312.093; 2423.400;  166.350;    0.000
312.155; 2338.400;  147.350;    0.000
312.216; 2430.400;  177.350;    0.000
312.278; 2339.400;  162.350;    0.000
312.339; 2372.400;  158.350;    0.000
312.401; 2406.400;  181.350;    0.000
312.462; 2315.400;  153.350;    0.000
312.524; 2387.400;  186.350;    0.000
312.585; 2456.400;  191.350;    0.000
312.647; 2350.400;  131.350;    0.000
312.708; 2371.400;  170.350;    0.000
312.770; 2394.400;  194.350;    0.000
312.831; 2466.400;  161.350;    0.000
312.893; 2390.400;  179.350;    0.000
312.954; 2423.400;  183.350;    0.000
313.016; 2418.400;  189.350;    0.000
313.077; 2453.400;  169.350;    0.000
313.139; 2439.400;  148.350;    0.000
313.200; 2431.400;  155.350;    0.000
313.261; 2422.400;  213.350;    0.000
313.323; 2511.400;  162.350;    0.000
313.384; 2495.400;  160.350;    0.000
313.446; 2520.400;  202.350;    0.000
313.507; 2436.400;  149.350;    0.000
313.568; 2441.400;  194.350;    0.000
313.630; 2340.400;  163.350;    0.000
313.691; 2394.400;  158.350;    0.000
313.752; 2376.400;  179.350;    0.000
313.814; 2424.400;  180.350;    0.000
313.875; 2435.400;  191.350;    0.000
313.936; 2402.400;  169.350;    0.000
313.998; 2361.400;  165.350;    0.000
314.059; 2308.400;  211.350;    0.000
314.120; 2354.400;  190.350;    0.000
314.182; 2380.400;  185.350;    0.000
314.243; 2369.400;  186.350;    0.000
314.304; 2393.400;  178.350;    0.000
314.365; 2464.400;  187.350;    0.000
314.427; 2379.400;  145.350;    0.000
314.488; 2396.400;  184.350;    0.000
314.549; 2497.400;  181.350;    0.000
314.610; 2391.400;  151.350;    0.000
314.672; 2304.400;  153.350;    0.000
314.733; 2344.400;  148.350;    0.000
314.794; 2346.400;  156.350;    0.000
314.855; 2375.400;  196.350;    0.000
314.917; 2406.400;  157.350;    0.000
314.978; 2356.400;  174.350;    0.000
315.039; 2462.400;  168.350;    0.000
315.100; 2349.400;  154.350;    0.000
315.161; 2400.400;  176.350;    0.000
315.222; 2469.400;  198.350;    0.000
315.283; 2346.400;  169.350;    0.000
315.345; 2453.400;  162.350;    0.000
315.406; 2411.400;  199.350;    0.000
315.467; 2352.400;  180.350;    0.000
315.528; 2401.400;  179.350;    0.000
315.589; 2365.400;  166.350;    0.000
315.650; 2391.400;  179.350;    0.000
315.711; 2296.400;  177.350;    0.000
315.772; 2398.400;  180.350;    0.000
315.833; 2465.400;  157.350;    0.000
315.894; 2341.400;  133.350;    0.000
315.955; 2436.400;  205.350;    0.000
316.016; 2300.400;  190.350;    0.000
316.078; 2301.400;  174.350;    0.000
316.139; 2321.400;  208.350;    0.000
316.200; 2391.400;  166.350;    0.000
316.261; 2394.400;  186.350;    0.000
316.322; 2370.400;  185.350;    0.000
316.383; 2377.400;  179.350;    0.000
316.444; 2359.400;  172.350;    0.000
316.504; 2372.400;  181.350;    0.000
316.565; 2387.400;  197.350;    0.000
316.626; 2331.400;  196.350;    0.000
316.687; 2321.400;  173.350;    0.000
316.748; 2382.400;  178.350;    0.000
316.809; 2358.400;  178.350;    0.000
316.870; 2304.400;  134.350;    0.000
316.931; 2434.400;  166.350;    0.000
316.992; 2431.400;  200.350;    0.000
317.053; 2377.400;  169.350;    0.000
317.114; 2371.400;  185.350;    0.000
317.175; 2338.400;  213.350;    0.000
317.235; 2337.400;  199.350;    0.000
317.296; 2302.400;  190.350;    0.000
317.357; 2421.400;  152.350;    0.000
317.418; 2308.400;  192.350;    0.000
317.479; 2341.400;  170.350;    0.000
317.540; 2375.400;  179.350;    0.000
317.601; 2287.400;  155.350;    0.000
317.661; 2283.400;  154.350;    0.000
317.722; 2318.400;  190.350;    0.000
317.783; 2341.400;  149.350;    0.000
317.844; 2426.400;  207.350;    0.000
317.904; 2378.400;  153.350;    0.000
317.965; 2324.400;  179.350;    0.000
318.026; 2373.400;  235.350;    0.000
318.087; 2317.400;  184.350;    0.000
318.148; 2321.400;  201.350;    0.000
318.208; 2405.400;  220.350;    0.000
318.269; 2324.400;  175.350;    0.000
318.330; 2321.400;  185.350;    0.000
318.390; 2325.400;  180.350;    0.000
318.451; 2269.400;  164.350;    0.000
318.512; 2393.400;  150.350;    0.000
318.572; 2356.400;  205.350;    0.000
318.633; 2353.400;  224.350;    0.000
318.694; 2359.400;  202.350;    0.000
318.754; 2393.400;  196.350;    0.000
318.815; 2267.400;  187.350;    0.000
318.876; 2278.400;  200.350;    0.000
318.936; 2331.400;  232.350;    0.000
318.997; 2390.400;  211.350;    0.000
319.058; 2345.400;  194.350;    0.000
319.118; 2274.400;  197.350;    0.000
319.179; 2341.400;  162.350;    0.000
319.239; 2236.400;  188.350;    0.000
319.300; 2405.400;  205.350;    0.000
319.361; 2299.400;  179.350;    0.000
319.421; 2287.400;  182.350;    0.000
319.482; 2333.400;  189.350;    0.000
319.542; 2360.400;  180.350;    0.000
319.603; 2385.400;  204.350;    0.000
319.663; 2288.400;  195.350;    0.000
319.724; 2256.400;  135.350;    0.000
319.784; 2369.400;  184.350;    0.000
319.845; 2288.400;  160.350;    0.000
319.905; 2389.400;  206.350;    0.000
319.966; 2240.400;  203.350;    0.000
320.026; 2334.400;  203.350;    0.000
320.087; 2321.400;  206.350;    0.000
320.147; 2306.400;  180.350;    0.000
320.208; 2301.400;  189.350;    0.000
320.268; 2286.400;  179.350;    0.000
320.329; 2253.400;  215.350;    0.000
320.389; 2291.400;  193.350;    0.000
320.449; 2341.400;  210.350;    0.000
320.510; 2371.400;  206.350;    0.000
320.570; 2349.400;  221.350;    0.000
320.631; 2207.400;  203.350;    0.000
320.691; 2346.400;  190.350;    0.000
320.751; 2331.400;  205.350;    0.000
320.812; 2308.400;  191.350;    0.000
320.872; 2351.400;  216.350;    0.000
320.932; 2250.400;  209.350;    0.000
320.993; 2237.400;  189.350;    0.000
321.053; 2364.400;  228.350;    0.000
321.113; 2392.400;  163.350;    0.000
321.174; 2312.400;  204.350;    0.000
321.234; 2333.400;  214.350;    0.000
321.294; 2313.400;  184.350;    0.000
321.355; 2418.400;  216.350;    0.000
321.415; 2312.400;  187.350;    0.000
321.475; 2230.400;  216.350;    0.000
321.535; 2219.400;  189.350;    0.000
321.596; 2291.400;  186.350;    0.000
321.656; 2275.400;  204.350;    0.000
321.716; 2366.400;  183.350;    0.000
321.776; 2303.400;  194.350;    0.000
321.837; 2230.400;  190.350;    0.000
321.897; 2318.400;  219.350;    0.000
321.957; 2338.400;  222.350;    0.000
322.017; 2305.400;  183.350;    0.000
322.077; 2282.400;  239.350;    0.000
322.138; 2347.400;  219.350;    0.000
322.198; 2189.400;  185.350;    0.000
322.258; 2209.400;  231.350;    0.000
322.318; 2285.400;  197.350;    0.000
322.378; 2307.400;  179.350;    0.000
322.438; 2170.400;  217.350;    0.000
322.499; 2321.400;  238.350;    0.000
322.559; 2245.400;  197.350;    0.000
322.619; 2265.400;  204.350;    0.000
322.679; 2286.400;  199.350;    0.000
322.739; 2321.400;  194.350;    0.000
322.799; 2303.400;  203.350;    0.000
322.859; 2273.400;  234.350;    0.000
322.919; 2203.400;  194.350;    0.000
322.979; 2245.400;  219.350;    0.000
323.039; 2337.400;  193.350;    0.000
323.099; 2236.400;  207.350;    0.000
323.159; 2249.400;  213.350;    0.000
323.219; 2240.400;  171.350;    0.000
323.279; 2313.400;  215.350;    0.000
323.339; 2363.400;  170.350;    0.000
323.399; 2352.400;  195.350;    0.000
323.459; 2317.400;  234.350;    0.000
323.519; 2388.400;  201.350;    0.000
323.579; 2243.400;  167.350;    0.000
323.639; 2422.400;  209.350;    0.000
323.699; 2358.400;  217.350;    0.000
323.759; 2243.400;  213.350;    0.000
323.819; 2308.400;  216.350;    0.000
323.879; 2290.400;  193.350;    0.000
323.939; 2355.400;  182.350;    0.000
323.999; 2307.400;  206.350;    0.000
324.059; 2236.400;  196.350;    0.000
324.119; 2306.400;  240.350;    0.000
324.178; 2223.400;  186.350;    0.000
324.238; 2190.400;  179.350;    0.000
324.298; 2278.400;  195.350;    0.000
324.358; 2248.400;  208.350;    0.000
324.418; 2355.400;  190.350;    0.000
324.478; 2228.400;  197.350;    0.000
324.538; 2197.400;  157.350;    0.000
324.597; 2221.400;  219.350;    0.000
324.657; 2230.400;  176.350;    0.000
324.717; 2276.400;  179.350;    0.000
324.777; 2316.400;  190.350;    0.000
324.837; 2263.400;  172.350;    0.000
324.896; 2227.400;  199.350;    0.000
324.956; 2207.400;  216.350;    0.000
325.016; 2230.400;  191.350;    0.000
325.076; 2260.400;  185.350;    0.000
325.135; 2278.400;  174.350;    0.000
325.195; 2252.400;  175.350;    0.000
325.255; 2196.400;  144.350;    0.000
325.315; 2207.400;  201.350;    0.000
325.374; 2190.400;  198.350;    0.000
325.434; 2145.400;  181.350;    0.000
325.494; 2236.400;  183.350;    0.000
325.553; 2242.400;  172.350;    0.000
325.613; 2272.400;  200.350;    0.000
325.673; 2287.400;  177.350;    0.000
325.732; 2245.400;  174.350;    0.000
325.792; 2218.400;  181.350;    0.000
325.852; 2249.400;  214.350;    0.000
325.911; 2206.400;  230.350;    0.000
325.971; 2302.400;  198.350;    0.000
326.031; 2209.400;  201.350;    0.000
326.090; 2297.400;  214.350;    0.000
326.150; 2277.400;  163.350;    0.000
326.209; 2271.400;  207.350;    0.000
326.269; 2315.400;  201.350;    0.000
326.328; 2233.400;  208.350;    0.000
326.388; 2231.400;  169.350;    0.000
326.448; 2249.400;  229.350;    0.000
326.507; 2246.400;  243.350;    0.000
326.567; 2168.400;  162.350;    0.000
326.626; 2237.400;  200.350;    0.000
326.686; 2110.400;  166.350;    0.000
326.745; 2221.400;  178.350;    0.000
326.805; 2191.400;  185.350;    0.000
326.864; 2196.400;  209.350;    0.000
326.924; 2201.400;  234.350;    0.000
326.983; 2107.400;  197.350;    0.000
327.043; 2159.400;  217.350;    0.000
327.102; 2178.400;  174.350;    0.000
327.161; 2114.400;  172.350;    0.000
327.221; 2203.400;  183.350;    0.000
327.280; 2152.400;  200.350;    0.000
327.340; 2132.400;  200.350;    0.000
327.399; 2175.400;  219.350;    0.000
327.459; 2187.400;  246.350;    0.000
327.518; 2198.400;  217.350;    0.000
327.577; 2150.400;  212.350;    0.000
327.637; 2176.400;  188.350;    0.000
327.696; 2116.400;  201.350;    0.000
327.755; 2146.400;  199.350;    0.000
327.815; 2147.400;  224.350;    0.000
327.874; 2203.400;  236.350;    0.000
327.933; 2168.400;  182.350;    0.000
327.993; 2192.400;  206.350;    0.000
328.052; 2093.400;  191.350;    0.000
328.111; 2222.400;  222.350;    0.000
328.171; 2094.400;  200.350;    0.000
328.230; 2164.400;  203.350;    0.000
328.289; 2172.400;  219.350;    0.000
328.349; 2151.400;  231.350;    0.000
328.408; 2099.400;  223.350;    0.000
328.467; 2189.400;  226.350;    0.000
328.526; 2108.400;  197.350;    0.000
328.586; 2182.400;  221.350;    0.000
328.645; 2102.400;  199.350;    0.000
328.704; 2104.400;  227.350;    0.000
328.763; 2155.400;  201.350;    0.000
328.822; 2106.400;  230.350;    0.000
328.882; 2189.400;  244.350;    0.000
328.941; 2171.400;  221.350;    0.000
329.000; 2202.400;  207.350;    0.000
329.059; 2100.400;  208.350;    0.000
329.118; 2127.400;  203.350;    0.000
329.177; 2135.400;  198.350;    0.000
329.237; 2194.400;  218.350;    0.000
329.296; 2159.400;  213.350;    0.000
329.355; 2158.400;  208.350;    0.000
329.414; 2118.400;  231.350;    0.000
329.473; 2222.400;  221.350;    0.000
329.532; 2149.400;  243.350;    0.000
329.591; 2202.400;  210.350;    0.000
329.650; 2137.400;  232.350;    0.000
329.709; 2239.400;  211.350;    0.000
329.768; 2181.400;  194.350;    0.000
329.827; 2291.400;  237.350;    0.000
329.886; 2245.400;  213.350;    0.000
329.945; 2271.400;  190.350;    0.000
330.004; 2320.400;  233.350;    0.000
330.063; 2429.400;  191.350;    0.000
330.122; 2612.400;  234.350;    0.000
330.181; 2881.400;  220.350;    0.000
330.240; 2832.400;  191.350;    0.000
330.299; 2572.400;  210.350;    0.000
330.358; 2321.400;  191.350;    0.000
330.417; 2272.400;  225.350;    0.000
330.476; 2061.400;  226.350;    0.000
330.535; 2146.400;  217.350;    0.000
330.594; 2180.400;  205.350;    0.000
330.653; 2105.400;  193.350;    0.000
330.712; 2156.400;  206.350;    0.000
330.771; 2113.400;  175.350;    0.000
330.830; 2199.400;  204.350;    0.000
330.889; 2044.400;  198.350;    0.000
330.948; 2059.400;  198.350;    0.000
331.006; 2118.400;  207.350;    0.000
331.065; 2107.400;  203.350;    0.000
331.124; 2078.400;  210.350;    0.000
331.183; 2058.400;  165.350;    0.000
331.242; 2118.400;  195.350;    0.000
331.301; 2035.400;  191.350;    0.000
331.359; 2060.400;  205.350;    0.000
331.418; 2011.400;  183.350;    0.000
331.477; 2109.400;  198.350;    0.000
331.536; 2081.400;  211.350;    0.000
331.595; 1992.400;  191.350;    0.000
331.653; 2048.400;  232.350;    0.000
331.712; 1996.400;  225.350;    0.000
331.771; 2025.400;  199.350;    0.000
331.830; 2079.400;  189.350;    0.000
331.888; 2060.400;  219.350;    0.000
331.947; 2016.400;  188.350;    0.000
332.006; 2018.400;  180.350;    0.000
332.065; 2009.400;  177.350;    0.000
332.123; 2106.400;  214.350;    0.000
332.182; 2068.400;  223.350;    0.000
332.241; 2066.400;  202.350;    0.000
332.299; 2057.400;  180.350;    0.000
332.358; 2059.400;  206.350;    0.000
332.417; 2033.400;  195.350;    0.000
332.475; 2048.400;  221.350;    0.000
332.534; 2069.400;  207.350;    0.000
332.592; 2069.400;  190.350;    0.000
332.651; 2098.400;  203.350;    0.000
332.710; 2033.400;  219.350;    0.000
332.768; 2146.400;  210.350;    0.000
332.827; 2001.400;  173.350;    0.000
332.885; 2091.400;  239.350;    0.000
332.944; 2081.400;  145.350;    0.000
333.003; 2081.400;  197.350;    0.000
333.061; 2089.400;  179.350;    0.000
333.120; 2175.400;  198.350;    0.000
333.178; 2224.400;  185.350;    0.000
333.237; 2149.400;  204.350;    0.000
333.295; 2225.400;  266.350;    0.000
333.354; 2201.400;  181.350;    0.000
333.412; 2102.400;  189.350;    0.000
333.471; 2206.400;  216.350;    0.000
333.529; 2247.400;  220.350;    0.000
333.588; 2183.400;  193.350;    0.000
333.646; 2283.400;  186.350;    0.000
333.705; 2267.400;  210.350;    0.000
333.763; 2289.400;  222.350;    0.000
333.822; 2198.400;  222.350;    0.000
333.880; 2188.400;  202.350;    0.000
333.938; 2178.400;  205.350;    0.000
333.997; 2252.400;  199.350;    0.000
334.055; 2243.400;  199.350;    0.000
334.114; 2195.400;  237.350;    0.000
334.172; 2142.400;  155.350;    0.000
334.230; 2199.400;  208.350;    0.000
334.289; 2136.400;  191.350;    0.000
334.347; 2178.400;  211.350;    0.000
334.405; 2262.400;  212.350;    0.000
334.464; 2073.400;  179.350;    0.000
334.522; 2132.400;  160.350;    0.000
334.580; 2090.400;  195.350;    0.000
334.639; 2133.400;  191.350;    0.000
334.697; 2171.400;  194.350;    0.000
334.755; 2139.400;  185.350;    0.000
334.814; 2146.400;  214.350;    0.000
334.872; 2145.400;  179.350;    0.000
334.930; 2269.400;  169.350;    0.000
334.988; 2184.400;  201.350;    0.000
335.047; 2122.400;  188.350;    0.000
335.105; 2109.400;  175.350;    0.000
335.163; 2075.400;  191.350;    0.000
335.221; 2131.400;  196.350;    0.000
335.280; 2158.400;  182.350;    0.000
335.338; 2043.400;  202.350;    0.000
335.396; 2117.400;  219.350;    0.000
335.454; 2158.400;  187.350;    0.000
335.512; 2156.400;  236.350;    0.000
335.570; 2147.400;  209.350;    0.000
335.629; 2232.400;  247.350;    0.000
335.687; 2193.400;  219.350;    0.000
335.745; 2113.400;  203.350;    0.000
335.803; 2174.400;  220.350;    0.000
335.861; 2120.400;  208.350;    0.000
335.919; 2116.400;  223.350;    0.000
335.977; 2111.400;  201.350;    0.000
336.035; 2217.400;  193.350;    0.000
336.094; 2159.400;  178.350;    0.000
336.152; 2114.400;  182.350;    0.000
336.210; 2194.400;  199.350;    0.000
336.268; 2174.400;  216.350;    0.000
336.326; 2159.400;  216.350;    0.000
336.384; 2156.400;  201.350;    0.000
336.442; 2163.400;  197.350;    0.000
336.500; 2209.400;  203.350;    0.000
336.558; 2155.400;  198.350;    0.000
336.616; 2224.400;  210.350;    0.000
336.674; 2130.400;  192.350;    0.000
336.732; 2104.400;  182.350;    0.000
336.790; 2183.400;  189.350;    0.000
336.848; 2122.400;  233.350;    0.000
336.906; 2082.400;  235.350;    0.000
336.964; 2137.400;  208.350;    0.000
337.022; 2194.400;  249.350;    0.000
337.080; 2214.400;  204.350;    0.000
337.138; 2125.400;  176.350;    0.000
337.195; 2061.400;  207.350;    0.000
337.253; 2137.400;  214.350;    0.000
337.311; 2025.400;  210.350;    0.000
337.369; 2067.400;  222.350;    0.000
337.427; 2029.400;  236.350;    0.000
337.485; 2119.400;  241.350;    0.000
337.543; 2045.400;  217.350;    0.000
337.601; 2113.400;  221.350;    0.000
337.658; 2130.400;  205.350;    0.000
337.716; 2069.400;  210.350;    0.000
337.774; 2146.400;  196.350;    0.000
337.832; 2083.400;  200.350;    0.000
337.890; 1979.400;  192.350;    0.000
337.947; 2055.400;  192.350;    0.000
338.005; 2015.400;  211.350;    0.000
338.063; 2103.400;  176.350;    0.000
338.121; 2116.400;  222.350;    0.000
338.178; 2038.400;  198.350;    0.000
338.236; 2102.400;  210.350;    0.000
338.294; 2012.400;  211.350;    0.000
338.352; 2100.400;  212.350;    0.000
338.409; 2028.400;  199.350;    0.000
338.467; 2027.400;  205.350;    0.000
338.525; 2055.400;  217.350;    0.000
338.583; 2040.400;  197.350;    0.000
338.640; 2018.400;  226.350;    0.000
338.698; 2068.400;  201.350;    0.000
338.756; 1982.400;  192.350;    0.000
338.813; 2050.400;  220.350;    0.000
338.871; 2068.400;  258.350;    0.000
338.928; 2037.400;  223.350;    0.000
338.986; 2040.400;  200.350;    0.000
339.044; 2011.400;  206.350;    0.000
339.101; 2041.400;  250.350;    0.000
339.159; 2054.400;  245.350;    0.000
339.216; 2101.400;  227.350;    0.000
339.274; 2084.400;  260.350;    0.000
339.332; 2112.400;  223.350;    0.000
339.389; 1967.400;  233.350;    0.000
339.447; 2061.400;  206.350;    0.000
339.504; 2053.400;  229.350;    0.000
339.562; 1976.400;  194.350;    0.000
339.619; 2134.400;  245.350;    0.000
339.677; 2042.400;  238.350;    0.000
339.734; 2015.400;  197.350;    0.000
339.792; 2075.400;  210.350;    0.000
339.849; 2032.400;  201.350;    0.000
339.907; 2097.400;  252.350;    0.000
339.964; 1995.400;  191.350;    0.000
340.022; 2062.400;  246.350;    0.000
340.079; 2044.400;  213.350;    0.000
340.137; 2088.400;  240.350;    0.000
340.194; 2095.400;  208.350;    0.000
340.252; 2030.400;  215.350;    0.000
340.309; 2011.400;  203.350;    0.000
340.366; 2000.400;  194.350;    0.000
340.424; 2014.400;  226.350;    0.000
340.481; 2074.400;  234.350;    0.000
340.538; 1993.400;  205.350;    0.000
340.596; 1934.400;  197.350;    0.000
340.653; 2030.400;  233.350;    0.000
340.711; 2017.400;  273.350;    0.000
340.768; 2037.400;  237.350;    0.000
340.825; 2071.400;  224.350;    0.000
340.883; 2123.400;  240.350;    0.000
340.940; 1975.400;  216.350;    0.000
340.997; 1979.400;  228.350;    0.000
341.054; 2045.400;  200.350;    0.000
341.112; 2034.400;  220.350;    0.000
341.169; 2042.400;  226.350;    0.000
341.226; 2184.400;  206.350;    0.000
341.284; 2090.400;  204.350;    0.000
341.341; 2057.400;  214.350;    0.000
341.398; 2103.400;  160.350;    0.000
341.455; 2149.400;  209.350;    0.000
341.512; 2046.400;  233.350;    0.000
341.570; 2051.400;  240.350;    0.000
341.627; 2083.400;  209.350;    0.000
341.684; 2064.400;  178.350;    0.000
341.741; 2065.400;  254.350;    0.000
341.798; 2129.400;  232.350;    0.000
341.856; 2032.400;  196.350;    0.000
341.913; 2052.400;  244.350;    0.000
341.970; 2060.400;  203.350;    0.000
342.027; 2059.400;  235.350;    0.000
342.084; 1993.400;  214.350;    0.000
342.141; 2022.400;  194.350;    0.000
342.198; 2014.400;  194.350;    0.000
342.255; 2064.400;  219.350;    0.000
342.313; 2074.400;  195.350;    0.000
342.370; 2113.400;  207.350;    0.000
342.427; 2021.400;  217.350;    0.000
342.484; 2029.400;  213.350;    0.000
342.541; 2000.400;  215.350;    0.000
342.598; 2091.400;  247.350;    0.000
342.655; 2023.400;  205.350;    0.000
342.712; 1979.400;  226.350;    0.000
342.769; 1995.400;  212.350;    0.000
342.826; 2036.400;  203.350;    0.000
342.883; 2058.400;  207.350;    0.000
342.940; 2038.400;  204.350;    0.000
342.997; 2022.400;  237.350;    0.000
343.054; 2042.400;  210.350;    0.000
343.111; 2068.400;  209.350;    0.000
343.168; 2077.400;  201.350;    0.000
343.225; 2073.400;  208.350;    0.000
343.282; 2127.400;  216.350;    0.000
343.339; 2113.400;  237.350;    0.000
343.395; 2030.400;  218.350;    0.000
343.452; 2165.400;  234.350;    0.000
343.509; 2093.400;  214.350;    0.000
343.566; 2104.400;  222.350;    0.000
343.623; 2151.400;  226.350;    0.000
343.680; 2177.400;  245.350;    0.000
343.737; 2143.400;  209.350;    0.000
343.794; 2173.400;  227.350;    0.000
343.850; 2154.400;  197.350;    0.000
343.907; 2194.400;  211.350;    0.000
343.964; 2163.400;  190.350;    0.000
344.021; 2148.400;  252.350;    0.000
344.078; 2235.400;  261.350;    0.000
344.134; 2145.400;  206.350;    0.000
344.191; 2193.400;  231.350;    0.000
344.248; 2266.400;  225.350;    0.000
344.305; 2116.400;  210.350;    0.000
344.361; 2226.400;  194.350;    0.000
344.418; 2291.400;  219.350;    0.000
344.475; 2127.400;  245.350;    0.000
344.532; 2199.400;  238.350;    0.000
344.588; 2180.400;  235.350;    0.000
344.645; 2247.400;  229.350;    0.000
344.702; 2170.400;  145.350;    0.000
344.758; 2208.400;  240.350;    0.000
344.815; 2254.400;  215.350;    0.000
344.872; 2214.400;  203.350;    0.000
344.928; 2160.400;  208.350;    0.000
344.985; 2139.400;  216.350;    0.000
345.042; 2234.400;  234.350;    0.000
345.098; 2147.400;  183.350;    0.000
345.155; 2149.400;  241.350;    0.000
345.212; 2110.400;  222.350;    0.000
345.268; 2102.400;  234.350;    0.000
345.325; 2185.400;  181.350;    0.000
345.381; 2150.400;  251.350;    0.000
345.438; 2229.400;  256.350;    0.000
345.495; 2193.400;  247.350;    0.000
345.551; 2221.400;  231.350;    0.000
345.608; 2123.400;  206.350;    0.000
345.664; 2117.400;  201.350;    0.000
345.721; 2135.400;  216.350;    0.000
345.777; 2113.400;  195.350;    0.000
345.834; 2099.400;  195.350;    0.000
345.890; 2120.400;  227.350;    0.000
345.947; 2197.400;  240.350;    0.000
346.003; 2128.400;  248.350;    0.000
346.060; 2169.400;  213.350;    0.000
346.116; 2124.400;  225.350;    0.000
346.173; 2176.400;  199.350;    0.000
346.229; 2177.400;  264.350;    0.000
346.285; 2168.400;  246.350;    0.000
346.342; 2159.400;  240.350;    0.000
346.398; 2106.400;  222.350;    0.000
346.455; 2228.400;  231.350;    0.000
346.511; 2225.400;  214.350;    0.000
346.567; 2168.400;  231.350;    0.000
346.624; 2208.400;  222.350;    0.000
346.680; 2147.400;  197.350;    0.000
346.737; 2256.400;  225.350;    0.000
346.793; 2207.400;  255.350;    0.000
346.849; 2206.400;  245.350;    0.000
346.906; 2312.400;  221.350;    0.000
346.962; 2310.400;  260.350;    0.000
347.018; 2270.400;  238.350;    0.000
347.074; 2238.400;  257.350;    0.000
347.131; 2219.400;  200.350;    0.000
347.187; 2188.400;  232.350;    0.000
347.243; 2227.400;  240.350;    0.000
347.300; 2217.400;  249.350;    0.000
347.356; 2201.400;  250.350;    0.000
347.412; 2172.400;  252.350;    0.000
347.468; 2128.400;  254.350;    0.000
347.524; 2156.400;  280.350;    0.000
347.581; 2203.400;  228.350;    0.000
347.637; 2235.400;  261.350;    0.000
347.693; 2192.400;  238.350;    0.000
347.749; 2194.400;  261.350;    0.000
347.805; 2170.400;  238.350;    0.000
347.862; 2200.400;  246.350;    0.000
347.918; 2234.400;  256.350;    0.000
347.974; 2200.400;  277.350;    0.000
348.030; 2211.400;  242.350;    0.000
348.086; 2237.400;  223.350;    0.000
348.142; 2252.400;  215.350;    0.000
348.198; 2277.400;  272.350;    0.000
348.254; 2192.400;  292.350;    0.000
348.311; 2170.400;  235.350;    0.000
348.367; 2257.400;  263.350;    0.000
348.423; 2218.400;  193.350;    0.000
348.479; 2153.400;  266.350;    0.000
348.535; 2238.400;  238.350;    0.000
348.591; 2313.400;  237.350;    0.000
348.647; 2191.400;  239.350;    0.000
348.703; 2245.400;  240.350;    0.000
348.759; 2217.400;  253.350;    0.000
348.815; 2187.400;  255.350;    0.000
348.871; 2183.400;  256.350;    0.000
348.927; 2232.400;  261.350;    0.000
348.983; 2301.400;  258.350;    0.000
349.039; 2185.400;  204.350;    0.000
349.095; 2220.400;  215.350;    0.000
349.151; 2156.400;  230.350;    0.000
349.207; 2246.400;  216.350;    0.000
349.263; 2207.400;  235.350;    0.000
349.319; 2251.400;  244.350;    0.000
349.374; 2252.400;  213.350;    0.000
349.430; 2282.400;  241.350;    0.000
349.486; 2321.400;  248.350;    0.000
349.542; 2290.400;  259.350;    0.000
349.598; 2284.400;  208.350;    0.000
349.654; 2322.400;  242.350;    0.000
349.710; 2219.400;  246.350;    0.000
349.766; 2223.400;  226.350;    0.000
349.821; 2239.400;  227.350;    0.000
349.877; 2298.400;  226.350;    0.000
349.933; 2347.400;  249.350;    0.000
349.989; 2228.400;  263.350;    0.000
350.045; 2224.400;  267.350;    0.000
350.100; 2210.400;  219.350;    0.000
350.156; 2329.400;  207.350;    0.000
350.212; 2246.400;  230.350;    0.000
350.268; 2266.400;  223.350;    0.000
350.323; 2232.400;  217.350;    0.000
350.379; 2301.400;  227.350;    0.000
350.435; 2255.400;  219.350;    0.000
350.491; 2199.400;  195.350;    0.000
350.546; 2311.400;  229.350;    0.000
350.602; 2230.400;  222.350;    0.000
350.658; 2181.400;  225.350;    0.000
350.713; 2170.400;  231.350;    0.000
350.769; 2238.400;  193.350;    0.000
350.825; 2178.400;  182.350;    0.000
350.880; 2239.400;  193.350;    0.000
350.936; 2237.400;  222.350;    0.000
350.992; 2227.400;  217.350;    0.000
351.047; 2249.400;  226.350;    0.000
351.103; 2197.400;  187.350;    0.000
351.158; 2172.400;  212.350;    0.000
351.214; 2291.400;  207.350;    0.000
351.270; 2246.400;  194.350;    0.000
351.325; 2289.400;  213.350;    0.000
351.381; 2285.400;  223.350;    0.000
351.436; 2310.400;  222.350;    0.000
351.492; 2284.400;  219.350;    0.000
351.547; 2313.400;  205.350;    0.000
351.603; 2211.400;  218.350;    0.000
351.658; 2257.400;  199.350;    0.000
351.714; 2299.400;  201.350;    0.000
351.769; 2306.400;  209.350;    0.000
351.825; 2329.400;  226.350;    0.000
351.880; 2286.400;  189.350;    0.000
351.936; 2277.400;  201.350;    0.000
351.991; 2252.400;  220.350;    0.000
352.047; 2263.400;  232.350;    0.000
352.102; 2237.400;  185.350;    0.000
352.158; 2287.400;  228.350;    0.000
352.213; 2221.400;  204.350;    0.000
352.268; 2206.400;  220.350;    0.000
352.324; 2240.400;  206.350;    0.000
352.379; 2315.400;  182.350;    0.000
352.434; 2342.400;  214.350;    0.000
352.490; 2231.400;  250.350;    0.000
352.545; 2277.400;  290.350;    0.000
352.601; 2314.400;  247.350;    0.000
352.656; 2264.400;  203.350;    0.000
352.711; 2229.400;  197.350;    0.000
352.767; 2228.400;  169.350;    0.000
352.822; 2293.400;  191.350;    0.000
352.877; 2257.400;  235.350;    0.000
352.932; 2322.400;  231.350;    0.000
352.988; 2253.400;  224.350;    0.000
353.043; 2344.400;  226.350;    0.000
353.098; 2321.400;  227.350;    0.000
353.153; 2263.400;  239.350;    0.000
353.209; 2301.400;  217.350;    0.000
353.264; 2365.400;  198.350;    0.000
353.319; 2264.400;  247.350;    0.000
353.374; 2335.400;  199.350;    0.000
353.430; 2250.400;  247.350;    0.000
353.485; 2271.400;  242.350;    0.000
353.540; 2255.400;  237.350;    0.000
353.595; 2318.400;  233.350;    0.000
353.650; 2296.400;  221.350;    0.000
353.705; 2323.400;  259.350;    0.000
353.761; 2254.400;  223.350;    0.000
353.816; 2204.400;  234.350;    0.000
353.871; 2255.400;  226.350;    0.000
353.926; 2272.400;  232.350;    0.000
353.981; 2222.400;  245.350;    0.000
354.036; 2281.400;  247.350;    0.000
354.091; 2352.400;  233.350;    0.000
354.146; 2286.400;  253.350;    0.000
354.201; 2300.400;  236.350;    0.000
354.256; 2253.400;  210.350;    0.000
354.311; 2339.400;  279.350;    0.000
354.367; 2294.400;  208.350;    0.000
354.422; 2273.400;  228.350;    0.000
354.477; 2312.400;  202.350;    0.000
354.532; 2315.400;  215.350;    0.000
354.587; 2310.400;  249.350;    0.000
354.642; 2319.400;  206.350;    0.000
354.697; 2319.400;  226.350;    0.000
354.751; 2256.400;  241.350;    0.000
354.806; 2236.400;  249.350;    0.000
354.861; 2335.400;  216.350;    0.000
354.916; 2336.400;  249.350;    0.000
354.971; 2356.400;  217.350;    0.000
355.026; 2276.400;  236.350;    0.000
355.081; 2272.400;  242.350;    0.000
355.136; 2338.400;  216.350;    0.000
355.191; 2294.400;  216.350;    0.000
355.246; 2278.400;  258.350;    0.000
355.301; 2288.400;  250.350;    0.000
355.355; 2288.400;  251.350;    0.000
355.410; 2249.400;  216.350;    0.000
355.465; 2261.400;  224.350;    0.000
355.520; 2297.400;  221.350;    0.000
355.575; 2230.400;  255.350;    0.000
355.630; 2260.400;  225.350;    0.000
355.684; 2283.400;  210.350;    0.000
355.739; 2249.400;  232.350;    0.000
355.794; 2259.400;  202.350;    0.000
355.849; 2367.400;  211.350;    0.000
355.904; 2336.400;  226.350;    0.000
355.958; 2358.400;  191.350;    0.000
356.013; 2295.400;  208.350;    0.000
356.068; 2272.400;  229.350;    0.000
356.123; 2336.400;  243.350;    0.000
356.177; 2292.400;  227.350;    0.000
356.232; 2359.400;  243.350;    0.000
356.287; 2316.400;  216.350;    0.000
356.341; 2378.400;  242.350;    0.000
356.396; 2214.400;  175.350;    0.000
356.451; 2306.400;  271.350;    0.000
356.505; 2374.400;  225.350;    0.000
356.560; 2270.400;  260.350;    0.000
356.615; 2319.400;  213.350;    0.000
356.669; 2353.400;  213.350;    0.000
356.724; 2329.400;  221.350;    0.000
356.778; 2343.400;  232.350;    0.000
356.833; 2261.400;  178.350;    0.000
356.888; 2322.400;  236.350;    0.000
356.942; 2347.400;  224.350;    0.000
356.997; 2311.400;  228.350;    0.000
357.051; 2296.400;  226.350;    0.000
357.106; 2253.400;  185.350;    0.000
357.160; 2241.400;  202.350;    0.000
357.215; 2304.400;  232.350;    0.000
357.269; 2376.400;  224.350;    0.000
357.324; 2370.400;  219.350;    0.000
357.378; 2303.400;  196.350;    0.000
357.433; 2251.400;  241.350;    0.000
357.487; 2320.400;  244.350;    0.000
357.542; 2278.400;  210.350;    0.000
357.596; 2401.400;  231.350;    0.000
357.651; 2394.400;  248.350;    0.000
357.705; 2260.400;  232.350;    0.000
357.760; 2296.400;  224.350;    0.000
357.814; 2293.400;  221.350;    0.000
357.868; 2371.400;  207.350;    0.000
357.923; 2319.400;  234.350;    0.000
357.977; 2260.400;  218.350;    0.000
358.032; 2348.400;  244.350;    0.000
358.086; 2327.400;  246.350;    0.000
358.140; 2360.400;  235.350;    0.000
358.195; 2294.400;  237.350;    0.000
358.249; 2294.400;  233.350;    0.000
358.303; 2262.400;  254.350;    0.000
358.358; 2274.400;  217.350;    0.000
358.412; 2336.400;  245.350;    0.000
358.466; 2305.400;  230.350;    0.000
358.521; 2339.400;  214.350;    0.000
358.575; 2323.400;  243.350;    0.000
358.629; 2347.400;  230.350;    0.000
358.683; 2334.400;  232.350;    0.000
358.738; 2341.400;  249.350;    0.000
358.792; 2370.400;  249.350;    0.000
358.846; 2346.400;  271.350;    0.000
358.900; 2318.400;  265.350;    0.000
358.954; 2309.400;  236.350;    0.000
359.009; 2235.400;  254.350;    0.000
359.063; 2295.400;  216.350;    0.000
359.117; 2323.400;  245.350;    0.000
359.171; 2389.400;  252.350;    0.000
359.225; 2395.400;  240.350;    0.000
359.280; 2288.400;  239.350;    0.000
359.334; 2300.400;  234.350;    0.000
359.388; 2274.400;  258.350;    0.000
359.442; 2385.400;  220.350;    0.000
359.496; 2338.400;  206.350;    0.000
359.550; 2364.400;  279.350;    0.000
359.604; 2402.400;  263.350;    0.000
359.658; 2327.400;  251.350;    0.000
359.712; 2241.400;  244.350;    0.000
359.766; 2287.400;  217.350;    0.000
359.820; 2346.400;  235.350;    0.000
359.875; 2401.400;  249.350;    0.000
359.929; 2306.400;  269.350;    0.000
359.983; 2277.400;  240.350;    0.000
360.037; 2276.400;  252.350;    0.000
360.091; 2319.400;  271.350;    0.000
360.145; 2315.400;  222.350;    0.000
360.199; 2261.400;  302.350;    0.000
360.253; 2285.400;  234.350;    0.000
360.306; 2326.400;  258.350;    0.000
360.360; 2306.400;  249.350;    0.000
360.414; 2340.400;  231.350;    0.000
360.468; 2343.400;  261.350;    0.000
360.522; 2301.400;  277.350;    0.000
360.576; 2293.400;  273.350;    0.000
360.630; 2361.400;  264.350;    0.000
360.684; 2302.400;  223.350;    0.000
360.738; 2254.400;  266.350;    0.000
360.792; 2363.400;  252.350;    0.000
360.846; 2305.400;  234.350;    0.000
360.899; 2321.400;  296.350;    0.000
360.953; 2277.400;  273.350;    0.000
361.007; 2301.400;  251.350;    0.000
361.061; 2344.400;  250.350;    0.000
361.115; 2321.400;  267.350;    0.000
361.168; 2311.400;  308.350;    0.000
361.222; 2261.400;  246.350;    0.000
361.276; 2297.400;  261.350;    0.000
361.330; 2318.400;  233.350;    0.000
361.384; 2221.400;  269.350;    0.000
361.437; 2318.400;  270.350;    0.000
361.491; 2253.400;  263.350;    0.000
361.545; 2243.400;  288.350;    0.000
361.599; 2369.400;  270.350;    0.000
361.652; 2289.400;  256.350;    0.000
361.706; 2343.400;  263.350;    0.000
361.760; 2257.400;  237.350;    0.000
361.813; 2302.400;  278.350;    0.000
361.867; 2371.400;  317.350;    0.000
361.921; 2275.400;  260.350;    0.000
361.974; 2226.400;  239.350;    0.000
362.028; 2355.400;  266.350;    0.000
362.082; 2275.400;  269.350;    0.000
362.135; 2246.400;  262.350;    0.000
362.189; 2284.400;  258.350;    0.000
362.242; 2261.400;  273.350;    0.000
362.296; 2336.400;  261.350;    0.000
362.350; 2266.400;  272.350;    0.000
362.403; 2301.400;  291.350;    0.000
362.457; 2288.400;  253.350;    0.000
362.510; 2353.400;  266.350;    0.000
362.564; 2156.400;  260.350;    0.000
362.617; 2275.400;  280.350;    0.000
362.671; 2251.400;  281.350;    0.000
362.724; 2194.400;  234.350;    0.000
362.778; 2239.400;  311.350;    0.000
362.831; 2220.400;  276.350;    0.000
362.885; 2296.400;  288.350;    0.000
362.938; 2240.400;  284.350;    0.000
362.992;  319.400;  245.350;    0.000
363.045;  260.400;  277.350;    0.000
363.099;  270.400;  246.350;    0.000
363.152;  256.400;  290.350;    0.000
363.205;  248.400;  256.350;    0.000
363.259;  244.400;  238.350;    0.000
363.312;  284.400;  290.350;    0.000
363.366;  295.400;  287.350;    0.000
363.419;  262.400;  279.350;    0.000
363.472;  294.400;  304.350;    0.000
363.526;  294.400;  305.350;    0.000
363.579;  280.400;  281.350;    0.000
363.632;  280.400;  279.350;    0.000
363.686;  295.400;  277.350;    0.000
363.739;  253.400;  268.350;    0.000
363.792;  271.400;  274.350;    0.000

