
Integration time [ms]:   0.300
Averaging Nr. [scans]: 1
Smoothing Nr. [pixels]: 0
Data measured with spectrometer [name]: UV2
Wave   ;Sample   ;Dark     ;Reference
[nm]   ;[counts] ;[counts] ;[counts] 

353.533;  244.575;  178.050;    0.000
353.597;  246.575;  251.050;    0.000
353.660;  202.575;  213.050;    0.000
353.723;  188.575;  185.050;    0.000
353.786;  160.575;  191.050;    0.000
353.850;  232.575;  238.050;    0.000
353.913;  207.575;  181.050;    0.000
353.976;  213.575;  190.050;    0.000
354.039;  206.575;  184.050;    0.000
354.102;  202.575;  231.050;    0.000
354.166;  218.575;  188.050;    0.000
354.229;  216.575;  224.050;    0.000
354.292;  173.575;  186.050;    0.000
354.355;  231.575;  175.050;    0.000
354.418;  191.575;  191.050;    0.000
354.481;  195.575;  181.050;    0.000
354.545;  578.575;  193.050;    0.000
354.608;  623.575;  210.050;    0.000
354.671;  588.575;  183.050;    0.000
354.734;  614.575;  189.050;    0.000
354.797;  600.575;  168.050;    0.000
354.860;  655.575;  178.050;    0.000
354.923;  636.575;  236.050;    0.000
354.986;  654.575;  181.050;    0.000
355.050;  653.575;  168.050;    0.000
355.113;  700.575;  201.050;    0.000
355.176;  714.575;  206.050;    0.000
355.239;  666.575;  213.050;    0.000
355.302;  719.575;  198.050;    0.000
355.365;  773.575;  199.050;    0.000
355.428;  722.575;  200.050;    0.000
355.491;  769.575;  232.050;    0.000
355.554;  755.575;  184.050;    0.000
355.617;  774.575;  214.050;    0.000
355.680;  755.575;  191.050;    0.000
355.743;  709.575;  161.050;    0.000
355.806;  699.575;  153.050;    0.000
355.869;  818.575;  221.050;    0.000
355.932;  809.575;  152.050;    0.000
355.995;  804.575;  195.050;    0.000
356.058;  807.575;  172.050;    0.000
356.121;  812.575;  186.050;    0.000
356.184;  819.575;  196.050;    0.000
356.247;  819.575;  183.050;    0.000
356.310;  766.575;  159.050;    0.000
356.373;  794.575;  183.050;    0.000
356.436;  774.575;  176.050;    0.000
356.498;  860.575;  191.050;    0.000
356.561;  820.575;  145.050;    0.000
356.624;  835.575;  187.050;    0.000
356.687;  847.575;  181.050;    0.000
356.750;  835.575;  227.050;    0.000
356.813;  896.575;  147.050;    0.000
356.876;  814.575;  184.050;    0.000
356.939;  730.575;  141.050;    0.000
357.001;  820.575;  188.050;    0.000
357.064;  846.575;  173.050;    0.000
357.127;  854.575;  159.050;    0.000
357.190;  801.575;  185.050;    0.000
357.253;  809.575;  180.050;    0.000
357.316;  852.575;  199.050;    0.000
357.378;  907.575;  196.050;    0.000
357.441;  845.575;  175.050;    0.000
357.504;  829.575;  164.050;    0.000
357.567;  799.575;  145.050;    0.000
357.629;  880.575;  205.050;    0.000
357.692;  826.575;  175.050;    0.000
357.755;  893.575;  205.050;    0.000
357.818;  857.575;  141.050;    0.000
357.880;  862.575;  170.050;    0.000
357.943;  834.575;  152.050;    0.000
358.006;  845.575;  145.050;    0.000
358.069;  895.575;  164.050;    0.000
358.131;  875.575;  148.050;    0.000
358.194;  839.575;  122.050;    0.000
358.257;  813.575;  147.050;    0.000
358.319;  853.575;  156.050;    0.000
358.382;  896.575;  193.050;    0.000
358.445;  876.575;  155.050;    0.000
358.507;  892.575;  160.050;    0.000
358.570;  893.575;  159.050;    0.000
358.633;  843.575;  163.050;    0.000
358.695;  942.575;  174.050;    0.000
358.758;  846.575;  127.050;    0.000
358.821;  828.575;  165.050;    0.000
358.883;  889.575;  145.050;    0.000
358.946;  896.575;  127.050;    0.000
359.008;  913.575;  180.050;    0.000
359.071;  883.575;  173.050;    0.000
359.134;  870.575;  150.050;    0.000
359.196;  897.575;  158.050;    0.000
359.259;  892.575;  159.050;    0.000
359.321;  883.575;  159.050;    0.000
359.384;  900.575;  182.050;    0.000
359.446;  853.575;  140.050;    0.000
359.509;  877.575;  146.050;    0.000
359.571;  894.575;  133.050;    0.000
359.634;  934.575;   93.050;    0.000
359.696;  882.575;  142.050;    0.000
359.759;  911.575;  161.050;    0.000
359.821;  969.575;  110.050;    0.000
359.884;  949.575;  114.050;    0.000
359.946;  881.575;  180.050;    0.000
360.009;  907.575;  158.050;    0.000
360.071;  894.575;  116.050;    0.000
360.134;  975.575;  170.050;    0.000
360.196;  955.575;  128.050;    0.000
360.259;  967.575;  157.050;    0.000
360.321;  938.575;  122.050;    0.000
360.384;  921.575;  119.050;    0.000
360.446;  914.575;  122.050;    0.000
360.508;  974.575;  195.050;    0.000
360.571;  988.575;  128.050;    0.000
360.633;  963.575;  172.050;    0.000
360.696;  949.575;  115.050;    0.000
360.758;  913.575;  162.050;    0.000
360.820;  953.575;  149.050;    0.000
360.883;  970.575;  151.050;    0.000
360.945;  970.575;  149.050;    0.000
361.007;  971.575;  135.050;    0.000
361.070;  959.575;  162.050;    0.000
361.132;  981.575;  198.050;    0.000
361.194; 1019.575;  141.050;    0.000
361.257;  943.575;  154.050;    0.000
361.319;  934.575;  147.050;    0.000
361.381; 1078.575;  154.050;    0.000
361.443;  935.575;  144.050;    0.000
361.506; 1022.575;  164.050;    0.000
361.568;  952.575;  148.050;    0.000
361.630;  989.575;  127.050;    0.000
361.693; 1009.575;  158.050;    0.000
361.755;  994.575;  161.050;    0.000
361.817; 1009.575;  173.050;    0.000
361.879;  976.575;  159.050;    0.000
361.941;  961.575;  153.050;    0.000
362.004; 1001.575;  148.050;    0.000
362.066;  959.575;  150.050;    0.000
362.128;  985.575;  132.050;    0.000
362.190;  962.575;  207.050;    0.000
362.252; 1039.575;  142.050;    0.000
362.315; 1003.575;  153.050;    0.000
362.377;  922.575;  164.050;    0.000
362.439; 1009.575;  155.050;    0.000
362.501; 1027.575;  157.050;    0.000
362.563; 1016.575;  188.050;    0.000
362.625;  944.575;  194.050;    0.000
362.688;  943.575;  159.050;    0.000
362.750; 1093.575;  205.050;    0.000
362.812;  996.575;  148.050;    0.000
362.874; 1012.575;  173.050;    0.000
362.936; 1022.575;  152.050;    0.000
362.998; 1034.575;  145.050;    0.000
363.060; 1031.575;  184.050;    0.000
363.122; 1026.575;  147.050;    0.000
363.184; 1044.575;  136.050;    0.000
363.246; 1073.575;  171.050;    0.000
363.308;  975.575;  154.050;    0.000
363.370; 1044.575;  175.050;    0.000
363.432;  995.575;  139.050;    0.000
363.494; 1012.575;  163.050;    0.000
363.556;  987.575;  117.050;    0.000
363.618; 1012.575;  126.050;    0.000
363.680; 1078.575;  147.050;    0.000
363.742; 1004.575;  161.050;    0.000
363.804; 1042.575;  159.050;    0.000
363.866; 1048.575;  170.050;    0.000
363.928; 1006.575;  122.050;    0.000
363.990; 1045.575;  167.050;    0.000
364.052; 1016.575;  180.050;    0.000
364.114; 1025.575;  119.050;    0.000
364.176; 1148.575;  184.050;    0.000
364.238; 1043.575;  180.050;    0.000
364.300; 1043.575;  159.050;    0.000
364.362; 1050.575;  163.050;    0.000
364.424;  995.575;  139.050;    0.000
364.486; 1084.575;  189.050;    0.000
364.548; 1022.575;  167.050;    0.000
364.609; 1034.575;  165.050;    0.000
364.671; 1037.575;  171.050;    0.000
364.733; 1044.575;  165.050;    0.000
364.795; 1062.575;  122.050;    0.000
364.857; 1043.575;  147.050;    0.000
364.919; 1039.575;  104.050;    0.000
364.981; 1027.575;  143.050;    0.000
365.042; 1138.575;  166.050;    0.000
365.104; 1131.575;  162.050;    0.000
365.166; 1046.575;  155.050;    0.000
365.228; 1118.575;  179.050;    0.000
365.290; 1106.575;  133.050;    0.000
365.351; 1095.575;  142.050;    0.000
365.413; 1116.575;  144.050;    0.000
365.475; 1067.575;  139.050;    0.000
365.537; 1061.575;  181.050;    0.000
365.598; 1063.575;  166.050;    0.000
365.660; 1070.575;  130.050;    0.000
365.722; 1066.575;  177.050;    0.000
365.784; 1040.575;  149.050;    0.000
365.845; 1067.575;  156.050;    0.000
365.907; 1012.575;  122.050;    0.000
365.969; 1041.575;  140.050;    0.000
366.030; 1121.575;  156.050;    0.000
366.092; 1074.575;  140.050;    0.000
366.154; 1100.575;  169.050;    0.000
366.215; 1110.575;  170.050;    0.000
366.277; 1075.575;  143.050;    0.000
366.339;  989.575;  139.050;    0.000
366.400; 1113.575;  139.050;    0.000
366.462; 1116.575;  140.050;    0.000
366.524; 1053.575;  150.050;    0.000
366.585; 1116.575;  163.050;    0.000
366.647; 1085.575;  193.050;    0.000
366.708; 1069.575;  135.050;    0.000
366.770; 1138.575;  165.050;    0.000
366.832; 1093.575;  168.050;    0.000
366.893; 1062.575;  157.050;    0.000
366.955; 1095.575;  132.050;    0.000
367.016; 1113.575;  127.050;    0.000
367.078; 1155.575;  146.050;    0.000
367.139; 1119.575;  129.050;    0.000
367.201; 1105.575;  148.050;    0.000
367.262; 1110.575;  165.050;    0.000
367.324; 1133.575;  171.050;    0.000
367.385; 1094.575;  118.050;    0.000
367.447; 1182.575;  144.050;    0.000
367.508; 1101.575;  135.050;    0.000
367.570; 1139.575;  160.050;    0.000
367.631; 1101.575;  157.050;    0.000
367.693; 1181.575;  168.050;    0.000
367.754; 1143.575;  139.050;    0.000
367.816; 1147.575;  141.050;    0.000
367.877; 1140.575;  195.050;    0.000
367.939; 1189.575;  166.050;    0.000
368.000; 1113.575;  127.050;    0.000
368.062; 1156.575;  143.050;    0.000
368.123; 1186.575;  156.050;    0.000
368.184; 1172.575;  179.050;    0.000
368.246; 1115.575;  168.050;    0.000
368.307; 1137.575;  203.050;    0.000
368.369; 1156.575;  149.050;    0.000
368.430; 1105.575;  121.050;    0.000
368.491; 1108.575;  131.050;    0.000
368.553; 1188.575;  161.050;    0.000
368.614; 1113.575;  157.050;    0.000
368.675; 1150.575;  152.050;    0.000
368.737; 1103.575;  168.050;    0.000
368.798; 1124.575;  147.050;    0.000
368.859; 1140.575;  174.050;    0.000
368.921; 1149.575;  168.050;    0.000
368.982; 1111.575;  151.050;    0.000
369.043; 1156.575;  169.050;    0.000
369.104; 1172.575;  149.050;    0.000
369.166; 1158.575;  178.050;    0.000
369.227; 1125.575;  149.050;    0.000
369.288; 1146.575;  131.050;    0.000
369.349; 1178.575;  128.050;    0.000
369.411; 1204.575;  198.050;    0.000
369.472; 1199.575;  156.050;    0.000
369.533; 1145.575;  142.050;    0.000
369.594; 1127.575;  125.050;    0.000
369.656; 1187.575;  153.050;    0.000
369.717; 1052.575;  124.050;    0.000
369.778; 1118.575;  163.050;    0.000
369.839; 1153.575;  130.050;    0.000
369.900; 1216.575;  170.050;    0.000
369.961; 1156.575;  142.050;    0.000
370.023; 1182.575;  197.050;    0.000
370.084; 1151.575;  151.050;    0.000
370.145; 1197.575;  128.050;    0.000
370.206; 1186.575;  152.050;    0.000
370.267; 1166.575;  154.050;    0.000
370.328; 1243.575;  154.050;    0.000
370.389; 1168.575;  173.050;    0.000
370.451; 1193.575;  191.050;    0.000
370.512; 1177.575;  155.050;    0.000
370.573; 1241.575;  134.050;    0.000
370.634; 1222.575;  160.050;    0.000
370.695; 1144.575;  124.050;    0.000
370.756; 1201.575;  169.050;    0.000
370.817; 1201.575;  169.050;    0.000
370.878; 1243.575;  200.050;    0.000
370.939; 1147.575;  157.050;    0.000
371.000; 1212.575;  131.050;    0.000
371.061; 1185.575;  136.050;    0.000
371.122; 1217.575;  176.050;    0.000
371.183; 1138.575;   81.050;    0.000
371.244; 1140.575;  156.050;    0.000
371.305; 1202.575;  131.050;    0.000
371.366; 1155.575;  161.050;    0.000
371.427; 1191.575;  127.050;    0.000
371.488; 1173.575;  184.050;    0.000
371.549; 1172.575;  159.050;    0.000
371.610; 1177.575;  147.050;    0.000
371.671; 1134.575;  132.050;    0.000
371.732; 1206.575;  163.050;    0.000
371.793; 1199.575;  179.050;    0.000
371.853; 1182.575;  179.050;    0.000
371.914; 1245.575;  149.050;    0.000
371.975; 1171.575;  117.050;    0.000
372.036; 1261.575;  141.050;    0.000
372.097; 1140.575;  101.050;    0.000
372.158; 1199.575;  115.050;    0.000
372.219; 1243.575;  174.050;    0.000
372.280; 1210.575;  134.050;    0.000
372.340; 1221.575;  180.050;    0.000
372.401; 1250.575;  166.050;    0.000
372.462; 1274.575;  171.050;    0.000
372.523; 1226.575;  132.050;    0.000
372.584; 1201.575;  182.050;    0.000
372.645; 1171.575;  149.050;    0.000
372.705; 1197.575;  182.050;    0.000
372.766; 1227.575;  145.050;    0.000
372.827; 1219.575;  161.050;    0.000
372.888; 1243.575;  156.050;    0.000
372.948; 1198.575;  158.050;    0.000
373.009; 1251.575;  178.050;    0.000
373.070; 1182.575;  166.050;    0.000
373.131; 1202.575;  154.050;    0.000
373.191; 1284.575;  193.050;    0.000
373.252; 1243.575;  148.050;    0.000
373.313; 1228.575;  152.050;    0.000
373.373; 1207.575;  156.050;    0.000
373.434; 1305.575;  166.050;    0.000
373.495; 1176.575;  152.050;    0.000
373.555; 1230.575;  145.050;    0.000
373.616; 1286.575;  141.050;    0.000
373.677; 1198.575;  169.050;    0.000
373.737; 1229.575;  166.050;    0.000
373.798; 1180.575;  151.050;    0.000
373.859; 1283.575;  170.050;    0.000
373.919; 1275.575;  206.050;    0.000
373.980; 1281.575;  140.050;    0.000
374.041; 1247.575;  148.050;    0.000
374.101; 1282.575;  165.050;    0.000
374.162; 1264.575;  166.050;    0.000
374.222; 1270.575;  156.050;    0.000
374.283; 1225.575;  161.050;    0.000
374.343; 1296.575;  185.050;    0.000
374.404; 1309.575;  148.050;    0.000
374.465; 1260.575;  162.050;    0.000
374.525; 1235.575;  177.050;    0.000
374.586; 1317.575;  164.050;    0.000
374.646; 1298.575;  180.050;    0.000
374.707; 1299.575;  203.050;    0.000
374.767; 1266.575;  148.050;    0.000
374.828; 1260.575;  142.050;    0.000
374.888; 1333.575;  187.050;    0.000
374.949; 1311.575;  137.050;    0.000
375.009; 1238.575;  155.050;    0.000
375.070; 1295.575;  165.050;    0.000
375.130; 1302.575;  168.050;    0.000
375.190; 1281.575;  157.050;    0.000
375.251; 1282.575;  206.050;    0.000
375.311; 1289.575;  141.050;    0.000
375.372; 1284.575;  144.050;    0.000
375.432; 1301.575;  153.050;    0.000
375.493; 1253.575;  168.050;    0.000
375.553; 1333.575;  146.050;    0.000
375.613; 1311.575;  142.050;    0.000
375.674; 1388.575;  153.050;    0.000
375.734; 1331.575;  166.050;    0.000
375.794; 1329.575;  145.050;    0.000
375.855; 1315.575;  162.050;    0.000
375.915; 1292.575;  162.050;    0.000
375.975; 1314.575;  144.050;    0.000
376.036; 1308.575;  128.050;    0.000
376.096; 1299.575;  122.050;    0.000
376.156; 1314.575;  140.050;    0.000
376.217; 1302.575;  158.050;    0.000
376.277; 1357.575;  163.050;    0.000
376.337; 1310.575;  139.050;    0.000
376.398; 1342.575;  176.050;    0.000
376.458; 1365.575;  143.050;    0.000
376.518; 1283.575;  136.050;    0.000
376.578; 1305.575;  177.050;    0.000
376.639; 1331.575;  163.050;    0.000
376.699; 1285.575;  183.050;    0.000
376.759; 1355.575;  169.050;    0.000
376.819; 1316.575;  147.050;    0.000
376.880; 1357.575;  188.050;    0.000
376.940; 1322.575;  185.050;    0.000
377.000; 1289.575;  131.050;    0.000
377.060; 1318.575;  182.050;    0.000
377.120; 1294.575;  165.050;    0.000
377.180; 1359.575;  169.050;    0.000
377.241; 1335.575;  146.050;    0.000
377.301; 1387.575;  183.050;    0.000
377.361; 1331.575;  124.050;    0.000
377.421; 1399.575;  186.050;    0.000
377.481; 1324.575;  178.050;    0.000
377.541; 1434.575;  140.050;    0.000
377.601; 1326.575;  175.050;    0.000
377.661; 1388.575;  169.050;    0.000
377.722; 1384.575;  144.050;    0.000
377.782; 1380.575;  182.050;    0.000
377.842; 1353.575;  161.050;    0.000
377.902; 1327.575;  151.050;    0.000
377.962; 1378.575;  134.050;    0.000
378.022; 1370.575;  153.050;    0.000
378.082; 1334.575;  178.050;    0.000
378.142; 1459.575;  118.050;    0.000
378.202; 1436.575;  153.050;    0.000
378.262; 1357.575;  166.050;    0.000
378.322; 1393.575;  174.050;    0.000
378.382; 1411.575;  148.050;    0.000
378.442; 1376.575;  190.050;    0.000
378.502; 1374.575;  136.050;    0.000
378.562; 1457.575;  130.050;    0.000
378.622; 1453.575;  188.050;    0.000
378.682; 1404.575;  163.050;    0.000
378.742; 1428.575;  150.050;    0.000
378.802; 1403.575;  127.050;    0.000
378.862; 1509.575;  186.050;    0.000
378.921; 1473.575;  203.050;    0.000
378.981; 1492.575;  177.050;    0.000
379.041; 1486.575;  134.050;    0.000
379.101; 1482.575;  167.050;    0.000
379.161; 1469.575;  130.050;    0.000
379.221; 1475.575;  169.050;    0.000
379.281; 1486.575;  162.050;    0.000
379.341; 1459.575;  134.050;    0.000
379.401; 1457.575;  151.050;    0.000
379.460; 1533.575;  190.050;    0.000
379.520; 1446.575;  158.050;    0.000
379.580; 1471.575;  162.050;    0.000
379.640; 1518.575;  146.050;    0.000
379.700; 1527.575;  167.050;    0.000
379.759; 1545.575;  194.050;    0.000
379.819; 1543.575;  176.050;    0.000
379.879; 1522.575;  140.050;    0.000
379.939; 1589.575;  184.050;    0.000
379.999; 1542.575;  165.050;    0.000
380.058; 1597.575;  194.050;    0.000
380.118; 1546.575;  137.050;    0.000
380.178; 1577.575;  139.050;    0.000
380.237; 1573.575;  139.050;    0.000
380.297; 1567.575;  160.050;    0.000
380.357; 1603.575;  194.050;    0.000
380.417; 1575.575;  174.050;    0.000
380.476; 1593.575;  153.050;    0.000
380.536; 1645.575;  169.050;    0.000
380.596; 1628.575;  159.050;    0.000
380.655; 1598.575;  178.050;    0.000
380.715; 1562.575;  196.050;    0.000
380.775; 1619.575;  202.050;    0.000
380.834; 1717.575;  186.050;    0.000
380.894; 1638.575;  167.050;    0.000
380.954; 1651.575;  150.050;    0.000
381.013; 1661.575;  187.050;    0.000
381.073; 1646.575;  114.050;    0.000
381.132; 1657.575;  176.050;    0.000
381.192; 1641.575;  197.050;    0.000
381.252; 1664.575;  172.050;    0.000
381.311; 1673.575;  155.050;    0.000
381.371; 1675.575;  172.050;    0.000
381.430; 1719.575;  143.050;    0.000
381.490; 1703.575;  136.050;    0.000
381.549; 1644.575;  131.050;    0.000
381.609; 1709.575;  203.050;    0.000
381.668; 1754.575;  135.050;    0.000
381.728; 1790.575;  163.050;    0.000
381.787; 1714.575;  195.050;    0.000
381.847; 1758.575;  185.050;    0.000
381.906; 1755.575;  187.050;    0.000
381.966; 1803.575;  153.050;    0.000
382.025; 1827.575;  175.050;    0.000
382.085; 1827.575;  195.050;    0.000
382.144; 1847.575;  210.050;    0.000
382.204; 1912.575;  201.050;    0.000
382.263; 1928.575;  178.050;    0.000
382.323; 1976.575;  151.050;    0.000
382.382; 1964.575;  147.050;    0.000
382.441; 1982.575;  144.050;    0.000
382.501; 2008.575;  156.050;    0.000
382.560; 2190.575;  160.050;    0.000
382.619; 2108.575;  173.050;    0.000
382.679; 2306.575;  167.050;    0.000
382.738; 2339.575;  189.050;    0.000
382.798; 2474.575;  181.050;    0.000
382.857; 2759.575;  161.050;    0.000
382.916; 2966.575;  162.050;    0.000
382.976; 3057.575;  169.050;    0.000
383.035; 2882.575;  174.050;    0.000
383.094; 2939.575;  178.050;    0.000
383.154; 3436.575;  188.050;    0.000
383.213; 3793.575;  162.050;    0.000
383.272; 3745.575;  144.050;    0.000
383.331; 3033.575;  144.050;    0.000
383.391; 2820.575;  198.050;    0.000
383.450; 2780.575;  185.050;    0.000
383.509; 2655.575;  132.050;    0.000
383.568; 2951.575;  171.050;    0.000
383.628; 3027.575;  171.050;    0.000
383.687; 3252.575;  172.050;    0.000
383.746; 3734.575;  144.050;    0.000
383.805; 4380.575;  177.050;    0.000
383.864; 4238.575;  145.050;    0.000
383.924; 3466.575;  203.050;    0.000
383.983; 2778.575;  153.050;    0.000
384.042; 2569.575;  171.050;    0.000
384.101; 2422.575;  186.050;    0.000
384.160; 2261.575;  132.050;    0.000
384.219; 2189.575;  157.050;    0.000
384.279; 2067.575;  166.050;    0.000
384.338; 1993.575;  141.050;    0.000
384.397; 2037.575;  142.050;    0.000
384.456; 1977.575;  155.050;    0.000
384.515; 1947.575;  158.050;    0.000
384.574; 1962.575;  208.050;    0.000
384.633; 1933.575;  158.050;    0.000
384.692; 1913.575;  162.050;    0.000
384.751; 1929.575;  179.050;    0.000
384.810; 1894.575;  150.050;    0.000
384.869; 1811.575;  147.050;    0.000
384.929; 1887.575;  132.050;    0.000
384.988; 1903.575;  166.050;    0.000
385.047; 1853.575;  161.050;    0.000
385.106; 1831.575;  180.050;    0.000
385.165; 1826.575;  123.050;    0.000
385.224; 1888.575;  153.050;    0.000
385.283; 1842.575;  158.050;    0.000
385.342; 1863.575;  184.050;    0.000
385.401; 1768.575;  191.050;    0.000
385.459; 1895.575;  143.050;    0.000
385.518; 1864.575;  152.050;    0.000
385.577; 1813.575;  134.050;    0.000
385.636; 1788.575;  187.050;    0.000
385.695; 1872.575;  141.050;    0.000
385.754; 1814.575;  143.050;    0.000
385.813; 1846.575;  145.050;    0.000
385.872; 1863.575;  116.050;    0.000
385.931; 1860.575;  147.050;    0.000
385.990; 1894.575;  170.050;    0.000
386.049; 1851.575;  189.050;    0.000
386.107; 1807.575;  122.050;    0.000
386.166; 1806.575;  155.050;    0.000
386.225; 1746.575;  173.050;    0.000
386.284; 1781.575;  138.050;    0.000
386.343; 1854.575;  216.050;    0.000
386.402; 1756.575;  162.050;    0.000
386.460; 1809.575;  131.050;    0.000
386.519; 1821.575;  122.050;    0.000
386.578; 1733.575;  140.050;    0.000
386.637; 1797.575;  169.050;    0.000
386.696; 1836.575;  176.050;    0.000
386.754; 1813.575;  127.050;    0.000
386.813; 1779.575;  138.050;    0.000
386.872; 1737.575;  135.050;    0.000
386.931; 1795.575;  170.050;    0.000
386.989; 1800.575;  167.050;    0.000
387.048; 1727.575;  131.050;    0.000
387.107; 1798.575;  176.050;    0.000
387.165; 1743.575;  139.050;    0.000
387.224; 1786.575;  150.050;    0.000
387.283; 1788.575;  169.050;    0.000
387.342; 1732.575;  191.050;    0.000
387.400; 1795.575;  131.050;    0.000
387.459; 1760.575;  139.050;    0.000
387.517; 1817.575;  214.050;    0.000
387.576; 1738.575;  146.050;    0.000
387.635; 1756.575;  161.050;    0.000
387.693; 1806.575;  197.050;    0.000
387.752; 1784.575;  159.050;    0.000
387.811; 1771.575;  144.050;    0.000
387.869; 1765.575;  172.050;    0.000
387.928; 1776.575;  160.050;    0.000
387.986; 1705.575;  192.050;    0.000
388.045; 1744.575;  121.050;    0.000
388.103; 1770.575;  129.050;    0.000
388.162; 1809.575;  169.050;    0.000
388.221; 1738.575;  171.050;    0.000
388.279; 1719.575;  135.050;    0.000
388.338; 1830.575;  222.050;    0.000
388.396; 1717.575;  168.050;    0.000
388.455; 1775.575;  178.050;    0.000
388.513; 1785.575;  151.050;    0.000
388.572; 1794.575;  147.050;    0.000
388.630; 1739.575;  158.050;    0.000
388.689; 1693.575;  163.050;    0.000
388.747; 1744.575;  180.050;    0.000
388.806; 1765.575;  119.050;    0.000
388.864; 1749.575;  159.050;    0.000
388.922; 1784.575;  152.050;    0.000
388.981; 1707.575;  125.050;    0.000
389.039; 1714.575;  151.050;    0.000
389.098; 1735.575;  151.050;    0.000
389.156; 1751.575;  175.050;    0.000
389.214; 1708.575;  133.050;    0.000
389.273; 1738.575;  142.050;    0.000
389.331; 1777.575;  179.050;    0.000
389.390; 1710.575;  179.050;    0.000
389.448; 1672.575;  159.050;    0.000
389.506; 1818.575;  140.050;    0.000
389.565; 1821.575;  160.050;    0.000
389.623; 1735.575;  181.050;    0.000
389.681; 1807.575;  181.050;    0.000
389.740; 1692.575;  187.050;    0.000
389.798; 1763.575;  163.050;    0.000
389.856; 1755.575;  185.050;    0.000
389.914; 1752.575;  170.050;    0.000
389.973; 1728.575;  150.050;    0.000
390.031; 1742.575;  149.050;    0.000
390.089; 1738.575;  191.050;    0.000
390.147; 1748.575;  126.050;    0.000
390.206; 1684.575;  174.050;    0.000
390.264; 1714.575;  164.050;    0.000
390.322; 1755.575;  150.050;    0.000
390.380; 1699.575;  137.050;    0.000
390.439; 1740.575;  176.050;    0.000
390.497; 1674.575;  188.050;    0.000
390.555; 1705.575;  143.050;    0.000
390.613; 1718.575;  174.050;    0.000
390.671; 1734.575;  208.050;    0.000
390.729; 1750.575;  135.050;    0.000
390.788; 1695.575;  169.050;    0.000
390.846; 1771.575;  173.050;    0.000
390.904; 1755.575;  176.050;    0.000
390.962; 1721.575;  179.050;    0.000
391.020; 1737.575;  201.050;    0.000
391.078; 1820.575;  192.050;    0.000
391.136; 1752.575;  170.050;    0.000
391.194; 1784.575;  163.050;    0.000
391.253; 1775.575;  203.050;    0.000
391.311; 1733.575;  170.050;    0.000
391.369; 1802.575;  191.050;    0.000
391.427; 1832.575;  226.050;    0.000
391.485; 1738.575;  181.050;    0.000
391.543; 1756.575;  177.050;    0.000
391.601; 1755.575;  150.050;    0.000
391.659; 1767.575;  201.050;    0.000
391.717; 1714.575;  166.050;    0.000
391.775; 1765.575;  200.050;    0.000
391.833; 1810.575;  180.050;    0.000
391.891; 1654.575;  172.050;    0.000
391.949; 1764.575;  174.050;    0.000
392.007; 1799.575;  194.050;    0.000
392.065; 1805.575;  161.050;    0.000
392.123; 1813.575;  159.050;    0.000
392.180; 1797.575;  193.050;    0.000
392.238; 1834.575;  188.050;    0.000
392.296; 1778.575;  206.050;    0.000
392.354; 1759.575;  170.050;    0.000
392.412; 1753.575;  207.050;    0.000
392.470; 1845.575;  168.050;    0.000
392.528; 1807.575;  185.050;    0.000
392.586; 1757.575;  154.050;    0.000
392.644; 1814.575;  190.050;    0.000
392.701; 1871.575;  195.050;    0.000
392.759; 1815.575;  229.050;    0.000
392.817; 1810.575;  176.050;    0.000
392.875; 1851.575;  198.050;    0.000
392.933; 1809.575;  174.050;    0.000
392.991; 1866.575;  237.050;    0.000
393.048; 1818.575;  212.050;    0.000
393.106; 1821.575;  191.050;    0.000
393.164; 1856.575;  136.050;    0.000
393.222; 1841.575;  164.050;    0.000
393.279; 1949.575;  208.050;    0.000
393.337; 2015.575;  203.050;    0.000
393.395; 1909.575;  191.050;    0.000
393.453; 1834.575;  153.050;    0.000
393.510; 1819.575;  171.050;    0.000
393.568; 1799.575;  203.050;    0.000
393.626; 1814.575;  169.050;    0.000
393.684; 1883.575;  201.050;    0.000
393.741; 1835.575;  172.050;    0.000
393.799; 1824.575;  149.050;    0.000
393.857; 1828.575;  151.050;    0.000
393.914; 1807.575;  192.050;    0.000
393.972; 1800.575;  176.050;    0.000
394.030; 1894.575;  165.050;    0.000
394.087; 1844.575;  192.050;    0.000
394.145; 1876.575;  183.050;    0.000
394.202; 1862.575;  161.050;    0.000
394.260; 1836.575;  135.050;    0.000
394.318; 1809.575;  188.050;    0.000
394.375; 1816.575;  163.050;    0.000
394.433; 1850.575;  151.050;    0.000
394.490; 1815.575;  190.050;    0.000
394.548; 1880.575;  157.050;    0.000
394.605; 1819.575;  205.050;    0.000
394.663; 1864.575;  173.050;    0.000
394.720; 1815.575;  171.050;    0.000
394.778; 1908.575;  190.050;    0.000
394.836; 1914.575;  134.050;    0.000
394.893; 1860.575;  142.050;    0.000
394.951; 1832.575;  192.050;    0.000
395.008; 1840.575;  149.050;    0.000
395.065; 1910.575;  194.050;    0.000
395.123; 1967.575;  160.050;    0.000
395.180; 1860.575;  178.050;    0.000
395.238; 1852.575;  191.050;    0.000
395.295; 1886.575;  160.050;    0.000
395.353; 1899.575;  162.050;    0.000
395.410; 1972.575;  165.050;    0.000
395.468; 1908.575;  190.050;    0.000
395.525; 1936.575;  173.050;    0.000
395.582; 1949.575;  161.050;    0.000
395.640; 1966.575;  200.050;    0.000
395.697; 1882.575;  198.050;    0.000
395.754; 1962.575;  136.050;    0.000
395.812; 1924.575;  172.050;    0.000
395.869; 1973.575;  172.050;    0.000
395.927; 1919.575;  145.050;    0.000
395.984; 2003.575;  220.050;    0.000
396.041; 1919.575;  137.050;    0.000
396.098; 1858.575;  161.050;    0.000
396.156; 1955.575;  159.050;    0.000
396.213; 2004.575;  200.050;    0.000
396.270; 1946.575;  209.050;    0.000
396.328; 1918.575;  162.050;    0.000
396.385; 2015.575;  186.050;    0.000
396.442; 1888.575;  177.050;    0.000
396.499; 1994.575;  183.050;    0.000
396.557; 1941.575;  182.050;    0.000
396.614; 1915.575;  186.050;    0.000
396.671; 1976.575;  144.050;    0.000
396.728; 1962.575;  176.050;    0.000
396.785; 2043.575;  169.050;    0.000
396.843; 2021.575;  134.050;    0.000
396.900; 2006.575;  184.050;    0.000
396.957; 1966.575;  197.050;    0.000
397.014; 1983.575;  187.050;    0.000
397.071; 2046.575;  186.050;    0.000
397.128; 1995.575;  200.050;    0.000
397.186; 2017.575;  175.050;    0.000
397.243; 1967.575;  154.050;    0.000
397.300; 1994.575;  191.050;    0.000
397.357; 1997.575;  238.050;    0.000
397.414; 2004.575;  161.050;    0.000
397.471; 1943.575;  135.050;    0.000
397.528; 1964.575;  158.050;    0.000
397.585; 2013.575;  159.050;    0.000
397.642; 2087.575;  180.050;    0.000
397.699; 2066.575;  170.050;    0.000
397.756; 1952.575;  175.050;    0.000
397.814; 2014.575;  182.050;    0.000
397.871; 2019.575;  173.050;    0.000
397.928; 2010.575;  173.050;    0.000
397.985; 2011.575;  176.050;    0.000
398.042; 2112.575;  189.050;    0.000
398.099; 2081.575;  160.050;    0.000
398.156; 2104.575;  218.050;    0.000
398.212; 2065.575;  194.050;    0.000
398.269; 2066.575;  199.050;    0.000
398.326; 2148.575;  188.050;    0.000
398.383; 2065.575;  187.050;    0.000
398.440; 2070.575;  174.050;    0.000
398.497; 2105.575;  214.050;    0.000
398.554; 2085.575;  181.050;    0.000
398.611; 2080.575;  195.050;    0.000
398.668; 2043.575;  145.050;    0.000
398.725; 2097.575;  178.050;    0.000
398.782; 2165.575;  210.050;    0.000
398.839; 2129.575;  216.050;    0.000
398.895; 2148.575;  189.050;    0.000
398.952; 2150.575;  206.050;    0.000
399.009; 2145.575;  142.050;    0.000
399.066; 2173.575;  192.050;    0.000
399.123; 2213.575;  181.050;    0.000
399.180; 2202.575;  200.050;    0.000
399.236; 2201.575;  156.050;    0.000
399.293; 2223.575;  194.050;    0.000
399.350; 2227.575;  167.050;    0.000
399.407; 2307.575;  192.050;    0.000
399.463; 2253.575;  161.050;    0.000
399.520; 2207.575;  149.050;    0.000
399.577; 2252.575;  156.050;    0.000
399.634; 2384.575;  195.050;    0.000
399.690; 2348.575;  163.050;    0.000
399.747; 2321.575;  192.050;    0.000
399.804; 2316.575;  212.050;    0.000
399.861; 2318.575;  203.050;    0.000
399.917; 2314.575;  221.050;    0.000
399.974; 2396.575;  221.050;    0.000
400.031; 2349.575;  195.050;    0.000
400.087; 2194.575;  159.050;    0.000
400.144; 2305.575;  201.050;    0.000
400.201; 2299.575;  206.050;    0.000
400.257; 2220.575;  168.050;    0.000
400.314; 2249.575;  183.050;    0.000
400.370; 2351.575;  209.050;    0.000
400.427; 2251.575;  192.050;    0.000
400.484; 2280.575;  150.050;    0.000
400.540; 2270.575;  213.050;    0.000
400.597; 2253.575;  161.050;    0.000
400.653; 2222.575;  170.050;    0.000
400.710; 2210.575;  173.050;    0.000
400.766; 2236.575;  204.050;    0.000
400.823; 2227.575;  194.050;    0.000
400.879; 2233.575;  188.050;    0.000
400.936; 2267.575;  172.050;    0.000
400.993; 2229.575;  154.050;    0.000
401.049; 2248.575;  157.050;    0.000
401.105; 2206.575;  214.050;    0.000
401.162; 2323.575;  195.050;    0.000
401.218; 2292.575;  195.050;    0.000
401.275; 2203.575;  182.050;    0.000
401.331; 2168.575;  188.050;    0.000
401.388; 2261.575;  194.050;    0.000
401.444; 2270.575;  175.050;    0.000
401.501; 2150.575;  169.050;    0.000
401.557; 2260.575;  176.050;    0.000
401.614; 2140.575;  153.050;    0.000
401.670; 2263.575;  178.050;    0.000
401.726; 2173.575;  179.050;    0.000
401.783; 2173.575;  198.050;    0.000
401.839; 2290.575;  179.050;    0.000
401.895; 2258.575;  154.050;    0.000
401.952; 2136.575;  138.050;    0.000
402.008; 2197.575;  135.050;    0.000
402.064; 2209.575;  154.050;    0.000
402.121; 2227.575;  199.050;    0.000
402.177; 2239.575;  126.050;    0.000
402.233; 2306.575;  190.050;    0.000
402.290; 2241.575;  175.050;    0.000
402.346; 2265.575;  200.050;    0.000
402.402; 2142.575;  191.050;    0.000
402.458; 2276.575;  172.050;    0.000
402.515; 2149.575;  186.050;    0.000
402.571; 2175.575;  189.050;    0.000
402.627; 2249.575;  151.050;    0.000
402.683; 2229.575;  187.050;    0.000
402.740; 2262.575;  147.050;    0.000
402.796; 2233.575;  176.050;    0.000
402.852; 2250.575;  200.050;    0.000
402.908; 2337.575;  201.050;    0.000
402.964; 2233.575;  153.050;    0.000
403.021; 2301.575;  165.050;    0.000
403.077; 2289.575;  195.050;    0.000
403.133; 2239.575;  139.050;    0.000
403.189; 2237.575;  166.050;    0.000
403.245; 2283.575;  194.050;    0.000
403.301; 2355.575;  210.050;    0.000
403.357; 2331.575;  187.050;    0.000
403.414; 2350.575;  195.050;    0.000
403.470; 2335.575;  150.050;    0.000
403.526; 2234.575;  158.050;    0.000
403.582; 2242.575;  184.050;    0.000
403.638; 2280.575;  171.050;    0.000
403.694; 2385.575;  197.050;    0.000
403.750; 2328.575;  196.050;    0.000
403.806; 2333.575;  192.050;    0.000
403.862; 2401.575;  169.050;    0.000
403.918; 2352.575;  199.050;    0.000
403.974; 2297.575;  156.050;    0.000
404.030; 2384.575;  193.050;    0.000
404.086; 2351.575;  161.050;    0.000
404.142; 2347.575;  172.050;    0.000
404.198; 2364.575;  195.050;    0.000
404.254; 2331.575;  167.050;    0.000
404.310; 2348.575;  156.050;    0.000
404.366; 2350.575;  144.050;    0.000
404.422; 2388.575;  161.050;    0.000
404.478; 2294.575;  179.050;    0.000
404.534; 2344.575;  163.050;    0.000
404.590; 2406.575;  183.050;    0.000
404.646; 2333.575;  155.050;    0.000
404.701; 2412.575;  142.050;    0.000
404.757; 2321.575;  175.050;    0.000
404.813; 2312.575;  153.050;    0.000
404.869; 2355.575;  199.050;    0.000
404.925; 2307.575;  153.050;    0.000
404.981; 2382.575;  174.050;    0.000
405.037; 2333.575;  185.050;    0.000
405.092; 2368.575;  166.050;    0.000
405.148; 2288.575;  161.050;    0.000
405.204; 2316.575;  170.050;    0.000
405.260; 2405.575;  154.050;    0.000
405.316; 2355.575;  128.050;    0.000
405.371; 2362.575;  142.050;    0.000
405.427; 2288.575;  196.050;    0.000
405.483; 2400.575;  172.050;    0.000
405.539; 2323.575;  182.050;    0.000
405.594; 2370.575;  153.050;    0.000
405.650; 2459.575;  124.050;    0.000
405.706; 2398.575;  189.050;    0.000
405.761; 2450.575;  165.050;    0.000
405.817; 2414.575;  152.050;    0.000
405.873; 2383.575;  174.050;    0.000
405.928; 2396.575;  167.050;    0.000
405.984; 2439.575;  210.050;    0.000
406.040; 2405.575;  160.050;    0.000
406.095; 2395.575;  163.050;    0.000
406.151; 2478.575;  208.050;    0.000
406.207; 2510.575;  177.050;    0.000
406.262; 2454.575;  176.050;    0.000
406.318; 2483.575;  157.050;    0.000
406.374; 2434.575;  141.050;    0.000
406.429; 2469.575;  189.050;    0.000
406.485; 2497.575;  190.050;    0.000
406.540; 2459.575;  155.050;    0.000
406.596; 2414.575;  182.050;    0.000
406.651; 2549.575;  200.050;    0.000
406.707; 2443.575;  130.050;    0.000
406.763; 2485.575;  174.050;    0.000
406.818; 2498.575;  151.050;    0.000
406.874; 2527.575;  122.050;    0.000
406.929; 2621.575;  153.050;    0.000
406.985; 2524.575;  198.050;    0.000
407.040; 2569.575;  174.050;    0.000
407.095; 2553.575;  161.050;    0.000
407.151; 2582.575;  184.050;    0.000
407.206; 2665.575;  188.050;    0.000
407.262; 2634.575;  180.050;    0.000
407.317; 2651.575;  186.050;    0.000
407.373; 2705.575;  200.050;    0.000
407.428; 2663.575;  211.050;    0.000
407.484; 2661.575;  193.050;    0.000
407.539; 2621.575;  167.050;    0.000
407.594; 2664.575;  178.050;    0.000
407.650; 2611.575;  171.050;    0.000
407.705; 2638.575;  153.050;    0.000
407.760; 2661.575;  196.050;    0.000
407.816; 2687.575;  205.050;    0.000
407.871; 2648.575;  232.050;    0.000
407.926; 2680.575;  215.050;    0.000
407.982; 2567.575;  154.050;    0.000
408.037; 2643.575;  217.050;    0.000
408.092; 2604.575;  190.050;    0.000
408.148; 2644.575;  181.050;    0.000
408.203; 2594.575;  203.050;    0.000
408.258; 2594.575;  154.050;    0.000
408.314; 2740.575;  198.050;    0.000
408.369; 2630.575;  156.050;    0.000
408.424; 2664.575;  216.050;    0.000
408.479; 2607.575;  191.050;    0.000
408.534; 2605.575;  200.050;    0.000
408.590; 2636.575;  182.050;    0.000
408.645; 2613.575;  141.050;    0.000
408.700; 2662.575;  209.050;    0.000
408.755; 2672.575;  205.050;    0.000
408.810; 2583.575;  171.050;    0.000
408.866; 2602.575;  200.050;    0.000
408.921; 2495.575;  188.050;    0.000
408.976; 2565.575;  156.050;    0.000
409.031; 2648.575;  164.050;    0.000
409.086; 2630.575;  155.050;    0.000
409.141; 2641.575;  205.050;    0.000
409.196; 2576.575;  173.050;    0.000
409.252; 2567.575;  179.050;    0.000
409.307; 2500.575;  131.050;    0.000
409.362; 2575.575;  173.050;    0.000
409.417; 2481.575;  120.050;    0.000
409.472; 2614.575;  198.050;    0.000
409.527; 2588.575;  153.050;    0.000
409.582; 2552.575;  177.050;    0.000
409.637; 2618.575;  184.050;    0.000
409.692; 2615.575;  203.050;    0.000
409.747; 2607.575;  158.050;    0.000
409.802; 2600.575;  212.050;    0.000
409.857; 2574.575;  192.050;    0.000
409.912; 2647.575;  179.050;    0.000
409.967; 2584.575;  177.050;    0.000
410.022; 2578.575;  204.050;    0.000
410.077; 2580.575;  175.050;    0.000
410.132; 2571.575;  207.050;    0.000
410.187; 2618.575;  169.050;    0.000
410.242; 2634.575;  186.050;    0.000
410.297; 2497.575;  185.050;    0.000
410.351; 2568.575;  191.050;    0.000
410.406; 2620.575;  215.050;    0.000
410.461; 2613.575;  190.050;    0.000
410.516; 2593.575;  172.050;    0.000
410.571; 2607.575;  190.050;    0.000
410.626; 2562.575;  189.050;    0.000
410.681; 2690.575;  191.050;    0.000
410.736; 2575.575;  166.050;    0.000
410.790; 2597.575;  179.050;    0.000
410.845; 2580.575;  196.050;    0.000
410.900; 2611.575;  168.050;    0.000
410.955; 2507.575;  173.050;    0.000
411.010; 2622.575;  162.050;    0.000
411.064; 2557.575;  205.050;    0.000
411.119; 2524.575;  203.050;    0.000
411.174; 2640.575;  207.050;    0.000
411.229; 2716.575;  218.050;    0.000
411.283; 2671.575;  218.050;    0.000
411.338; 2527.575;  180.050;    0.000
411.393; 2668.575;  191.050;    0.000
411.447; 2646.575;  207.050;    0.000
411.502; 2682.575;  204.050;    0.000
411.557; 2654.575;  208.050;    0.000
411.612; 2626.575;  191.050;    0.000
411.666; 2588.575;  233.050;    0.000
411.721; 2613.575;  193.050;    0.000
411.776; 2543.575;  195.050;    0.000
411.830; 2635.575;  229.050;    0.000
411.885; 2651.575;  181.050;    0.000
411.939; 2720.575;  214.050;    0.000
411.994; 2611.575;  140.050;    0.000
412.049; 2654.575;  205.050;    0.000
412.103; 2688.575;  232.050;    0.000
412.158; 2710.575;  228.050;    0.000
412.212; 2642.575;  204.050;    0.000
412.267; 2618.575;  203.050;    0.000
412.322; 2731.575;  212.050;    0.000
412.376; 2542.575;  195.050;    0.000
412.431; 2609.575;  197.050;    0.000
412.485; 2627.575;  235.050;    0.000
412.540; 2615.575;  197.050;    0.000
412.594; 2560.575;  199.050;    0.000
412.649; 2697.575;  195.050;    0.000
412.703; 2573.575;  214.050;    0.000
412.758; 2678.575;  213.050;    0.000
412.812; 2636.575;  154.050;    0.000
412.866; 2542.575;  159.050;    0.000
412.921; 2611.575;  207.050;    0.000
412.975; 2617.575;  194.050;    0.000
413.030; 2599.575;  214.050;    0.000
413.084; 2514.575;  174.050;    0.000
413.139; 2659.575;  211.050;    0.000
413.193; 2512.575;  223.050;    0.000
413.247; 2577.575;  198.050;    0.000
413.302; 2556.575;  184.050;    0.000
413.356; 2589.575;  194.050;    0.000
413.410; 2620.575;  219.050;    0.000
413.465; 2606.575;  209.050;    0.000
413.519; 2561.575;  178.050;    0.000
413.573; 2616.575;  189.050;    0.000
413.628; 2723.575;  184.050;    0.000
413.682; 2540.575;  189.050;    0.000
413.736; 2549.575;  196.050;    0.000
413.791; 2645.575;  208.050;    0.000
413.845; 2598.575;  206.050;    0.000
413.899; 2578.575;  193.050;    0.000
413.953; 2594.575;  176.050;    0.000
414.008; 2573.575;  163.050;    0.000
414.062; 2571.575;  195.050;    0.000
414.116; 2621.575;  176.050;    0.000
414.170; 2573.575;  218.050;    0.000
414.225; 2549.575;  183.050;    0.000
414.279; 2549.575;  191.050;    0.000
414.333; 2602.575;  215.050;    0.000
414.387; 2627.575;  187.050;    0.000
414.441; 2699.575;  182.050;    0.000
414.496; 2607.575;  205.050;    0.000
414.550; 2601.575;  203.050;    0.000
414.604; 2645.575;  223.050;    0.000
414.658; 2526.575;  159.050;    0.000
414.712; 2652.575;  194.050;    0.000
414.766; 2648.575;  232.050;    0.000
414.820; 2641.575;  235.050;    0.000
414.874; 2545.575;  169.050;    0.000
414.928; 2625.575;  207.050;    0.000
414.982; 2686.575;  174.050;    0.000
415.037; 2582.575;  173.050;    0.000
415.091; 2571.575;  219.050;    0.000
415.145; 2595.575;  174.050;    0.000
415.199; 2583.575;  207.050;    0.000
415.253; 2573.575;  228.050;    0.000
415.307; 2551.575;  182.050;    0.000
415.361; 2588.575;  219.050;    0.000
415.415; 2582.575;  218.050;    0.000
415.469; 2728.575;  233.050;    0.000
415.523; 2695.575;  203.050;    0.000
415.577; 2514.575;  186.050;    0.000
415.631; 2634.575;  215.050;    0.000
415.684; 2629.575;  212.050;    0.000
415.738; 2606.575;  206.050;    0.000
415.792; 2618.575;  219.050;    0.000
415.846; 2613.575;  208.050;    0.000
415.900; 2561.575;  203.050;    0.000
415.954; 2633.575;  237.050;    0.000
416.008; 2667.575;  242.050;    0.000
416.062; 2561.575;  197.050;    0.000
416.116; 2565.575;  189.050;    0.000
416.169; 2603.575;  199.050;    0.000
416.223; 2479.575;  230.050;    0.000
416.277; 2678.575;  226.050;    0.000
416.331; 2581.575;  254.050;    0.000
416.385; 2601.575;  204.050;    0.000
416.439; 2578.575;  201.050;    0.000
416.492; 2544.575;  238.050;    0.000
416.546; 2651.575;  234.050;    0.000
416.600; 2623.575;  244.050;    0.000
416.654; 2627.575;  233.050;    0.000
416.707; 2607.575;  214.050;    0.000
416.761; 2636.575;  214.050;    0.000
416.815; 2602.575;  192.050;    0.000
416.869; 2614.575;  225.050;    0.000
416.922; 2564.575;  214.050;    0.000
416.976; 2668.575;  206.050;    0.000
417.030; 2620.575;  226.050;    0.000
417.083; 2555.575;  207.050;    0.000
417.137; 2647.575;  236.050;    0.000
417.191; 2578.575;  208.050;    0.000
417.244; 2616.575;  260.050;    0.000
417.298; 2600.575;  222.050;    0.000
417.352; 2536.575;  191.050;    0.000
417.405; 2578.575;  229.050;    0.000
417.459; 2699.575;  249.050;    0.000
417.512; 2650.575;  259.050;    0.000
417.566; 2618.575;  220.050;    0.000
417.620; 2576.575;  229.050;    0.000
417.673; 2517.575;  190.050;    0.000
417.727; 2534.575;  204.050;    0.000
417.780; 2613.575;  223.050;    0.000
417.834; 2619.575;  213.050;    0.000
417.887; 2584.575;  238.050;    0.000
417.941; 2591.575;  244.050;    0.000
417.994; 2557.575;  247.050;    0.000
418.048; 2629.575;  225.050;    0.000
418.101; 2520.575;  210.050;    0.000
418.155; 2622.575;  224.050;    0.000
418.208; 2638.575;  229.050;    0.000
418.262; 2651.575;  255.050;    0.000
418.315; 2587.575;  248.050;    0.000
418.369; 2570.575;  212.050;    0.000
418.422; 2579.575;  241.050;    0.000
418.476; 2607.575;  220.050;    0.000
418.529; 2650.575;  257.050;    0.000
418.582; 2570.575;  203.050;    0.000
418.636; 2575.575;  221.050;    0.000
418.689; 2562.575;  202.050;    0.000
418.743; 2592.575;  227.050;    0.000
418.796; 2599.575;  226.050;    0.000
418.849; 2579.575;  199.050;    0.000
418.903; 2508.575;  234.050;    0.000
418.956; 2613.575;  236.050;    0.000
419.009; 2594.575;  305.050;    0.000
419.063; 2578.575;  216.050;    0.000
419.116; 2566.575;  245.050;    0.000
419.169; 2586.575;  208.050;    0.000
419.222; 2589.575;  233.050;    0.000
419.276; 2631.575;  244.050;    0.000
419.329; 2643.575;  197.050;    0.000
419.382; 2639.575;  222.050;    0.000
419.435; 2531.575;  199.050;    0.000
419.489; 2525.575;  226.050;    0.000
419.542; 2588.575;  223.050;    0.000
419.595; 2564.575;  204.050;    0.000
419.648; 2572.575;  234.050;    0.000
419.701; 2556.575;  211.050;    0.000
419.755; 2557.575;  184.050;    0.000
419.808; 2564.575;  223.050;    0.000
419.861; 2556.575;  197.050;    0.000
419.914; 2602.575;  258.050;    0.000
419.967; 2496.575;  205.050;    0.000
420.020; 2505.575;  195.050;    0.000
420.073; 2596.575;  191.050;    0.000
420.127; 2690.575;  256.050;    0.000
420.180; 2481.575;  232.050;    0.000
420.233; 2538.575;  200.050;    0.000
420.286; 2487.575;  207.050;    0.000
420.339; 2500.575;  223.050;    0.000
420.392; 2511.575;  243.050;    0.000
420.445; 2489.575;  195.050;    0.000
420.498; 2545.575;  239.050;    0.000
420.551; 2410.575;  201.050;    0.000
420.604; 2500.575;  245.050;    0.000
420.657; 2454.575;  221.050;    0.000
420.710; 2571.575;  223.050;    0.000
420.763; 2515.575;  241.050;    0.000
420.816; 2477.575;  198.050;    0.000
420.869; 2436.575;  210.050;    0.000
420.922; 2413.575;  206.050;    0.000
420.975; 2552.575;  239.050;    0.000
421.028; 2460.575;  248.050;    0.000
421.081; 2487.575;  236.050;    0.000
421.134; 2476.575;  208.050;    0.000
421.187; 2497.575;  216.050;    0.000
421.239; 2478.575;  199.050;    0.000
421.292; 2486.575;  255.050;    0.000
421.345; 2408.575;  241.050;    0.000
421.398; 2530.575;  221.050;    0.000
421.451; 2509.575;  237.050;    0.000
421.504; 2509.575;  225.050;    0.000
421.557; 2453.575;  213.050;    0.000
421.609; 2382.575;  178.050;    0.000
421.662; 2429.575;  206.050;    0.000
421.715; 2517.575;  212.050;    0.000
421.768; 2417.575;  236.050;    0.000
421.821; 2455.575;  228.050;    0.000
421.873; 2533.575;  200.050;    0.000
421.926; 2399.575;  226.050;    0.000
421.979; 2455.575;  221.050;    0.000
422.032; 2363.575;  219.050;    0.000
422.084; 2502.575;  253.050;    0.000
422.137; 2369.575;  195.050;    0.000
422.190; 2372.575;  192.050;    0.000
422.243; 2406.575;  236.050;    0.000
422.295; 2404.575;  205.050;    0.000
422.348; 2353.575;  198.050;    0.000
422.401; 2457.575;  245.050;    0.000
422.453; 2434.575;  241.050;    0.000
422.506; 2461.575;  255.050;    0.000
422.559; 2420.575;  188.050;    0.000
422.611; 2507.575;  236.050;    0.000
422.664; 2465.575;  218.050;    0.000
422.716; 2587.575;  210.050;    0.000
422.769; 2439.575;  209.050;    0.000
422.822; 2468.575;  213.050;    0.000
422.874; 2384.575;  227.050;    0.000
422.927; 2491.575;  272.050;    0.000
422.979; 2430.575;  204.050;    0.000
423.032; 2432.575;  210.050;    0.000
423.084; 2342.575;  236.050;    0.000
423.137; 2384.575;  223.050;    0.000
423.189; 2374.575;  253.050;    0.000
423.242; 2353.575;  185.050;    0.000
423.294; 2394.575;  232.050;    0.000
423.347; 2455.575;  213.050;    0.000
423.399; 2408.575;  227.050;    0.000
423.452; 2505.575;  236.050;    0.000
423.504; 2357.575;  232.050;    0.000
423.557; 2359.575;  195.050;    0.000
423.609; 2322.575;  238.050;    0.000
423.662; 2376.575;  207.050;    0.000
423.714; 2413.575;  231.050;    0.000
423.766; 2385.575;  211.050;    0.000
423.819; 2364.575;  207.050;    0.000
423.871; 2327.575;  228.050;    0.000
423.923; 2340.575;  223.050;    0.000
423.976; 2261.575;  217.050;    0.000
424.028; 2383.575;  231.050;    0.000
424.081; 2344.575;  219.050;    0.000
424.133; 2410.575;  255.050;    0.000
424.185; 2356.575;  199.050;    0.000
424.238; 2341.575;  238.050;    0.000
424.290; 2338.575;  209.050;    0.000
424.342; 2334.575;  213.050;    0.000
424.394; 2367.575;  215.050;    0.000
424.447; 2298.575;  265.050;    0.000
424.499; 2329.575;  238.050;    0.000
424.551; 2409.575;  256.050;    0.000
424.603; 2323.575;  222.050;    0.000
424.656; 2310.575;  227.050;    0.000
424.708; 2339.575;  250.050;    0.000
424.760; 2339.575;  228.050;    0.000
424.812; 2309.575;  249.050;    0.000
424.864; 2314.575;  222.050;    0.000
424.917; 2319.575;  235.050;    0.000
424.969; 2388.575;  266.050;    0.000
425.021; 2310.575;  233.050;    0.000
425.073; 2357.575;  194.050;    0.000
425.125; 2341.575;  256.050;    0.000
425.177; 2272.575;  225.050;    0.000
425.229; 2432.575;  242.050;    0.000
425.282; 2347.575;  236.050;    0.000
425.334; 2283.575;  250.050;    0.000
425.386; 2249.575;  231.050;    0.000
425.438; 2296.575;  216.050;    0.000
425.490; 2238.575;  240.050;    0.000
425.542; 2298.575;  231.050;    0.000
425.594; 2284.575;  206.050;    0.000
425.646; 2227.575;  201.050;    0.000
425.698; 2306.575;  193.050;    0.000
425.750; 2349.575;  241.050;    0.000
425.802; 2279.575;  199.050;    0.000
425.854; 2262.575;  216.050;    0.000
425.906; 2300.575;  220.050;    0.000
425.958; 2315.575;  200.050;    0.000
426.010; 2241.575;  214.050;    0.000
426.062; 2236.575;  245.050;    0.000
426.114; 2305.575;  241.050;    0.000
426.166; 2308.575;  241.050;    0.000
426.218; 2302.575;  255.050;    0.000
426.270; 2305.575;  228.050;    0.000
426.321; 2230.575;  222.050;    0.000
426.373; 2285.575;  218.050;    0.000
426.425; 2258.575;  258.050;    0.000
426.477; 2283.575;  225.050;    0.000
426.529; 2277.575;  223.050;    0.000
426.581; 2215.575;  198.050;    0.000
426.633; 2293.575;  228.050;    0.000
426.684; 2239.575;  210.050;    0.000
426.736; 2288.575;  208.050;    0.000
426.788; 2249.575;  231.050;    0.000
426.840; 2176.575;  212.050;    0.000
426.892; 2305.575;  221.050;    0.000
426.943; 2196.575;  240.050;    0.000
426.995; 2212.575;  243.050;    0.000
427.047; 2297.575;  231.050;    0.000
427.099; 2228.575;  189.050;    0.000
427.150; 2187.575;  212.050;    0.000
427.202; 2160.575;  219.050;    0.000
427.254; 2158.575;  203.050;    0.000
427.306; 2233.575;  217.050;    0.000
427.357; 2290.575;  232.050;    0.000
427.409; 2184.575;  251.050;    0.000
427.461; 2190.575;  185.050;    0.000
427.512; 2219.575;  239.050;    0.000
427.564; 2287.575;  208.050;    0.000
427.616; 2245.575;  233.050;    0.000
427.667; 2248.575;  223.050;    0.000
427.719; 2201.575;  206.050;    0.000
427.770; 2142.575;  195.050;    0.000
427.822; 2282.575;  223.050;    0.000
427.874; 2131.575;  232.050;    0.000
427.925; 2176.575;  209.050;    0.000
427.977; 2235.575;  208.050;    0.000
428.028; 2197.575;  187.050;    0.000
428.080; 2177.575;  209.050;    0.000
428.131; 2256.575;  237.050;    0.000
428.183; 2204.575;  200.050;    0.000
428.234; 2152.575;  215.050;    0.000
428.286; 2135.575;  229.050;    0.000
428.337; 2173.575;  206.050;    0.000
428.389; 2190.575;  216.050;    0.000
428.440; 2254.575;  287.050;    0.000
428.492; 2126.575;  269.050;    0.000
428.543; 2174.575;  234.050;    0.000
428.595; 2195.575;  214.050;    0.000
428.646; 2249.575;  229.050;    0.000
428.697; 2171.575;  249.050;    0.000
428.749; 2135.575;  250.050;    0.000
428.800; 2127.575;  242.050;    0.000
428.852; 2210.575;  232.050;    0.000
428.903; 2183.575;  196.050;    0.000
428.954; 2126.575;  226.050;    0.000
429.006; 2114.575;  232.050;    0.000
429.057; 2130.575;  188.050;    0.000
429.108; 2149.575;  237.050;    0.000
429.160; 2118.575;  221.050;    0.000
429.211; 2137.575;  222.050;    0.000
429.262; 2067.575;  215.050;    0.000
429.314; 2145.575;  225.050;    0.000
429.365; 2189.575;  220.050;    0.000
429.416; 2155.575;  242.050;    0.000
429.467; 2149.575;  220.050;    0.000
429.519; 2110.575;  217.050;    0.000
429.570; 2145.575;  248.050;    0.000
429.621; 2071.575;  233.050;    0.000
429.672; 2064.575;  220.050;    0.000
429.724; 2109.575;  179.050;    0.000
429.775; 2123.575;  218.050;    0.000
429.826; 2121.575;  197.050;    0.000
429.877; 2116.575;  206.050;    0.000
429.928; 2094.575;  229.050;    0.000
429.980; 2053.575;  207.050;    0.000
430.031; 2108.575;  264.050;    0.000
430.082; 2057.575;  210.050;    0.000
430.133; 2028.575;  218.050;    0.000
430.184; 2189.575;  246.050;    0.000
430.235; 2143.575;  201.050;    0.000
430.286; 2040.575;  207.050;    0.000
430.337; 2055.575;  224.050;    0.000
430.388; 2050.575;  216.050;    0.000
430.439; 2063.575;  210.050;    0.000
430.490; 2008.575;  208.050;    0.000
430.542; 2020.575;  211.050;    0.000
430.593; 2080.575;  203.050;    0.000
430.644; 2075.575;  235.050;    0.000
430.695; 2066.575;  200.050;    0.000
430.746; 2166.575;  215.050;    0.000
430.797; 2102.575;  235.050;    0.000
430.848; 2100.575;  197.050;    0.000
430.898; 2076.575;  209.050;    0.000
430.949; 1989.575;  231.050;    0.000
431.000; 2129.575;  227.050;    0.000
431.051; 2125.575;  225.050;    0.000
431.102; 2072.575;  180.050;    0.000
431.153; 2072.575;  248.050;    0.000
431.204; 2055.575;  185.050;    0.000
431.255; 2089.575;  199.050;    0.000
431.306; 2045.575;  228.050;    0.000
431.357; 2070.575;  237.050;    0.000
431.408; 2016.575;  223.050;    0.000
431.458; 2070.575;  240.050;    0.000
431.509; 2001.575;  207.050;    0.000
431.560; 2071.575;  219.050;    0.000
431.611; 2071.575;  206.050;    0.000
431.662; 2166.575;  253.050;    0.000
431.713; 2003.575;  199.050;    0.000
431.763; 2119.575;  197.050;    0.000
431.814; 2082.575;  205.050;    0.000
431.865; 2026.575;  218.050;    0.000
431.916; 2177.575;  202.050;    0.000
431.966; 2086.575;  203.050;    0.000
432.017; 2098.575;  244.050;    0.000
432.068; 2131.575;  246.050;    0.000
432.118; 2129.575;  212.050;    0.000
432.169; 2125.575;  214.050;    0.000
432.220; 2137.575;  241.050;    0.000
432.271; 2077.575;  237.050;    0.000
432.321; 2138.575;  246.050;    0.000
432.372; 2061.575;  257.050;    0.000
432.423; 2169.575;  198.050;    0.000
432.473; 2089.575;  202.050;    0.000
432.524; 2113.575;  242.050;    0.000
432.574; 2075.575;  202.050;    0.000
432.625; 2087.575;  212.050;    0.000
432.676; 2039.575;  242.050;    0.000
432.726; 2097.575;  268.050;    0.000
432.777; 1967.575;  228.050;    0.000
432.827; 2068.575;  230.050;    0.000
432.878; 2024.575;  221.050;    0.000
432.928; 2032.575;  218.050;    0.000
432.979; 2065.575;  243.050;    0.000
433.029; 2054.575;  217.050;    0.000
433.080; 1992.575;  208.050;    0.000
433.130; 2064.575;  236.050;    0.000
433.181; 2114.575;  282.050;    0.000
433.231; 2063.575;  257.050;    0.000
433.282; 2147.575;  268.050;    0.000
433.332; 2114.575;  241.050;    0.000
433.383; 2024.575;  271.050;    0.000
433.433; 2039.575;  262.050;    0.000
433.484; 2072.575;  266.050;    0.000
433.534; 2032.575;  217.050;    0.000
433.585; 2055.575;  230.050;    0.000
433.635; 2064.575;  245.050;    0.000
433.685; 2094.575;  250.050;    0.000
433.736; 2034.575;  308.050;    0.000
433.786; 2062.575;  242.050;    0.000
433.836; 2114.575;  256.050;    0.000
433.887; 2132.575;  250.050;    0.000
433.937; 1987.575;  250.050;    0.000
433.987; 2001.575;  219.050;    0.000
434.038; 2075.575;  248.050;    0.000
434.088; 2041.575;  231.050;    0.000
434.138; 2034.575;  266.050;    0.000
434.189; 2068.575;  240.050;    0.000
434.239; 2129.575;  245.050;    0.000
434.289; 2104.575;  285.050;    0.000
434.339; 2067.575;  255.050;    0.000
434.389; 2119.575;  242.050;    0.000
434.440; 2096.575;  273.050;    0.000
434.490; 2043.575;  272.050;    0.000
434.540; 2100.575;  264.050;    0.000
434.590; 2126.575;  233.050;    0.000
434.640; 2064.575;  244.050;    0.000
434.691; 2168.575;  226.050;    0.000
434.741; 2084.575;  253.050;    0.000
434.791; 2062.575;  269.050;    0.000
434.841; 2085.575;  252.050;    0.000
434.891; 2054.575;  281.050;    0.000
434.941; 2212.575;  296.050;    0.000
434.991; 2162.575;  264.050;    0.000
435.042; 2117.575;  262.050;    0.000
435.092; 2079.575;  237.050;    0.000
435.142; 2075.575;  232.050;    0.000
435.192; 2122.575;  251.050;    0.000
435.242; 2083.575;  251.050;    0.000
435.292; 2035.575;  246.050;    0.000
435.342; 2084.575;  236.050;    0.000
435.392; 2026.575;  273.050;    0.000
435.442; 1943.575;  273.050;    0.000
435.492; 2126.575;  273.050;    0.000
435.542; 2068.575;  242.050;    0.000
435.592; 2012.575;  213.050;    0.000
435.642; 2039.575;  248.050;    0.000
435.692; 2034.575;  242.050;    0.000
435.742; 2035.575;  222.050;    0.000
435.792; 2048.575;  260.050;    0.000
435.842; 1962.575;  266.050;    0.000
435.891; 1990.575;  227.050;    0.000
435.941; 2057.575;  228.050;    0.000
435.991; 2010.575;  282.050;    0.000
436.041; 1986.575;  231.050;    0.000
436.091; 2011.575;  250.050;    0.000
436.141; 1939.575;  221.050;    0.000
436.191; 1987.575;  223.050;    0.000
436.241; 2021.575;  250.050;    0.000
436.290; 2039.575;  243.050;    0.000
436.340; 2008.575;  236.050;    0.000
436.390; 2052.575;  260.050;    0.000
436.440; 1926.575;  253.050;    0.000
436.490; 2017.575;  236.050;    0.000
436.539; 1980.575;  249.050;    0.000
436.589; 2046.575;  231.050;    0.000
436.639; 1886.575;  237.050;    0.000
436.689; 1951.575;  222.050;    0.000
436.738; 2017.575;  263.050;    0.000
436.788; 1990.575;  230.050;    0.000
436.838; 1971.575;  281.050;    0.000
436.887; 1999.575;  230.050;    0.000
436.937; 1908.575;  250.050;    0.000
436.987; 1901.575;  251.050;    0.000
437.036; 1973.575;  238.050;    0.000
437.086; 1940.575;  234.050;    0.000
437.136; 1940.575;  250.050;    0.000
437.185; 1990.575;  228.050;    0.000
437.235; 1957.575;  309.050;    0.000
437.285; 1913.575;  246.050;    0.000
437.334; 1942.575;  262.050;    0.000
437.384; 1928.575;  228.050;    0.000
437.433; 1979.575;  241.050;    0.000
437.483; 1933.575;  220.050;    0.000
437.532; 1877.575;  252.050;    0.000
437.582; 1925.575;  270.050;    0.000
437.631; 1976.575;  251.050;    0.000
437.681; 1896.575;  284.050;    0.000
437.730; 1859.575;  239.050;    0.000
437.780; 1823.575;  221.050;    0.000
437.829; 2011.575;  254.050;    0.000
437.879; 1868.575;  221.050;    0.000
437.928; 1900.575;  205.050;    0.000
437.978; 1958.575;  223.050;    0.000
438.027; 1926.575;  262.050;    0.000
438.077; 1930.575;  280.050;    0.000
438.126; 1886.575;  254.050;    0.000
438.176; 1888.575;  230.050;    0.000
438.225; 1861.575;  227.050;    0.000
438.274; 1815.575;  264.050;    0.000
438.324; 1877.575;  233.050;    0.000
438.373; 1981.575;  238.050;    0.000
438.422; 1840.575;  260.050;    0.000
438.472; 1861.575;  223.050;    0.000
438.521; 1914.575;  213.050;    0.000
438.570; 1895.575;  236.050;    0.000
438.620; 1977.575;  282.050;    0.000
438.669; 1890.575;  209.050;    0.000
438.718; 1929.575;  245.050;    0.000
438.768; 1849.575;  238.050;    0.000
438.817; 1950.575;  259.050;    0.000
438.866; 1823.575;  232.050;    0.000
438.915; 1959.575;  288.050;    0.000
438.965; 1903.575;  228.050;    0.000
439.014; 1931.575;  246.050;    0.000
439.063; 1909.575;  287.050;    0.000
439.112; 1858.575;  217.050;    0.000
439.162; 1914.575;  275.050;    0.000
439.211; 1932.575;  287.050;    0.000
439.260; 1854.575;  238.050;    0.000
439.309; 1935.575;  225.050;    0.000
439.358; 1921.575;  248.050;    0.000
439.407; 1869.575;  237.050;    0.000
439.456; 1840.575;  223.050;    0.000
439.506; 1859.575;  266.050;    0.000
439.555; 1956.575;  260.050;    0.000
439.604; 1915.575;  233.050;    0.000
439.653; 1887.575;  242.050;    0.000
439.702; 1888.575;  255.050;    0.000
439.751; 1880.575;  202.050;    0.000
439.800; 1878.575;  247.050;    0.000
439.849; 1876.575;  250.050;    0.000
439.898; 1932.575;  216.050;    0.000
439.947; 1942.575;  231.050;    0.000
439.996; 1922.575;  272.050;    0.000
440.045; 1909.575;  217.050;    0.000
440.094; 1864.575;  220.050;    0.000
440.143; 1982.575;  245.050;    0.000
440.192; 1961.575;  267.050;    0.000
440.241; 1925.575;  263.050;    0.000
440.290; 1949.575;  246.050;    0.000
440.339; 1892.575;  225.050;    0.000
440.388; 1937.575;  256.050;    0.000
440.437; 1873.575;  253.050;    0.000
440.486; 1879.575;  249.050;    0.000
440.535; 1879.575;  232.050;    0.000
440.583; 1970.575;  220.050;    0.000
440.632; 1917.575;  239.050;    0.000
440.681; 1903.575;  236.050;    0.000
440.730; 1952.575;  282.050;    0.000
440.779; 1932.575;  245.050;    0.000
440.828; 1923.575;  213.050;    0.000
440.876; 1921.575;  231.050;    0.000
440.925; 1972.575;  271.050;    0.000
440.974; 1940.575;  240.050;    0.000
441.023; 1976.575;  214.050;    0.000
441.072; 1906.575;  236.050;    0.000
441.120; 1941.575;  271.050;    0.000
441.169; 1970.575;  281.050;    0.000
441.218; 2020.575;  255.050;    0.000
441.267; 2000.575;  272.050;    0.000
441.315; 1905.575;  229.050;    0.000
441.364; 1995.575;  241.050;    0.000
441.413; 1969.575;  224.050;    0.000
441.461; 1956.575;  241.050;    0.000
441.510; 2040.575;  289.050;    0.000
441.559; 2071.575;  222.050;    0.000
441.607; 2034.575;  242.050;    0.000
441.656; 1991.575;  255.050;    0.000
441.705; 2010.575;  260.050;    0.000
441.753; 2040.575;  290.050;    0.000
441.802; 1970.575;  264.050;    0.000
441.850; 2053.575;  224.050;    0.000
441.899; 1992.575;  275.050;    0.000
441.948; 1953.575;  227.050;    0.000
441.996; 1996.575;  216.050;    0.000
442.045; 2043.575;  271.050;    0.000
442.093; 1973.575;  227.050;    0.000
442.142; 1982.575;  273.050;    0.000
442.190; 1961.575;  257.050;    0.000
442.239; 1994.575;  269.050;    0.000
442.287; 1994.575;  257.050;    0.000
442.336; 2041.575;  237.050;    0.000
442.384; 2003.575;  214.050;    0.000
442.433; 1995.575;  272.050;    0.000
442.481; 2045.575;  258.050;    0.000
442.529; 1993.575;  242.050;    0.000
442.578; 2043.575;  278.050;    0.000
442.626; 2038.575;  264.050;    0.000
442.675; 1958.575;  293.050;    0.000
442.723; 1975.575;  244.050;    0.000
442.771; 1953.575;  232.050;    0.000
442.820; 1986.575;  266.050;    0.000
442.868; 1961.575;  253.050;    0.000
442.917; 2039.575;  250.050;    0.000
442.965; 2036.575;  279.050;    0.000
443.013; 1947.575;  253.050;    0.000
443.062; 1989.575;  282.050;    0.000
443.110; 2035.575;  258.050;    0.000
443.158; 1900.575;  246.050;    0.000
443.206; 1998.575;  255.050;    0.000
443.255; 2078.575;  296.050;    0.000
443.303; 2095.575;  272.050;    0.000
443.351; 1980.575;  270.050;    0.000
443.399; 2048.575;  258.050;    0.000
443.448; 2057.575;  265.050;    0.000
443.496; 2013.575;  219.050;    0.000
443.544; 2032.575;  205.050;    0.000
443.592; 2018.575;  266.050;    0.000
443.640; 1944.575;  260.050;    0.000
443.689; 1999.575;  232.050;    0.000
443.737; 2051.575;  281.050;    0.000
443.785; 2024.575;  248.050;    0.000
443.833; 2043.575;  286.050;    0.000
443.881; 1960.575;  225.050;    0.000
443.929; 2002.575;  255.050;    0.000
443.977; 1986.575;  248.050;    0.000
444.025; 1966.575;  255.050;    0.000
444.074; 2058.575;  266.050;    0.000
444.122; 2078.575;  266.050;    0.000
444.170; 2047.575;  207.050;    0.000
444.218; 2139.575;  253.050;    0.000
444.266; 2131.575;  263.050;    0.000
444.314; 2069.575;  272.050;    0.000
444.362; 2111.575;  272.050;    0.000
444.410; 2154.575;  255.050;    0.000
444.458; 2162.575;  288.050;    0.000
444.506; 2138.575;  263.050;    0.000
444.554; 2029.575;  243.050;    0.000
444.602; 2184.575;  285.050;    0.000
444.650; 2083.575;  273.050;    0.000
444.698; 2101.575;  221.050;    0.000
444.746; 2159.575;  243.050;    0.000
444.793; 2077.575;  217.050;    0.000
444.841; 2152.575;  262.050;    0.000
444.889; 2228.575;  264.050;    0.000
444.937; 2103.575;  226.050;    0.000
444.985; 2110.575;  257.050;    0.000
445.033; 2105.575;  264.050;    0.000
445.081; 2090.575;  264.050;    0.000
445.129; 2052.575;  187.050;    0.000
445.176; 2076.575;  212.050;    0.000
445.224; 2161.575;  198.050;    0.000
445.272; 2141.575;  265.050;    0.000
445.320; 2185.575;  239.050;    0.000
445.368; 2074.575;  245.050;    0.000
445.415; 2180.575;  215.050;    0.000
445.463; 2097.575;  202.050;    0.000
445.511; 2071.575;  234.050;    0.000
445.559; 2161.575;  269.050;    0.000
445.606; 2115.575;  214.050;    0.000
445.654; 2158.575;  227.050;    0.000
445.702; 2065.575;  276.050;    0.000
445.749; 2156.575;  256.050;    0.000
445.797; 2187.575;  236.050;    0.000
445.845; 2138.575;  230.050;    0.000
445.892; 2145.575;  233.050;    0.000
445.940; 2155.575;  257.050;    0.000
445.988; 2194.575;  253.050;    0.000
446.035; 2050.575;  265.050;    0.000
446.083; 2153.575;  254.050;    0.000
446.130; 2057.575;  228.050;    0.000
446.178; 2114.575;  256.050;    0.000
446.226; 2105.575;  238.050;    0.000
446.273; 2207.575;  228.050;    0.000
446.321; 2125.575;  220.050;    0.000
446.368; 2181.575;  249.050;    0.000
446.416; 2139.575;  221.050;    0.000
446.463; 2117.575;  232.050;    0.000
446.511; 2168.575;  243.050;    0.000
446.558; 2205.575;  217.050;    0.000
446.606; 2225.575;  256.050;    0.000
446.653; 2166.575;  238.050;    0.000
446.701; 2225.575;  259.050;    0.000
446.748; 2168.575;  227.050;    0.000
446.796; 2203.575;  236.050;    0.000
446.843; 2229.575;  241.050;    0.000
446.891; 2291.575;  292.050;    0.000
446.938; 2221.575;  219.050;    0.000
446.985; 2316.575;  255.050;    0.000
447.033; 2292.575;  237.050;    0.000
447.080; 2267.575;  278.050;    0.000
447.128; 2262.575;  237.050;    0.000
447.175; 2291.575;  247.050;    0.000
447.222; 2264.575;  235.050;    0.000
447.270; 2404.575;  274.050;    0.000
447.317; 2346.575;  222.050;    0.000
447.364; 2327.575;  230.050;    0.000
447.411; 2424.575;  297.050;    0.000
447.459; 2400.575;  243.050;    0.000
447.506; 2368.575;  202.050;    0.000
447.553; 2477.575;  232.050;    0.000
447.601; 2482.575;  262.050;    0.000
447.648; 2476.575;  254.050;    0.000
447.695; 2534.575;  287.050;    0.000
447.742; 2536.575;  232.050;    0.000
447.789; 2609.575;  257.050;    0.000
447.837; 2601.575;  260.050;    0.000
447.884; 2680.575;  272.050;    0.000
447.931; 2715.575;  241.050;    0.000
447.978; 2746.575;  241.050;    0.000
448.025; 2701.575;  264.050;    0.000
448.072; 2715.575;  279.050;    0.000
448.120; 2698.575;  263.050;    0.000
448.167; 2690.575;  284.050;    0.000
448.214; 2607.575;  252.050;    0.000
448.261; 2687.575;  247.050;    0.000
448.308; 2590.575;  249.050;    0.000
448.355; 2561.575;  263.050;    0.000
448.402; 2467.575;  251.050;    0.000
448.449; 2464.575;  257.050;    0.000
448.496; 2546.575;  243.050;    0.000
448.543; 2511.575;  274.050;    0.000
448.590; 2481.575;  299.050;    0.000
448.637; 2430.575;  259.050;    0.000
448.684; 2360.575;  266.050;    0.000
448.731; 2355.575;  261.050;    0.000
448.778; 2342.575;  292.050;    0.000
448.825; 2317.575;  253.050;    0.000
448.872; 2359.575;  253.050;    0.000
448.919; 2372.575;  218.050;    0.000
448.966; 2322.575;  254.050;    0.000
449.013; 2263.575;  263.050;    0.000
449.060; 2301.575;  282.050;    0.000
449.107; 2272.575;  244.050;    0.000
449.154; 2192.575;  236.050;    0.000
449.200; 2167.575;  226.050;    0.000
449.247; 2192.575;  273.050;    0.000
449.294; 2213.575;  270.050;    0.000
449.341; 2132.575;  283.050;    0.000
449.388; 2106.575;  261.050;    0.000
449.435; 2104.575;  254.050;    0.000
449.481; 2146.575;  318.050;    0.000
449.528; 2135.575;  274.050;    0.000
449.575; 2192.575;  251.050;    0.000
449.622; 2153.575;  276.050;    0.000
449.668; 2108.575;  242.050;    0.000
449.715; 2131.575;  286.050;    0.000
449.762; 2118.575;  268.050;    0.000
449.809; 2108.575;  285.050;    0.000
449.855; 2061.575;  277.050;    0.000
449.902; 2000.575;  246.050;    0.000
449.949; 2114.575;  268.050;    0.000
449.995; 2075.575;  289.050;    0.000
450.042; 2132.575;  256.050;    0.000
450.089; 2085.575;  290.050;    0.000
450.135; 2074.575;  300.050;    0.000
450.182; 2003.575;  317.050;    0.000
450.229; 2026.575;  282.050;    0.000
450.275; 2052.575;  307.050;    0.000
450.322; 2009.575;  260.050;    0.000
450.368; 2023.575;  315.050;    0.000
450.415; 2014.575;  306.050;    0.000
450.462; 2037.575;  314.050;    0.000
450.508; 2006.575;  303.050;    0.000
450.555; 2045.575;  281.050;    0.000
450.601; 1960.575;  291.050;    0.000
450.648; 2027.575;  288.050;    0.000
450.694; 1995.575;  290.050;    0.000
450.741; 1983.575;  303.050;    0.000
450.787; 1955.575;  298.050;    0.000
450.834; 1896.575;  265.050;    0.000
450.880; 1966.575;  273.050;    0.000
450.927; 1990.575;  312.050;    0.000
450.973; 1954.575;  303.050;    0.000
451.019; 1982.575;  222.050;    0.000
451.066; 1948.575;  284.050;    0.000
451.112; 1955.575;  296.050;    0.000
451.159; 1897.575;  299.050;    0.000
451.205; 1907.575;  311.050;    0.000
451.251; 1971.575;  306.050;    0.000
451.298; 1962.575;  281.050;    0.000
451.344; 1986.575;  311.050;    0.000
451.390; 1921.575;  331.050;    0.000
451.437; 1930.575;  303.050;    0.000
451.483; 1960.575;  284.050;    0.000
451.529; 1929.575;  310.050;    0.000
451.576; 1891.575;  301.050;    0.000
451.622; 1937.575;  275.050;    0.000
451.668; 1873.575;  269.050;    0.000
451.714; 1926.575;  277.050;    0.000
451.761; 1939.575;  298.050;    0.000
451.807; 1936.575;  316.050;    0.000
451.853; 2007.575;  301.050;    0.000
451.899; 1873.575;  292.050;    0.000
451.945; 1925.575;  324.050;    0.000
451.992; 1974.575;  292.050;    0.000
452.038; 1840.575;  261.050;    0.000
452.084; 1854.575;  286.050;    0.000
452.130; 1937.575;  301.050;    0.000
452.176; 1839.575;  287.050;    0.000
452.222; 1839.575;  265.050;    0.000
452.268; 1936.575;  268.050;    0.000
452.315; 1851.575;  272.050;    0.000
452.361; 1869.575;  258.050;    0.000
452.407; 1822.575;  279.050;    0.000
452.453; 1864.575;  252.050;    0.000
452.499; 1886.575;  305.050;    0.000
452.545; 1908.575;  263.050;    0.000
452.591; 1897.575;  284.050;    0.000
452.637; 1969.575;  289.050;    0.000
452.683; 1840.575;  249.050;    0.000
452.729; 1889.575;  290.050;    0.000
452.775; 1878.575;  315.050;    0.000
452.821; 1817.575;  271.050;    0.000
452.867; 1825.575;  258.050;    0.000
452.913; 1826.575;  256.050;    0.000
452.959; 1949.575;  266.050;    0.000
453.005; 1817.575;  299.050;    0.000
453.051; 1889.575;  299.050;    0.000
453.097; 1859.575;  268.050;    0.000
453.142; 1859.575;  251.050;    0.000
453.188; 1871.575;  284.050;    0.000
453.234; 1837.575;  285.050;    0.000
453.280; 1801.575;  263.050;    0.000
453.326; 1840.575;  273.050;    0.000
453.372; 1866.575;  253.050;    0.000
453.418; 1822.575;  269.050;    0.000
453.463; 1851.575;  250.050;    0.000
453.509; 1839.575;  289.050;    0.000
453.555; 1810.575;  262.050;    0.000
453.601; 1845.575;  274.050;    0.000
453.647; 1863.575;  306.050;    0.000
453.692; 1776.575;  264.050;    0.000
453.738; 1816.575;  312.050;    0.000
453.784; 1795.575;  300.050;    0.000
453.829; 1873.575;  284.050;    0.000
453.875; 1876.575;  270.050;    0.000
453.921; 1820.575;  237.050;    0.000
453.967; 1812.575;  263.050;    0.000
454.012; 1752.575;  295.050;    0.000
454.058; 1879.575;  293.050;    0.000
454.104; 1830.575;  264.050;    0.000
454.149; 1838.575;  282.050;    0.000
454.195; 1786.575;  277.050;    0.000
454.240; 1846.575;  307.050;    0.000
454.286; 1798.575;  282.050;    0.000
454.332; 1847.575;  291.050;    0.000
454.377; 1787.575;  302.050;    0.000
454.423; 1759.575;  276.050;    0.000
454.468; 1783.575;  281.050;    0.000
454.514; 1817.575;  290.050;    0.000
454.559; 1832.575;  289.050;    0.000
454.605; 1794.575;  258.050;    0.000
454.650; 1796.575;  281.050;    0.000
454.696; 1854.575;  308.050;    0.000
454.741; 1809.575;  288.050;    0.000
454.787; 1828.575;  284.050;    0.000
454.832; 1793.575;  306.050;    0.000
454.878; 1784.575;  288.050;    0.000
454.923; 1807.575;  287.050;    0.000
454.969; 1785.575;  325.050;    0.000
455.014; 1816.575;  323.050;    0.000
455.060; 1807.575;  290.050;    0.000
455.105; 1838.575;  285.050;    0.000
455.150; 1842.575;  303.050;    0.000
455.196; 1773.575;  282.050;    0.000
455.241; 1808.575;  281.050;    0.000
455.286; 1832.575;  290.050;    0.000
455.332; 1821.575;  280.050;    0.000
455.377; 1761.575;  243.050;    0.000
455.422; 1777.575;  308.050;    0.000
455.468; 1800.575;  308.050;    0.000
455.513; 1806.575;  290.050;    0.000
455.558; 1795.575;  211.050;    0.000
455.604; 1797.575;  289.050;    0.000
455.649; 1889.575;  297.050;    0.000
455.694; 1758.575;  287.050;    0.000
455.739; 1835.575;  296.050;    0.000
455.785; 1840.575;  315.050;    0.000
455.830; 1831.575;  328.050;    0.000
455.875; 1817.575;  310.050;    0.000
455.920; 1755.575;  261.050;    0.000
455.965; 1804.575;  277.050;    0.000
456.010; 1868.575;  317.050;    0.000
456.056; 1848.575;  299.050;    0.000
456.101; 1775.575;  262.050;    0.000
456.146; 1822.575;  318.050;    0.000
456.191; 1810.575;  274.050;    0.000
456.236; 1746.575;  274.050;    0.000
456.281; 1838.575;  275.050;    0.000
456.326; 1784.575;  256.050;    0.000
456.371; 1817.575;  260.050;    0.000
456.416; 1841.575;  304.050;    0.000
456.461; 1773.575;  278.050;    0.000
456.507; 1827.575;  299.050;    0.000
456.552; 1858.575;  305.050;    0.000
456.597; 1841.575;  271.050;    0.000
456.642; 1819.575;  273.050;    0.000
456.687; 1757.575;  290.050;    0.000
456.732; 1806.575;  327.050;    0.000
456.776; 1841.575;  284.050;    0.000
456.821; 1745.575;  321.050;    0.000
456.866; 1818.575;  272.050;    0.000
456.911; 1719.575;  232.050;    0.000
456.956; 1847.575;  263.050;    0.000
457.001; 1817.575;  277.050;    0.000
457.046; 1851.575;  284.050;    0.000
457.091; 1743.575;  269.050;    0.000
457.136; 1790.575;  269.050;    0.000
457.181; 1802.575;  275.050;    0.000
457.225; 1841.575;  310.050;    0.000
457.270; 1852.575;  295.050;    0.000
457.315; 1786.575;  284.050;    0.000
457.360; 1767.575;  264.050;    0.000
457.405; 1811.575;  273.050;    0.000
457.450; 1837.575;  284.050;    0.000
457.494; 1814.575;  273.050;    0.000
457.539; 1791.575;  287.050;    0.000
457.584; 1824.575;  279.050;    0.000
457.629; 1736.575;  288.050;    0.000
457.673; 1823.575;  297.050;    0.000
457.718; 1907.575;  270.050;    0.000
457.763; 1862.575;  295.050;    0.000
457.807; 1796.575;  321.050;    0.000
457.852; 1756.575;  293.050;    0.000
457.897; 1854.575;  282.050;    0.000
457.941; 1814.575;  320.050;    0.000
457.986; 1871.575;  295.050;    0.000
458.031; 1856.575;  314.050;    0.000
458.075; 1772.575;  280.050;    0.000
458.120; 1887.575;  314.050;    0.000
458.165; 1841.575;  289.050;    0.000
458.209; 1818.575;  289.050;    0.000
458.254; 1870.575;  272.050;    0.000
458.298; 1868.575;  305.050;    0.000
458.343; 1898.575;  284.050;    0.000
458.387; 1875.575;  340.050;    0.000
458.432; 1943.575;  306.050;    0.000
458.476; 1789.575;  311.050;    0.000
458.521; 1784.575;  304.050;    0.000
458.565; 1877.575;  329.050;    0.000
458.610; 1894.575;  287.050;    0.000
458.654; 1772.575;  300.050;    0.000
458.699; 1971.575;  295.050;    0.000
458.743; 1858.575;  269.050;    0.000
458.788; 1911.575;  294.050;    0.000
458.832; 1923.575;  301.050;    0.000
458.877; 1960.575;  303.050;    0.000
458.921; 1942.575;  259.050;    0.000
458.965; 1891.575;  308.050;    0.000
459.010; 1902.575;  330.050;    0.000
459.054; 1862.575;  298.050;    0.000
459.099; 1912.575;  303.050;    0.000
459.143; 2025.575;  333.050;    0.000
459.187; 1906.575;  291.050;    0.000
459.231; 1941.575;  316.050;    0.000
459.276; 1921.575;  294.050;    0.000
459.320; 1932.575;  291.050;    0.000
459.364; 1989.575;  318.050;    0.000
459.409; 1939.575;  325.050;    0.000
459.453; 1959.575;  293.050;    0.000
459.497; 1935.575;  354.050;    0.000
459.541; 1938.575;  313.050;    0.000
459.586; 1963.575;  282.050;    0.000
459.630; 1988.575;  286.050;    0.000
459.674; 1990.575;  292.050;    0.000
459.718; 1992.575;  280.050;    0.000
459.762; 2003.575;  304.050;    0.000
459.807; 1980.575;  352.050;    0.000
459.851; 2006.575;  300.050;    0.000
459.895; 1957.575;  311.050;    0.000
459.939; 2028.575;  303.050;    0.000
459.983; 1966.575;  299.050;    0.000
460.027; 1984.575;  307.050;    0.000
460.071; 2027.575;  313.050;    0.000
460.115; 1991.575;  325.050;    0.000
460.159; 2060.575;  331.050;    0.000
460.204; 2017.575;  301.050;    0.000
460.248; 2048.575;  329.050;    0.000
460.292; 2014.575;  310.050;    0.000
460.336; 2060.575;  304.050;    0.000
460.380; 2062.575;  313.050;    0.000
460.424; 2055.575;  300.050;    0.000
460.468; 2090.575;  338.050;    0.000
460.512; 2017.575;  310.050;    0.000
460.556; 2080.575;  337.050;    0.000
460.599; 2031.575;  310.050;    0.000
460.643; 1972.575;  303.050;    0.000
460.687; 1975.575;  316.050;    0.000
460.731; 1987.575;  292.050;    0.000
460.775; 2006.575;  294.050;    0.000
460.819; 1950.575;  310.050;    0.000
460.863; 1970.575;  349.050;    0.000
460.907; 1972.575;  265.050;    0.000
460.951; 2048.575;  325.050;    0.000
460.995; 2053.575;  338.050;    0.000
461.038; 2051.575;  304.050;    0.000
461.082; 2029.575;  312.050;    0.000
461.126; 2044.575;  358.050;    0.000
461.170; 2038.575;  306.050;    0.000
461.214; 2039.575;  330.050;    0.000
461.257; 2054.575;  311.050;    0.000
461.301; 2089.575;  303.050;    0.000
461.345; 2034.575;  310.050;    0.000
461.389; 2017.575;  296.050;    0.000
461.432; 2082.575;  304.050;    0.000
461.476; 2051.575;  305.050;    0.000
461.520; 2087.575;  319.050;    0.000
461.563; 2013.575;  294.050;    0.000
461.607; 2021.575;  295.050;    0.000
461.651; 2075.575;  335.050;    0.000
461.694; 2028.575;  276.050;    0.000
461.738; 2014.575;  327.050;    0.000
461.782; 2105.575;  288.050;    0.000
461.825; 2053.575;  319.050;    0.000
461.869; 2026.575;  305.050;    0.000
461.913; 2098.575;  281.050;    0.000
461.956; 2131.575;  281.050;    0.000
462.000; 2075.575;  339.050;    0.000
462.043; 2013.575;  347.050;    0.000
462.087; 2069.575;  314.050;    0.000
462.130; 2141.575;  332.050;    0.000
462.174; 2110.575;  332.050;    0.000
462.217; 2150.575;  299.050;    0.000
462.261; 2143.575;  323.050;    0.000
462.304; 2141.575;  286.050;    0.000
462.348; 2115.575;  305.050;    0.000
462.391; 2155.575;  293.050;    0.000
462.435; 2157.575;  365.050;    0.000
462.478; 2158.575;  329.050;    0.000
462.522; 2199.575;  316.050;    0.000
462.565; 2106.575;  328.050;    0.000
462.608; 2280.575;  350.050;    0.000
462.652; 2129.575;  328.050;    0.000
462.695; 2135.575;  358.050;    0.000
462.739; 2198.575;  317.050;    0.000
462.782; 2221.575;  329.050;    0.000
462.825; 2236.575;  368.050;    0.000
462.869; 2223.575;  343.050;    0.000
462.912; 2226.575;  404.050;    0.000
462.955; 2137.575;  328.050;    0.000
462.998; 2231.575;  340.050;    0.000
463.042; 2202.575;  361.050;    0.000
463.085; 2246.575;  337.050;    0.000
463.128; 2251.575;  373.050;    0.000
463.172; 2095.575;  347.050;    0.000
463.215;  390.575;  305.050;    0.000
463.258;  343.575;  324.050;    0.000
463.301;  309.575;  296.050;    0.000
463.344;  324.575;  332.050;    0.000
463.388;  320.575;  309.050;    0.000
463.431;  305.575;  298.050;    0.000
463.474;  320.575;  351.050;    0.000
463.517;  279.575;  319.050;    0.000
463.560;  354.575;  325.050;    0.000
463.603;  322.575;  330.050;    0.000
463.646;  321.575;  332.050;    0.000
463.690;  338.575;  325.050;    0.000
463.733;  332.575;  323.050;    0.000
463.776;  283.575;  276.050;    0.000
463.819;  353.575;  320.050;    0.000
463.862;  315.575;  275.050;    0.000

