
Integration time [ms]:   0.300
Averaging Nr. [scans]: 1
Smoothing Nr. [pixels]: 0
Data measured with spectrometer [name]: UV2
Wave   ;Sample   ;Dark     ;Reference
[nm]   ;[counts] ;[counts] ;[counts] 

353.533;  245.700;  178.050;    0.000
353.597;  206.700;  251.050;    0.000
353.660;  194.700;  213.050;    0.000
353.723;  201.700;  185.050;    0.000
353.786;  204.700;  191.050;    0.000
353.850;  244.700;  238.050;    0.000
353.913;  184.700;  181.050;    0.000
353.976;  238.700;  190.050;    0.000
354.039;  196.700;  184.050;    0.000
354.102;  217.700;  231.050;    0.000
354.166;  237.700;  188.050;    0.000
354.229;  231.700;  224.050;    0.000
354.292;  196.700;  186.050;    0.000
354.355;  171.700;  175.050;    0.000
354.418;  200.700;  191.050;    0.000
354.481;  176.700;  181.050;    0.000
354.545;  757.700;  193.050;    0.000
354.608;  777.700;  210.050;    0.000
354.671;  797.700;  183.050;    0.000
354.734;  771.700;  189.050;    0.000
354.797;  829.700;  168.050;    0.000
354.860;  790.700;  178.050;    0.000
354.923;  790.700;  236.050;    0.000
354.986;  848.700;  181.050;    0.000
355.050;  813.700;  168.050;    0.000
355.113;  834.700;  201.050;    0.000
355.176;  912.700;  206.050;    0.000
355.239;  868.700;  213.050;    0.000
355.302;  871.700;  198.050;    0.000
355.365;  944.700;  199.050;    0.000
355.428;  922.700;  200.050;    0.000
355.491;  995.700;  232.050;    0.000
355.554;  945.700;  184.050;    0.000
355.617;  969.700;  214.050;    0.000
355.680;  931.700;  191.050;    0.000
355.743; 1044.700;  161.050;    0.000
355.806;  973.700;  153.050;    0.000
355.869; 1042.700;  221.050;    0.000
355.932;  944.700;  152.050;    0.000
355.995;  987.700;  195.050;    0.000
356.058; 1039.700;  172.050;    0.000
356.121; 1068.700;  186.050;    0.000
356.184; 1026.700;  196.050;    0.000
356.247; 1049.700;  183.050;    0.000
356.310; 1047.700;  159.050;    0.000
356.373; 1095.700;  183.050;    0.000
356.436; 1061.700;  176.050;    0.000
356.498; 1074.700;  191.050;    0.000
356.561;  994.700;  145.050;    0.000
356.624; 1059.700;  187.050;    0.000
356.687; 1127.700;  181.050;    0.000
356.750; 1086.700;  227.050;    0.000
356.813; 1136.700;  147.050;    0.000
356.876; 1090.700;  184.050;    0.000
356.939; 1107.700;  141.050;    0.000
357.001; 1097.700;  188.050;    0.000
357.064; 1050.700;  173.050;    0.000
357.127; 1095.700;  159.050;    0.000
357.190; 1106.700;  185.050;    0.000
357.253; 1071.700;  180.050;    0.000
357.316; 1118.700;  199.050;    0.000
357.378; 1144.700;  196.050;    0.000
357.441; 1063.700;  175.050;    0.000
357.504; 1114.700;  164.050;    0.000
357.567; 1075.700;  145.050;    0.000
357.629; 1100.700;  205.050;    0.000
357.692; 1145.700;  175.050;    0.000
357.755; 1115.700;  205.050;    0.000
357.818; 1146.700;  141.050;    0.000
357.880; 1127.700;  170.050;    0.000
357.943; 1123.700;  152.050;    0.000
358.006; 1164.700;  145.050;    0.000
358.069; 1167.700;  164.050;    0.000
358.131; 1082.700;  148.050;    0.000
358.194; 1197.700;  122.050;    0.000
358.257; 1215.700;  147.050;    0.000
358.319; 1175.700;  156.050;    0.000
358.382; 1155.700;  193.050;    0.000
358.445; 1134.700;  155.050;    0.000
358.507; 1186.700;  160.050;    0.000
358.570; 1105.700;  159.050;    0.000
358.633; 1131.700;  163.050;    0.000
358.695; 1135.700;  174.050;    0.000
358.758; 1156.700;  127.050;    0.000
358.821; 1150.700;  165.050;    0.000
358.883; 1182.700;  145.050;    0.000
358.946; 1201.700;  127.050;    0.000
359.008; 1169.700;  180.050;    0.000
359.071; 1157.700;  173.050;    0.000
359.134; 1158.700;  150.050;    0.000
359.196; 1184.700;  158.050;    0.000
359.259; 1220.700;  159.050;    0.000
359.321; 1178.700;  159.050;    0.000
359.384; 1220.700;  182.050;    0.000
359.446; 1238.700;  140.050;    0.000
359.509; 1211.700;  146.050;    0.000
359.571; 1263.700;  133.050;    0.000
359.634; 1242.700;   93.050;    0.000
359.696; 1235.700;  142.050;    0.000
359.759; 1256.700;  161.050;    0.000
359.821; 1255.700;  110.050;    0.000
359.884; 1207.700;  114.050;    0.000
359.946; 1280.700;  180.050;    0.000
360.009; 1295.700;  158.050;    0.000
360.071; 1231.700;  116.050;    0.000
360.134; 1307.700;  170.050;    0.000
360.196; 1275.700;  128.050;    0.000
360.259; 1303.700;  157.050;    0.000
360.321; 1163.700;  122.050;    0.000
360.384; 1289.700;  119.050;    0.000
360.446; 1249.700;  122.050;    0.000
360.508; 1285.700;  195.050;    0.000
360.571; 1307.700;  128.050;    0.000
360.633; 1307.700;  172.050;    0.000
360.696; 1226.700;  115.050;    0.000
360.758; 1282.700;  162.050;    0.000
360.820; 1248.700;  149.050;    0.000
360.883; 1251.700;  151.050;    0.000
360.945; 1281.700;  149.050;    0.000
361.007; 1246.700;  135.050;    0.000
361.070; 1282.700;  162.050;    0.000
361.132; 1321.700;  198.050;    0.000
361.194; 1259.700;  141.050;    0.000
361.257; 1226.700;  154.050;    0.000
361.319; 1254.700;  147.050;    0.000
361.381; 1330.700;  154.050;    0.000
361.443; 1274.700;  144.050;    0.000
361.506; 1325.700;  164.050;    0.000
361.568; 1322.700;  148.050;    0.000
361.630; 1338.700;  127.050;    0.000
361.693; 1326.700;  158.050;    0.000
361.755; 1272.700;  161.050;    0.000
361.817; 1376.700;  173.050;    0.000
361.879; 1372.700;  159.050;    0.000
361.941; 1284.700;  153.050;    0.000
362.004; 1360.700;  148.050;    0.000
362.066; 1337.700;  150.050;    0.000
362.128; 1331.700;  132.050;    0.000
362.190; 1405.700;  207.050;    0.000
362.252; 1355.700;  142.050;    0.000
362.315; 1333.700;  153.050;    0.000
362.377; 1380.700;  164.050;    0.000
362.439; 1339.700;  155.050;    0.000
362.501; 1334.700;  157.050;    0.000
362.563; 1351.700;  188.050;    0.000
362.625; 1354.700;  194.050;    0.000
362.688; 1325.700;  159.050;    0.000
362.750; 1383.700;  205.050;    0.000
362.812; 1378.700;  148.050;    0.000
362.874; 1353.700;  173.050;    0.000
362.936; 1374.700;  152.050;    0.000
362.998; 1354.700;  145.050;    0.000
363.060; 1393.700;  184.050;    0.000
363.122; 1380.700;  147.050;    0.000
363.184; 1396.700;  136.050;    0.000
363.246; 1376.700;  171.050;    0.000
363.308; 1390.700;  154.050;    0.000
363.370; 1426.700;  175.050;    0.000
363.432; 1363.700;  139.050;    0.000
363.494; 1377.700;  163.050;    0.000
363.556; 1343.700;  117.050;    0.000
363.618; 1344.700;  126.050;    0.000
363.680; 1380.700;  147.050;    0.000
363.742; 1435.700;  161.050;    0.000
363.804; 1414.700;  159.050;    0.000
363.866; 1421.700;  170.050;    0.000
363.928; 1453.700;  122.050;    0.000
363.990; 1411.700;  167.050;    0.000
364.052; 1373.700;  180.050;    0.000
364.114; 1358.700;  119.050;    0.000
364.176; 1474.700;  184.050;    0.000
364.238; 1442.700;  180.050;    0.000
364.300; 1351.700;  159.050;    0.000
364.362; 1402.700;  163.050;    0.000
364.424; 1362.700;  139.050;    0.000
364.486; 1400.700;  189.050;    0.000
364.548; 1388.700;  167.050;    0.000
364.609; 1471.700;  165.050;    0.000
364.671; 1460.700;  171.050;    0.000
364.733; 1400.700;  165.050;    0.000
364.795; 1397.700;  122.050;    0.000
364.857; 1389.700;  147.050;    0.000
364.919; 1387.700;  104.050;    0.000
364.981; 1485.700;  143.050;    0.000
365.042; 1503.700;  166.050;    0.000
365.104; 1450.700;  162.050;    0.000
365.166; 1396.700;  155.050;    0.000
365.228; 1479.700;  179.050;    0.000
365.290; 1408.700;  133.050;    0.000
365.351; 1423.700;  142.050;    0.000
365.413; 1482.700;  144.050;    0.000
365.475; 1389.700;  139.050;    0.000
365.537; 1487.700;  181.050;    0.000
365.598; 1469.700;  166.050;    0.000
365.660; 1511.700;  130.050;    0.000
365.722; 1494.700;  177.050;    0.000
365.784; 1426.700;  149.050;    0.000
365.845; 1457.700;  156.050;    0.000
365.907; 1444.700;  122.050;    0.000
365.969; 1423.700;  140.050;    0.000
366.030; 1378.700;  156.050;    0.000
366.092; 1390.700;  140.050;    0.000
366.154; 1496.700;  169.050;    0.000
366.215; 1487.700;  170.050;    0.000
366.277; 1469.700;  143.050;    0.000
366.339; 1402.700;  139.050;    0.000
366.400; 1484.700;  139.050;    0.000
366.462; 1419.700;  140.050;    0.000
366.524; 1435.700;  150.050;    0.000
366.585; 1498.700;  163.050;    0.000
366.647; 1440.700;  193.050;    0.000
366.708; 1445.700;  135.050;    0.000
366.770; 1491.700;  165.050;    0.000
366.832; 1543.700;  168.050;    0.000
366.893; 1502.700;  157.050;    0.000
366.955; 1445.700;  132.050;    0.000
367.016; 1496.700;  127.050;    0.000
367.078; 1447.700;  146.050;    0.000
367.139; 1465.700;  129.050;    0.000
367.201; 1444.700;  148.050;    0.000
367.262; 1520.700;  165.050;    0.000
367.324; 1531.700;  171.050;    0.000
367.385; 1465.700;  118.050;    0.000
367.447; 1516.700;  144.050;    0.000
367.508; 1545.700;  135.050;    0.000
367.570; 1415.700;  160.050;    0.000
367.631; 1477.700;  157.050;    0.000
367.693; 1516.700;  168.050;    0.000
367.754; 1553.700;  139.050;    0.000
367.816; 1532.700;  141.050;    0.000
367.877; 1547.700;  195.050;    0.000
367.939; 1512.700;  166.050;    0.000
368.000; 1433.700;  127.050;    0.000
368.062; 1568.700;  143.050;    0.000
368.123; 1543.700;  156.050;    0.000
368.184; 1521.700;  179.050;    0.000
368.246; 1429.700;  168.050;    0.000
368.307; 1468.700;  203.050;    0.000
368.369; 1441.700;  149.050;    0.000
368.430; 1483.700;  121.050;    0.000
368.491; 1562.700;  131.050;    0.000
368.553; 1506.700;  161.050;    0.000
368.614; 1477.700;  157.050;    0.000
368.675; 1556.700;  152.050;    0.000
368.737; 1551.700;  168.050;    0.000
368.798; 1554.700;  147.050;    0.000
368.859; 1444.700;  174.050;    0.000
368.921; 1572.700;  168.050;    0.000
368.982; 1507.700;  151.050;    0.000
369.043; 1579.700;  169.050;    0.000
369.104; 1612.700;  149.050;    0.000
369.166; 1535.700;  178.050;    0.000
369.227; 1565.700;  149.050;    0.000
369.288; 1563.700;  131.050;    0.000
369.349; 1599.700;  128.050;    0.000
369.411; 1525.700;  198.050;    0.000
369.472; 1469.700;  156.050;    0.000
369.533; 1534.700;  142.050;    0.000
369.594; 1607.700;  125.050;    0.000
369.656; 1545.700;  153.050;    0.000
369.717; 1510.700;  124.050;    0.000
369.778; 1548.700;  163.050;    0.000
369.839; 1584.700;  130.050;    0.000
369.900; 1609.700;  170.050;    0.000
369.961; 1604.700;  142.050;    0.000
370.023; 1620.700;  197.050;    0.000
370.084; 1535.700;  151.050;    0.000
370.145; 1585.700;  128.050;    0.000
370.206; 1622.700;  152.050;    0.000
370.267; 1617.700;  154.050;    0.000
370.328; 1615.700;  154.050;    0.000
370.389; 1637.700;  173.050;    0.000
370.451; 1562.700;  191.050;    0.000
370.512; 1618.700;  155.050;    0.000
370.573; 1584.700;  134.050;    0.000
370.634; 1629.700;  160.050;    0.000
370.695; 1578.700;  124.050;    0.000
370.756; 1614.700;  169.050;    0.000
370.817; 1620.700;  169.050;    0.000
370.878; 1659.700;  200.050;    0.000
370.939; 1636.700;  157.050;    0.000
371.000; 1658.700;  131.050;    0.000
371.061; 1650.700;  136.050;    0.000
371.122; 1609.700;  176.050;    0.000
371.183; 1575.700;   81.050;    0.000
371.244; 1673.700;  156.050;    0.000
371.305; 1594.700;  131.050;    0.000
371.366; 1662.700;  161.050;    0.000
371.427; 1576.700;  127.050;    0.000
371.488; 1647.700;  184.050;    0.000
371.549; 1628.700;  159.050;    0.000
371.610; 1616.700;  147.050;    0.000
371.671; 1552.700;  132.050;    0.000
371.732; 1653.700;  163.050;    0.000
371.793; 1693.700;  179.050;    0.000
371.853; 1611.700;  179.050;    0.000
371.914; 1659.700;  149.050;    0.000
371.975; 1585.700;  117.050;    0.000
372.036; 1642.700;  141.050;    0.000
372.097; 1600.700;  101.050;    0.000
372.158; 1603.700;  115.050;    0.000
372.219; 1635.700;  174.050;    0.000
372.280; 1576.700;  134.050;    0.000
372.340; 1708.700;  180.050;    0.000
372.401; 1679.700;  166.050;    0.000
372.462; 1711.700;  171.050;    0.000
372.523; 1627.700;  132.050;    0.000
372.584; 1677.700;  182.050;    0.000
372.645; 1689.700;  149.050;    0.000
372.705; 1735.700;  182.050;    0.000
372.766; 1723.700;  145.050;    0.000
372.827; 1631.700;  161.050;    0.000
372.888; 1712.700;  156.050;    0.000
372.948; 1626.700;  158.050;    0.000
373.009; 1705.700;  178.050;    0.000
373.070; 1651.700;  166.050;    0.000
373.131; 1647.700;  154.050;    0.000
373.191; 1773.700;  193.050;    0.000
373.252; 1668.700;  148.050;    0.000
373.313; 1730.700;  152.050;    0.000
373.373; 1703.700;  156.050;    0.000
373.434; 1729.700;  166.050;    0.000
373.495; 1692.700;  152.050;    0.000
373.555; 1727.700;  145.050;    0.000
373.616; 1738.700;  141.050;    0.000
373.677; 1685.700;  169.050;    0.000
373.737; 1730.700;  166.050;    0.000
373.798; 1677.700;  151.050;    0.000
373.859; 1729.700;  170.050;    0.000
373.919; 1732.700;  206.050;    0.000
373.980; 1700.700;  140.050;    0.000
374.041; 1734.700;  148.050;    0.000
374.101; 1740.700;  165.050;    0.000
374.162; 1688.700;  166.050;    0.000
374.222; 1645.700;  156.050;    0.000
374.283; 1723.700;  161.050;    0.000
374.343; 1728.700;  185.050;    0.000
374.404; 1681.700;  148.050;    0.000
374.465; 1707.700;  162.050;    0.000
374.525; 1778.700;  177.050;    0.000
374.586; 1785.700;  164.050;    0.000
374.646; 1831.700;  180.050;    0.000
374.707; 1804.700;  203.050;    0.000
374.767; 1771.700;  148.050;    0.000
374.828; 1788.700;  142.050;    0.000
374.888; 1922.700;  187.050;    0.000
374.949; 1861.700;  137.050;    0.000
375.009; 1815.700;  155.050;    0.000
375.070; 1811.700;  165.050;    0.000
375.130; 1881.700;  168.050;    0.000
375.190; 1818.700;  157.050;    0.000
375.251; 1860.700;  206.050;    0.000
375.311; 1859.700;  141.050;    0.000
375.372; 1765.700;  144.050;    0.000
375.432; 1858.700;  153.050;    0.000
375.493; 1770.700;  168.050;    0.000
375.553; 1745.700;  146.050;    0.000
375.613; 1757.700;  142.050;    0.000
375.674; 1842.700;  153.050;    0.000
375.734; 1810.700;  166.050;    0.000
375.794; 1854.700;  145.050;    0.000
375.855; 1824.700;  162.050;    0.000
375.915; 1782.700;  162.050;    0.000
375.975; 1758.700;  144.050;    0.000
376.036; 1728.700;  128.050;    0.000
376.096; 1804.700;  122.050;    0.000
376.156; 1841.700;  140.050;    0.000
376.217; 1852.700;  158.050;    0.000
376.277; 1784.700;  163.050;    0.000
376.337; 1837.700;  139.050;    0.000
376.398; 1783.700;  176.050;    0.000
376.458; 1810.700;  143.050;    0.000
376.518; 1843.700;  136.050;    0.000
376.578; 1797.700;  177.050;    0.000
376.639; 1824.700;  163.050;    0.000
376.699; 1869.700;  183.050;    0.000
376.759; 1832.700;  169.050;    0.000
376.819; 1839.700;  147.050;    0.000
376.880; 1882.700;  188.050;    0.000
376.940; 1837.700;  185.050;    0.000
377.000; 1826.700;  131.050;    0.000
377.060; 1821.700;  182.050;    0.000
377.120; 1925.700;  165.050;    0.000
377.180; 1896.700;  169.050;    0.000
377.241; 1902.700;  146.050;    0.000
377.301; 1926.700;  183.050;    0.000
377.361; 1850.700;  124.050;    0.000
377.421; 1900.700;  186.050;    0.000
377.481; 1993.700;  178.050;    0.000
377.541; 1978.700;  140.050;    0.000
377.601; 1942.700;  175.050;    0.000
377.661; 1926.700;  169.050;    0.000
377.722; 1993.700;  144.050;    0.000
377.782; 1940.700;  182.050;    0.000
377.842; 1972.700;  161.050;    0.000
377.902; 1988.700;  151.050;    0.000
377.962; 1972.700;  134.050;    0.000
378.022; 2012.700;  153.050;    0.000
378.082; 1995.700;  178.050;    0.000
378.142; 2017.700;  118.050;    0.000
378.202; 2049.700;  153.050;    0.000
378.262; 1995.700;  166.050;    0.000
378.322; 2111.700;  174.050;    0.000
378.382; 2081.700;  148.050;    0.000
378.442; 2070.700;  190.050;    0.000
378.502; 2004.700;  136.050;    0.000
378.562; 2105.700;  130.050;    0.000
378.622; 2081.700;  188.050;    0.000
378.682; 2140.700;  163.050;    0.000
378.742; 2152.700;  150.050;    0.000
378.802; 2153.700;  127.050;    0.000
378.862; 2142.700;  186.050;    0.000
378.921; 2180.700;  203.050;    0.000
378.981; 2185.700;  177.050;    0.000
379.041; 2137.700;  134.050;    0.000
379.101; 2216.700;  167.050;    0.000
379.161; 2212.700;  130.050;    0.000
379.221; 2163.700;  169.050;    0.000
379.281; 2162.700;  162.050;    0.000
379.341; 2206.700;  134.050;    0.000
379.401; 2189.700;  151.050;    0.000
379.460; 2275.700;  190.050;    0.000
379.520; 2307.700;  158.050;    0.000
379.580; 2186.700;  162.050;    0.000
379.640; 2256.700;  146.050;    0.000
379.700; 2282.700;  167.050;    0.000
379.759; 2311.700;  194.050;    0.000
379.819; 2353.700;  176.050;    0.000
379.879; 2270.700;  140.050;    0.000
379.939; 2329.700;  184.050;    0.000
379.999; 2262.700;  165.050;    0.000
380.058; 2315.700;  194.050;    0.000
380.118; 2342.700;  137.050;    0.000
380.178; 2396.700;  139.050;    0.000
380.237; 2326.700;  139.050;    0.000
380.297; 2334.700;  160.050;    0.000
380.357; 2373.700;  194.050;    0.000
380.417; 2362.700;  174.050;    0.000
380.476; 2447.700;  153.050;    0.000
380.536; 2336.700;  169.050;    0.000
380.596; 2416.700;  159.050;    0.000
380.655; 2432.700;  178.050;    0.000
380.715; 2340.700;  196.050;    0.000
380.775; 2431.700;  202.050;    0.000
380.834; 2371.700;  186.050;    0.000
380.894; 2397.700;  167.050;    0.000
380.954; 2377.700;  150.050;    0.000
381.013; 2403.700;  187.050;    0.000
381.073; 2399.700;  114.050;    0.000
381.132; 2487.700;  176.050;    0.000
381.192; 2434.700;  197.050;    0.000
381.252; 2500.700;  172.050;    0.000
381.311; 2493.700;  155.050;    0.000
381.371; 2519.700;  172.050;    0.000
381.430; 2577.700;  143.050;    0.000
381.490; 2624.700;  136.050;    0.000
381.549; 2663.700;  131.050;    0.000
381.609; 2642.700;  203.050;    0.000
381.668; 2567.700;  135.050;    0.000
381.728; 2674.700;  163.050;    0.000
381.787; 2659.700;  195.050;    0.000
381.847; 2803.700;  185.050;    0.000
381.906; 2728.700;  187.050;    0.000
381.966; 2773.700;  153.050;    0.000
382.025; 2778.700;  175.050;    0.000
382.085; 2793.700;  195.050;    0.000
382.144; 2785.700;  210.050;    0.000
382.204; 2927.700;  201.050;    0.000
382.263; 2944.700;  178.050;    0.000
382.323; 3086.700;  151.050;    0.000
382.382; 3004.700;  147.050;    0.000
382.441; 3208.700;  144.050;    0.000
382.501; 3243.700;  156.050;    0.000
382.560; 3301.700;  160.050;    0.000
382.619; 3544.700;  173.050;    0.000
382.679; 3839.700;  167.050;    0.000
382.738; 4087.700;  189.050;    0.000
382.798; 4335.700;  181.050;    0.000
382.857; 5106.700;  161.050;    0.000
382.916; 5793.700;  162.050;    0.000
382.976; 6057.700;  169.050;    0.000
383.035; 5635.700;  174.050;    0.000
383.094; 6027.700;  178.050;    0.000
383.154; 7086.700;  188.050;    0.000
383.213; 8392.700;  162.050;    0.000
383.272; 7776.700;  144.050;    0.000
383.331; 6127.700;  144.050;    0.000
383.391; 5295.700;  198.050;    0.000
383.450; 5018.700;  185.050;    0.000
383.509; 5067.700;  132.050;    0.000
383.568; 5303.700;  171.050;    0.000
383.628; 5865.700;  171.050;    0.000
383.687; 6769.700;  172.050;    0.000
383.746; 8390.700;  144.050;    0.000
383.805;10043.700;  177.050;    0.000
383.864; 9495.700;  145.050;    0.000
383.924; 7114.700;  203.050;    0.000
383.983; 5358.700;  153.050;    0.000
384.042; 4576.700;  171.050;    0.000
384.101; 4245.700;  186.050;    0.000
384.160; 3775.700;  132.050;    0.000
384.219; 3648.700;  157.050;    0.000
384.279; 3480.700;  166.050;    0.000
384.338; 3375.700;  141.050;    0.000
384.397; 3232.700;  142.050;    0.000
384.456; 3101.700;  155.050;    0.000
384.515; 3053.700;  158.050;    0.000
384.574; 3061.700;  208.050;    0.000
384.633; 2967.700;  158.050;    0.000
384.692; 2989.700;  162.050;    0.000
384.751; 2928.700;  179.050;    0.000
384.810; 2862.700;  150.050;    0.000
384.869; 2914.700;  147.050;    0.000
384.929; 3001.700;  132.050;    0.000
384.988; 2920.700;  166.050;    0.000
385.047; 2907.700;  161.050;    0.000
385.106; 2836.700;  180.050;    0.000
385.165; 2912.700;  123.050;    0.000
385.224; 2790.700;  153.050;    0.000
385.283; 2899.700;  158.050;    0.000
385.342; 2865.700;  184.050;    0.000
385.401; 2893.700;  191.050;    0.000
385.459; 2939.700;  143.050;    0.000
385.518; 2878.700;  152.050;    0.000
385.577; 2879.700;  134.050;    0.000
385.636; 2866.700;  187.050;    0.000
385.695; 2858.700;  141.050;    0.000
385.754; 2795.700;  143.050;    0.000
385.813; 2828.700;  145.050;    0.000
385.872; 2819.700;  116.050;    0.000
385.931; 2812.700;  147.050;    0.000
385.990; 2842.700;  170.050;    0.000
386.049; 2811.700;  189.050;    0.000
386.107; 2791.700;  122.050;    0.000
386.166; 2825.700;  155.050;    0.000
386.225; 2863.700;  173.050;    0.000
386.284; 2692.700;  138.050;    0.000
386.343; 2831.700;  216.050;    0.000
386.402; 2683.700;  162.050;    0.000
386.460; 2650.700;  131.050;    0.000
386.519; 2723.700;  122.050;    0.000
386.578; 2713.700;  140.050;    0.000
386.637; 2715.700;  169.050;    0.000
386.696; 2809.700;  176.050;    0.000
386.754; 2838.700;  127.050;    0.000
386.813; 2797.700;  138.050;    0.000
386.872; 2628.700;  135.050;    0.000
386.931; 2683.700;  170.050;    0.000
386.989; 2634.700;  167.050;    0.000
387.048; 2758.700;  131.050;    0.000
387.107; 2744.700;  176.050;    0.000
387.165; 2627.700;  139.050;    0.000
387.224; 2677.700;  150.050;    0.000
387.283; 2756.700;  169.050;    0.000
387.342; 2722.700;  191.050;    0.000
387.400; 2701.700;  131.050;    0.000
387.459; 2633.700;  139.050;    0.000
387.517; 2694.700;  214.050;    0.000
387.576; 2761.700;  146.050;    0.000
387.635; 2600.700;  161.050;    0.000
387.693; 2646.700;  197.050;    0.000
387.752; 2584.700;  159.050;    0.000
387.811; 2706.700;  144.050;    0.000
387.869; 2744.700;  172.050;    0.000
387.928; 2595.700;  160.050;    0.000
387.986; 2612.700;  192.050;    0.000
388.045; 2585.700;  121.050;    0.000
388.103; 2568.700;  129.050;    0.000
388.162; 2623.700;  169.050;    0.000
388.221; 2543.700;  171.050;    0.000
388.279; 2625.700;  135.050;    0.000
388.338; 2560.700;  222.050;    0.000
388.396; 2549.700;  168.050;    0.000
388.455; 2543.700;  178.050;    0.000
388.513; 2609.700;  151.050;    0.000
388.572; 2554.700;  147.050;    0.000
388.630; 2535.700;  158.050;    0.000
388.689; 2486.700;  163.050;    0.000
388.747; 2575.700;  180.050;    0.000
388.806; 2466.700;  119.050;    0.000
388.864; 2502.700;  159.050;    0.000
388.922; 2535.700;  152.050;    0.000
388.981; 2530.700;  125.050;    0.000
389.039; 2527.700;  151.050;    0.000
389.098; 2552.700;  151.050;    0.000
389.156; 2540.700;  175.050;    0.000
389.214; 2549.700;  133.050;    0.000
389.273; 2512.700;  142.050;    0.000
389.331; 2599.700;  179.050;    0.000
389.390; 2489.700;  179.050;    0.000
389.448; 2501.700;  159.050;    0.000
389.506; 2556.700;  140.050;    0.000
389.565; 2523.700;  160.050;    0.000
389.623; 2541.700;  181.050;    0.000
389.681; 2568.700;  181.050;    0.000
389.740; 2516.700;  187.050;    0.000
389.798; 2571.700;  163.050;    0.000
389.856; 2569.700;  185.050;    0.000
389.914; 2522.700;  170.050;    0.000
389.973; 2509.700;  150.050;    0.000
390.031; 2491.700;  149.050;    0.000
390.089; 2467.700;  191.050;    0.000
390.147; 2486.700;  126.050;    0.000
390.206; 2418.700;  174.050;    0.000
390.264; 2434.700;  164.050;    0.000
390.322; 2447.700;  150.050;    0.000
390.380; 2513.700;  137.050;    0.000
390.439; 2424.700;  176.050;    0.000
390.497; 2524.700;  188.050;    0.000
390.555; 2418.700;  143.050;    0.000
390.613; 2385.700;  174.050;    0.000
390.671; 2526.700;  208.050;    0.000
390.729; 2495.700;  135.050;    0.000
390.788; 2433.700;  169.050;    0.000
390.846; 2460.700;  173.050;    0.000
390.904; 2514.700;  176.050;    0.000
390.962; 2478.700;  179.050;    0.000
391.020; 2553.700;  201.050;    0.000
391.078; 2472.700;  192.050;    0.000
391.136; 2511.700;  170.050;    0.000
391.194; 2496.700;  163.050;    0.000
391.253; 2512.700;  203.050;    0.000
391.311; 2420.700;  170.050;    0.000
391.369; 2539.700;  191.050;    0.000
391.427; 2569.700;  226.050;    0.000
391.485; 2559.700;  181.050;    0.000
391.543; 2535.700;  177.050;    0.000
391.601; 2539.700;  150.050;    0.000
391.659; 2593.700;  201.050;    0.000
391.717; 2456.700;  166.050;    0.000
391.775; 2465.700;  200.050;    0.000
391.833; 2497.700;  180.050;    0.000
391.891; 2483.700;  172.050;    0.000
391.949; 2472.700;  174.050;    0.000
392.007; 2567.700;  194.050;    0.000
392.065; 2546.700;  161.050;    0.000
392.123; 2560.700;  159.050;    0.000
392.180; 2511.700;  193.050;    0.000
392.238; 2585.700;  188.050;    0.000
392.296; 2511.700;  206.050;    0.000
392.354; 2560.700;  170.050;    0.000
392.412; 2527.700;  207.050;    0.000
392.470; 2579.700;  168.050;    0.000
392.528; 2590.700;  185.050;    0.000
392.586; 2553.700;  154.050;    0.000
392.644; 2545.700;  190.050;    0.000
392.701; 2607.700;  195.050;    0.000
392.759; 2485.700;  229.050;    0.000
392.817; 2562.700;  176.050;    0.000
392.875; 2488.700;  198.050;    0.000
392.933; 2580.700;  174.050;    0.000
392.991; 2541.700;  237.050;    0.000
393.048; 2676.700;  212.050;    0.000
393.106; 2554.700;  191.050;    0.000
393.164; 2597.700;  136.050;    0.000
393.222; 2635.700;  164.050;    0.000
393.279; 2748.700;  208.050;    0.000
393.337; 2879.700;  203.050;    0.000
393.395; 2926.700;  191.050;    0.000
393.453; 2742.700;  153.050;    0.000
393.510; 2649.700;  171.050;    0.000
393.568; 2625.700;  203.050;    0.000
393.626; 2529.700;  169.050;    0.000
393.684; 2644.700;  201.050;    0.000
393.741; 2578.700;  172.050;    0.000
393.799; 2604.700;  149.050;    0.000
393.857; 2552.700;  151.050;    0.000
393.914; 2552.700;  192.050;    0.000
393.972; 2535.700;  176.050;    0.000
394.030; 2626.700;  165.050;    0.000
394.087; 2633.700;  192.050;    0.000
394.145; 2585.700;  183.050;    0.000
394.202; 2627.700;  161.050;    0.000
394.260; 2645.700;  135.050;    0.000
394.318; 2718.700;  188.050;    0.000
394.375; 2640.700;  163.050;    0.000
394.433; 2622.700;  151.050;    0.000
394.490; 2629.700;  190.050;    0.000
394.548; 2616.700;  157.050;    0.000
394.605; 2632.700;  205.050;    0.000
394.663; 2723.700;  173.050;    0.000
394.720; 2712.700;  171.050;    0.000
394.778; 2732.700;  190.050;    0.000
394.836; 2693.700;  134.050;    0.000
394.893; 2737.700;  142.050;    0.000
394.951; 2707.700;  192.050;    0.000
395.008; 2673.700;  149.050;    0.000
395.065; 2655.700;  194.050;    0.000
395.123; 2630.700;  160.050;    0.000
395.180; 2608.700;  178.050;    0.000
395.238; 2697.700;  191.050;    0.000
395.295; 2740.700;  160.050;    0.000
395.353; 2647.700;  162.050;    0.000
395.410; 2716.700;  165.050;    0.000
395.468; 2731.700;  190.050;    0.000
395.525; 2766.700;  173.050;    0.000
395.582; 2813.700;  161.050;    0.000
395.640; 2769.700;  200.050;    0.000
395.697; 2781.700;  198.050;    0.000
395.754; 2721.700;  136.050;    0.000
395.812; 2690.700;  172.050;    0.000
395.869; 2740.700;  172.050;    0.000
395.927; 2756.700;  145.050;    0.000
395.984; 2754.700;  220.050;    0.000
396.041; 2726.700;  137.050;    0.000
396.098; 2772.700;  161.050;    0.000
396.156; 2779.700;  159.050;    0.000
396.213; 2857.700;  200.050;    0.000
396.270; 2818.700;  209.050;    0.000
396.328; 2784.700;  162.050;    0.000
396.385; 2779.700;  186.050;    0.000
396.442; 2775.700;  177.050;    0.000
396.499; 2768.700;  183.050;    0.000
396.557; 2748.700;  182.050;    0.000
396.614; 2721.700;  186.050;    0.000
396.671; 2791.700;  144.050;    0.000
396.728; 3005.700;  176.050;    0.000
396.785; 2859.700;  169.050;    0.000
396.843; 2999.700;  134.050;    0.000
396.900; 2952.700;  184.050;    0.000
396.957; 2857.700;  197.050;    0.000
397.014; 2878.700;  187.050;    0.000
397.071; 2837.700;  186.050;    0.000
397.128; 2899.700;  200.050;    0.000
397.186; 2831.700;  175.050;    0.000
397.243; 2854.700;  154.050;    0.000
397.300; 2876.700;  191.050;    0.000
397.357; 2862.700;  238.050;    0.000
397.414; 2831.700;  161.050;    0.000
397.471; 2861.700;  135.050;    0.000
397.528; 2880.700;  158.050;    0.000
397.585; 2905.700;  159.050;    0.000
397.642; 2952.700;  180.050;    0.000
397.699; 2895.700;  170.050;    0.000
397.756; 2862.700;  175.050;    0.000
397.814; 2929.700;  182.050;    0.000
397.871; 2972.700;  173.050;    0.000
397.928; 2921.700;  173.050;    0.000
397.985; 2907.700;  176.050;    0.000
398.042; 2880.700;  189.050;    0.000
398.099; 2906.700;  160.050;    0.000
398.156; 2955.700;  218.050;    0.000
398.212; 3048.700;  194.050;    0.000
398.269; 2995.700;  199.050;    0.000
398.326; 2911.700;  188.050;    0.000
398.383; 2932.700;  187.050;    0.000
398.440; 2907.700;  174.050;    0.000
398.497; 3049.700;  214.050;    0.000
398.554; 2981.700;  181.050;    0.000
398.611; 3079.700;  195.050;    0.000
398.668; 2939.700;  145.050;    0.000
398.725; 3071.700;  178.050;    0.000
398.782; 3064.700;  210.050;    0.000
398.839; 3168.700;  216.050;    0.000
398.895; 3023.700;  189.050;    0.000
398.952; 3109.700;  206.050;    0.000
399.009; 3165.700;  142.050;    0.000
399.066; 3151.700;  192.050;    0.000
399.123; 3257.700;  181.050;    0.000
399.180; 3253.700;  200.050;    0.000
399.236; 3272.700;  156.050;    0.000
399.293; 3338.700;  194.050;    0.000
399.350; 3349.700;  167.050;    0.000
399.407; 3538.700;  192.050;    0.000
399.463; 3434.700;  161.050;    0.000
399.520; 3535.700;  149.050;    0.000
399.577; 3578.700;  156.050;    0.000
399.634; 3462.700;  195.050;    0.000
399.690; 3686.700;  163.050;    0.000
399.747; 3536.700;  192.050;    0.000
399.804; 3555.700;  212.050;    0.000
399.861; 3558.700;  203.050;    0.000
399.917; 3584.700;  221.050;    0.000
399.974; 3476.700;  221.050;    0.000
400.031; 3529.700;  195.050;    0.000
400.087; 3401.700;  159.050;    0.000
400.144; 3402.700;  201.050;    0.000
400.201; 3307.700;  206.050;    0.000
400.257; 3323.700;  168.050;    0.000
400.314; 3354.700;  183.050;    0.000
400.370; 3354.700;  209.050;    0.000
400.427; 3298.700;  192.050;    0.000
400.484; 3273.700;  150.050;    0.000
400.540; 3281.700;  213.050;    0.000
400.597; 3218.700;  161.050;    0.000
400.653; 3268.700;  170.050;    0.000
400.710; 3266.700;  173.050;    0.000
400.766; 3284.700;  204.050;    0.000
400.823; 3174.700;  194.050;    0.000
400.879; 3194.700;  188.050;    0.000
400.936; 3235.700;  172.050;    0.000
400.993; 3180.700;  154.050;    0.000
401.049; 3151.700;  157.050;    0.000
401.105; 3190.700;  214.050;    0.000
401.162; 3238.700;  195.050;    0.000
401.218; 3253.700;  195.050;    0.000
401.275; 3205.700;  182.050;    0.000
401.331; 3279.700;  188.050;    0.000
401.388; 3116.700;  194.050;    0.000
401.444; 3276.700;  175.050;    0.000
401.501; 3256.700;  169.050;    0.000
401.557; 3106.700;  176.050;    0.000
401.614; 3271.700;  153.050;    0.000
401.670; 3191.700;  178.050;    0.000
401.726; 3201.700;  179.050;    0.000
401.783; 3241.700;  198.050;    0.000
401.839; 3270.700;  179.050;    0.000
401.895; 3259.700;  154.050;    0.000
401.952; 3157.700;  138.050;    0.000
402.008; 3152.700;  135.050;    0.000
402.064; 3144.700;  154.050;    0.000
402.121; 3270.700;  199.050;    0.000
402.177; 3137.700;  126.050;    0.000
402.233; 3268.700;  190.050;    0.000
402.290; 3259.700;  175.050;    0.000
402.346; 3219.700;  200.050;    0.000
402.402; 3244.700;  191.050;    0.000
402.458; 3220.700;  172.050;    0.000
402.515; 3309.700;  186.050;    0.000
402.571; 3267.700;  189.050;    0.000
402.627; 3175.700;  151.050;    0.000
402.683; 3259.700;  187.050;    0.000
402.740; 3237.700;  147.050;    0.000
402.796; 3336.700;  176.050;    0.000
402.852; 3245.700;  200.050;    0.000
402.908; 3269.700;  201.050;    0.000
402.964; 3273.700;  153.050;    0.000
403.021; 3372.700;  165.050;    0.000
403.077; 3407.700;  195.050;    0.000
403.133; 3356.700;  139.050;    0.000
403.189; 3314.700;  166.050;    0.000
403.245; 3364.700;  194.050;    0.000
403.301; 3385.700;  210.050;    0.000
403.357; 3297.700;  187.050;    0.000
403.414; 3403.700;  195.050;    0.000
403.470; 3354.700;  150.050;    0.000
403.526; 3327.700;  158.050;    0.000
403.582; 3408.700;  184.050;    0.000
403.638; 3378.700;  171.050;    0.000
403.694; 3409.700;  197.050;    0.000
403.750; 3388.700;  196.050;    0.000
403.806; 3441.700;  192.050;    0.000
403.862; 3361.700;  169.050;    0.000
403.918; 3340.700;  199.050;    0.000
403.974; 3412.700;  156.050;    0.000
404.030; 3369.700;  193.050;    0.000
404.086; 3420.700;  161.050;    0.000
404.142; 3430.700;  172.050;    0.000
404.198; 3467.700;  195.050;    0.000
404.254; 3427.700;  167.050;    0.000
404.310; 3460.700;  156.050;    0.000
404.366; 3459.700;  144.050;    0.000
404.422; 3456.700;  161.050;    0.000
404.478; 3485.700;  179.050;    0.000
404.534; 3507.700;  163.050;    0.000
404.590; 3377.700;  183.050;    0.000
404.646; 3449.700;  155.050;    0.000
404.701; 3393.700;  142.050;    0.000
404.757; 3488.700;  175.050;    0.000
404.813; 3401.700;  153.050;    0.000
404.869; 3458.700;  199.050;    0.000
404.925; 3440.700;  153.050;    0.000
404.981; 3478.700;  174.050;    0.000
405.037; 3445.700;  185.050;    0.000
405.092; 3538.700;  166.050;    0.000
405.148; 3550.700;  161.050;    0.000
405.204; 3495.700;  170.050;    0.000
405.260; 3406.700;  154.050;    0.000
405.316; 3518.700;  128.050;    0.000
405.371; 3364.700;  142.050;    0.000
405.427; 3516.700;  196.050;    0.000
405.483; 3453.700;  172.050;    0.000
405.539; 3488.700;  182.050;    0.000
405.594; 3526.700;  153.050;    0.000
405.650; 3397.700;  124.050;    0.000
405.706; 3523.700;  189.050;    0.000
405.761; 3550.700;  165.050;    0.000
405.817; 3427.700;  152.050;    0.000
405.873; 3550.700;  174.050;    0.000
405.928; 3568.700;  167.050;    0.000
405.984; 3499.700;  210.050;    0.000
406.040; 3606.700;  160.050;    0.000
406.095; 3449.700;  163.050;    0.000
406.151; 3542.700;  208.050;    0.000
406.207; 3557.700;  177.050;    0.000
406.262; 3585.700;  176.050;    0.000
406.318; 3504.700;  157.050;    0.000
406.374; 3574.700;  141.050;    0.000
406.429; 3732.700;  189.050;    0.000
406.485; 3566.700;  190.050;    0.000
406.540; 3610.700;  155.050;    0.000
406.596; 3629.700;  182.050;    0.000
406.651; 3644.700;  200.050;    0.000
406.707; 3673.700;  130.050;    0.000
406.763; 3686.700;  174.050;    0.000
406.818; 3692.700;  151.050;    0.000
406.874; 3734.700;  122.050;    0.000
406.929; 3901.700;  153.050;    0.000
406.985; 3734.700;  198.050;    0.000
407.040; 3844.700;  174.050;    0.000
407.095; 3939.700;  161.050;    0.000
407.151; 3876.700;  184.050;    0.000
407.206; 3942.700;  188.050;    0.000
407.262; 3822.700;  180.050;    0.000
407.317; 3983.700;  186.050;    0.000
407.373; 4055.700;  200.050;    0.000
407.428; 4017.700;  211.050;    0.000
407.484; 4034.700;  193.050;    0.000
407.539; 4000.700;  167.050;    0.000
407.594; 4033.700;  178.050;    0.000
407.650; 3947.700;  171.050;    0.000
407.705; 3968.700;  153.050;    0.000
407.760; 3990.700;  196.050;    0.000
407.816; 4051.700;  205.050;    0.000
407.871; 4016.700;  232.050;    0.000
407.926; 4049.700;  215.050;    0.000
407.982; 3901.700;  154.050;    0.000
408.037; 3950.700;  217.050;    0.000
408.092; 3933.700;  190.050;    0.000
408.148; 3853.700;  181.050;    0.000
408.203; 3932.700;  203.050;    0.000
408.258; 3972.700;  154.050;    0.000
408.314; 3888.700;  198.050;    0.000
408.369; 3780.700;  156.050;    0.000
408.424; 3804.700;  216.050;    0.000
408.479; 3911.700;  191.050;    0.000
408.534; 3909.700;  200.050;    0.000
408.590; 3887.700;  182.050;    0.000
408.645; 3829.700;  141.050;    0.000
408.700; 3951.700;  209.050;    0.000
408.755; 3825.700;  205.050;    0.000
408.810; 3786.700;  171.050;    0.000
408.866; 3795.700;  200.050;    0.000
408.921; 3866.700;  188.050;    0.000
408.976; 3749.700;  156.050;    0.000
409.031; 3794.700;  164.050;    0.000
409.086; 3766.700;  155.050;    0.000
409.141; 3781.700;  205.050;    0.000
409.196; 3876.700;  173.050;    0.000
409.252; 3804.700;  179.050;    0.000
409.307; 3662.700;  131.050;    0.000
409.362; 3794.700;  173.050;    0.000
409.417; 3860.700;  120.050;    0.000
409.472; 3871.700;  198.050;    0.000
409.527; 3863.700;  153.050;    0.000
409.582; 3870.700;  177.050;    0.000
409.637; 3826.700;  184.050;    0.000
409.692; 3773.700;  203.050;    0.000
409.747; 3799.700;  158.050;    0.000
409.802; 3661.700;  212.050;    0.000
409.857; 3804.700;  192.050;    0.000
409.912; 3752.700;  179.050;    0.000
409.967; 3692.700;  177.050;    0.000
410.022; 3809.700;  204.050;    0.000
410.077; 3722.700;  175.050;    0.000
410.132; 3829.700;  207.050;    0.000
410.187; 3757.700;  169.050;    0.000
410.242; 3843.700;  186.050;    0.000
410.297; 3790.700;  185.050;    0.000
410.351; 3762.700;  191.050;    0.000
410.406; 3844.700;  215.050;    0.000
410.461; 3760.700;  190.050;    0.000
410.516; 3885.700;  172.050;    0.000
410.571; 3732.700;  190.050;    0.000
410.626; 3826.700;  189.050;    0.000
410.681; 3811.700;  191.050;    0.000
410.736; 3767.700;  166.050;    0.000
410.790; 3748.700;  179.050;    0.000
410.845; 3939.700;  196.050;    0.000
410.900; 3764.700;  168.050;    0.000
410.955; 3855.700;  173.050;    0.000
411.010; 3745.700;  162.050;    0.000
411.064; 3855.700;  205.050;    0.000
411.119; 3829.700;  203.050;    0.000
411.174; 3791.700;  207.050;    0.000
411.229; 3831.700;  218.050;    0.000
411.283; 3748.700;  218.050;    0.000
411.338; 3747.700;  180.050;    0.000
411.393; 3806.700;  191.050;    0.000
411.447; 3763.700;  207.050;    0.000
411.502; 3817.700;  204.050;    0.000
411.557; 3737.700;  208.050;    0.000
411.612; 3673.700;  191.050;    0.000
411.666; 3796.700;  233.050;    0.000
411.721; 3793.700;  193.050;    0.000
411.776; 3810.700;  195.050;    0.000
411.830; 3784.700;  229.050;    0.000
411.885; 3716.700;  181.050;    0.000
411.939; 3821.700;  214.050;    0.000
411.994; 3796.700;  140.050;    0.000
412.049; 3826.700;  205.050;    0.000
412.103; 3845.700;  232.050;    0.000
412.158; 3825.700;  228.050;    0.000
412.212; 3864.700;  204.050;    0.000
412.267; 3841.700;  203.050;    0.000
412.322; 3936.700;  212.050;    0.000
412.376; 3736.700;  195.050;    0.000
412.431; 3822.700;  197.050;    0.000
412.485; 3823.700;  235.050;    0.000
412.540; 3722.700;  197.050;    0.000
412.594; 3763.700;  199.050;    0.000
412.649; 3729.700;  195.050;    0.000
412.703; 3776.700;  214.050;    0.000
412.758; 3873.700;  213.050;    0.000
412.812; 3716.700;  154.050;    0.000
412.866; 3735.700;  159.050;    0.000
412.921; 3726.700;  207.050;    0.000
412.975; 3745.700;  194.050;    0.000
413.030; 3742.700;  214.050;    0.000
413.084; 3831.700;  174.050;    0.000
413.139; 3717.700;  211.050;    0.000
413.193; 3734.700;  223.050;    0.000
413.247; 3776.700;  198.050;    0.000
413.302; 3718.700;  184.050;    0.000
413.356; 3791.700;  194.050;    0.000
413.410; 3816.700;  219.050;    0.000
413.465; 3638.700;  209.050;    0.000
413.519; 3739.700;  178.050;    0.000
413.573; 3814.700;  189.050;    0.000
413.628; 3701.700;  184.050;    0.000
413.682; 3641.700;  189.050;    0.000
413.736; 3692.700;  196.050;    0.000
413.791; 3723.700;  208.050;    0.000
413.845; 3668.700;  206.050;    0.000
413.899; 3720.700;  193.050;    0.000
413.953; 3708.700;  176.050;    0.000
414.008; 3775.700;  163.050;    0.000
414.062; 3737.700;  195.050;    0.000
414.116; 3853.700;  176.050;    0.000
414.170; 3879.700;  218.050;    0.000
414.225; 3727.700;  183.050;    0.000
414.279; 3887.700;  191.050;    0.000
414.333; 3786.700;  215.050;    0.000
414.387; 3730.700;  187.050;    0.000
414.441; 3685.700;  182.050;    0.000
414.496; 3813.700;  205.050;    0.000
414.550; 3747.700;  203.050;    0.000
414.604; 3746.700;  223.050;    0.000
414.658; 3870.700;  159.050;    0.000
414.712; 3778.700;  194.050;    0.000
414.766; 3792.700;  232.050;    0.000
414.820; 3757.700;  235.050;    0.000
414.874; 3884.700;  169.050;    0.000
414.928; 3720.700;  207.050;    0.000
414.982; 3868.700;  174.050;    0.000
415.037; 3711.700;  173.050;    0.000
415.091; 3862.700;  219.050;    0.000
415.145; 3737.700;  174.050;    0.000
415.199; 3877.700;  207.050;    0.000
415.253; 3755.700;  228.050;    0.000
415.307; 3747.700;  182.050;    0.000
415.361; 3766.700;  219.050;    0.000
415.415; 3852.700;  218.050;    0.000
415.469; 3804.700;  233.050;    0.000
415.523; 3731.700;  203.050;    0.000
415.577; 3871.700;  186.050;    0.000
415.631; 3812.700;  215.050;    0.000
415.684; 3757.700;  212.050;    0.000
415.738; 3743.700;  206.050;    0.000
415.792; 3781.700;  219.050;    0.000
415.846; 3805.700;  208.050;    0.000
415.900; 3719.700;  203.050;    0.000
415.954; 3756.700;  237.050;    0.000
416.008; 3801.700;  242.050;    0.000
416.062; 3836.700;  197.050;    0.000
416.116; 3698.700;  189.050;    0.000
416.169; 3723.700;  199.050;    0.000
416.223; 3821.700;  230.050;    0.000
416.277; 3680.700;  226.050;    0.000
416.331; 3823.700;  254.050;    0.000
416.385; 3764.700;  204.050;    0.000
416.439; 3799.700;  201.050;    0.000
416.492; 3804.700;  238.050;    0.000
416.546; 3705.700;  234.050;    0.000
416.600; 3721.700;  244.050;    0.000
416.654; 3741.700;  233.050;    0.000
416.707; 3675.700;  214.050;    0.000
416.761; 3781.700;  214.050;    0.000
416.815; 3670.700;  192.050;    0.000
416.869; 3684.700;  225.050;    0.000
416.922; 3802.700;  214.050;    0.000
416.976; 3739.700;  206.050;    0.000
417.030; 3798.700;  226.050;    0.000
417.083; 3754.700;  207.050;    0.000
417.137; 3687.700;  236.050;    0.000
417.191; 3758.700;  208.050;    0.000
417.244; 3737.700;  260.050;    0.000
417.298; 3736.700;  222.050;    0.000
417.352; 3716.700;  191.050;    0.000
417.405; 3679.700;  229.050;    0.000
417.459; 3684.700;  249.050;    0.000
417.512; 3742.700;  259.050;    0.000
417.566; 3827.700;  220.050;    0.000
417.620; 3705.700;  229.050;    0.000
417.673; 3801.700;  190.050;    0.000
417.727; 3747.700;  204.050;    0.000
417.780; 3752.700;  223.050;    0.000
417.834; 3759.700;  213.050;    0.000
417.887; 3784.700;  238.050;    0.000
417.941; 3730.700;  244.050;    0.000
417.994; 3669.700;  247.050;    0.000
418.048; 3733.700;  225.050;    0.000
418.101; 3781.700;  210.050;    0.000
418.155; 3823.700;  224.050;    0.000
418.208; 3816.700;  229.050;    0.000
418.262; 3842.700;  255.050;    0.000
418.315; 3698.700;  248.050;    0.000
418.369; 3738.700;  212.050;    0.000
418.422; 3837.700;  241.050;    0.000
418.476; 3865.700;  220.050;    0.000
418.529; 3724.700;  257.050;    0.000
418.582; 3844.700;  203.050;    0.000
418.636; 3842.700;  221.050;    0.000
418.689; 3816.700;  202.050;    0.000
418.743; 3850.700;  227.050;    0.000
418.796; 3795.700;  226.050;    0.000
418.849; 3745.700;  199.050;    0.000
418.903; 3802.700;  234.050;    0.000
418.956; 3687.700;  236.050;    0.000
419.009; 3688.700;  305.050;    0.000
419.063; 3801.700;  216.050;    0.000
419.116; 3756.700;  245.050;    0.000
419.169; 3808.700;  208.050;    0.000
419.222; 3783.700;  233.050;    0.000
419.276; 3785.700;  244.050;    0.000
419.329; 3736.700;  197.050;    0.000
419.382; 3723.700;  222.050;    0.000
419.435; 3725.700;  199.050;    0.000
419.489; 3675.700;  226.050;    0.000
419.542; 3728.700;  223.050;    0.000
419.595; 3657.700;  204.050;    0.000
419.648; 3713.700;  234.050;    0.000
419.701; 3632.700;  211.050;    0.000
419.755; 3587.700;  184.050;    0.000
419.808; 3705.700;  223.050;    0.000
419.861; 3642.700;  197.050;    0.000
419.914; 3708.700;  258.050;    0.000
419.967; 3719.700;  205.050;    0.000
420.020; 3687.700;  195.050;    0.000
420.073; 3674.700;  191.050;    0.000
420.127; 3650.700;  256.050;    0.000
420.180; 3591.700;  232.050;    0.000
420.233; 3561.700;  200.050;    0.000
420.286; 3661.700;  207.050;    0.000
420.339; 3634.700;  223.050;    0.000
420.392; 3588.700;  243.050;    0.000
420.445; 3571.700;  195.050;    0.000
420.498; 3538.700;  239.050;    0.000
420.551; 3530.700;  201.050;    0.000
420.604; 3562.700;  245.050;    0.000
420.657; 3509.700;  221.050;    0.000
420.710; 3645.700;  223.050;    0.000
420.763; 3562.700;  241.050;    0.000
420.816; 3512.700;  198.050;    0.000
420.869; 3482.700;  210.050;    0.000
420.922; 3508.700;  206.050;    0.000
420.975; 3578.700;  239.050;    0.000
421.028; 3532.700;  248.050;    0.000
421.081; 3613.700;  236.050;    0.000
421.134; 3656.700;  208.050;    0.000
421.187; 3535.700;  216.050;    0.000
421.239; 3564.700;  199.050;    0.000
421.292; 3543.700;  255.050;    0.000
421.345; 3478.700;  241.050;    0.000
421.398; 3485.700;  221.050;    0.000
421.451; 3577.700;  237.050;    0.000
421.504; 3519.700;  225.050;    0.000
421.557; 3487.700;  213.050;    0.000
421.609; 3524.700;  178.050;    0.000
421.662; 3502.700;  206.050;    0.000
421.715; 3464.700;  212.050;    0.000
421.768; 3559.700;  236.050;    0.000
421.821; 3493.700;  228.050;    0.000
421.873; 3557.700;  200.050;    0.000
421.926; 3450.700;  226.050;    0.000
421.979; 3499.700;  221.050;    0.000
422.032; 3481.700;  219.050;    0.000
422.084; 3512.700;  253.050;    0.000
422.137; 3468.700;  195.050;    0.000
422.190; 3480.700;  192.050;    0.000
422.243; 3499.700;  236.050;    0.000
422.295; 3504.700;  205.050;    0.000
422.348; 3481.700;  198.050;    0.000
422.401; 3451.700;  245.050;    0.000
422.453; 3445.700;  241.050;    0.000
422.506; 3395.700;  255.050;    0.000
422.559; 3483.700;  188.050;    0.000
422.611; 3508.700;  236.050;    0.000
422.664; 3711.700;  218.050;    0.000
422.716; 3748.700;  210.050;    0.000
422.769; 3507.700;  209.050;    0.000
422.822; 3527.700;  213.050;    0.000
422.874; 3445.700;  227.050;    0.000
422.927; 3521.700;  272.050;    0.000
422.979; 3449.700;  204.050;    0.000
423.032; 3351.700;  210.050;    0.000
423.084; 3519.700;  236.050;    0.000
423.137; 3416.700;  223.050;    0.000
423.189; 3542.700;  253.050;    0.000
423.242; 3440.700;  185.050;    0.000
423.294; 3345.700;  232.050;    0.000
423.347; 3439.700;  213.050;    0.000
423.399; 3429.700;  227.050;    0.000
423.452; 3506.700;  236.050;    0.000
423.504; 3483.700;  232.050;    0.000
423.557; 3434.700;  195.050;    0.000
423.609; 3447.700;  238.050;    0.000
423.662; 3468.700;  207.050;    0.000
423.714; 3502.700;  231.050;    0.000
423.766; 3387.700;  211.050;    0.000
423.819; 3362.700;  207.050;    0.000
423.871; 3437.700;  228.050;    0.000
423.923; 3249.700;  223.050;    0.000
423.976; 3394.700;  217.050;    0.000
424.028; 3323.700;  231.050;    0.000
424.081; 3312.700;  219.050;    0.000
424.133; 3400.700;  255.050;    0.000
424.185; 3364.700;  199.050;    0.000
424.238; 3372.700;  238.050;    0.000
424.290; 3331.700;  209.050;    0.000
424.342; 3383.700;  213.050;    0.000
424.394; 3317.700;  215.050;    0.000
424.447; 3439.700;  265.050;    0.000
424.499; 3335.700;  238.050;    0.000
424.551; 3339.700;  256.050;    0.000
424.603; 3425.700;  222.050;    0.000
424.656; 3314.700;  227.050;    0.000
424.708; 3225.700;  250.050;    0.000
424.760; 3351.700;  228.050;    0.000
424.812; 3457.700;  249.050;    0.000
424.864; 3406.700;  222.050;    0.000
424.917; 3354.700;  235.050;    0.000
424.969; 3332.700;  266.050;    0.000
425.021; 3301.700;  233.050;    0.000
425.073; 3332.700;  194.050;    0.000
425.125; 3334.700;  256.050;    0.000
425.177; 3316.700;  225.050;    0.000
425.229; 3407.700;  242.050;    0.000
425.282; 3268.700;  236.050;    0.000
425.334; 3349.700;  250.050;    0.000
425.386; 3234.700;  231.050;    0.000
425.438; 3209.700;  216.050;    0.000
425.490; 3309.700;  240.050;    0.000
425.542; 3307.700;  231.050;    0.000
425.594; 3262.700;  206.050;    0.000
425.646; 3206.700;  201.050;    0.000
425.698; 3272.700;  193.050;    0.000
425.750; 3340.700;  241.050;    0.000
425.802; 3235.700;  199.050;    0.000
425.854; 3260.700;  216.050;    0.000
425.906; 3248.700;  220.050;    0.000
425.958; 3213.700;  200.050;    0.000
426.010; 3209.700;  214.050;    0.000
426.062; 3263.700;  245.050;    0.000
426.114; 3339.700;  241.050;    0.000
426.166; 3229.700;  241.050;    0.000
426.218; 3236.700;  255.050;    0.000
426.270; 3236.700;  228.050;    0.000
426.321; 3199.700;  222.050;    0.000
426.373; 3133.700;  218.050;    0.000
426.425; 3268.700;  258.050;    0.000
426.477; 3183.700;  225.050;    0.000
426.529; 3139.700;  223.050;    0.000
426.581; 3147.700;  198.050;    0.000
426.633; 3182.700;  228.050;    0.000
426.684; 3127.700;  210.050;    0.000
426.736; 3189.700;  208.050;    0.000
426.788; 3057.700;  231.050;    0.000
426.840; 3149.700;  212.050;    0.000
426.892; 3176.700;  221.050;    0.000
426.943; 3223.700;  240.050;    0.000
426.995; 3162.700;  243.050;    0.000
427.047; 3242.700;  231.050;    0.000
427.099; 3032.700;  189.050;    0.000
427.150; 3171.700;  212.050;    0.000
427.202; 3053.700;  219.050;    0.000
427.254; 3152.700;  203.050;    0.000
427.306; 3110.700;  217.050;    0.000
427.357; 3057.700;  232.050;    0.000
427.409; 3129.700;  251.050;    0.000
427.461; 3120.700;  185.050;    0.000
427.512; 3003.700;  239.050;    0.000
427.564; 3154.700;  208.050;    0.000
427.616; 3114.700;  233.050;    0.000
427.667; 3080.700;  223.050;    0.000
427.719; 3081.700;  206.050;    0.000
427.770; 3011.700;  195.050;    0.000
427.822; 3134.700;  223.050;    0.000
427.874; 3056.700;  232.050;    0.000
427.925; 3085.700;  209.050;    0.000
427.977; 3024.700;  208.050;    0.000
428.028; 2987.700;  187.050;    0.000
428.080; 3088.700;  209.050;    0.000
428.131; 3165.700;  237.050;    0.000
428.183; 3080.700;  200.050;    0.000
428.234; 2985.700;  215.050;    0.000
428.286; 3155.700;  229.050;    0.000
428.337; 2961.700;  206.050;    0.000
428.389; 3046.700;  216.050;    0.000
428.440; 3067.700;  287.050;    0.000
428.492; 3082.700;  269.050;    0.000
428.543; 3023.700;  234.050;    0.000
428.595; 3068.700;  214.050;    0.000
428.646; 3052.700;  229.050;    0.000
428.697; 3081.700;  249.050;    0.000
428.749; 3068.700;  250.050;    0.000
428.800; 3065.700;  242.050;    0.000
428.852; 3021.700;  232.050;    0.000
428.903; 2951.700;  196.050;    0.000
428.954; 2968.700;  226.050;    0.000
429.006; 3003.700;  232.050;    0.000
429.057; 2980.700;  188.050;    0.000
429.108; 2944.700;  237.050;    0.000
429.160; 2985.700;  221.050;    0.000
429.211; 2995.700;  222.050;    0.000
429.262; 3055.700;  215.050;    0.000
429.314; 3049.700;  225.050;    0.000
429.365; 2951.700;  220.050;    0.000
429.416; 2968.700;  242.050;    0.000
429.467; 3031.700;  220.050;    0.000
429.519; 2973.700;  217.050;    0.000
429.570; 2966.700;  248.050;    0.000
429.621; 3017.700;  233.050;    0.000
429.672; 2987.700;  220.050;    0.000
429.724; 2965.700;  179.050;    0.000
429.775; 2920.700;  218.050;    0.000
429.826; 2944.700;  197.050;    0.000
429.877; 2958.700;  206.050;    0.000
429.928; 2991.700;  229.050;    0.000
429.980; 2966.700;  207.050;    0.000
430.031; 2989.700;  264.050;    0.000
430.082; 2947.700;  210.050;    0.000
430.133; 2944.700;  218.050;    0.000
430.184; 2905.700;  246.050;    0.000
430.235; 3002.700;  201.050;    0.000
430.286; 2964.700;  207.050;    0.000
430.337; 2909.700;  224.050;    0.000
430.388; 2937.700;  216.050;    0.000
430.439; 2914.700;  210.050;    0.000
430.490; 2850.700;  208.050;    0.000
430.542; 2925.700;  211.050;    0.000
430.593; 2928.700;  203.050;    0.000
430.644; 3008.700;  235.050;    0.000
430.695; 2892.700;  200.050;    0.000
430.746; 2888.700;  215.050;    0.000
430.797; 2888.700;  235.050;    0.000
430.848; 2965.700;  197.050;    0.000
430.898; 3019.700;  209.050;    0.000
430.949; 2905.700;  231.050;    0.000
431.000; 2909.700;  227.050;    0.000
431.051; 2861.700;  225.050;    0.000
431.102; 2844.700;  180.050;    0.000
431.153; 2885.700;  248.050;    0.000
431.204; 2886.700;  185.050;    0.000
431.255; 2928.700;  199.050;    0.000
431.306; 2890.700;  228.050;    0.000
431.357; 2939.700;  237.050;    0.000
431.408; 2830.700;  223.050;    0.000
431.458; 2950.700;  240.050;    0.000
431.509; 2961.700;  207.050;    0.000
431.560; 2912.700;  219.050;    0.000
431.611; 2865.700;  206.050;    0.000
431.662; 2966.700;  253.050;    0.000
431.713; 2884.700;  199.050;    0.000
431.763; 2936.700;  197.050;    0.000
431.814; 2907.700;  205.050;    0.000
431.865; 2938.700;  218.050;    0.000
431.916; 3010.700;  202.050;    0.000
431.966; 2923.700;  203.050;    0.000
432.017; 2985.700;  244.050;    0.000
432.068; 3011.700;  246.050;    0.000
432.118; 2902.700;  212.050;    0.000
432.169; 2944.700;  214.050;    0.000
432.220; 2931.700;  241.050;    0.000
432.271; 2874.700;  237.050;    0.000
432.321; 2897.700;  246.050;    0.000
432.372; 2910.700;  257.050;    0.000
432.423; 2857.700;  198.050;    0.000
432.473; 2883.700;  202.050;    0.000
432.524; 2908.700;  242.050;    0.000
432.574; 2842.700;  202.050;    0.000
432.625; 3004.700;  212.050;    0.000
432.676; 2916.700;  242.050;    0.000
432.726; 2925.700;  268.050;    0.000
432.777; 2909.700;  228.050;    0.000
432.827; 2854.700;  230.050;    0.000
432.878; 2751.700;  221.050;    0.000
432.928; 2899.700;  218.050;    0.000
432.979; 2844.700;  243.050;    0.000
433.029; 2852.700;  217.050;    0.000
433.080; 2894.700;  208.050;    0.000
433.130; 2825.700;  236.050;    0.000
433.181; 2907.700;  282.050;    0.000
433.231; 2843.700;  257.050;    0.000
433.282; 2879.700;  268.050;    0.000
433.332; 2822.700;  241.050;    0.000
433.383; 2870.700;  271.050;    0.000
433.433; 2911.700;  262.050;    0.000
433.484; 2951.700;  266.050;    0.000
433.534; 2921.700;  217.050;    0.000
433.585; 2908.700;  230.050;    0.000
433.635; 2828.700;  245.050;    0.000
433.685; 2913.700;  250.050;    0.000
433.736; 2933.700;  308.050;    0.000
433.786; 2914.700;  242.050;    0.000
433.836; 2893.700;  256.050;    0.000
433.887; 2875.700;  250.050;    0.000
433.937; 2924.700;  250.050;    0.000
433.987; 2876.700;  219.050;    0.000
434.038; 2872.700;  248.050;    0.000
434.088; 2964.700;  231.050;    0.000
434.138; 2909.700;  266.050;    0.000
434.189; 2851.700;  240.050;    0.000
434.239; 2939.700;  245.050;    0.000
434.289; 2969.700;  285.050;    0.000
434.339; 3039.700;  255.050;    0.000
434.389; 3028.700;  242.050;    0.000
434.440; 3003.700;  273.050;    0.000
434.490; 2963.700;  272.050;    0.000
434.540; 2994.700;  264.050;    0.000
434.590; 3051.700;  233.050;    0.000
434.640; 2921.700;  244.050;    0.000
434.691; 3029.700;  226.050;    0.000
434.741; 3045.700;  253.050;    0.000
434.791; 3066.700;  269.050;    0.000
434.841; 2999.700;  252.050;    0.000
434.891; 3064.700;  281.050;    0.000
434.941; 3022.700;  296.050;    0.000
434.991; 2932.700;  264.050;    0.000
435.042; 2916.700;  262.050;    0.000
435.092; 2987.700;  237.050;    0.000
435.142; 2881.700;  232.050;    0.000
435.192; 2954.700;  251.050;    0.000
435.242; 2967.700;  251.050;    0.000
435.292; 2989.700;  246.050;    0.000
435.342; 2901.700;  236.050;    0.000
435.392; 2830.700;  273.050;    0.000
435.442; 2914.700;  273.050;    0.000
435.492; 2945.700;  273.050;    0.000
435.542; 2844.700;  242.050;    0.000
435.592; 2870.700;  213.050;    0.000
435.642; 2836.700;  248.050;    0.000
435.692; 2838.700;  242.050;    0.000
435.742; 2848.700;  222.050;    0.000
435.792; 2857.700;  260.050;    0.000
435.842; 2832.700;  266.050;    0.000
435.891; 2801.700;  227.050;    0.000
435.941; 2760.700;  228.050;    0.000
435.991; 2799.700;  282.050;    0.000
436.041; 2742.700;  231.050;    0.000
436.091; 2829.700;  250.050;    0.000
436.141; 2722.700;  221.050;    0.000
436.191; 2759.700;  223.050;    0.000
436.241; 2823.700;  250.050;    0.000
436.290; 2844.700;  243.050;    0.000
436.340; 2746.700;  236.050;    0.000
436.390; 2794.700;  260.050;    0.000
436.440; 2797.700;  253.050;    0.000
436.490; 2739.700;  236.050;    0.000
436.539; 2789.700;  249.050;    0.000
436.589; 2662.700;  231.050;    0.000
436.639; 2684.700;  237.050;    0.000
436.689; 2690.700;  222.050;    0.000
436.738; 2735.700;  263.050;    0.000
436.788; 2700.700;  230.050;    0.000
436.838; 2696.700;  281.050;    0.000
436.887; 2715.700;  230.050;    0.000
436.937; 2708.700;  250.050;    0.000
436.987; 2723.700;  251.050;    0.000
437.036; 2647.700;  238.050;    0.000
437.086; 2677.700;  234.050;    0.000
437.136; 2621.700;  250.050;    0.000
437.185; 2659.700;  228.050;    0.000
437.235; 2703.700;  309.050;    0.000
437.285; 2583.700;  246.050;    0.000
437.334; 2720.700;  262.050;    0.000
437.384; 2760.700;  228.050;    0.000
437.433; 2627.700;  241.050;    0.000
437.483; 2683.700;  220.050;    0.000
437.532; 2667.700;  252.050;    0.000
437.582; 2667.700;  270.050;    0.000
437.631; 2605.700;  251.050;    0.000
437.681; 2621.700;  284.050;    0.000
437.730; 2641.700;  239.050;    0.000
437.780; 2641.700;  221.050;    0.000
437.829; 2683.700;  254.050;    0.000
437.879; 2678.700;  221.050;    0.000
437.928; 2612.700;  205.050;    0.000
437.978; 2634.700;  223.050;    0.000
438.027; 2682.700;  262.050;    0.000
438.077; 2641.700;  280.050;    0.000
438.126; 2710.700;  254.050;    0.000
438.176; 2607.700;  230.050;    0.000
438.225; 2656.700;  227.050;    0.000
438.274; 2690.700;  264.050;    0.000
438.324; 2652.700;  233.050;    0.000
438.373; 2648.700;  238.050;    0.000
438.422; 2629.700;  260.050;    0.000
438.472; 2645.700;  223.050;    0.000
438.521; 2590.700;  213.050;    0.000
438.570; 2609.700;  236.050;    0.000
438.620; 2685.700;  282.050;    0.000
438.669; 2562.700;  209.050;    0.000
438.718; 2604.700;  245.050;    0.000
438.768; 2668.700;  238.050;    0.000
438.817; 2628.700;  259.050;    0.000
438.866; 2642.700;  232.050;    0.000
438.915; 2584.700;  288.050;    0.000
438.965; 2593.700;  228.050;    0.000
439.014; 2567.700;  246.050;    0.000
439.063; 2667.700;  287.050;    0.000
439.112; 2582.700;  217.050;    0.000
439.162; 2591.700;  275.050;    0.000
439.211; 2686.700;  287.050;    0.000
439.260; 2663.700;  238.050;    0.000
439.309; 2599.700;  225.050;    0.000
439.358; 2674.700;  248.050;    0.000
439.407; 2677.700;  237.050;    0.000
439.456; 2554.700;  223.050;    0.000
439.506; 2673.700;  266.050;    0.000
439.555; 2659.700;  260.050;    0.000
439.604; 2668.700;  233.050;    0.000
439.653; 2566.700;  242.050;    0.000
439.702; 2654.700;  255.050;    0.000
439.751; 2614.700;  202.050;    0.000
439.800; 2699.700;  247.050;    0.000
439.849; 2643.700;  250.050;    0.000
439.898; 2616.700;  216.050;    0.000
439.947; 2608.700;  231.050;    0.000
439.996; 2550.700;  272.050;    0.000
440.045; 2587.700;  217.050;    0.000
440.094; 2619.700;  220.050;    0.000
440.143; 2613.700;  245.050;    0.000
440.192; 2713.700;  267.050;    0.000
440.241; 2666.700;  263.050;    0.000
440.290; 2623.700;  246.050;    0.000
440.339; 2571.700;  225.050;    0.000
440.388; 2742.700;  256.050;    0.000
440.437; 2630.700;  253.050;    0.000
440.486; 2708.700;  249.050;    0.000
440.535; 2647.700;  232.050;    0.000
440.583; 2593.700;  220.050;    0.000
440.632; 2708.700;  239.050;    0.000
440.681; 2640.700;  236.050;    0.000
440.730; 2741.700;  282.050;    0.000
440.779; 2775.700;  245.050;    0.000
440.828; 2692.700;  213.050;    0.000
440.876; 2647.700;  231.050;    0.000
440.925; 2719.700;  271.050;    0.000
440.974; 2676.700;  240.050;    0.000
441.023; 2661.700;  214.050;    0.000
441.072; 2715.700;  236.050;    0.000
441.120; 2773.700;  271.050;    0.000
441.169; 2729.700;  281.050;    0.000
441.218; 2657.700;  255.050;    0.000
441.267; 2748.700;  272.050;    0.000
441.315; 2743.700;  229.050;    0.000
441.364; 2764.700;  241.050;    0.000
441.413; 2708.700;  224.050;    0.000
441.461; 2750.700;  241.050;    0.000
441.510; 2871.700;  289.050;    0.000
441.559; 2909.700;  222.050;    0.000
441.607; 2759.700;  242.050;    0.000
441.656; 2761.700;  255.050;    0.000
441.705; 2850.700;  260.050;    0.000
441.753; 2849.700;  290.050;    0.000
441.802; 2722.700;  264.050;    0.000
441.850; 2793.700;  224.050;    0.000
441.899; 2742.700;  275.050;    0.000
441.948; 2824.700;  227.050;    0.000
441.996; 2794.700;  216.050;    0.000
442.045; 2822.700;  271.050;    0.000
442.093; 2820.700;  227.050;    0.000
442.142; 2730.700;  273.050;    0.000
442.190; 2819.700;  257.050;    0.000
442.239; 2730.700;  269.050;    0.000
442.287; 2832.700;  257.050;    0.000
442.336; 2719.700;  237.050;    0.000
442.384; 2796.700;  214.050;    0.000
442.433; 2783.700;  272.050;    0.000
442.481; 2818.700;  258.050;    0.000
442.529; 2735.700;  242.050;    0.000
442.578; 2813.700;  278.050;    0.000
442.626; 2835.700;  264.050;    0.000
442.675; 2795.700;  293.050;    0.000
442.723; 2644.700;  244.050;    0.000
442.771; 2641.700;  232.050;    0.000
442.820; 2788.700;  266.050;    0.000
442.868; 2733.700;  253.050;    0.000
442.917; 2757.700;  250.050;    0.000
442.965; 2849.700;  279.050;    0.000
443.013; 2784.700;  253.050;    0.000
443.062; 2793.700;  282.050;    0.000
443.110; 2718.700;  258.050;    0.000
443.158; 2742.700;  246.050;    0.000
443.206; 2654.700;  255.050;    0.000
443.255; 2819.700;  296.050;    0.000
443.303; 2816.700;  272.050;    0.000
443.351; 2824.700;  270.050;    0.000
443.399; 2658.700;  258.050;    0.000
443.448; 2836.700;  265.050;    0.000
443.496; 2761.700;  219.050;    0.000
443.544; 2735.700;  205.050;    0.000
443.592; 2785.700;  266.050;    0.000
443.640; 2840.700;  260.050;    0.000
443.689; 2835.700;  232.050;    0.000
443.737; 2802.700;  281.050;    0.000
443.785; 2919.700;  248.050;    0.000
443.833; 2912.700;  286.050;    0.000
443.881; 2897.700;  225.050;    0.000
443.929; 2919.700;  255.050;    0.000
443.977; 2822.700;  248.050;    0.000
444.025; 2763.700;  255.050;    0.000
444.074; 2847.700;  266.050;    0.000
444.122; 2918.700;  266.050;    0.000
444.170; 2837.700;  207.050;    0.000
444.218; 2876.700;  253.050;    0.000
444.266; 2917.700;  263.050;    0.000
444.314; 2991.700;  272.050;    0.000
444.362; 2908.700;  272.050;    0.000
444.410; 2988.700;  255.050;    0.000
444.458; 2923.700;  288.050;    0.000
444.506; 3022.700;  263.050;    0.000
444.554; 2987.700;  243.050;    0.000
444.602; 3071.700;  285.050;    0.000
444.650; 3059.700;  273.050;    0.000
444.698; 3095.700;  221.050;    0.000
444.746; 3042.700;  243.050;    0.000
444.793; 3009.700;  217.050;    0.000
444.841; 3061.700;  262.050;    0.000
444.889; 3077.700;  264.050;    0.000
444.937; 2993.700;  226.050;    0.000
444.985; 2982.700;  257.050;    0.000
445.033; 3068.700;  264.050;    0.000
445.081; 2964.700;  264.050;    0.000
445.129; 2966.700;  187.050;    0.000
445.176; 2974.700;  212.050;    0.000
445.224; 2924.700;  198.050;    0.000
445.272; 2953.700;  265.050;    0.000
445.320; 2997.700;  239.050;    0.000
445.368; 2976.700;  245.050;    0.000
445.415; 2946.700;  215.050;    0.000
445.463; 2987.700;  202.050;    0.000
445.511; 3010.700;  234.050;    0.000
445.559; 2972.700;  269.050;    0.000
445.606; 2917.700;  214.050;    0.000
445.654; 2894.700;  227.050;    0.000
445.702; 2951.700;  276.050;    0.000
445.749; 2982.700;  256.050;    0.000
445.797; 2959.700;  236.050;    0.000
445.845; 2976.700;  230.050;    0.000
445.892; 3024.700;  233.050;    0.000
445.940; 2977.700;  257.050;    0.000
445.988; 2818.700;  253.050;    0.000
446.035; 2933.700;  265.050;    0.000
446.083; 3067.700;  254.050;    0.000
446.130; 2931.700;  228.050;    0.000
446.178; 3002.700;  256.050;    0.000
446.226; 2988.700;  238.050;    0.000
446.273; 3026.700;  228.050;    0.000
446.321; 3077.700;  220.050;    0.000
446.368; 3065.700;  249.050;    0.000
446.416; 2966.700;  221.050;    0.000
446.463; 2949.700;  232.050;    0.000
446.511; 2956.700;  243.050;    0.000
446.558; 3060.700;  217.050;    0.000
446.606; 3028.700;  256.050;    0.000
446.653; 3152.700;  238.050;    0.000
446.701; 3058.700;  259.050;    0.000
446.748; 3053.700;  227.050;    0.000
446.796; 3137.700;  236.050;    0.000
446.843; 3215.700;  241.050;    0.000
446.891; 3161.700;  292.050;    0.000
446.938; 3120.700;  219.050;    0.000
446.985; 3196.700;  255.050;    0.000
447.033; 3220.700;  237.050;    0.000
447.080; 3327.700;  278.050;    0.000
447.128; 3180.700;  237.050;    0.000
447.175; 3311.700;  247.050;    0.000
447.222; 3269.700;  235.050;    0.000
447.270; 3305.700;  274.050;    0.000
447.317; 3295.700;  222.050;    0.000
447.364; 3413.700;  230.050;    0.000
447.411; 3495.700;  297.050;    0.000
447.459; 3358.700;  243.050;    0.000
447.506; 3386.700;  202.050;    0.000
447.553; 3451.700;  232.050;    0.000
447.601; 3580.700;  262.050;    0.000
447.648; 3571.700;  254.050;    0.000
447.695; 3562.700;  287.050;    0.000
447.742; 3612.700;  232.050;    0.000
447.789; 3735.700;  257.050;    0.000
447.837; 3811.700;  260.050;    0.000
447.884; 3783.700;  272.050;    0.000
447.931; 4002.700;  241.050;    0.000
447.978; 3871.700;  241.050;    0.000
448.025; 4065.700;  264.050;    0.000
448.072; 3999.700;  279.050;    0.000
448.120; 4013.700;  263.050;    0.000
448.167; 4058.700;  284.050;    0.000
448.214; 3869.700;  252.050;    0.000
448.261; 3876.700;  247.050;    0.000
448.308; 3835.700;  249.050;    0.000
448.355; 3738.700;  263.050;    0.000
448.402; 3674.700;  251.050;    0.000
448.449; 3552.700;  257.050;    0.000
448.496; 3619.700;  243.050;    0.000
448.543; 3545.700;  274.050;    0.000
448.590; 3534.700;  299.050;    0.000
448.637; 3480.700;  259.050;    0.000
448.684; 3363.700;  266.050;    0.000
448.731; 3335.700;  261.050;    0.000
448.778; 3434.700;  292.050;    0.000
448.825; 3134.700;  253.050;    0.000
448.872; 3191.700;  253.050;    0.000
448.919; 3261.700;  218.050;    0.000
448.966; 3239.700;  254.050;    0.000
449.013; 3150.700;  263.050;    0.000
449.060; 3216.700;  282.050;    0.000
449.107; 3091.700;  244.050;    0.000
449.154; 3084.700;  236.050;    0.000
449.200; 3033.700;  226.050;    0.000
449.247; 3024.700;  273.050;    0.000
449.294; 2963.700;  270.050;    0.000
449.341; 3031.700;  283.050;    0.000
449.388; 2941.700;  261.050;    0.000
449.435; 2936.700;  254.050;    0.000
449.481; 2937.700;  318.050;    0.000
449.528; 2959.700;  274.050;    0.000
449.575; 3009.700;  251.050;    0.000
449.622; 2896.700;  276.050;    0.000
449.668; 2929.700;  242.050;    0.000
449.715; 2912.700;  286.050;    0.000
449.762; 2867.700;  268.050;    0.000
449.809; 2840.700;  285.050;    0.000
449.855; 2851.700;  277.050;    0.000
449.902; 2870.700;  246.050;    0.000
449.949; 2885.700;  268.050;    0.000
449.995; 2883.700;  289.050;    0.000
450.042; 2775.700;  256.050;    0.000
450.089; 2795.700;  290.050;    0.000
450.135; 2814.700;  300.050;    0.000
450.182; 2872.700;  317.050;    0.000
450.229; 2803.700;  282.050;    0.000
450.275; 2801.700;  307.050;    0.000
450.322; 2865.700;  260.050;    0.000
450.368; 2800.700;  315.050;    0.000
450.415; 2779.700;  306.050;    0.000
450.462; 2705.700;  314.050;    0.000
450.508; 2748.700;  303.050;    0.000
450.555; 2700.700;  281.050;    0.000
450.601; 2699.700;  291.050;    0.000
450.648; 2703.700;  288.050;    0.000
450.694; 2720.700;  290.050;    0.000
450.741; 2767.700;  303.050;    0.000
450.787; 2693.700;  298.050;    0.000
450.834; 2727.700;  265.050;    0.000
450.880; 2673.700;  273.050;    0.000
450.927; 2675.700;  312.050;    0.000
450.973; 2723.700;  303.050;    0.000
451.019; 2634.700;  222.050;    0.000
451.066; 2719.700;  284.050;    0.000
451.112; 2652.700;  296.050;    0.000
451.159; 2595.700;  299.050;    0.000
451.205; 2653.700;  311.050;    0.000
451.251; 2694.700;  306.050;    0.000
451.298; 2573.700;  281.050;    0.000
451.344; 2663.700;  311.050;    0.000
451.390; 2625.700;  331.050;    0.000
451.437; 2640.700;  303.050;    0.000
451.483; 2738.700;  284.050;    0.000
451.529; 2582.700;  310.050;    0.000
451.576; 2693.700;  301.050;    0.000
451.622; 2584.700;  275.050;    0.000
451.668; 2601.700;  269.050;    0.000
451.714; 2578.700;  277.050;    0.000
451.761; 2602.700;  298.050;    0.000
451.807; 2580.700;  316.050;    0.000
451.853; 2661.700;  301.050;    0.000
451.899; 2640.700;  292.050;    0.000
451.945; 2588.700;  324.050;    0.000
451.992; 2642.700;  292.050;    0.000
452.038; 2505.700;  261.050;    0.000
452.084; 2594.700;  286.050;    0.000
452.130; 2561.700;  301.050;    0.000
452.176; 2491.700;  287.050;    0.000
452.222; 2512.700;  265.050;    0.000
452.268; 2632.700;  268.050;    0.000
452.315; 2576.700;  272.050;    0.000
452.361; 2588.700;  258.050;    0.000
452.407; 2517.700;  279.050;    0.000
452.453; 2535.700;  252.050;    0.000
452.499; 2587.700;  305.050;    0.000
452.545; 2549.700;  263.050;    0.000
452.591; 2571.700;  284.050;    0.000
452.637; 2548.700;  289.050;    0.000
452.683; 2461.700;  249.050;    0.000
452.729; 2561.700;  290.050;    0.000
452.775; 2496.700;  315.050;    0.000
452.821; 2519.700;  271.050;    0.000
452.867; 2573.700;  258.050;    0.000
452.913; 2516.700;  256.050;    0.000
452.959; 2494.700;  266.050;    0.000
453.005; 2453.700;  299.050;    0.000
453.051; 2487.700;  299.050;    0.000
453.097; 2456.700;  268.050;    0.000
453.142; 2481.700;  251.050;    0.000
453.188; 2420.700;  284.050;    0.000
453.234; 2456.700;  285.050;    0.000
453.280; 2463.700;  263.050;    0.000
453.326; 2561.700;  273.050;    0.000
453.372; 2438.700;  253.050;    0.000
453.418; 2427.700;  269.050;    0.000
453.463; 2513.700;  250.050;    0.000
453.509; 2473.700;  289.050;    0.000
453.555; 2446.700;  262.050;    0.000
453.601; 2362.700;  274.050;    0.000
453.647; 2457.700;  306.050;    0.000
453.692; 2450.700;  264.050;    0.000
453.738; 2544.700;  312.050;    0.000
453.784; 2390.700;  300.050;    0.000
453.829; 2468.700;  284.050;    0.000
453.875; 2406.700;  270.050;    0.000
453.921; 2422.700;  237.050;    0.000
453.967; 2375.700;  263.050;    0.000
454.012; 2446.700;  295.050;    0.000
454.058; 2437.700;  293.050;    0.000
454.104; 2352.700;  264.050;    0.000
454.149; 2478.700;  282.050;    0.000
454.195; 2405.700;  277.050;    0.000
454.240; 2514.700;  307.050;    0.000
454.286; 2472.700;  282.050;    0.000
454.332; 2407.700;  291.050;    0.000
454.377; 2460.700;  302.050;    0.000
454.423; 2378.700;  276.050;    0.000
454.468; 2410.700;  281.050;    0.000
454.514; 2413.700;  290.050;    0.000
454.559; 2343.700;  289.050;    0.000
454.605; 2373.700;  258.050;    0.000
454.650; 2394.700;  281.050;    0.000
454.696; 2398.700;  308.050;    0.000
454.741; 2468.700;  288.050;    0.000
454.787; 2381.700;  284.050;    0.000
454.832; 2408.700;  306.050;    0.000
454.878; 2440.700;  288.050;    0.000
454.923; 2422.700;  287.050;    0.000
454.969; 2457.700;  325.050;    0.000
455.014; 2430.700;  323.050;    0.000
455.060; 2461.700;  290.050;    0.000
455.105; 2349.700;  285.050;    0.000
455.150; 2474.700;  303.050;    0.000
455.196; 2470.700;  282.050;    0.000
455.241; 2460.700;  281.050;    0.000
455.286; 2508.700;  290.050;    0.000
455.332; 2444.700;  280.050;    0.000
455.377; 2456.700;  243.050;    0.000
455.422; 2460.700;  308.050;    0.000
455.468; 2423.700;  308.050;    0.000
455.513; 2399.700;  290.050;    0.000
455.558; 2375.700;  211.050;    0.000
455.604; 2405.700;  289.050;    0.000
455.649; 2353.700;  297.050;    0.000
455.694; 2435.700;  287.050;    0.000
455.739; 2427.700;  296.050;    0.000
455.785; 2409.700;  315.050;    0.000
455.830; 2440.700;  328.050;    0.000
455.875; 2374.700;  310.050;    0.000
455.920; 2361.700;  261.050;    0.000
455.965; 2379.700;  277.050;    0.000
456.010; 2428.700;  317.050;    0.000
456.056; 2397.700;  299.050;    0.000
456.101; 2374.700;  262.050;    0.000
456.146; 2378.700;  318.050;    0.000
456.191; 2381.700;  274.050;    0.000
456.236; 2435.700;  274.050;    0.000
456.281; 2320.700;  275.050;    0.000
456.326; 2392.700;  256.050;    0.000
456.371; 2350.700;  260.050;    0.000
456.416; 2454.700;  304.050;    0.000
456.461; 2353.700;  278.050;    0.000
456.507; 2365.700;  299.050;    0.000
456.552; 2349.700;  305.050;    0.000
456.597; 2420.700;  271.050;    0.000
456.642; 2452.700;  273.050;    0.000
456.687; 2370.700;  290.050;    0.000
456.732; 2476.700;  327.050;    0.000
456.776; 2390.700;  284.050;    0.000
456.821; 2461.700;  321.050;    0.000
456.866; 2515.700;  272.050;    0.000
456.911; 2426.700;  232.050;    0.000
456.956; 2485.700;  263.050;    0.000
457.001; 2416.700;  277.050;    0.000
457.046; 2430.700;  284.050;    0.000
457.091; 2367.700;  269.050;    0.000
457.136; 2420.700;  269.050;    0.000
457.181; 2454.700;  275.050;    0.000
457.225; 2427.700;  310.050;    0.000
457.270; 2368.700;  295.050;    0.000
457.315; 2347.700;  284.050;    0.000
457.360; 2351.700;  264.050;    0.000
457.405; 2472.700;  273.050;    0.000
457.450; 2459.700;  284.050;    0.000
457.494; 2445.700;  273.050;    0.000
457.539; 2417.700;  287.050;    0.000
457.584; 2399.700;  279.050;    0.000
457.629; 2395.700;  288.050;    0.000
457.673; 2437.700;  297.050;    0.000
457.718; 2430.700;  270.050;    0.000
457.763; 2488.700;  295.050;    0.000
457.807; 2477.700;  321.050;    0.000
457.852; 2453.700;  293.050;    0.000
457.897; 2402.700;  282.050;    0.000
457.941; 2466.700;  320.050;    0.000
457.986; 2465.700;  295.050;    0.000
458.031; 2486.700;  314.050;    0.000
458.075; 2504.700;  280.050;    0.000
458.120; 2494.700;  314.050;    0.000
458.165; 2414.700;  289.050;    0.000
458.209; 2558.700;  289.050;    0.000
458.254; 2510.700;  272.050;    0.000
458.298; 2547.700;  305.050;    0.000
458.343; 2538.700;  284.050;    0.000
458.387; 2598.700;  340.050;    0.000
458.432; 2538.700;  306.050;    0.000
458.476; 2560.700;  311.050;    0.000
458.521; 2479.700;  304.050;    0.000
458.565; 2610.700;  329.050;    0.000
458.610; 2496.700;  287.050;    0.000
458.654; 2590.700;  300.050;    0.000
458.699; 2551.700;  295.050;    0.000
458.743; 2565.700;  269.050;    0.000
458.788; 2546.700;  294.050;    0.000
458.832; 2621.700;  301.050;    0.000
458.877; 2640.700;  303.050;    0.000
458.921; 2565.700;  259.050;    0.000
458.965; 2642.700;  308.050;    0.000
459.010; 2610.700;  330.050;    0.000
459.054; 2616.700;  298.050;    0.000
459.099; 2557.700;  303.050;    0.000
459.143; 2702.700;  333.050;    0.000
459.187; 2636.700;  291.050;    0.000
459.231; 2646.700;  316.050;    0.000
459.276; 2655.700;  294.050;    0.000
459.320; 2650.700;  291.050;    0.000
459.364; 2694.700;  318.050;    0.000
459.409; 2723.700;  325.050;    0.000
459.453; 2688.700;  293.050;    0.000
459.497; 2659.700;  354.050;    0.000
459.541; 2634.700;  313.050;    0.000
459.586; 2678.700;  282.050;    0.000
459.630; 2719.700;  286.050;    0.000
459.674; 2751.700;  292.050;    0.000
459.718; 2735.700;  280.050;    0.000
459.762; 2674.700;  304.050;    0.000
459.807; 2736.700;  352.050;    0.000
459.851; 2739.700;  300.050;    0.000
459.895; 2605.700;  311.050;    0.000
459.939; 2733.700;  303.050;    0.000
459.983; 2780.700;  299.050;    0.000
460.027; 2703.700;  307.050;    0.000
460.071; 2781.700;  313.050;    0.000
460.115; 2698.700;  325.050;    0.000
460.159; 2754.700;  331.050;    0.000
460.204; 2889.700;  301.050;    0.000
460.248; 2855.700;  329.050;    0.000
460.292; 2812.700;  310.050;    0.000
460.336; 2758.700;  304.050;    0.000
460.380; 2806.700;  313.050;    0.000
460.424; 2744.700;  300.050;    0.000
460.468; 2767.700;  338.050;    0.000
460.512; 2855.700;  310.050;    0.000
460.556; 2836.700;  337.050;    0.000
460.599; 2806.700;  310.050;    0.000
460.643; 2827.700;  303.050;    0.000
460.687; 2855.700;  316.050;    0.000
460.731; 2819.700;  292.050;    0.000
460.775; 2805.700;  294.050;    0.000
460.819; 2790.700;  310.050;    0.000
460.863; 2869.700;  349.050;    0.000
460.907; 2815.700;  265.050;    0.000
460.951; 2785.700;  325.050;    0.000
460.995; 2800.700;  338.050;    0.000
461.038; 2754.700;  304.050;    0.000
461.082; 2804.700;  312.050;    0.000
461.126; 2803.700;  358.050;    0.000
461.170; 2866.700;  306.050;    0.000
461.214; 2839.700;  330.050;    0.000
461.257; 2896.700;  311.050;    0.000
461.301; 2913.700;  303.050;    0.000
461.345; 2855.700;  310.050;    0.000
461.389; 2826.700;  296.050;    0.000
461.432; 2843.700;  304.050;    0.000
461.476; 2795.700;  305.050;    0.000
461.520; 2782.700;  319.050;    0.000
461.563; 2887.700;  294.050;    0.000
461.607; 2878.700;  295.050;    0.000
461.651; 2781.700;  335.050;    0.000
461.694; 2791.700;  276.050;    0.000
461.738; 2892.700;  327.050;    0.000
461.782; 2819.700;  288.050;    0.000
461.825; 2932.700;  319.050;    0.000
461.869; 2920.700;  305.050;    0.000
461.913; 2893.700;  281.050;    0.000
461.956; 2911.700;  281.050;    0.000
462.000; 3003.700;  339.050;    0.000
462.043; 2963.700;  347.050;    0.000
462.087; 2913.700;  314.050;    0.000
462.130; 2966.700;  332.050;    0.000
462.174; 3017.700;  332.050;    0.000
462.217; 2945.700;  299.050;    0.000
462.261; 2949.700;  323.050;    0.000
462.304; 2918.700;  286.050;    0.000
462.348; 2972.700;  305.050;    0.000
462.391; 3044.700;  293.050;    0.000
462.435; 3078.700;  365.050;    0.000
462.478; 3054.700;  329.050;    0.000
462.522; 3098.700;  316.050;    0.000
462.565; 3039.700;  328.050;    0.000
462.608; 3157.700;  350.050;    0.000
462.652; 3054.700;  328.050;    0.000
462.695; 3080.700;  358.050;    0.000
462.739; 3052.700;  317.050;    0.000
462.782; 3173.700;  329.050;    0.000
462.825; 3210.700;  368.050;    0.000
462.869; 3136.700;  343.050;    0.000
462.912; 3245.700;  404.050;    0.000
462.955; 3301.700;  328.050;    0.000
462.998; 3148.700;  340.050;    0.000
463.042; 3228.700;  361.050;    0.000
463.085; 3227.700;  337.050;    0.000
463.128; 3252.700;  373.050;    0.000
463.172; 3134.700;  347.050;    0.000
463.215;  385.700;  305.050;    0.000
463.258;  325.700;  324.050;    0.000
463.301;  299.700;  296.050;    0.000
463.344;  315.700;  332.050;    0.000
463.388;  298.700;  309.050;    0.000
463.431;  296.700;  298.050;    0.000
463.474;  332.700;  351.050;    0.000
463.517;  323.700;  319.050;    0.000
463.560;  325.700;  325.050;    0.000
463.603;  354.700;  330.050;    0.000
463.646;  309.700;  332.050;    0.000
463.690;  311.700;  325.050;    0.000
463.733;  313.700;  323.050;    0.000
463.776;  284.700;  276.050;    0.000
463.819;  322.700;  320.050;    0.000
463.862;  270.700;  275.050;    0.000

