
Integration time [ms]:   1.000
Averaging Nr. [scans]: 1
Smoothing Nr. [pixels]: 0
Data measured with spectrometer [name]: UV2
Wave   ;Sample   ;Dark     ;Reference
[nm]   ;[counts] ;[counts] ;[counts] 

353.533;  240.750;  216.475;    0.000
353.597;  192.750;  244.475;    0.000
353.660;  175.750;  181.475;    0.000
353.723;  216.750;  203.475;    0.000
353.786;  179.750;  180.475;    0.000
353.850;  209.750;  213.475;    0.000
353.913;  209.750;  191.475;    0.000
353.976;  162.750;  195.475;    0.000
354.039;  203.750;  158.475;    0.000
354.102;  214.750;  199.475;    0.000
354.166;  221.750;  185.475;    0.000
354.229;  189.750;  188.475;    0.000
354.292;  184.750;  188.475;    0.000
354.355;  182.750;  226.475;    0.000
354.418;  180.750;  158.475;    0.000
354.481;  191.750;  185.475;    0.000
354.545;  749.750;  191.475;    0.000
354.608;  647.750;  247.475;    0.000
354.671;  684.750;  176.475;    0.000
354.734;  705.750;  198.475;    0.000
354.797;  724.750;  195.475;    0.000
354.860;  727.750;  212.475;    0.000
354.923;  724.750;  184.475;    0.000
354.986;  707.750;  169.475;    0.000
355.050;  679.750;  206.475;    0.000
355.113;  749.750;  210.475;    0.000
355.176;  806.750;  217.475;    0.000
355.239;  771.750;  201.475;    0.000
355.302;  772.750;  193.475;    0.000
355.365;  848.750;  234.475;    0.000
355.428;  827.750;  182.475;    0.000
355.491;  838.750;  233.475;    0.000
355.554;  834.750;  167.475;    0.000
355.617;  859.750;  195.475;    0.000
355.680;  819.750;  198.475;    0.000
355.743;  878.750;  186.475;    0.000
355.806;  852.750;  171.475;    0.000
355.869;  918.750;  244.475;    0.000
355.932;  894.750;  164.475;    0.000
355.995;  890.750;  220.475;    0.000
356.058;  898.750;  172.475;    0.000
356.121;  969.750;  228.475;    0.000
356.184;  918.750;  225.475;    0.000
356.247;  890.750;  161.475;    0.000
356.310;  936.750;  195.475;    0.000
356.373;  918.750;  191.475;    0.000
356.436;  909.750;  147.475;    0.000
356.498;  988.750;  183.475;    0.000
356.561;  976.750;  137.475;    0.000
356.624;  953.750;  186.475;    0.000
356.687;  956.750;  158.475;    0.000
356.750;  947.750;  194.475;    0.000
356.813;  969.750;  186.475;    0.000
356.876;  931.750;  161.475;    0.000
356.939;  987.750;  188.475;    0.000
357.001;  961.750;  200.475;    0.000
357.064;  996.750;  182.475;    0.000
357.127;  993.750;  168.475;    0.000
357.190;  966.750;  157.475;    0.000
357.253;  940.750;  199.475;    0.000
357.316;  981.750;  187.475;    0.000
357.378; 1019.750;  174.475;    0.000
357.441;  981.750;  165.475;    0.000
357.504;  934.750;  189.475;    0.000
357.567;  929.750;  116.475;    0.000
357.629; 1037.750;  176.475;    0.000
357.692;  976.750;  134.475;    0.000
357.755; 1037.750;  175.475;    0.000
357.818;  994.750;  159.475;    0.000
357.880; 1049.750;  185.475;    0.000
357.943; 1023.750;  159.475;    0.000
358.006; 1017.750;  176.475;    0.000
358.069; 1005.750;  156.475;    0.000
358.131; 1022.750;  170.475;    0.000
358.194; 1053.750;  125.475;    0.000
358.257; 1026.750;  186.475;    0.000
358.319; 1033.750;  139.475;    0.000
358.382; 1057.750;  175.475;    0.000
358.445; 1086.750;  170.475;    0.000
358.507; 1007.750;  129.475;    0.000
358.570; 1086.750;  168.475;    0.000
358.633; 1029.750;  152.475;    0.000
358.695; 1049.750;  194.475;    0.000
358.758; 1008.750;  154.475;    0.000
358.821; 1052.750;  147.475;    0.000
358.883; 1090.750;  163.475;    0.000
358.946; 1031.750;  155.475;    0.000
359.008; 1121.750;  208.475;    0.000
359.071; 1063.750;  182.475;    0.000
359.134; 1053.750;  126.475;    0.000
359.196; 1054.750;  142.475;    0.000
359.259; 1052.750;  138.475;    0.000
359.321; 1071.750;  153.475;    0.000
359.384; 1110.750;  186.475;    0.000
359.446; 1093.750;  152.475;    0.000
359.509; 1060.750;  144.475;    0.000
359.571; 1009.750;  164.475;    0.000
359.634; 1090.750;  171.475;    0.000
359.696; 1106.750;  144.475;    0.000
359.759; 1089.750;  171.475;    0.000
359.821; 1089.750;  161.475;    0.000
359.884; 1111.750;  159.475;    0.000
359.946; 1142.750;  186.475;    0.000
360.009; 1086.750;  171.475;    0.000
360.071; 1095.750;  166.475;    0.000
360.134; 1119.750;  215.475;    0.000
360.196; 1112.750;  138.475;    0.000
360.259; 1102.750;  196.475;    0.000
360.321; 1094.750;  148.475;    0.000
360.384; 1128.750;  150.475;    0.000
360.446; 1136.750;  148.475;    0.000
360.508; 1143.750;  172.475;    0.000
360.571; 1150.750;  155.475;    0.000
360.633; 1110.750;  153.475;    0.000
360.696; 1099.750;  142.475;    0.000
360.758; 1177.750;  165.475;    0.000
360.820; 1140.750;  155.475;    0.000
360.883; 1158.750;  156.475;    0.000
360.945; 1138.750;  171.475;    0.000
361.007; 1098.750;  138.475;    0.000
361.070; 1167.750;  129.475;    0.000
361.132; 1137.750;  166.475;    0.000
361.194; 1154.750;  143.475;    0.000
361.257; 1168.750;  154.475;    0.000
361.319; 1178.750;  176.475;    0.000
361.381; 1142.750;  143.475;    0.000
361.443; 1189.750;  136.475;    0.000
361.506; 1160.750;  160.475;    0.000
361.568; 1119.750;  140.475;    0.000
361.630; 1220.750;  159.475;    0.000
361.693; 1212.750;  162.475;    0.000
361.755; 1201.750;  185.475;    0.000
361.817; 1231.750;  209.475;    0.000
361.879; 1188.750;  161.475;    0.000
361.941; 1111.750;  152.475;    0.000
362.004; 1139.750;  132.475;    0.000
362.066; 1217.750;  159.475;    0.000
362.128; 1262.750;  143.475;    0.000
362.190; 1151.750;  131.475;    0.000
362.252; 1212.750;  131.475;    0.000
362.315; 1206.750;  175.475;    0.000
362.377; 1219.750;  140.475;    0.000
362.439; 1204.750;  140.475;    0.000
362.501; 1190.750;  140.475;    0.000
362.563; 1165.750;  152.475;    0.000
362.625; 1218.750;  174.475;    0.000
362.688; 1182.750;  195.475;    0.000
362.750; 1273.750;  221.475;    0.000
362.812; 1248.750;  171.475;    0.000
362.874; 1159.750;  117.475;    0.000
362.936; 1252.750;  162.475;    0.000
362.998; 1216.750;  142.475;    0.000
363.060; 1249.750;  143.475;    0.000
363.122; 1163.750;  148.475;    0.000
363.184; 1302.750;  179.475;    0.000
363.246; 1277.750;  186.475;    0.000
363.308; 1239.750;  180.475;    0.000
363.370; 1213.750;  200.475;    0.000
363.432; 1232.750;  139.475;    0.000
363.494; 1204.750;  138.475;    0.000
363.556; 1229.750;  114.475;    0.000
363.618; 1200.750;  153.475;    0.000
363.680; 1197.750;  153.475;    0.000
363.742; 1213.750;  178.475;    0.000
363.804; 1253.750;  214.475;    0.000
363.866; 1245.750;  170.475;    0.000
363.928; 1239.750;  145.475;    0.000
363.990; 1203.750;  215.475;    0.000
364.052; 1213.750;  166.475;    0.000
364.114; 1301.750;  168.475;    0.000
364.176; 1283.750;  176.475;    0.000
364.238; 1292.750;  203.475;    0.000
364.300; 1268.750;  158.475;    0.000
364.362; 1225.750;  152.475;    0.000
364.424; 1207.750;  119.475;    0.000
364.486; 1298.750;  187.475;    0.000
364.548; 1247.750;  180.475;    0.000
364.609; 1273.750;  212.475;    0.000
364.671; 1293.750;  165.475;    0.000
364.733; 1278.750;  190.475;    0.000
364.795; 1288.750;  148.475;    0.000
364.857; 1258.750;  159.475;    0.000
364.919; 1253.750;  159.475;    0.000
364.981; 1289.750;  191.475;    0.000
365.042; 1364.750;  170.475;    0.000
365.104; 1293.750;  145.475;    0.000
365.166; 1192.750;  134.475;    0.000
365.228; 1313.750;  150.475;    0.000
365.290; 1247.750;  158.475;    0.000
365.351; 1267.750;  168.475;    0.000
365.413; 1301.750;  173.475;    0.000
365.475; 1247.750;  172.475;    0.000
365.537; 1325.750;  126.475;    0.000
365.598; 1328.750;  160.475;    0.000
365.660; 1288.750;  127.475;    0.000
365.722; 1323.750;  189.475;    0.000
365.784; 1258.750;  161.475;    0.000
365.845; 1291.750;  152.475;    0.000
365.907; 1287.750;  117.475;    0.000
365.969; 1243.750;  146.475;    0.000
366.030; 1310.750;  171.475;    0.000
366.092; 1260.750;  155.475;    0.000
366.154; 1184.750;  137.475;    0.000
366.215; 1306.750;  147.475;    0.000
366.277; 1270.750;  148.475;    0.000
366.339; 1312.750;  158.475;    0.000
366.400; 1259.750;  140.475;    0.000
366.462; 1225.750;  159.475;    0.000
366.524; 1348.750;  160.475;    0.000
366.585; 1180.750;  157.475;    0.000
366.647; 1299.750;  170.475;    0.000
366.708; 1334.750;  123.475;    0.000
366.770; 1381.750;  194.475;    0.000
366.832; 1301.750;  191.475;    0.000
366.893; 1311.750;  155.475;    0.000
366.955; 1320.750;  132.475;    0.000
367.016; 1250.750;  126.475;    0.000
367.078; 1287.750;  202.475;    0.000
367.139; 1259.750;  116.475;    0.000
367.201; 1262.750;  134.475;    0.000
367.262; 1273.750;  157.475;    0.000
367.324; 1288.750;  202.475;    0.000
367.385; 1284.750;  118.475;    0.000
367.447; 1334.750;  155.475;    0.000
367.508; 1334.750;  134.475;    0.000
367.570; 1385.750;  165.475;    0.000
367.631; 1303.750;  118.475;    0.000
367.693; 1337.750;  170.475;    0.000
367.754; 1376.750;  154.475;    0.000
367.816; 1346.750;  146.475;    0.000
367.877; 1345.750;  175.475;    0.000
367.939; 1350.750;  200.475;    0.000
368.000; 1315.750;  168.475;    0.000
368.062; 1283.750;  138.475;    0.000
368.123; 1388.750;  170.475;    0.000
368.184; 1347.750;  188.475;    0.000
368.246; 1328.750;  145.475;    0.000
368.307; 1316.750;  163.475;    0.000
368.369; 1334.750;  144.475;    0.000
368.430; 1293.750;  140.475;    0.000
368.491; 1322.750;  133.475;    0.000
368.553; 1309.750;  145.475;    0.000
368.614; 1347.750;  158.475;    0.000
368.675; 1382.750;  147.475;    0.000
368.737; 1347.750;  157.475;    0.000
368.798; 1414.750;  163.475;    0.000
368.859; 1383.750;  173.475;    0.000
368.921; 1420.750;  122.475;    0.000
368.982; 1308.750;  184.475;    0.000
369.043; 1306.750;  169.475;    0.000
369.104; 1388.750;  142.475;    0.000
369.166; 1396.750;  169.475;    0.000
369.227; 1413.750;  156.475;    0.000
369.288; 1363.750;  151.475;    0.000
369.349; 1376.750;  191.475;    0.000
369.411; 1287.750;  168.475;    0.000
369.472; 1359.750;  155.475;    0.000
369.533; 1261.750;  149.475;    0.000
369.594; 1390.750;  174.475;    0.000
369.656; 1417.750;  188.475;    0.000
369.717; 1368.750;  113.475;    0.000
369.778; 1404.750;  184.475;    0.000
369.839; 1327.750;  151.475;    0.000
369.900; 1426.750;  180.475;    0.000
369.961; 1331.750;  171.475;    0.000
370.023; 1405.750;  143.475;    0.000
370.084; 1383.750;  137.475;    0.000
370.145; 1412.750;  152.475;    0.000
370.206; 1436.750;  151.475;    0.000
370.267; 1342.750;  134.475;    0.000
370.328; 1439.750;  178.475;    0.000
370.389; 1340.750;  181.475;    0.000
370.451; 1365.750;  169.475;    0.000
370.512; 1353.750;  172.475;    0.000
370.573; 1462.750;  148.475;    0.000
370.634; 1382.750;  156.475;    0.000
370.695; 1365.750;  151.475;    0.000
370.756; 1411.750;  185.475;    0.000
370.817; 1357.750;  185.475;    0.000
370.878; 1420.750;  191.475;    0.000
370.939; 1396.750;  147.475;    0.000
371.000; 1423.750;  162.475;    0.000
371.061; 1468.750;  145.475;    0.000
371.122; 1411.750;  179.475;    0.000
371.183; 1359.750;  114.475;    0.000
371.244; 1391.750;  180.475;    0.000
371.305; 1442.750;  138.475;    0.000
371.366; 1463.750;  157.475;    0.000
371.427; 1356.750;  148.475;    0.000
371.488; 1418.750;  138.475;    0.000
371.549; 1408.750;  193.475;    0.000
371.610; 1396.750;  158.475;    0.000
371.671; 1358.750;  119.475;    0.000
371.732; 1441.750;  159.475;    0.000
371.793; 1390.750;  178.475;    0.000
371.853; 1339.750;  155.475;    0.000
371.914; 1447.750;  148.475;    0.000
371.975; 1418.750;  124.475;    0.000
372.036; 1445.750;  158.475;    0.000
372.097; 1432.750;  136.475;    0.000
372.158; 1410.750;  116.475;    0.000
372.219; 1444.750;  157.475;    0.000
372.280; 1466.750;  151.475;    0.000
372.340; 1407.750;  190.475;    0.000
372.401; 1453.750;  151.475;    0.000
372.462; 1398.750;  129.475;    0.000
372.523; 1441.750;  121.475;    0.000
372.584; 1522.750;  152.475;    0.000
372.645; 1480.750;  132.475;    0.000
372.705; 1437.750;  190.475;    0.000
372.766; 1490.750;  153.475;    0.000
372.827; 1461.750;  133.475;    0.000
372.888; 1462.750;  161.475;    0.000
372.948; 1505.750;  159.475;    0.000
373.009; 1469.750;  164.475;    0.000
373.070; 1452.750;  139.475;    0.000
373.131; 1463.750;  137.475;    0.000
373.191; 1508.750;  181.475;    0.000
373.252; 1487.750;  154.475;    0.000
373.313; 1485.750;  179.475;    0.000
373.373; 1467.750;  136.475;    0.000
373.434; 1506.750;  169.475;    0.000
373.495; 1489.750;   97.475;    0.000
373.555; 1496.750;  142.475;    0.000
373.616; 1451.750;  178.475;    0.000
373.677; 1476.750;  167.475;    0.000
373.737; 1528.750;  139.475;    0.000
373.798; 1505.750;  155.475;    0.000
373.859; 1523.750;  162.475;    0.000
373.919; 1474.750;  174.475;    0.000
373.980; 1567.750;  172.475;    0.000
374.041; 1541.750;  166.475;    0.000
374.101; 1529.750;  172.475;    0.000
374.162; 1448.750;  188.475;    0.000
374.222; 1462.750;  186.475;    0.000
374.283; 1518.750;  195.475;    0.000
374.343; 1533.750;  204.475;    0.000
374.404; 1499.750;  187.475;    0.000
374.465; 1495.750;  183.475;    0.000
374.525; 1556.750;  136.475;    0.000
374.586; 1478.750;  140.475;    0.000
374.646; 1591.750;  191.475;    0.000
374.707; 1558.750;  208.475;    0.000
374.767; 1488.750;  178.475;    0.000
374.828; 1465.750;  159.475;    0.000
374.888; 1638.750;  143.475;    0.000
374.949; 1500.750;  202.475;    0.000
375.009; 1588.750;  151.475;    0.000
375.070; 1605.750;  160.475;    0.000
375.130; 1575.750;  160.475;    0.000
375.190; 1558.750;  164.475;    0.000
375.251; 1531.750;  196.475;    0.000
375.311; 1547.750;  154.475;    0.000
375.372; 1555.750;  197.475;    0.000
375.432; 1598.750;  159.475;    0.000
375.493; 1542.750;  197.475;    0.000
375.553; 1578.750;  165.475;    0.000
375.613; 1566.750;  174.475;    0.000
375.674; 1524.750;  165.475;    0.000
375.734; 1532.750;  128.475;    0.000
375.794; 1556.750;  169.475;    0.000
375.855; 1644.750;  193.475;    0.000
375.915; 1540.750;  162.475;    0.000
375.975; 1573.750;  181.475;    0.000
376.036; 1595.750;  161.475;    0.000
376.096; 1487.750;  131.475;    0.000
376.156; 1563.750;  165.475;    0.000
376.217; 1541.750;  182.475;    0.000
376.277; 1601.750;  185.475;    0.000
376.337; 1540.750;  177.475;    0.000
376.398; 1582.750;  162.475;    0.000
376.458; 1522.750;  179.475;    0.000
376.518; 1583.750;  150.475;    0.000
376.578; 1539.750;  165.475;    0.000
376.639; 1517.750;  159.475;    0.000
376.699; 1592.750;  180.475;    0.000
376.759; 1552.750;  206.475;    0.000
376.819; 1544.750;  146.475;    0.000
376.880; 1596.750;  177.475;    0.000
376.940; 1629.750;  160.475;    0.000
377.000; 1531.750;  149.475;    0.000
377.060; 1559.750;  180.475;    0.000
377.120; 1559.750;  146.475;    0.000
377.180; 1565.750;  137.475;    0.000
377.241; 1537.750;  163.475;    0.000
377.301; 1660.750;  169.475;    0.000
377.361; 1542.750;  137.475;    0.000
377.421; 1566.750;  184.475;    0.000
377.481; 1583.750;  185.475;    0.000
377.541; 1591.750;  146.475;    0.000
377.601; 1615.750;  179.475;    0.000
377.661; 1614.750;  181.475;    0.000
377.722; 1614.750;  185.475;    0.000
377.782; 1670.750;  147.475;    0.000
377.842; 1578.750;  190.475;    0.000
377.902; 1568.750;  166.475;    0.000
377.962; 1530.750;  153.475;    0.000
378.022; 1570.750;  163.475;    0.000
378.082; 1654.750;  146.475;    0.000
378.142; 1648.750;  152.475;    0.000
378.202; 1669.750;  164.475;    0.000
378.262; 1716.750;  195.475;    0.000
378.322; 1642.750;  190.475;    0.000
378.382; 1646.750;  152.475;    0.000
378.442; 1687.750;  175.475;    0.000
378.502; 1627.750;  153.475;    0.000
378.562; 1631.750;  142.475;    0.000
378.622; 1694.750;  166.475;    0.000
378.682; 1694.750;  173.475;    0.000
378.742; 1662.750;  182.475;    0.000
378.802; 1658.750;  145.475;    0.000
378.862; 1708.750;  210.475;    0.000
378.921; 1716.750;  182.475;    0.000
378.981; 1736.750;  185.475;    0.000
379.041; 1728.750;  130.475;    0.000
379.101; 1728.750;  177.475;    0.000
379.161; 1709.750;  166.475;    0.000
379.221; 1787.750;  162.475;    0.000
379.281; 1809.750;  167.475;    0.000
379.341; 1729.750;  136.475;    0.000
379.401; 1791.750;  145.475;    0.000
379.460; 1735.750;  176.475;    0.000
379.520; 1806.750;  162.475;    0.000
379.580; 1767.750;  144.475;    0.000
379.640; 1767.750;  163.475;    0.000
379.700; 1794.750;  157.475;    0.000
379.759; 1834.750;  165.475;    0.000
379.819; 1780.750;  190.475;    0.000
379.879; 1796.750;  143.475;    0.000
379.939; 1824.750;  188.475;    0.000
379.999; 1844.750;  141.475;    0.000
380.058; 1800.750;  169.475;    0.000
380.118; 1789.750;  158.475;    0.000
380.178; 1855.750;  114.475;    0.000
380.237; 1835.750;  157.475;    0.000
380.297; 1767.750;  177.475;    0.000
380.357; 1817.750;  189.475;    0.000
380.417; 1849.750;  182.475;    0.000
380.476; 1828.750;  178.475;    0.000
380.536; 1846.750;  189.475;    0.000
380.596; 1824.750;  183.475;    0.000
380.655; 1901.750;  195.475;    0.000
380.715; 1833.750;  170.475;    0.000
380.775; 1827.750;  170.475;    0.000
380.834; 1842.750;  179.475;    0.000
380.894; 1869.750;  188.475;    0.000
380.954; 1873.750;  142.475;    0.000
381.013; 1857.750;  178.475;    0.000
381.073; 1884.750;  164.475;    0.000
381.132; 1910.750;  192.475;    0.000
381.192; 1871.750;  187.475;    0.000
381.252; 1867.750;  176.475;    0.000
381.311; 1905.750;  206.475;    0.000
381.371; 1905.750;  167.475;    0.000
381.430; 1928.750;  131.475;    0.000
381.490; 2058.750;  150.475;    0.000
381.549; 2002.750;  129.475;    0.000
381.609; 2023.750;  178.475;    0.000
381.668; 1911.750;  194.475;    0.000
381.728; 2039.750;  210.475;    0.000
381.787; 1990.750;  190.475;    0.000
381.847; 2078.750;  181.475;    0.000
381.906; 2068.750;  156.475;    0.000
381.966; 2064.750;  176.475;    0.000
382.025; 2118.750;  186.475;    0.000
382.085; 2102.750;  192.475;    0.000
382.144; 2086.750;  173.475;    0.000
382.204; 2165.750;  207.475;    0.000
382.263; 2187.750;  193.475;    0.000
382.323; 2254.750;  164.475;    0.000
382.382; 2292.750;  161.475;    0.000
382.441; 2282.750;  199.475;    0.000
382.501; 2327.750;  208.475;    0.000
382.560; 2442.750;  173.475;    0.000
382.619; 2490.750;  179.475;    0.000
382.679; 2575.750;  177.475;    0.000
382.738; 2670.750;  190.475;    0.000
382.798; 2782.750;  213.475;    0.000
382.857; 3174.750;  195.475;    0.000
382.916; 3622.750;  184.475;    0.000
382.976; 3660.750;  169.475;    0.000
383.035; 3340.750;  194.475;    0.000
383.094; 3424.750;  185.475;    0.000
383.154; 3936.750;  198.475;    0.000
383.213; 4678.750;  147.475;    0.000
383.272; 4499.750;  175.475;    0.000
383.331; 3553.750;  122.475;    0.000
383.391; 3247.750;  185.475;    0.000
383.450; 3111.750;  160.475;    0.000
383.509; 3086.750;  168.475;    0.000
383.568; 3176.750;  196.475;    0.000
383.628; 3401.750;  156.475;    0.000
383.687; 3744.750;  171.475;    0.000
383.746; 4368.750;  155.475;    0.000
383.805; 5180.750;  201.475;    0.000
383.864; 5055.750;  125.475;    0.000
383.924; 3965.750;  213.475;    0.000
383.983; 3193.750;  188.475;    0.000
384.042; 2965.750;  162.475;    0.000
384.101; 2689.750;  183.475;    0.000
384.160; 2572.750;  155.475;    0.000
384.219; 2469.750;  155.475;    0.000
384.279; 2455.750;  189.475;    0.000
384.338; 2359.750;  156.475;    0.000
384.397; 2311.750;  148.475;    0.000
384.456; 2229.750;  154.475;    0.000
384.515; 2231.750;  160.475;    0.000
384.574; 2234.750;  223.475;    0.000
384.633; 2256.750;  133.475;    0.000
384.692; 2244.750;  163.475;    0.000
384.751; 2185.750;  186.475;    0.000
384.810; 2170.750;  187.475;    0.000
384.869; 2038.750;  172.475;    0.000
384.929; 2135.750;  153.475;    0.000
384.988; 2119.750;  174.475;    0.000
385.047; 2185.750;  154.475;    0.000
385.106; 2196.750;  164.475;    0.000
385.165; 2098.750;  151.475;    0.000
385.224; 2136.750;  147.475;    0.000
385.283; 2120.750;  176.475;    0.000
385.342; 2115.750;  142.475;    0.000
385.401; 2133.750;  175.475;    0.000
385.459; 2128.750;  150.475;    0.000
385.518; 2113.750;  124.475;    0.000
385.577; 2187.750;  115.475;    0.000
385.636; 2134.750;  174.475;    0.000
385.695; 2135.750;  158.475;    0.000
385.754; 2083.750;  150.475;    0.000
385.813; 2169.750;  129.475;    0.000
385.872; 2216.750;  146.475;    0.000
385.931; 2140.750;  194.475;    0.000
385.990; 2146.750;  174.475;    0.000
386.049; 2138.750;  176.475;    0.000
386.107; 2039.750;  151.475;    0.000
386.166; 2183.750;  178.475;    0.000
386.225; 2151.750;  162.475;    0.000
386.284; 2048.750;  180.475;    0.000
386.343; 2170.750;  171.475;    0.000
386.402; 2082.750;  176.475;    0.000
386.460; 2096.750;  144.475;    0.000
386.519; 2068.750;  140.475;    0.000
386.578; 2193.750;  145.475;    0.000
386.637; 2112.750;  164.475;    0.000
386.696; 2096.750;  189.475;    0.000
386.754; 2101.750;  135.475;    0.000
386.813; 2071.750;  139.475;    0.000
386.872; 2107.750;  121.475;    0.000
386.931; 2083.750;  153.475;    0.000
386.989; 2039.750;  211.475;    0.000
387.048; 2085.750;  156.475;    0.000
387.107; 2126.750;  210.475;    0.000
387.165; 2046.750;  129.475;    0.000
387.224; 2054.750;  205.475;    0.000
387.283; 2118.750;  130.475;    0.000
387.342; 2083.750;  171.475;    0.000
387.400; 2094.750;  156.475;    0.000
387.459; 2148.750;  141.475;    0.000
387.517; 2116.750;  219.475;    0.000
387.576; 2066.750;  166.475;    0.000
387.635; 2068.750;  136.475;    0.000
387.693; 2100.750;  191.475;    0.000
387.752; 2065.750;  165.475;    0.000
387.811; 2063.750;  158.475;    0.000
387.869; 2010.750;  204.475;    0.000
387.928; 2069.750;  149.475;    0.000
387.986; 2061.750;  156.475;    0.000
388.045; 2013.750;  123.475;    0.000
388.103; 2086.750;  150.475;    0.000
388.162; 2082.750;  173.475;    0.000
388.221; 2039.750;  143.475;    0.000
388.279; 1981.750;  129.475;    0.000
388.338; 2051.750;  212.475;    0.000
388.396; 2076.750;  150.475;    0.000
388.455; 2048.750;  167.475;    0.000
388.513; 2062.750;  116.475;    0.000
388.572; 2085.750;  181.475;    0.000
388.630; 2004.750;  187.475;    0.000
388.689; 2113.750;  180.475;    0.000
388.747; 2031.750;  154.475;    0.000
388.806; 2006.750;  161.475;    0.000
388.864; 2069.750;  167.475;    0.000
388.922; 2033.750;  184.475;    0.000
388.981; 1941.750;  169.475;    0.000
389.039; 1990.750;  102.475;    0.000
389.098; 2102.750;  183.475;    0.000
389.156; 2131.750;  182.475;    0.000
389.214; 2129.750;  173.475;    0.000
389.273; 2051.750;  167.475;    0.000
389.331; 2046.750;  170.475;    0.000
389.390; 2118.750;  150.475;    0.000
389.448; 2042.750;  156.475;    0.000
389.506; 2079.750;  149.475;    0.000
389.565; 2102.750;  162.475;    0.000
389.623; 2052.750;  188.475;    0.000
389.681; 2166.750;  204.475;    0.000
389.740; 2136.750;  187.475;    0.000
389.798; 2072.750;  153.475;    0.000
389.856; 2048.750;  214.475;    0.000
389.914; 2141.750;  177.475;    0.000
389.973; 2070.750;  189.475;    0.000
390.031; 2087.750;  178.475;    0.000
390.089; 2095.750;  163.475;    0.000
390.147; 1997.750;  170.475;    0.000
390.206; 2075.750;  183.475;    0.000
390.264; 2106.750;  161.475;    0.000
390.322; 2070.750;  148.475;    0.000
390.380; 2018.750;  138.475;    0.000
390.439; 2019.750;  194.475;    0.000
390.497; 2070.750;  170.475;    0.000
390.555; 2032.750;  165.475;    0.000
390.613; 2112.750;  177.475;    0.000
390.671; 2074.750;  170.475;    0.000
390.729; 2072.750;  158.475;    0.000
390.788; 2132.750;  162.475;    0.000
390.846; 2089.750;  161.475;    0.000
390.904; 2071.750;  197.475;    0.000
390.962; 2052.750;  212.475;    0.000
391.020; 2051.750;  224.475;    0.000
391.078; 2045.750;  184.475;    0.000
391.136; 2131.750;  191.475;    0.000
391.194; 2024.750;  187.475;    0.000
391.253; 2127.750;  197.475;    0.000
391.311; 2090.750;  185.475;    0.000
391.369; 2175.750;  207.475;    0.000
391.427; 2150.750;  222.475;    0.000
391.485; 2153.750;  184.475;    0.000
391.543; 2148.750;  203.475;    0.000
391.601; 2074.750;  151.475;    0.000
391.659; 2080.750;  176.475;    0.000
391.717; 2140.750;  190.475;    0.000
391.775; 2133.750;  159.475;    0.000
391.833; 2123.750;  186.475;    0.000
391.891; 2194.750;  154.475;    0.000
391.949; 2153.750;  181.475;    0.000
392.007; 2193.750;  190.475;    0.000
392.065; 2173.750;  182.475;    0.000
392.123; 2106.750;  158.475;    0.000
392.180; 2166.750;  198.475;    0.000
392.238; 2133.750;  191.475;    0.000
392.296; 2235.750;  164.475;    0.000
392.354; 2135.750;  172.475;    0.000
392.412; 2166.750;  194.475;    0.000
392.470; 2258.750;  154.475;    0.000
392.528; 2187.750;  172.475;    0.000
392.586; 2164.750;  179.475;    0.000
392.644; 2202.750;  173.475;    0.000
392.701; 2152.750;  202.475;    0.000
392.759; 2162.750;  180.475;    0.000
392.817; 2210.750;  181.475;    0.000
392.875; 2205.750;  168.475;    0.000
392.933; 2132.750;  161.475;    0.000
392.991; 2193.750;  216.475;    0.000
393.048; 2190.750;  197.475;    0.000
393.106; 2194.750;  199.475;    0.000
393.164; 2183.750;  173.475;    0.000
393.222; 2225.750;  179.475;    0.000
393.279; 2287.750;  209.475;    0.000
393.337; 2462.750;  185.475;    0.000
393.395; 2478.750;  174.475;    0.000
393.453; 2274.750;  181.475;    0.000
393.510; 2145.750;  188.475;    0.000
393.568; 2228.750;  191.475;    0.000
393.626; 2176.750;  151.475;    0.000
393.684; 2218.750;  208.475;    0.000
393.741; 2232.750;  179.475;    0.000
393.799; 2161.750;  149.475;    0.000
393.857; 2167.750;  136.475;    0.000
393.914; 2265.750;  190.475;    0.000
393.972; 2262.750;  155.475;    0.000
394.030; 2215.750;  170.475;    0.000
394.087; 2221.750;  213.475;    0.000
394.145; 2180.750;  191.475;    0.000
394.202; 2171.750;  188.475;    0.000
394.260; 2158.750;  168.475;    0.000
394.318; 2314.750;  176.475;    0.000
394.375; 2223.750;  159.475;    0.000
394.433; 2223.750;  168.475;    0.000
394.490; 2218.750;  163.475;    0.000
394.548; 2288.750;  163.475;    0.000
394.605; 2272.750;  181.475;    0.000
394.663; 2282.750;  180.475;    0.000
394.720; 2232.750;  193.475;    0.000
394.778; 2338.750;  168.475;    0.000
394.836; 2263.750;  128.475;    0.000
394.893; 2315.750;  151.475;    0.000
394.951; 2246.750;  173.475;    0.000
395.008; 2245.750;  201.475;    0.000
395.065; 2244.750;  139.475;    0.000
395.123; 2380.750;  173.475;    0.000
395.180; 2340.750;  144.475;    0.000
395.238; 2230.750;  135.475;    0.000
395.295; 2277.750;  167.475;    0.000
395.353; 2369.750;  150.475;    0.000
395.410; 2291.750;  165.475;    0.000
395.468; 2329.750;  223.475;    0.000
395.525; 2422.750;  156.475;    0.000
395.582; 2311.750;  178.475;    0.000
395.640; 2393.750;  178.475;    0.000
395.697; 2372.750;  173.475;    0.000
395.754; 2385.750;  154.475;    0.000
395.812; 2310.750;  169.475;    0.000
395.869; 2478.750;  196.475;    0.000
395.927; 2301.750;  190.475;    0.000
395.984; 2405.750;  195.475;    0.000
396.041; 2327.750;  160.475;    0.000
396.098; 2356.750;  161.475;    0.000
396.156; 2430.750;  187.475;    0.000
396.213; 2361.750;  200.475;    0.000
396.270; 2487.750;  160.475;    0.000
396.328; 2394.750;  113.475;    0.000
396.385; 2331.750;  165.475;    0.000
396.442; 2392.750;  168.475;    0.000
396.499; 2347.750;  117.475;    0.000
396.557; 2348.750;  203.475;    0.000
396.614; 2456.750;  155.475;    0.000
396.671; 2448.750;  187.475;    0.000
396.728; 2413.750;  169.475;    0.000
396.785; 2442.750;  167.475;    0.000
396.843; 2601.750;  154.475;    0.000
396.900; 2605.750;  172.475;    0.000
396.957; 2491.750;  176.475;    0.000
397.014; 2467.750;  193.475;    0.000
397.071; 2430.750;  170.475;    0.000
397.128; 2499.750;  172.475;    0.000
397.186; 2453.750;  205.475;    0.000
397.243; 2522.750;  163.475;    0.000
397.300; 2444.750;  193.475;    0.000
397.357; 2464.750;  166.475;    0.000
397.414; 2466.750;  149.475;    0.000
397.471; 2411.750;  157.475;    0.000
397.528; 2474.750;  180.475;    0.000
397.585; 2521.750;  203.475;    0.000
397.642; 2531.750;  156.475;    0.000
397.699; 2538.750;  229.475;    0.000
397.756; 2572.750;  185.475;    0.000
397.814; 2458.750;  191.475;    0.000
397.871; 2473.750;  170.475;    0.000
397.928; 2478.750;  191.475;    0.000
397.985; 2536.750;  183.475;    0.000
398.042; 2531.750;  161.475;    0.000
398.099; 2492.750;  192.475;    0.000
398.156; 2545.750;  176.475;    0.000
398.212; 2572.750;  170.475;    0.000
398.269; 2547.750;  158.475;    0.000
398.326; 2518.750;  175.475;    0.000
398.383; 2585.750;  177.475;    0.000
398.440; 2479.750;  169.475;    0.000
398.497; 2569.750;  184.475;    0.000
398.554; 2542.750;  196.475;    0.000
398.611; 2612.750;  198.475;    0.000
398.668; 2597.750;  135.475;    0.000
398.725; 2658.750;  181.475;    0.000
398.782; 2667.750;  195.475;    0.000
398.839; 2638.750;  179.475;    0.000
398.895; 2701.750;  188.475;    0.000
398.952; 2717.750;  176.475;    0.000
399.009; 2720.750;  183.475;    0.000
399.066; 2748.750;  190.475;    0.000
399.123; 2770.750;  174.475;    0.000
399.180; 2735.750;  191.475;    0.000
399.236; 2843.750;  217.475;    0.000
399.293; 2903.750;  154.475;    0.000
399.350; 2879.750;  210.475;    0.000
399.407; 2916.750;  202.475;    0.000
399.463; 2842.750;  162.475;    0.000
399.520; 2918.750;  207.475;    0.000
399.577; 2934.750;  174.475;    0.000
399.634; 3000.750;  170.475;    0.000
399.690; 2973.750;  186.475;    0.000
399.747; 3014.750;  218.475;    0.000
399.804; 3050.750;  200.475;    0.000
399.861; 2934.750;  190.475;    0.000
399.917; 2981.750;  218.475;    0.000
399.974; 2993.750;  200.475;    0.000
400.031; 3002.750;  200.475;    0.000
400.087; 2818.750;  153.475;    0.000
400.144; 2914.750;  188.475;    0.000
400.201; 2871.750;  198.475;    0.000
400.257; 2803.750;  205.475;    0.000
400.314; 2880.750;  183.475;    0.000
400.370; 2866.750;  227.475;    0.000
400.427; 2814.750;  177.475;    0.000
400.484; 2874.750;  202.475;    0.000
400.540; 2884.750;  173.475;    0.000
400.597; 2861.750;  212.475;    0.000
400.653; 2782.750;  182.475;    0.000
400.710; 2784.750;  201.475;    0.000
400.766; 2800.750;  188.475;    0.000
400.823; 2791.750;  205.475;    0.000
400.879; 2755.750;  165.475;    0.000
400.936; 2750.750;  180.475;    0.000
400.993; 2741.750;  181.475;    0.000
401.049; 2759.750;  147.475;    0.000
401.105; 2814.750;  205.475;    0.000
401.162; 2814.750;  197.475;    0.000
401.218; 2818.750;  177.475;    0.000
401.275; 2777.750;  183.475;    0.000
401.331; 2774.750;  198.475;    0.000
401.388; 2766.750;  209.475;    0.000
401.444; 2720.750;  211.475;    0.000
401.501; 2732.750;  185.475;    0.000
401.557; 2647.750;  190.475;    0.000
401.614; 2844.750;  172.475;    0.000
401.670; 2704.750;  185.475;    0.000
401.726; 2751.750;  196.475;    0.000
401.783; 2771.750;  187.475;    0.000
401.839; 2702.750;  192.475;    0.000
401.895; 2697.750;  173.475;    0.000
401.952; 2749.750;  145.475;    0.000
402.008; 2780.750;  197.475;    0.000
402.064; 2664.750;  146.475;    0.000
402.121; 2766.750;  197.475;    0.000
402.177; 2831.750;  173.475;    0.000
402.233; 2723.750;  185.475;    0.000
402.290; 2709.750;  175.475;    0.000
402.346; 2809.750;  164.475;    0.000
402.402; 2742.750;  173.475;    0.000
402.458; 2828.750;  183.475;    0.000
402.515; 2806.750;  147.475;    0.000
402.571; 2709.750;  210.475;    0.000
402.627; 2801.750;  181.475;    0.000
402.683; 2852.750;  177.475;    0.000
402.740; 2719.750;  162.475;    0.000
402.796; 2840.750;  178.475;    0.000
402.852; 2965.750;  138.475;    0.000
402.908; 2761.750;  181.475;    0.000
402.964; 2749.750;  151.475;    0.000
403.021; 2858.750;  170.475;    0.000
403.077; 2963.750;  204.475;    0.000
403.133; 2811.750;  144.475;    0.000
403.189; 2827.750;  207.475;    0.000
403.245; 2903.750;  184.475;    0.000
403.301; 2884.750;  170.475;    0.000
403.357; 2998.750;  201.475;    0.000
403.414; 2902.750;  205.475;    0.000
403.470; 2942.750;  170.475;    0.000
403.526; 2958.750;  135.475;    0.000
403.582; 2947.750;  180.475;    0.000
403.638; 2940.750;  185.475;    0.000
403.694; 2924.750;  169.475;    0.000
403.750; 2886.750;  210.475;    0.000
403.806; 2818.750;  210.475;    0.000
403.862; 2940.750;  219.475;    0.000
403.918; 2863.750;  191.475;    0.000
403.974; 2983.750;  193.475;    0.000
404.030; 2996.750;  154.475;    0.000
404.086; 2940.750;  170.475;    0.000
404.142; 2995.750;  194.475;    0.000
404.198; 2944.750;  224.475;    0.000
404.254; 3010.750;  177.475;    0.000
404.310; 2947.750;  204.475;    0.000
404.366; 2879.750;  170.475;    0.000
404.422; 2900.750;  172.475;    0.000
404.478; 2965.750;  153.475;    0.000
404.534; 3050.750;  159.475;    0.000
404.590; 3024.750;  203.475;    0.000
404.646; 2900.750;  164.475;    0.000
404.701; 2871.750;  141.475;    0.000
404.757; 3041.750;  195.475;    0.000
404.813; 2892.750;  152.475;    0.000
404.869; 2935.750;  174.475;    0.000
404.925; 2987.750;  167.475;    0.000
404.981; 2976.750;  175.475;    0.000
405.037; 2947.750;  170.475;    0.000
405.092; 2941.750;  155.475;    0.000
405.148; 2892.750;  160.475;    0.000
405.204; 2924.750;  158.475;    0.000
405.260; 3041.750;  128.475;    0.000
405.316; 2982.750;  168.475;    0.000
405.371; 3053.750;  162.475;    0.000
405.427; 2917.750;  187.475;    0.000
405.483; 3059.750;  214.475;    0.000
405.539; 3013.750;  163.475;    0.000
405.594; 2986.750;  191.475;    0.000
405.650; 3039.750;  124.475;    0.000
405.706; 3071.750;  188.475;    0.000
405.761; 3024.750;  204.475;    0.000
405.817; 3013.750;  150.475;    0.000
405.873; 3056.750;  152.475;    0.000
405.928; 3044.750;  135.475;    0.000
405.984; 3100.750;  209.475;    0.000
406.040; 3037.750;  165.475;    0.000
406.095; 3153.750;  146.475;    0.000
406.151; 3163.750;  169.475;    0.000
406.207; 3037.750;  174.475;    0.000
406.262; 3085.750;  189.475;    0.000
406.318; 3083.750;  141.475;    0.000
406.374; 3049.750;  178.475;    0.000
406.429; 3062.750;  197.475;    0.000
406.485; 3189.750;  194.475;    0.000
406.540; 3167.750;  149.475;    0.000
406.596; 3200.750;  173.475;    0.000
406.651; 3161.750;  154.475;    0.000
406.707; 3196.750;  183.475;    0.000
406.763; 3157.750;  156.475;    0.000
406.818; 3170.750;  181.475;    0.000
406.874; 3229.750;  135.475;    0.000
406.929; 3223.750;  194.475;    0.000
406.985; 3219.750;  166.475;    0.000
407.040; 3299.750;  207.475;    0.000
407.095; 3262.750;  213.475;    0.000
407.151; 3325.750;  198.475;    0.000
407.206; 3356.750;  186.475;    0.000
407.262; 3304.750;  148.475;    0.000
407.317; 3352.750;  212.475;    0.000
407.373; 3342.750;  209.475;    0.000
407.428; 3417.750;  218.475;    0.000
407.484; 3341.750;  158.475;    0.000
407.539; 3317.750;  165.475;    0.000
407.594; 3485.750;  197.475;    0.000
407.650; 3402.750;  177.475;    0.000
407.705; 3407.750;  154.475;    0.000
407.760; 3387.750;  198.475;    0.000
407.816; 3383.750;  181.475;    0.000
407.871; 3377.750;  185.475;    0.000
407.926; 3386.750;  167.475;    0.000
407.982; 3460.750;  172.475;    0.000
408.037; 3362.750;  202.475;    0.000
408.092; 3296.750;  201.475;    0.000
408.148; 3323.750;  199.475;    0.000
408.203; 3400.750;  174.475;    0.000
408.258; 3363.750;  157.475;    0.000
408.314; 3268.750;  194.475;    0.000
408.369; 3403.750;  189.475;    0.000
408.424; 3362.750;  204.475;    0.000
408.479; 3335.750;  192.475;    0.000
408.534; 3276.750;  215.475;    0.000
408.590; 3347.750;  190.475;    0.000
408.645; 3276.750;  159.475;    0.000
408.700; 3332.750;  191.475;    0.000
408.755; 3302.750;  217.475;    0.000
408.810; 3277.750;  158.475;    0.000
408.866; 3278.750;  166.475;    0.000
408.921; 3279.750;  214.475;    0.000
408.976; 3267.750;  158.475;    0.000
409.031; 3192.750;  185.475;    0.000
409.086; 3295.750;  158.475;    0.000
409.141; 3260.750;  180.475;    0.000
409.196; 3274.750;  188.475;    0.000
409.252; 3226.750;  186.475;    0.000
409.307; 3171.750;  135.475;    0.000
409.362; 3366.750;  162.475;    0.000
409.417; 3319.750;  149.475;    0.000
409.472; 3242.750;  205.475;    0.000
409.527; 3274.750;  184.475;    0.000
409.582; 3326.750;  174.475;    0.000
409.637; 3264.750;  188.475;    0.000
409.692; 3310.750;  211.475;    0.000
409.747; 3290.750;  159.475;    0.000
409.802; 3356.750;  199.475;    0.000
409.857; 3182.750;  118.475;    0.000
409.912; 3269.750;  177.475;    0.000
409.967; 3292.750;  182.475;    0.000
410.022; 3388.750;  188.475;    0.000
410.077; 3259.750;  204.475;    0.000
410.132; 3320.750;  174.475;    0.000
410.187; 3291.750;  169.475;    0.000
410.242; 3207.750;  178.475;    0.000
410.297; 3233.750;  185.475;    0.000
410.351; 3270.750;  203.475;    0.000
410.406; 3247.750;  180.475;    0.000
410.461; 3228.750;  213.475;    0.000
410.516; 3194.750;  198.475;    0.000
410.571; 3285.750;  171.475;    0.000
410.626; 3192.750;  186.475;    0.000
410.681; 3224.750;  187.475;    0.000
410.736; 3233.750;  147.475;    0.000
410.790; 3272.750;  186.475;    0.000
410.845; 3263.750;  152.475;    0.000
410.900; 3345.750;  202.475;    0.000
410.955; 3261.750;  196.475;    0.000
411.010; 3245.750;  150.475;    0.000
411.064; 3181.750;  200.475;    0.000
411.119; 3250.750;  203.475;    0.000
411.174; 3273.750;  176.475;    0.000
411.229; 3339.750;  203.475;    0.000
411.283; 3207.750;  176.475;    0.000
411.338; 3329.750;  153.475;    0.000
411.393; 3366.750;  168.475;    0.000
411.447; 3321.750;  223.475;    0.000
411.502; 3260.750;  238.475;    0.000
411.557; 3208.750;  179.475;    0.000
411.612; 3217.750;  159.475;    0.000
411.666; 3308.750;  189.475;    0.000
411.721; 3253.750;  212.475;    0.000
411.776; 3235.750;  242.475;    0.000
411.830; 3201.750;  194.475;    0.000
411.885; 3411.750;  188.475;    0.000
411.939; 3285.750;  245.475;    0.000
411.994; 3361.750;  177.475;    0.000
412.049; 3330.750;  170.475;    0.000
412.103; 3293.750;  196.475;    0.000
412.158; 3424.750;  215.475;    0.000
412.212; 3347.750;  199.475;    0.000
412.267; 3289.750;  191.475;    0.000
412.322; 3282.750;  238.475;    0.000
412.376; 3397.750;  243.475;    0.000
412.431; 3247.750;  214.475;    0.000
412.485; 3252.750;  210.475;    0.000
412.540; 3329.750;  200.475;    0.000
412.594; 3240.750;  174.475;    0.000
412.649; 3307.750;  246.475;    0.000
412.703; 3248.750;  182.475;    0.000
412.758; 3247.750;  222.475;    0.000
412.812; 3245.750;  201.475;    0.000
412.866; 3277.750;  162.475;    0.000
412.921; 3256.750;  202.475;    0.000
412.975; 3227.750;  212.475;    0.000
413.030; 3276.750;  238.475;    0.000
413.084; 3275.750;  201.475;    0.000
413.139; 3347.750;  210.475;    0.000
413.193; 3217.750;  218.475;    0.000
413.247; 3284.750;  203.475;    0.000
413.302; 3237.750;  176.475;    0.000
413.356; 3076.750;  215.475;    0.000
413.410; 3204.750;  204.475;    0.000
413.465; 3213.750;  186.475;    0.000
413.519; 3155.750;  196.475;    0.000
413.573; 3259.750;  181.475;    0.000
413.628; 3243.750;  200.475;    0.000
413.682; 3267.750;  157.475;    0.000
413.736; 3221.750;  194.475;    0.000
413.791; 3330.750;  193.475;    0.000
413.845; 3286.750;  225.475;    0.000
413.899; 3284.750;  195.475;    0.000
413.953; 3210.750;  173.475;    0.000
414.008; 3167.750;  186.475;    0.000
414.062; 3168.750;  217.475;    0.000
414.116; 3274.750;  169.475;    0.000
414.170; 3315.750;  228.475;    0.000
414.225; 3216.750;  177.475;    0.000
414.279; 3242.750;  210.475;    0.000
414.333; 3217.750;  207.475;    0.000
414.387; 3200.750;  217.475;    0.000
414.441; 3350.750;  187.475;    0.000
414.496; 3195.750;  215.475;    0.000
414.550; 3328.750;  204.475;    0.000
414.604; 3341.750;  206.475;    0.000
414.658; 3209.750;  139.475;    0.000
414.712; 3234.750;  198.475;    0.000
414.766; 3254.750;  208.475;    0.000
414.820; 3203.750;  199.475;    0.000
414.874; 3261.750;  216.475;    0.000
414.928; 3231.750;  186.475;    0.000
414.982; 3116.750;  176.475;    0.000
415.037; 3176.750;  181.475;    0.000
415.091; 3292.750;  208.475;    0.000
415.145; 3257.750;  209.475;    0.000
415.199; 3224.750;  186.475;    0.000
415.253; 3281.750;  203.475;    0.000
415.307; 3245.750;  197.475;    0.000
415.361; 3233.750;  223.475;    0.000
415.415; 3193.750;  213.475;    0.000
415.469; 3229.750;  226.475;    0.000
415.523; 3271.750;  222.475;    0.000
415.577; 3265.750;  205.475;    0.000
415.631; 3329.750;  224.475;    0.000
415.684; 3119.750;  193.475;    0.000
415.738; 3229.750;  224.475;    0.000
415.792; 3170.750;  204.475;    0.000
415.846; 3203.750;  189.475;    0.000
415.900; 3239.750;  223.475;    0.000
415.954; 3314.750;  187.475;    0.000
416.008; 3215.750;  237.475;    0.000
416.062; 3158.750;  195.475;    0.000
416.116; 3164.750;  223.475;    0.000
416.169; 3186.750;  210.475;    0.000
416.223; 3264.750;  232.475;    0.000
416.277; 3102.750;  227.475;    0.000
416.331; 3188.750;  216.475;    0.000
416.385; 3133.750;  186.475;    0.000
416.439; 3224.750;  226.475;    0.000
416.492; 3173.750;  229.475;    0.000
416.546; 3244.750;  216.475;    0.000
416.600; 3165.750;  211.475;    0.000
416.654; 3257.750;  226.475;    0.000
416.707; 3123.750;  248.475;    0.000
416.761; 3165.750;  217.475;    0.000
416.815; 3189.750;  207.475;    0.000
416.869; 3193.750;  226.475;    0.000
416.922; 3185.750;  192.475;    0.000
416.976; 3178.750;  205.475;    0.000
417.030; 3229.750;  233.475;    0.000
417.083; 3143.750;  226.475;    0.000
417.137; 3181.750;  222.475;    0.000
417.191; 3189.750;  217.475;    0.000
417.244; 3228.750;  221.475;    0.000
417.298; 3183.750;  201.475;    0.000
417.352; 3272.750;  170.475;    0.000
417.405; 3215.750;  234.475;    0.000
417.459; 3243.750;  241.475;    0.000
417.512; 3199.750;  247.475;    0.000
417.566; 3268.750;  219.475;    0.000
417.620; 3239.750;  228.475;    0.000
417.673; 3188.750;  192.475;    0.000
417.727; 3312.750;  203.475;    0.000
417.780; 3116.750;  204.475;    0.000
417.834; 3165.750;  234.475;    0.000
417.887; 3174.750;  245.475;    0.000
417.941; 3153.750;  211.475;    0.000
417.994; 3209.750;  244.475;    0.000
418.048; 3143.750;  203.475;    0.000
418.101; 3169.750;  212.475;    0.000
418.155; 3222.750;  251.475;    0.000
418.208; 3125.750;  286.475;    0.000
418.262; 3239.750;  243.475;    0.000
418.315; 3206.750;  214.475;    0.000
418.369; 3153.750;  269.475;    0.000
418.422; 3202.750;  222.475;    0.000
418.476; 3235.750;  226.475;    0.000
418.529; 3272.750;  238.475;    0.000
418.582; 3242.750;  210.475;    0.000
418.636; 3129.750;  221.475;    0.000
418.689; 3122.750;  224.475;    0.000
418.743; 3246.750;  228.475;    0.000
418.796; 3237.750;  192.475;    0.000
418.849; 3282.750;  230.475;    0.000
418.903; 3269.750;  257.475;    0.000
418.956; 3286.750;  241.475;    0.000
419.009; 3232.750;  247.475;    0.000
419.063; 3231.750;  235.475;    0.000
419.116; 3212.750;  218.475;    0.000
419.169; 3293.750;  219.475;    0.000
419.222; 3180.750;  215.475;    0.000
419.276; 3221.750;  202.475;    0.000
419.329; 3314.750;  210.475;    0.000
419.382; 3175.750;  188.475;    0.000
419.435; 3083.750;  222.475;    0.000
419.489; 3177.750;  232.475;    0.000
419.542; 3197.750;  250.475;    0.000
419.595; 3176.750;  240.475;    0.000
419.648; 3144.750;  261.475;    0.000
419.701; 3220.750;  222.475;    0.000
419.755; 3081.750;  233.475;    0.000
419.808; 3195.750;  178.475;    0.000
419.861; 3215.750;  207.475;    0.000
419.914; 3209.750;  223.475;    0.000
419.967; 3213.750;  216.475;    0.000
420.020; 3141.750;  211.475;    0.000
420.073; 3098.750;  200.475;    0.000
420.127; 3214.750;  248.475;    0.000
420.180; 3155.750;  220.475;    0.000
420.233; 3167.750;  215.475;    0.000
420.286; 3123.750;  222.475;    0.000
420.339; 3152.750;  229.475;    0.000
420.392; 3166.750;  245.475;    0.000
420.445; 3068.750;  221.475;    0.000
420.498; 3106.750;  224.475;    0.000
420.551; 3090.750;  170.475;    0.000
420.604; 3123.750;  237.475;    0.000
420.657; 3130.750;  235.475;    0.000
420.710; 3059.750;  223.475;    0.000
420.763; 3082.750;  219.475;    0.000
420.816; 3172.750;  200.475;    0.000
420.869; 3048.750;  197.475;    0.000
420.922; 3136.750;  212.475;    0.000
420.975; 3082.750;  274.475;    0.000
421.028; 3102.750;  228.475;    0.000
421.081; 3097.750;  243.475;    0.000
421.134; 3071.750;  227.475;    0.000
421.187; 2991.750;  245.475;    0.000
421.239; 3134.750;  210.475;    0.000
421.292; 3010.750;  193.475;    0.000
421.345; 3063.750;  226.475;    0.000
421.398; 3036.750;  226.475;    0.000
421.451; 3068.750;  259.475;    0.000
421.504; 2990.750;  204.475;    0.000
421.557; 3084.750;  215.475;    0.000
421.609; 3134.750;  194.475;    0.000
421.662; 3063.750;  216.475;    0.000
421.715; 3141.750;  226.475;    0.000
421.768; 3006.750;  177.475;    0.000
421.821; 2997.750;  210.475;    0.000
421.873; 3020.750;  208.475;    0.000
421.926; 2976.750;  223.475;    0.000
421.979; 2975.750;  230.475;    0.000
422.032; 3014.750;  227.475;    0.000
422.084; 3015.750;  234.475;    0.000
422.137; 3039.750;  207.475;    0.000
422.190; 3015.750;  228.475;    0.000
422.243; 3012.750;  206.475;    0.000
422.295; 3084.750;  236.475;    0.000
422.348; 2968.750;  232.475;    0.000
422.401; 2982.750;  228.475;    0.000
422.453; 3024.750;  239.475;    0.000
422.506; 3021.750;  226.475;    0.000
422.559; 3023.750;  205.475;    0.000
422.611; 3091.750;  235.475;    0.000
422.664; 3116.750;  231.475;    0.000
422.716; 3073.750;  228.475;    0.000
422.769; 3051.750;  204.475;    0.000
422.822; 2988.750;  205.475;    0.000
422.874; 2960.750;  228.475;    0.000
422.927; 2977.750;  266.475;    0.000
422.979; 2967.750;  223.475;    0.000
423.032; 3040.750;  207.475;    0.000
423.084; 3059.750;  211.475;    0.000
423.137; 2943.750;  205.475;    0.000
423.189; 3107.750;  254.475;    0.000
423.242; 3006.750;  208.475;    0.000
423.294; 3029.750;  240.475;    0.000
423.347; 3024.750;  218.475;    0.000
423.399; 2962.750;  237.475;    0.000
423.452; 2962.750;  242.475;    0.000
423.504; 2950.750;  225.475;    0.000
423.557; 2947.750;  195.475;    0.000
423.609; 2845.750;  206.475;    0.000
423.662; 3024.750;  211.475;    0.000
423.714; 2924.750;  252.475;    0.000
423.766; 2958.750;  181.475;    0.000
423.819; 2876.750;  216.475;    0.000
423.871; 2947.750;  216.475;    0.000
423.923; 2957.750;  222.475;    0.000
423.976; 2917.750;  223.475;    0.000
424.028; 2912.750;  229.475;    0.000
424.081; 2875.750;  267.475;    0.000
424.133; 2950.750;  251.475;    0.000
424.185; 3001.750;  238.475;    0.000
424.238; 2963.750;  220.475;    0.000
424.290; 2901.750;  259.475;    0.000
424.342; 2906.750;  248.475;    0.000
424.394; 2996.750;  234.475;    0.000
424.447; 2895.750;  248.475;    0.000
424.499; 2946.750;  233.475;    0.000
424.551; 2909.750;  236.475;    0.000
424.603; 2898.750;  207.475;    0.000
424.656; 2903.750;  210.475;    0.000
424.708; 2844.750;  251.475;    0.000
424.760; 2902.750;  221.475;    0.000
424.812; 2971.750;  275.475;    0.000
424.864; 2858.750;  206.475;    0.000
424.917; 2758.750;  198.475;    0.000
424.969; 2993.750;  246.475;    0.000
425.021; 2878.750;  209.475;    0.000
425.073; 2914.750;  242.475;    0.000
425.125; 2912.750;  254.475;    0.000
425.177; 2818.750;  224.475;    0.000
425.229; 2927.750;  256.475;    0.000
425.282; 2862.750;  265.475;    0.000
425.334; 2912.750;  266.475;    0.000
425.386; 2969.750;  242.475;    0.000
425.438; 2958.750;  205.475;    0.000
425.490; 2974.750;  227.475;    0.000
425.542; 2838.750;  235.475;    0.000
425.594; 2863.750;  210.475;    0.000
425.646; 2825.750;  232.475;    0.000
425.698; 2856.750;  243.475;    0.000
425.750; 2788.750;  230.475;    0.000
425.802; 2800.750;  218.475;    0.000
425.854; 2856.750;  222.475;    0.000
425.906; 2765.750;  235.475;    0.000
425.958; 2849.750;  220.475;    0.000
426.010; 2839.750;  236.475;    0.000
426.062; 2801.750;  230.475;    0.000
426.114; 2859.750;  216.475;    0.000
426.166; 2833.750;  230.475;    0.000
426.218; 2813.750;  237.475;    0.000
426.270; 2784.750;  217.475;    0.000
426.321; 2757.750;  224.475;    0.000
426.373; 2716.750;  207.475;    0.000
426.425; 2867.750;  278.475;    0.000
426.477; 2847.750;  243.475;    0.000
426.529; 2823.750;  247.475;    0.000
426.581; 2761.750;  229.475;    0.000
426.633; 2799.750;  212.475;    0.000
426.684; 2730.750;  244.475;    0.000
426.736; 2824.750;  250.475;    0.000
426.788; 2706.750;  210.475;    0.000
426.840; 2703.750;  201.475;    0.000
426.892; 2758.750;  225.475;    0.000
426.943; 2752.750;  215.475;    0.000
426.995; 2701.750;  216.475;    0.000
427.047; 2672.750;  216.475;    0.000
427.099; 2788.750;  203.475;    0.000
427.150; 2782.750;  195.475;    0.000
427.202; 2813.750;  212.475;    0.000
427.254; 2799.750;  233.475;    0.000
427.306; 2715.750;  211.475;    0.000
427.357; 2729.750;  210.475;    0.000
427.409; 2710.750;  244.475;    0.000
427.461; 2785.750;  187.475;    0.000
427.512; 2808.750;  227.475;    0.000
427.564; 2714.750;  210.475;    0.000
427.616; 2755.750;  202.475;    0.000
427.667; 2698.750;  185.475;    0.000
427.719; 2719.750;  222.475;    0.000
427.770; 2673.750;  230.475;    0.000
427.822; 2676.750;  254.475;    0.000
427.874; 2720.750;  222.475;    0.000
427.925; 2708.750;  199.475;    0.000
427.977; 2684.750;  228.475;    0.000
428.028; 2707.750;  226.475;    0.000
428.080; 2759.750;  236.475;    0.000
428.131; 2723.750;  220.475;    0.000
428.183; 2699.750;  256.475;    0.000
428.234; 2729.750;  217.475;    0.000
428.286; 2634.750;  234.475;    0.000
428.337; 2668.750;  209.475;    0.000
428.389; 2694.750;  219.475;    0.000
428.440; 2736.750;  249.475;    0.000
428.492; 2761.750;  255.475;    0.000
428.543; 2640.750;  224.475;    0.000
428.595; 2667.750;  225.475;    0.000
428.646; 2740.750;  240.475;    0.000
428.697; 2617.750;  211.475;    0.000
428.749; 2659.750;  200.475;    0.000
428.800; 2659.750;  235.475;    0.000
428.852; 2672.750;  265.475;    0.000
428.903; 2663.750;  201.475;    0.000
428.954; 2619.750;  242.475;    0.000
429.006; 2706.750;  245.475;    0.000
429.057; 2720.750;  252.475;    0.000
429.108; 2649.750;  211.475;    0.000
429.160; 2534.750;  217.475;    0.000
429.211; 2586.750;  234.475;    0.000
429.262; 2658.750;  205.475;    0.000
429.314; 2561.750;  211.475;    0.000
429.365; 2651.750;  240.475;    0.000
429.416; 2672.750;  263.475;    0.000
429.467; 2638.750;  244.475;    0.000
429.519; 2642.750;  223.475;    0.000
429.570; 2627.750;  214.475;    0.000
429.621; 2608.750;  235.475;    0.000
429.672; 2655.750;  202.475;    0.000
429.724; 2586.750;  189.475;    0.000
429.775; 2628.750;  214.475;    0.000
429.826; 2544.750;  178.475;    0.000
429.877; 2585.750;  224.475;    0.000
429.928; 2570.750;  230.475;    0.000
429.980; 2544.750;  199.475;    0.000
430.031; 2597.750;  208.475;    0.000
430.082; 2593.750;  224.475;    0.000
430.133; 2739.750;  193.475;    0.000
430.184; 2634.750;  220.475;    0.000
430.235; 2567.750;  184.475;    0.000
430.286; 2661.750;  197.475;    0.000
430.337; 2623.750;  199.475;    0.000
430.388; 2598.750;  207.475;    0.000
430.439; 2546.750;  227.475;    0.000
430.490; 2544.750;  215.475;    0.000
430.542; 2599.750;  211.475;    0.000
430.593; 2522.750;  230.475;    0.000
430.644; 2612.750;  186.475;    0.000
430.695; 2538.750;  232.475;    0.000
430.746; 2571.750;  214.475;    0.000
430.797; 2632.750;  260.475;    0.000
430.848; 2608.750;  214.475;    0.000
430.898; 2597.750;  204.475;    0.000
430.949; 2502.750;  189.475;    0.000
431.000; 2590.750;  240.475;    0.000
431.051; 2571.750;  201.475;    0.000
431.102; 2605.750;  188.475;    0.000
431.153; 2585.750;  209.475;    0.000
431.204; 2526.750;  187.475;    0.000
431.255; 2586.750;  171.475;    0.000
431.306; 2526.750;  181.475;    0.000
431.357; 2607.750;  221.475;    0.000
431.408; 2587.750;  217.475;    0.000
431.458; 2612.750;  206.475;    0.000
431.509; 2552.750;  194.475;    0.000
431.560; 2534.750;  235.475;    0.000
431.611; 2478.750;  213.475;    0.000
431.662; 2584.750;  237.475;    0.000
431.713; 2597.750;  220.475;    0.000
431.763; 2513.750;  212.475;    0.000
431.814; 2528.750;  238.475;    0.000
431.865; 2532.750;  213.475;    0.000
431.916; 2453.750;  191.475;    0.000
431.966; 2583.750;  171.475;    0.000
432.017; 2575.750;  263.475;    0.000
432.068; 2579.750;  240.475;    0.000
432.118; 2631.750;  235.475;    0.000
432.169; 2587.750;  212.475;    0.000
432.220; 2558.750;  188.475;    0.000
432.271; 2526.750;  216.475;    0.000
432.321; 2516.750;  223.475;    0.000
432.372; 2634.750;  254.475;    0.000
432.423; 2450.750;  193.475;    0.000
432.473; 2480.750;  219.475;    0.000
432.524; 2544.750;  215.475;    0.000
432.574; 2555.750;  234.475;    0.000
432.625; 2606.750;  226.475;    0.000
432.676; 2592.750;  219.475;    0.000
432.726; 2627.750;  254.475;    0.000
432.777; 2501.750;  210.475;    0.000
432.827; 2502.750;  234.475;    0.000
432.878; 2546.750;  212.475;    0.000
432.928; 2545.750;  238.475;    0.000
432.979; 2536.750;  252.475;    0.000
433.029; 2533.750;  222.475;    0.000
433.080; 2430.750;  188.475;    0.000
433.130; 2470.750;  223.475;    0.000
433.181; 2579.750;  254.475;    0.000
433.231; 2477.750;  237.475;    0.000
433.282; 2569.750;  242.475;    0.000
433.332; 2492.750;  261.475;    0.000
433.383; 2624.750;  266.475;    0.000
433.433; 2546.750;  286.475;    0.000
433.484; 2545.750;  231.475;    0.000
433.534; 2505.750;  256.475;    0.000
433.585; 2545.750;  253.475;    0.000
433.635; 2571.750;  228.475;    0.000
433.685; 2628.750;  226.475;    0.000
433.736; 2551.750;  276.475;    0.000
433.786; 2577.750;  253.475;    0.000
433.836; 2665.750;  289.475;    0.000
433.887; 2574.750;  241.475;    0.000
433.937; 2563.750;  252.475;    0.000
433.987; 2492.750;  223.475;    0.000
434.038; 2557.750;  241.475;    0.000
434.088; 2595.750;  231.475;    0.000
434.138; 2634.750;  259.475;    0.000
434.189; 2554.750;  263.475;    0.000
434.239; 2571.750;  194.475;    0.000
434.289; 2667.750;  273.475;    0.000
434.339; 2674.750;  212.475;    0.000
434.389; 2570.750;  248.475;    0.000
434.440; 2626.750;  250.475;    0.000
434.490; 2688.750;  278.475;    0.000
434.540; 2642.750;  241.475;    0.000
434.590; 2628.750;  251.475;    0.000
434.640; 2604.750;  207.475;    0.000
434.691; 2670.750;  242.475;    0.000
434.741; 2555.750;  218.475;    0.000
434.791; 2668.750;  267.475;    0.000
434.841; 2703.750;  272.475;    0.000
434.891; 2651.750;  260.475;    0.000
434.941; 2688.750;  258.475;    0.000
434.991; 2604.750;  264.475;    0.000
435.042; 2715.750;  264.475;    0.000
435.092; 2640.750;  271.475;    0.000
435.142; 2586.750;  229.475;    0.000
435.192; 2549.750;  226.475;    0.000
435.242; 2527.750;  253.475;    0.000
435.292; 2538.750;  215.475;    0.000
435.342; 2589.750;  240.475;    0.000
435.392; 2552.750;  235.475;    0.000
435.442; 2597.750;  230.475;    0.000
435.492; 2612.750;  235.475;    0.000
435.542; 2516.750;  230.475;    0.000
435.592; 2571.750;  239.475;    0.000
435.642; 2505.750;  244.475;    0.000
435.692; 2547.750;  236.475;    0.000
435.742; 2521.750;  236.475;    0.000
435.792; 2477.750;  230.475;    0.000
435.842; 2574.750;  248.475;    0.000
435.891; 2441.750;  233.475;    0.000
435.941; 2400.750;  243.475;    0.000
435.991; 2501.750;  279.475;    0.000
436.041; 2469.750;  204.475;    0.000
436.091; 2594.750;  217.475;    0.000
436.141; 2505.750;  205.475;    0.000
436.191; 2445.750;  220.475;    0.000
436.241; 2527.750;  248.475;    0.000
436.290; 2559.750;  255.475;    0.000
436.340; 2470.750;  235.475;    0.000
436.390; 2453.750;  207.475;    0.000
436.440; 2421.750;  207.475;    0.000
436.490; 2402.750;  251.475;    0.000
436.539; 2470.750;  240.475;    0.000
436.589; 2388.750;  198.475;    0.000
436.639; 2373.750;  240.475;    0.000
436.689; 2387.750;  216.475;    0.000
436.738; 2404.750;  246.475;    0.000
436.788; 2450.750;  203.475;    0.000
436.838; 2375.750;  230.475;    0.000
436.887; 2405.750;  235.475;    0.000
436.937; 2420.750;  249.475;    0.000
436.987; 2381.750;  208.475;    0.000
437.036; 2352.750;  232.475;    0.000
437.086; 2366.750;  238.475;    0.000
437.136; 2389.750;  228.475;    0.000
437.185; 2439.750;  219.475;    0.000
437.235; 2361.750;  227.475;    0.000
437.285; 2405.750;  241.475;    0.000
437.334; 2448.750;  216.475;    0.000
437.384; 2387.750;  243.475;    0.000
437.433; 2334.750;  214.475;    0.000
437.483; 2419.750;  246.475;    0.000
437.532; 2375.750;  261.475;    0.000
437.582; 2385.750;  205.475;    0.000
437.631; 2386.750;  218.475;    0.000
437.681; 2432.750;  240.475;    0.000
437.730; 2426.750;  258.475;    0.000
437.780; 2416.750;  237.475;    0.000
437.829; 2349.750;  209.475;    0.000
437.879; 2334.750;  214.475;    0.000
437.928; 2345.750;  223.475;    0.000
437.978; 2376.750;  220.475;    0.000
438.027; 2375.750;  239.475;    0.000
438.077; 2251.750;  231.475;    0.000
438.126; 2280.750;  266.475;    0.000
438.176; 2379.750;  234.475;    0.000
438.225; 2265.750;  237.475;    0.000
438.274; 2274.750;  234.475;    0.000
438.324; 2382.750;  244.475;    0.000
438.373; 2405.750;  232.475;    0.000
438.422; 2382.750;  218.475;    0.000
438.472; 2375.750;  221.475;    0.000
438.521; 2290.750;  190.475;    0.000
438.570; 2338.750;  243.475;    0.000
438.620; 2349.750;  255.475;    0.000
438.669; 2322.750;  210.475;    0.000
438.718; 2356.750;  237.475;    0.000
438.768; 2314.750;  220.475;    0.000
438.817; 2386.750;  218.475;    0.000
438.866; 2359.750;  198.475;    0.000
438.915; 2344.750;  256.475;    0.000
438.965; 2361.750;  221.475;    0.000
439.014; 2300.750;  255.475;    0.000
439.063; 2472.750;  276.475;    0.000
439.112; 2324.750;  220.475;    0.000
439.162; 2323.750;  253.475;    0.000
439.211; 2297.750;  247.475;    0.000
439.260; 2337.750;  220.475;    0.000
439.309; 2355.750;  235.475;    0.000
439.358; 2339.750;  205.475;    0.000
439.407; 2336.750;  207.475;    0.000
439.456; 2437.750;  216.475;    0.000
439.506; 2353.750;  245.475;    0.000
439.555; 2372.750;  264.475;    0.000
439.604; 2378.750;  227.475;    0.000
439.653; 2265.750;  220.475;    0.000
439.702; 2355.750;  223.475;    0.000
439.751; 2213.750;  197.475;    0.000
439.800; 2423.750;  207.475;    0.000
439.849; 2358.750;  238.475;    0.000
439.898; 2421.750;  209.475;    0.000
439.947; 2338.750;  170.475;    0.000
439.996; 2399.750;  233.475;    0.000
440.045; 2318.750;  222.475;    0.000
440.094; 2350.750;  240.475;    0.000
440.143; 2389.750;  249.475;    0.000
440.192; 2436.750;  252.475;    0.000
440.241; 2330.750;  239.475;    0.000
440.290; 2408.750;  234.475;    0.000
440.339; 2424.750;  241.475;    0.000
440.388; 2417.750;  239.475;    0.000
440.437; 2415.750;  231.475;    0.000
440.486; 2404.750;  254.475;    0.000
440.535; 2387.750;  266.475;    0.000
440.583; 2339.750;  205.475;    0.000
440.632; 2381.750;  234.475;    0.000
440.681; 2366.750;  218.475;    0.000
440.730; 2345.750;  248.475;    0.000
440.779; 2394.750;  246.475;    0.000
440.828; 2434.750;  235.475;    0.000
440.876; 2391.750;  218.475;    0.000
440.925; 2364.750;  228.475;    0.000
440.974; 2401.750;  249.475;    0.000
441.023; 2416.750;  192.475;    0.000
441.072; 2404.750;  226.475;    0.000
441.120; 2466.750;  238.475;    0.000
441.169; 2497.750;  255.475;    0.000
441.218; 2391.750;  233.475;    0.000
441.267; 2499.750;  231.475;    0.000
441.315; 2409.750;  214.475;    0.000
441.364; 2460.750;  250.475;    0.000
441.413; 2497.750;  228.475;    0.000
441.461; 2474.750;  209.475;    0.000
441.510; 2554.750;  260.475;    0.000
441.559; 2485.750;  230.475;    0.000
441.607; 2475.750;  220.475;    0.000
441.656; 2513.750;  251.475;    0.000
441.705; 2600.750;  237.475;    0.000
441.753; 2600.750;  257.475;    0.000
441.802; 2483.750;  256.475;    0.000
441.850; 2478.750;  253.475;    0.000
441.899; 2445.750;  212.475;    0.000
441.948; 2455.750;  251.475;    0.000
441.996; 2439.750;  239.475;    0.000
442.045; 2466.750;  223.475;    0.000
442.093; 2386.750;  211.475;    0.000
442.142; 2505.750;  235.475;    0.000
442.190; 2506.750;  254.475;    0.000
442.239; 2440.750;  226.475;    0.000
442.287; 2474.750;  242.475;    0.000
442.336; 2528.750;  256.475;    0.000
442.384; 2449.750;  252.475;    0.000
442.433; 2522.750;  262.475;    0.000
442.481; 2491.750;  246.475;    0.000
442.529; 2446.750;  290.475;    0.000
442.578; 2483.750;  247.475;    0.000
442.626; 2465.750;  247.475;    0.000
442.675; 2464.750;  272.475;    0.000
442.723; 2470.750;  230.475;    0.000
442.771; 2516.750;  234.475;    0.000
442.820; 2434.750;  224.475;    0.000
442.868; 2423.750;  246.475;    0.000
442.917; 2487.750;  249.475;    0.000
442.965; 2424.750;  260.475;    0.000
443.013; 2441.750;  258.475;    0.000
443.062; 2484.750;  259.475;    0.000
443.110; 2458.750;  226.475;    0.000
443.158; 2516.750;  213.475;    0.000
443.206; 2471.750;  201.475;    0.000
443.255; 2497.750;  280.475;    0.000
443.303; 2491.750;  292.475;    0.000
443.351; 2474.750;  256.475;    0.000
443.399; 2535.750;  215.475;    0.000
443.448; 2456.750;  243.475;    0.000
443.496; 2537.750;  249.475;    0.000
443.544; 2462.750;  231.475;    0.000
443.592; 2538.750;  243.475;    0.000
443.640; 2548.750;  252.475;    0.000
443.689; 2507.750;  220.475;    0.000
443.737; 2535.750;  231.475;    0.000
443.785; 2476.750;  256.475;    0.000
443.833; 2580.750;  268.475;    0.000
443.881; 2471.750;  181.475;    0.000
443.929; 2588.750;  245.475;    0.000
443.977; 2562.750;  278.475;    0.000
444.025; 2487.750;  245.475;    0.000
444.074; 2563.750;  233.475;    0.000
444.122; 2566.750;  267.475;    0.000
444.170; 2439.750;  247.475;    0.000
444.218; 2536.750;  246.475;    0.000
444.266; 2686.750;  275.475;    0.000
444.314; 2618.750;  263.475;    0.000
444.362; 2622.750;  240.475;    0.000
444.410; 2624.750;  220.475;    0.000
444.458; 2711.750;  258.475;    0.000
444.506; 2630.750;  258.475;    0.000
444.554; 2610.750;  224.475;    0.000
444.602; 2684.750;  245.475;    0.000
444.650; 2719.750;  261.475;    0.000
444.698; 2660.750;  232.475;    0.000
444.746; 2632.750;  206.475;    0.000
444.793; 2652.750;  249.475;    0.000
444.841; 2609.750;  261.475;    0.000
444.889; 2790.750;  221.475;    0.000
444.937; 2669.750;  215.475;    0.000
444.985; 2601.750;  244.475;    0.000
445.033; 2583.750;  211.475;    0.000
445.081; 2641.750;  225.475;    0.000
445.129; 2602.750;  217.475;    0.000
445.176; 2629.750;  196.475;    0.000
445.224; 2701.750;  211.475;    0.000
445.272; 2606.750;  242.475;    0.000
445.320; 2785.750;  225.475;    0.000
445.368; 2636.750;  249.475;    0.000
445.415; 2495.750;  243.475;    0.000
445.463; 2647.750;  242.475;    0.000
445.511; 2652.750;  248.475;    0.000
445.559; 2633.750;  219.475;    0.000
445.606; 2595.750;  221.475;    0.000
445.654; 2578.750;  202.475;    0.000
445.702; 2632.750;  210.475;    0.000
445.749; 2755.750;  249.475;    0.000
445.797; 2697.750;  206.475;    0.000
445.845; 2630.750;  213.475;    0.000
445.892; 2636.750;  224.475;    0.000
445.940; 2723.750;  214.475;    0.000
445.988; 2620.750;  247.475;    0.000
446.035; 2665.750;  204.475;    0.000
446.083; 2716.750;  235.475;    0.000
446.130; 2633.750;  195.475;    0.000
446.178; 2730.750;  236.475;    0.000
446.226; 2647.750;  218.475;    0.000
446.273; 2693.750;  215.475;    0.000
446.321; 2629.750;  222.475;    0.000
446.368; 2661.750;  228.475;    0.000
446.416; 2616.750;  223.475;    0.000
446.463; 2748.750;  220.475;    0.000
446.511; 2607.750;  198.475;    0.000
446.558; 2645.750;  208.475;    0.000
446.606; 2767.750;  253.475;    0.000
446.653; 2721.750;  198.475;    0.000
446.701; 2747.750;  231.475;    0.000
446.748; 2744.750;  224.475;    0.000
446.796; 2873.750;  201.475;    0.000
446.843; 2810.750;  257.475;    0.000
446.891; 2823.750;  218.475;    0.000
446.938; 2850.750;  232.475;    0.000
446.985; 2795.750;  229.475;    0.000
447.033; 2863.750;  251.475;    0.000
447.080; 2824.750;  257.475;    0.000
447.128; 2866.750;  232.475;    0.000
447.175; 2836.750;  269.475;    0.000
447.222; 2878.750;  185.475;    0.000
447.270; 2878.750;  264.475;    0.000
447.317; 2929.750;  225.475;    0.000
447.364; 2902.750;  243.475;    0.000
447.411; 2939.750;  263.475;    0.000
447.459; 2956.750;  257.475;    0.000
447.506; 2980.750;  175.475;    0.000
447.553; 3027.750;  203.475;    0.000
447.601; 3052.750;  238.475;    0.000
447.648; 3006.750;  244.475;    0.000
447.695; 3175.750;  249.475;    0.000
447.742; 3203.750;  234.475;    0.000
447.789; 3210.750;  228.475;    0.000
447.837; 3237.750;  258.475;    0.000
447.884; 3240.750;  243.475;    0.000
447.931; 3330.750;  235.475;    0.000
447.978; 3386.750;  224.475;    0.000
448.025; 3344.750;  245.475;    0.000
448.072; 3441.750;  212.475;    0.000
448.120; 3447.750;  256.475;    0.000
448.167; 3432.750;  240.475;    0.000
448.214; 3386.750;  247.475;    0.000
448.261; 3311.750;  245.475;    0.000
448.308; 3349.750;  273.475;    0.000
448.355; 3204.750;  257.475;    0.000
448.402; 3233.750;  259.475;    0.000
448.449; 3124.750;  238.475;    0.000
448.496; 3072.750;  245.475;    0.000
448.543; 3111.750;  217.475;    0.000
448.590; 3041.750;  269.475;    0.000
448.637; 2945.750;  250.475;    0.000
448.684; 3039.750;  250.475;    0.000
448.731; 2873.750;  235.475;    0.000
448.778; 2842.750;  265.475;    0.000
448.825; 2877.750;  257.475;    0.000
448.872; 2855.750;  234.475;    0.000
448.919; 2858.750;  216.475;    0.000
448.966; 2861.750;  274.475;    0.000
449.013; 2802.750;  263.475;    0.000
449.060; 2817.750;  247.475;    0.000
449.107; 2710.750;  218.475;    0.000
449.154; 2752.750;  225.475;    0.000
449.200; 2657.750;  212.475;    0.000
449.247; 2762.750;  242.475;    0.000
449.294; 2673.750;  228.475;    0.000
449.341; 2688.750;  232.475;    0.000
449.388; 2675.750;  247.475;    0.000
449.435; 2595.750;  227.475;    0.000
449.481; 2764.750;  270.475;    0.000
449.528; 2661.750;  265.475;    0.000
449.575; 2567.750;  255.475;    0.000
449.622; 2588.750;  210.475;    0.000
449.668; 2528.750;  234.475;    0.000
449.715; 2585.750;  262.475;    0.000
449.762; 2473.750;  247.475;    0.000
449.809; 2602.750;  286.475;    0.000
449.855; 2555.750;  246.475;    0.000
449.902; 2539.750;  224.475;    0.000
449.949; 2557.750;  244.475;    0.000
449.995; 2597.750;  274.475;    0.000
450.042; 2508.750;  272.475;    0.000
450.089; 2510.750;  274.475;    0.000
450.135; 2598.750;  285.475;    0.000
450.182; 2503.750;  251.475;    0.000
450.229; 2445.750;  242.475;    0.000
450.275; 2545.750;  277.475;    0.000
450.322; 2504.750;  260.475;    0.000
450.368; 2460.750;  257.475;    0.000
450.415; 2468.750;  276.475;    0.000
450.462; 2475.750;  298.475;    0.000
450.508; 2493.750;  255.475;    0.000
450.555; 2487.750;  271.475;    0.000
450.601; 2465.750;  281.475;    0.000
450.648; 2369.750;  249.475;    0.000
450.694; 2440.750;  270.475;    0.000
450.741; 2463.750;  256.475;    0.000
450.787; 2416.750;  292.475;    0.000
450.834; 2431.750;  221.475;    0.000
450.880; 2447.750;  265.475;    0.000
450.927; 2395.750;  242.475;    0.000
450.973; 2470.750;  259.475;    0.000
451.019; 2363.750;  221.475;    0.000
451.066; 2430.750;  257.475;    0.000
451.112; 2406.750;  251.475;    0.000
451.159; 2338.750;  278.475;    0.000
451.205; 2378.750;  274.475;    0.000
451.251; 2426.750;  281.475;    0.000
451.298; 2414.750;  273.475;    0.000
451.344; 2346.750;  246.475;    0.000
451.390; 2380.750;  286.475;    0.000
451.437; 2412.750;  268.475;    0.000
451.483; 2422.750;  315.475;    0.000
451.529; 2424.750;  251.475;    0.000
451.576; 2358.750;  306.475;    0.000
451.622; 2375.750;  234.475;    0.000
451.668; 2257.750;  243.475;    0.000
451.714; 2302.750;  256.475;    0.000
451.761; 2327.750;  264.475;    0.000
451.807; 2412.750;  284.475;    0.000
451.853; 2370.750;  282.475;    0.000
451.899; 2297.750;  240.475;    0.000
451.945; 2354.750;  263.475;    0.000
451.992; 2392.750;  255.475;    0.000
452.038; 2345.750;  273.475;    0.000
452.084; 2320.750;  274.475;    0.000
452.130; 2333.750;  261.475;    0.000
452.176; 2312.750;  246.475;    0.000
452.222; 2285.750;  238.475;    0.000
452.268; 2265.750;  267.475;    0.000
452.315; 2301.750;  274.475;    0.000
452.361; 2289.750;  241.475;    0.000
452.407; 2339.750;  274.475;    0.000
452.453; 2279.750;  260.475;    0.000
452.499; 2297.750;  232.475;    0.000
452.545; 2273.750;  252.475;    0.000
452.591; 2303.750;  263.475;    0.000
452.637; 2224.750;  208.475;    0.000
452.683; 2240.750;  237.475;    0.000
452.729; 2301.750;  263.475;    0.000
452.775; 2173.750;  291.475;    0.000
452.821; 2284.750;  238.475;    0.000
452.867; 2169.750;  223.475;    0.000
452.913; 2255.750;  257.475;    0.000
452.959; 2239.750;  238.475;    0.000
453.005; 2199.750;  252.475;    0.000
453.051; 2313.750;  260.475;    0.000
453.097; 2327.750;  268.475;    0.000
453.142; 2272.750;  231.475;    0.000
453.188; 2236.750;  266.475;    0.000
453.234; 2260.750;  233.475;    0.000
453.280; 2221.750;  219.475;    0.000
453.326; 2104.750;  265.475;    0.000
453.372; 2329.750;  238.475;    0.000
453.418; 2251.750;  240.475;    0.000
453.463; 2255.750;  219.475;    0.000
453.509; 2269.750;  264.475;    0.000
453.555; 2175.750;  247.475;    0.000
453.601; 2205.750;  230.475;    0.000
453.647; 2228.750;  285.475;    0.000
453.692; 2172.750;  240.475;    0.000
453.738; 2171.750;  233.475;    0.000
453.784; 2232.750;  230.475;    0.000
453.829; 2233.750;  246.475;    0.000
453.875; 2205.750;  261.475;    0.000
453.921; 2203.750;  203.475;    0.000
453.967; 2190.750;  241.475;    0.000
454.012; 2171.750;  250.475;    0.000
454.058; 2227.750;  252.475;    0.000
454.104; 2261.750;  239.475;    0.000
454.149; 2246.750;  250.475;    0.000
454.195; 2192.750;  243.475;    0.000
454.240; 2146.750;  252.475;    0.000
454.286; 2192.750;  245.475;    0.000
454.332; 2217.750;  286.475;    0.000
454.377; 2212.750;  254.475;    0.000
454.423; 2187.750;  246.475;    0.000
454.468; 2162.750;  235.475;    0.000
454.514; 2205.750;  231.475;    0.000
454.559; 2229.750;  246.475;    0.000
454.605; 2175.750;  204.475;    0.000
454.650; 2232.750;  272.475;    0.000
454.696; 2198.750;  222.475;    0.000
454.741; 2175.750;  290.475;    0.000
454.787; 2189.750;  262.475;    0.000
454.832; 2280.750;  227.475;    0.000
454.878; 2211.750;  241.475;    0.000
454.923; 2194.750;  272.475;    0.000
454.969; 2166.750;  290.475;    0.000
455.014; 2175.750;  278.475;    0.000
455.060; 2193.750;  246.475;    0.000
455.105; 2198.750;  231.475;    0.000
455.150; 2144.750;  265.475;    0.000
455.196; 2250.750;  266.475;    0.000
455.241; 2242.750;  258.475;    0.000
455.286; 2175.750;  266.475;    0.000
455.332; 2188.750;  252.475;    0.000
455.377; 2107.750;  219.475;    0.000
455.422; 2210.750;  262.475;    0.000
455.468; 2262.750;  260.475;    0.000
455.513; 2188.750;  212.475;    0.000
455.558; 2107.750;  197.475;    0.000
455.604; 2196.750;  262.475;    0.000
455.649; 2148.750;  238.475;    0.000
455.694; 2234.750;  221.475;    0.000
455.739; 2253.750;  251.475;    0.000
455.785; 2196.750;  287.475;    0.000
455.830; 2171.750;  284.475;    0.000
455.875; 2193.750;  234.475;    0.000
455.920; 2210.750;  215.475;    0.000
455.965; 2203.750;  256.475;    0.000
456.010; 2209.750;  266.475;    0.000
456.056; 2178.750;  263.475;    0.000
456.101; 2121.750;  240.475;    0.000
456.146; 2150.750;  258.475;    0.000
456.191; 2234.750;  241.475;    0.000
456.236; 2141.750;  252.475;    0.000
456.281; 2122.750;  218.475;    0.000
456.326; 2135.750;  251.475;    0.000
456.371; 2140.750;  256.475;    0.000
456.416; 2276.750;  301.475;    0.000
456.461; 2151.750;  233.475;    0.000
456.507; 2166.750;  218.475;    0.000
456.552; 2264.750;  278.475;    0.000
456.597; 2175.750;  223.475;    0.000
456.642; 2157.750;  203.475;    0.000
456.687; 2172.750;  245.475;    0.000
456.732; 2220.750;  256.475;    0.000
456.776; 2149.750;  244.475;    0.000
456.821; 2180.750;  276.475;    0.000
456.866; 2097.750;  232.475;    0.000
456.911; 2143.750;  225.475;    0.000
456.956; 2197.750;  237.475;    0.000
457.001; 2085.750;  261.475;    0.000
457.046; 2193.750;  205.475;    0.000
457.091; 2187.750;  241.475;    0.000
457.136; 2182.750;  217.475;    0.000
457.181; 2129.750;  251.475;    0.000
457.225; 2217.750;  241.475;    0.000
457.270; 2209.750;  237.475;    0.000
457.315; 2168.750;  279.475;    0.000
457.360; 2184.750;  245.475;    0.000
457.405; 2243.750;  202.475;    0.000
457.450; 2169.750;  247.475;    0.000
457.494; 2175.750;  243.475;    0.000
457.539; 2161.750;  222.475;    0.000
457.584; 2197.750;  239.475;    0.000
457.629; 2254.750;  236.475;    0.000
457.673; 2321.750;  234.475;    0.000
457.718; 2226.750;  202.475;    0.000
457.763; 2225.750;  274.475;    0.000
457.807; 2165.750;  236.475;    0.000
457.852; 2200.750;  265.475;    0.000
457.897; 2219.750;  252.475;    0.000
457.941; 2216.750;  264.475;    0.000
457.986; 2249.750;  280.475;    0.000
458.031; 2271.750;  217.475;    0.000
458.075; 2191.750;  249.475;    0.000
458.120; 2198.750;  257.475;    0.000
458.165; 2197.750;  183.475;    0.000
458.209; 2251.750;  245.475;    0.000
458.254; 2242.750;  245.475;    0.000
458.298; 2280.750;  265.475;    0.000
458.343; 2196.750;  241.475;    0.000
458.387; 2311.750;  262.475;    0.000
458.432; 2352.750;  245.475;    0.000
458.476; 2270.750;  255.475;    0.000
458.521; 2331.750;  269.475;    0.000
458.565; 2281.750;  265.475;    0.000
458.610; 2224.750;  222.475;    0.000
458.654; 2265.750;  257.475;    0.000
458.699; 2342.750;  296.475;    0.000
458.743; 2258.750;  203.475;    0.000
458.788; 2309.750;  267.475;    0.000
458.832; 2419.750;  274.475;    0.000
458.877; 2387.750;  251.475;    0.000
458.921; 2376.750;  237.475;    0.000
458.965; 2388.750;  264.475;    0.000
459.010; 2433.750;  256.475;    0.000
459.054; 2458.750;  280.475;    0.000
459.099; 2410.750;  240.475;    0.000
459.143; 2435.750;  287.475;    0.000
459.187; 2333.750;  257.475;    0.000
459.231; 2441.750;  273.475;    0.000
459.276; 2372.750;  231.475;    0.000
459.320; 2378.750;  261.475;    0.000
459.364; 2472.750;  278.475;    0.000
459.409; 2417.750;  249.475;    0.000
459.453; 2487.750;  235.475;    0.000
459.497; 2429.750;  262.475;    0.000
459.541; 2432.750;  269.475;    0.000
459.586; 2343.750;  240.475;    0.000
459.630; 2319.750;  261.475;    0.000
459.674; 2414.750;  276.475;    0.000
459.718; 2447.750;  236.475;    0.000
459.762; 2477.750;  263.475;    0.000
459.807; 2464.750;  263.475;    0.000
459.851; 2488.750;  225.475;    0.000
459.895; 2432.750;  247.475;    0.000
459.939; 2418.750;  231.475;    0.000
459.983; 2431.750;  242.475;    0.000
460.027; 2431.750;  248.475;    0.000
460.071; 2531.750;  273.475;    0.000
460.115; 2479.750;  282.475;    0.000
460.159; 2486.750;  264.475;    0.000
460.204; 2462.750;  288.475;    0.000
460.248; 2566.750;  293.475;    0.000
460.292; 2558.750;  277.475;    0.000
460.336; 2484.750;  250.475;    0.000
460.380; 2480.750;  275.475;    0.000
460.424; 2460.750;  243.475;    0.000
460.468; 2460.750;  277.475;    0.000
460.512; 2476.750;  261.475;    0.000
460.556; 2517.750;  266.475;    0.000
460.599; 2555.750;  246.475;    0.000
460.643; 2551.750;  256.475;    0.000
460.687; 2581.750;  257.475;    0.000
460.731; 2559.750;  235.475;    0.000
460.775; 2559.750;  278.475;    0.000
460.819; 2438.750;  268.475;    0.000
460.863; 2552.750;  257.475;    0.000
460.907; 2443.750;  213.475;    0.000
460.951; 2534.750;  274.475;    0.000
460.995; 2510.750;  258.475;    0.000
461.038; 2504.750;  219.475;    0.000
461.082; 2489.750;  253.475;    0.000
461.126; 2580.750;  281.475;    0.000
461.170; 2564.750;  244.475;    0.000
461.214; 2564.750;  262.475;    0.000
461.257; 2581.750;  284.475;    0.000
461.301; 2627.750;  275.475;    0.000
461.345; 2587.750;  267.475;    0.000
461.389; 2507.750;  255.475;    0.000
461.432; 2557.750;  282.475;    0.000
461.476; 2505.750;  263.475;    0.000
461.520; 2520.750;  260.475;    0.000
461.563; 2498.750;  278.475;    0.000
461.607; 2574.750;  236.475;    0.000
461.651; 2633.750;  262.475;    0.000
461.694; 2529.750;  236.475;    0.000
461.738; 2521.750;  295.475;    0.000
461.782; 2582.750;  252.475;    0.000
461.825; 2594.750;  271.475;    0.000
461.869; 2565.750;  278.475;    0.000
461.913; 2629.750;  255.475;    0.000
461.956; 2587.750;  254.475;    0.000
462.000; 2606.750;  299.475;    0.000
462.043; 2666.750;  282.475;    0.000
462.087; 2603.750;  274.475;    0.000
462.130; 2613.750;  270.475;    0.000
462.174; 2584.750;  274.475;    0.000
462.217; 2628.750;  272.475;    0.000
462.261; 2722.750;  286.475;    0.000
462.304; 2618.750;  236.475;    0.000
462.348; 2639.750;  262.475;    0.000
462.391; 2663.750;  244.475;    0.000
462.435; 2707.750;  321.475;    0.000
462.478; 2578.750;  230.475;    0.000
462.522; 2754.750;  245.475;    0.000
462.565; 2698.750;  278.475;    0.000
462.608; 2776.750;  303.475;    0.000
462.652; 2730.750;  275.475;    0.000
462.695; 2754.750;  314.475;    0.000
462.739; 2662.750;  307.475;    0.000
462.782; 2838.750;  286.475;    0.000
462.825; 2813.750;  312.475;    0.000
462.869; 2738.750;  338.475;    0.000
462.912; 2760.750;  304.475;    0.000
462.955; 2814.750;  288.475;    0.000
462.998; 2814.750;  292.475;    0.000
463.042; 2885.750;  309.475;    0.000
463.085; 2954.750;  292.475;    0.000
463.128; 2815.750;  317.475;    0.000
463.172; 2738.750;  287.475;    0.000
463.215;  386.750;  313.475;    0.000
463.258;  335.750;  295.475;    0.000
463.301;  310.750;  275.475;    0.000
463.344;  312.750;  311.475;    0.000
463.388;  344.750;  296.475;    0.000
463.431;  276.750;  277.475;    0.000
463.474;  336.750;  364.475;    0.000
463.517;  288.750;  306.475;    0.000
463.560;  315.750;  308.475;    0.000
463.603;  325.750;  343.475;    0.000
463.646;  305.750;  309.475;    0.000
463.690;  307.750;  309.475;    0.000
463.733;  321.750;  320.475;    0.000
463.776;  306.750;  299.475;    0.000
463.819;  317.750;  320.475;    0.000
463.862;  311.750;  283.475;    0.000

