
Integration time [ms]:   1.000
Averaging Nr. [scans]: 1
Smoothing Nr. [pixels]: 0
Data measured with spectrometer [name]: NIR
Wave   ;Sample   ;Dark     ;Reference
[nm]   ;[counts] ;[counts] ;[counts] 

691.496;  -65.800;  163.125;    0.000
691.696;  -15.800;  208.125;    0.000
691.896;  -58.800;  111.125;    0.000
692.096;  -29.800;  178.125;    0.000
692.296;  -82.800;   93.125;    0.000
692.496;  -61.800;  161.125;    0.000
692.695;  -74.800;  135.125;    0.000
692.895;   -1.800;  179.125;    0.000
693.095;  -75.800;  158.125;    0.000
693.295;  -31.800;  168.125;    0.000
693.495;  -37.800;  170.125;    0.000
693.695;  -49.800;  155.125;    0.000
693.894;  -51.800;  151.125;    0.000
694.094;  -34.800;  164.125;    0.000
694.294;  -38.800;  129.125;    0.000
694.494;  264.200;  170.125;    0.000
694.693; 2608.200;  137.125;    0.000
694.893; 2833.200;  163.125;    0.000
695.093; 2912.200;  121.125;    0.000
695.293; 2898.200;  144.125;    0.000
695.492; 2937.200;   88.125;    0.000
695.692; 2903.200;  148.125;    0.000
695.891; 2960.200;  125.125;    0.000
696.091; 2991.200;  184.125;    0.000
696.291; 2932.200;  153.125;    0.000
696.490; 3102.200;  131.125;    0.000
696.690; 2943.200;  123.125;    0.000
696.889; 3033.200;  180.125;    0.000
697.089; 3021.200;  147.125;    0.000
697.288; 3041.200;  164.125;    0.000
697.488; 3056.200;  133.125;    0.000
697.687; 3035.200;  153.125;    0.000
697.887; 3018.200;  119.125;    0.000
698.086; 2908.200;  143.125;    0.000
698.286; 2982.200;  125.125;    0.000
698.485; 3045.200;  120.125;    0.000
698.684; 2973.200;  116.125;    0.000
698.884; 2970.200;  131.125;    0.000
699.083; 2951.200;  115.125;    0.000
699.282; 3042.200;  144.125;    0.000
699.482; 3050.200;  109.125;    0.000
699.681; 3024.200;  115.125;    0.000
699.880; 3090.200;  125.125;    0.000
700.080; 3105.200;  139.125;    0.000
700.279; 3012.200;  111.125;    0.000
700.478; 3092.200;  146.125;    0.000
700.677; 3081.200;  131.125;    0.000
700.877; 3020.200;  156.125;    0.000
701.076; 3110.200;  153.125;    0.000
701.275; 3139.200;  123.125;    0.000
701.474; 3073.200;  150.125;    0.000
701.673; 2920.200;   97.125;    0.000
701.872; 3139.200;  139.125;    0.000
702.071; 3148.200;  108.125;    0.000
702.271; 3153.200;  125.125;    0.000
702.470; 3074.200;  108.125;    0.000
702.669; 3139.200;  102.125;    0.000
702.868; 3093.200;  153.125;    0.000
703.067; 3183.200;  145.125;    0.000
703.266; 3114.200;   96.125;    0.000
703.465; 3152.200;  165.125;    0.000
703.664; 3169.200;  106.125;    0.000
703.863; 3178.200;  144.125;    0.000
704.062; 3181.200;   86.125;    0.000
704.260; 3154.200;   99.125;    0.000
704.459; 3189.200;  112.125;    0.000
704.658; 3138.200;  106.125;    0.000
704.857; 3148.200;  129.125;    0.000
705.056; 3154.200;   98.125;    0.000
705.255; 3094.200;   97.125;    0.000
705.454; 3056.200;  101.125;    0.000
705.652; 3208.200;  142.125;    0.000
705.851; 3183.200;  100.125;    0.000
706.050; 3192.200;  162.125;    0.000
706.249; 3074.200;  146.125;    0.000
706.447; 3183.200;  120.125;    0.000
706.646; 3155.200;  114.125;    0.000
706.845; 3271.200;  117.125;    0.000
707.043; 3241.200;  136.125;    0.000
707.242; 3206.200;   90.125;    0.000
707.441; 3239.200;  131.125;    0.000
707.639; 3303.200;  120.125;    0.000
707.838; 3251.200;  122.125;    0.000
708.037; 3176.200;  109.125;    0.000
708.235; 3182.200;  122.125;    0.000
708.434; 3223.200;  109.125;    0.000
708.632; 3145.200;   47.125;    0.000
708.831; 3317.200;  122.125;    0.000
709.029; 3281.200;  130.125;    0.000
709.228; 3228.200;  112.125;    0.000
709.426; 3281.200;  128.125;    0.000
709.625; 3254.200;  129.125;    0.000
709.823; 3154.200;  130.125;    0.000
710.022; 3288.200;   90.125;    0.000
710.220; 3323.200;  131.125;    0.000
710.418; 3326.200;  133.125;    0.000
710.617; 3304.200;   82.125;    0.000
710.815; 3338.200;   90.125;    0.000
711.013; 3337.200;   86.125;    0.000
711.212; 3251.200;  117.125;    0.000
711.410; 3368.200;  106.125;    0.000
711.608; 3323.200;  138.125;    0.000
711.807; 3454.200;  116.125;    0.000
712.005; 3384.200;   82.125;    0.000
712.203; 3407.200;   90.125;    0.000
712.401; 3405.200;  124.125;    0.000
712.599; 3359.200;   64.125;    0.000
712.798; 3350.200;  113.125;    0.000
712.996; 3391.200;  100.125;    0.000
713.194; 3361.200;  130.125;    0.000
713.392; 3444.200;   89.125;    0.000
713.590; 3435.200;  105.125;    0.000
713.788; 3498.200;  100.125;    0.000
713.986; 3509.200;  117.125;    0.000
714.184; 3528.200;   72.125;    0.000
714.382; 3591.200;   88.125;    0.000
714.580; 3591.200;   88.125;    0.000
714.778; 3570.200;  129.125;    0.000
714.976; 3622.200;   90.125;    0.000
715.174; 3587.200;  119.125;    0.000
715.372; 3789.200;  117.125;    0.000
715.570; 3897.200;  101.125;    0.000
715.768; 4136.200;  122.125;    0.000
715.966; 4164.200;  114.125;    0.000
716.164; 4175.200;  135.125;    0.000
716.362; 4018.200;  126.125;    0.000
716.560; 3954.200;  126.125;    0.000
716.758; 4025.200;   98.125;    0.000
716.955; 3689.200;   76.125;    0.000
717.153; 3835.200;   45.125;    0.000
717.351; 3852.200;  106.125;    0.000
717.549; 3756.200;  108.125;    0.000
717.746; 3860.200;   66.125;    0.000
717.944; 3890.200;  127.125;    0.000
718.142; 3849.200;  148.125;    0.000
718.340; 3735.200;   94.125;    0.000
718.537; 3805.200;  107.125;    0.000
718.735; 3887.200;  130.125;    0.000
718.933; 3796.200;  111.125;    0.000
719.130; 3760.200;  107.125;    0.000
719.328; 3739.200;  128.125;    0.000
719.525; 3774.200;  141.125;    0.000
719.723; 3773.200;  122.125;    0.000
719.920; 3721.200;   85.125;    0.000
720.118; 3757.200;  115.125;    0.000
720.316; 3787.200;  153.125;    0.000
720.513; 3712.200;  120.125;    0.000
720.711; 3688.200;  134.125;    0.000
720.908; 3784.200;  126.125;    0.000
721.105; 3820.200;  119.125;    0.000
721.303; 3721.200;  112.125;    0.000
721.500; 3703.200;  125.125;    0.000
721.698; 3735.200;   94.125;    0.000
721.895; 3847.200;  118.125;    0.000
722.092; 3693.200;   77.125;    0.000
722.290; 3768.200;  135.125;    0.000
722.487; 3759.200;  154.125;    0.000
722.684; 3781.200;  122.125;    0.000
722.882; 3761.200;   90.125;    0.000
723.079; 3796.200;  132.125;    0.000
723.276; 3709.200;   95.125;    0.000
723.473; 3831.200;  106.125;    0.000
723.671; 3786.200;   80.125;    0.000
723.868; 3796.200;  112.125;    0.000
724.065; 3795.200;  107.125;    0.000
724.262; 3788.200;  119.125;    0.000
724.459; 3873.200;   80.125;    0.000
724.656; 3892.200;  109.125;    0.000
724.854; 3779.200;  107.125;    0.000
725.051; 3867.200;  103.125;    0.000
725.248; 3869.200;  101.125;    0.000
725.445; 3874.200;   93.125;    0.000
725.642; 3807.200;   92.125;    0.000
725.839; 3861.200;  157.125;    0.000
726.036; 3837.200;   71.125;    0.000
726.233; 3792.200;   80.125;    0.000
726.430; 3804.200;  146.125;    0.000
726.627; 3909.200;  103.125;    0.000
726.824; 3798.200;   46.125;    0.000
727.021; 3962.200;  149.125;    0.000
727.218; 3823.200;   87.125;    0.000
727.414; 3841.200;  112.125;    0.000
727.611; 3906.200;  111.125;    0.000
727.808; 3800.200;  122.125;    0.000
728.005; 3884.200;   58.125;    0.000
728.202; 3879.200;  129.125;    0.000
728.399; 3778.200;  111.125;    0.000
728.595; 3988.200;   93.125;    0.000
728.792; 3963.200;   78.125;    0.000
728.989; 4081.200;  104.125;    0.000
729.186; 3853.200;  110.125;    0.000
729.382; 3920.200;   93.125;    0.000
729.579; 3947.200;  102.125;    0.000
729.776; 3935.200;  112.125;    0.000
729.972; 4002.200;  101.125;    0.000
730.169; 3994.200;  150.125;    0.000
730.366; 3885.200;   92.125;    0.000
730.562; 3905.200;   74.125;    0.000
730.759; 3903.200;   97.125;    0.000
730.955; 4006.200;   86.125;    0.000
731.152; 3916.200;   88.125;    0.000
731.348; 3968.200;  117.125;    0.000
731.545; 4004.200;   62.125;    0.000
731.741; 3953.200;   84.125;    0.000
731.938; 4030.200;  108.125;    0.000
732.134; 4049.200;  115.125;    0.000
732.331; 3947.200;   88.125;    0.000
732.527; 3987.200;   96.125;    0.000
732.724; 3880.200;  103.125;    0.000
732.920; 3950.200;   93.125;    0.000
733.116; 3930.200;  109.125;    0.000
733.313; 3929.200;   77.125;    0.000
733.509; 3967.200;   81.125;    0.000
733.705; 4029.200;  141.125;    0.000
733.902; 3996.200;   88.125;    0.000
734.098; 4036.200;   56.125;    0.000
734.294; 4112.200;  122.125;    0.000
734.490; 4135.200;  102.125;    0.000
734.687; 4016.200;   70.125;    0.000
734.883; 3949.200;   73.125;    0.000
735.079; 3883.200;   65.125;    0.000
735.275; 4057.200;  112.125;    0.000
735.471; 3963.200;  124.125;    0.000
735.667; 4033.200;   94.125;    0.000
735.863; 4084.200;  106.125;    0.000
736.060; 3971.200;  106.125;    0.000
736.256; 4048.200;   95.125;    0.000
736.452; 4143.200;  103.125;    0.000
736.648; 4016.200;  106.125;    0.000
736.844; 4063.200;   98.125;    0.000
737.040; 4143.200;  118.125;    0.000
737.236; 4295.200;   95.125;    0.000
737.432; 4055.200;   59.125;    0.000
737.628; 4111.200;  120.125;    0.000
737.824; 4187.200;   78.125;    0.000
738.019; 4185.200;   98.125;    0.000
738.215; 4191.200;  127.125;    0.000
738.411; 4209.200;  111.125;    0.000
738.607; 4175.200;   69.125;    0.000
738.803; 4133.200;   40.125;    0.000
738.999; 4266.200;  128.125;    0.000
739.195; 4219.200;   81.125;    0.000
739.390; 4218.200;   97.125;    0.000
739.586; 4211.200;  100.125;    0.000
739.782; 4220.200;  135.125;    0.000
739.978; 4256.200;  121.125;    0.000
740.173; 4411.200;   92.125;    0.000
740.369; 4274.200;   92.125;    0.000
740.565; 4375.200;  119.125;    0.000
740.760; 4301.200;  139.125;    0.000
740.956; 4309.200;  134.125;    0.000
741.152; 4341.200;  107.125;    0.000
741.347; 4410.200;   63.125;    0.000
741.543; 4609.200;   99.125;    0.000
741.738; 4558.200;  119.125;    0.000
741.934; 4630.200;  156.125;    0.000
742.129; 4798.200;   87.125;    0.000
742.325; 5360.200;  143.125;    0.000
742.520; 5678.200;  109.125;    0.000
742.716; 5444.200;  135.125;    0.000
742.911; 5320.200;   77.125;    0.000
743.107; 5216.200;  117.125;    0.000
743.302; 5253.200;   93.125;    0.000
743.498; 5222.200;  118.125;    0.000
743.693; 5293.200;   95.125;    0.000
743.888; 5455.200;  122.125;    0.000
744.084; 6001.200;  104.125;    0.000
744.279; 7184.200;   94.125;    0.000
744.474; 7158.200;  138.125;    0.000
744.670; 6672.200;  113.125;    0.000
744.865; 6301.200;  116.125;    0.000
745.060; 6068.200;   89.125;    0.000
745.255; 5881.200;  144.125;    0.000
745.451; 5696.200;   98.125;    0.000
745.646; 5589.200;  110.125;    0.000
745.841; 5602.200;   87.125;    0.000
746.036; 5629.200;   98.125;    0.000
746.231; 5726.200;  153.125;    0.000
746.426; 6025.200;   90.125;    0.000
746.622; 6704.200;  154.125;    0.000
746.817; 8294.200;  111.125;    0.000
747.012; 9348.200;  110.125;    0.000
747.207; 8522.200;   76.125;    0.000
747.402; 7772.200;   94.125;    0.000
747.597; 7123.200;   68.125;    0.000
747.792; 6828.200;  125.125;    0.000
747.987; 6627.200;   92.125;    0.000
748.182; 6348.200;  113.125;    0.000
748.377; 6157.200;   72.125;    0.000
748.572; 6067.200;  135.125;    0.000
748.767; 5791.200;   98.125;    0.000
748.961; 5711.200;  123.125;    0.000
749.156; 5547.200;   96.125;    0.000
749.351; 5412.200;  121.125;    0.000
749.546; 5375.200;   95.125;    0.000
749.741; 5259.200;  144.125;    0.000
749.936; 5263.200;  105.125;    0.000
750.130; 5109.200;  101.125;    0.000
750.325; 5083.200;  126.125;    0.000
750.520; 4945.200;  113.125;    0.000
750.715; 5097.200;  135.125;    0.000
750.909; 4943.200;  138.125;    0.000
751.104; 4826.200;   96.125;    0.000
751.299; 4907.200;  118.125;    0.000
751.493; 4776.200;  124.125;    0.000
751.688; 4936.200;  131.125;    0.000
751.882; 4765.200;   96.125;    0.000
752.077; 4892.200;  123.125;    0.000
752.272; 4749.200;  112.125;    0.000
752.466; 4657.200;  143.125;    0.000
752.661; 4771.200;  107.125;    0.000
752.855; 4666.200;   97.125;    0.000
753.050; 4641.200;  125.125;    0.000
753.244; 4680.200;  161.125;    0.000
753.439; 4686.200;  101.125;    0.000
753.633; 4437.200;  129.125;    0.000
753.828; 4606.200;  114.125;    0.000
754.022; 4538.200;  118.125;    0.000
754.216; 4613.200;  126.125;    0.000
754.411; 4572.200;  148.125;    0.000
754.605; 4586.200;  100.125;    0.000
754.799; 4548.200;  146.125;    0.000
754.994; 4570.200;  116.125;    0.000
755.188; 4582.200;  146.125;    0.000
755.382; 4533.200;  103.125;    0.000
755.576; 4532.200;  119.125;    0.000
755.771; 4461.200;  100.125;    0.000
755.965; 4464.200;  129.125;    0.000
756.159; 4572.200;  100.125;    0.000
756.353; 4590.200;  153.125;    0.000
756.547; 4487.200;  113.125;    0.000
756.742; 4522.200;  129.125;    0.000
756.936; 4425.200;   70.125;    0.000
757.130; 4553.200;   91.125;    0.000
757.324; 4474.200;   92.125;    0.000
757.518; 4509.200;  128.125;    0.000
757.712; 4518.200;  146.125;    0.000
757.906; 4514.200;  114.125;    0.000
758.100; 4456.200;  153.125;    0.000
758.294; 4538.200;  133.125;    0.000
758.488; 4450.200;  149.125;    0.000
758.682; 4456.200;  132.125;    0.000
758.876; 4546.200;  128.125;    0.000
759.070; 4339.200;  178.125;    0.000
759.264; 4488.200;   98.125;    0.000
759.458; 4310.200;  168.125;    0.000
759.651; 4415.200;  131.125;    0.000
759.845; 4408.200;  133.125;    0.000
760.039; 4557.200;  120.125;    0.000
760.233; 4491.200;  116.125;    0.000
760.427; 4442.200;  121.125;    0.000
760.620; 4501.200;  163.125;    0.000
760.814; 4409.200;  106.125;    0.000
761.008; 4564.200;  119.125;    0.000
761.202; 4429.200;  121.125;    0.000
761.395; 4448.200;  136.125;    0.000
761.589; 4542.200;  111.125;    0.000
761.783; 4442.200;  116.125;    0.000
761.976; 4465.200;  139.125;    0.000
762.170; 4582.200;  140.125;    0.000
762.363; 4483.200;  115.125;    0.000
762.557; 4546.200;  129.125;    0.000
762.750; 4614.200;   85.125;    0.000
762.944; 4518.200;  107.125;    0.000
763.138; 4526.200;   99.125;    0.000
763.331; 4527.200;   97.125;    0.000
763.524; 4610.200;  100.125;    0.000
763.718; 4646.200;  130.125;    0.000
763.911; 4586.200;  127.125;    0.000
764.105; 4538.200;   69.125;    0.000
764.298; 4633.200;   94.125;    0.000
764.492; 4558.200;  129.125;    0.000
764.685; 4508.200;  114.125;    0.000
764.878; 4642.200;  145.125;    0.000
765.072; 4612.200;  124.125;    0.000
765.265; 4544.200;  124.125;    0.000
765.458; 4490.200;  108.125;    0.000
765.651; 4567.200;  132.125;    0.000
765.845; 4608.200;  106.125;    0.000
766.038; 4661.200;  155.125;    0.000
766.231; 5291.200;  153.125;    0.000
766.424; 7714.200;  165.125;    0.000
766.617; 7775.200;   85.125;    0.000
766.811; 5121.200;  140.125;    0.000
767.004; 4718.200;  151.125;    0.000
767.197; 4691.200;  178.125;    0.000
767.390; 4638.200;  112.125;    0.000
767.583; 4643.200;  134.125;    0.000
767.776; 4694.200;  101.125;    0.000
767.969; 4690.200;   99.125;    0.000
768.162; 4767.200;  152.125;    0.000
768.355; 4702.200;  115.125;    0.000
768.548; 4829.200;  154.125;    0.000
768.741; 4590.200;  124.125;    0.000
768.934; 4792.200;  129.125;    0.000
769.127; 4725.200;  137.125;    0.000
769.320; 4756.200;  115.125;    0.000
769.513; 4898.200;  144.125;    0.000
769.706; 5570.200;  107.125;    0.000
769.898; 7609.200;  134.125;    0.000
770.091; 6110.200;  128.125;    0.000
770.284; 4921.200;   97.125;    0.000
770.477; 4906.200;  135.125;    0.000
770.670; 4928.200;  137.125;    0.000
770.862; 4948.200;  112.125;    0.000
771.055; 4912.200;  127.125;    0.000
771.248; 5034.200;  116.125;    0.000
771.441; 5094.200;  101.125;    0.000
771.633; 5037.200;  130.125;    0.000
771.826; 5255.200;  147.125;    0.000
772.018; 5187.200;  117.125;    0.000
772.211; 5314.200;  141.125;    0.000
772.404; 5274.200;  104.125;    0.000
772.596; 5326.200;  128.125;    0.000
772.789; 5325.200;  131.125;    0.000
772.981; 5467.200;  134.125;    0.000
773.174; 5520.200;  108.125;    0.000
773.366; 5638.200;  153.125;    0.000
773.559; 5628.200;  137.125;    0.000
773.751; 5704.200;  119.125;    0.000
773.944; 5777.200;  148.125;    0.000
774.136; 5815.200;  155.125;    0.000
774.329; 6070.200;  126.125;    0.000
774.521; 6121.200;  116.125;    0.000
774.713; 6285.200;  119.125;    0.000
774.906; 6656.200;  179.125;    0.000
775.098; 6815.200;  127.125;    0.000
775.290; 7056.200;  146.125;    0.000
775.483; 7320.200;  123.125;    0.000
775.675; 7756.200;  119.125;    0.000
775.867; 8227.200;  119.125;    0.000
776.059; 8775.200;  137.125;    0.000
776.251; 9783.200;  154.125;    0.000
776.444;10805.200;  101.125;    0.000
776.636;12491.200;  153.125;    0.000
776.828;15695.200;  127.125;    0.000
777.020;21677.199;  140.125;    0.000
777.212;31703.199;  160.125;    0.000
777.404;35668.199;  170.125;    0.000
777.596;33153.199;  136.125;    0.000
777.788;24701.199;  137.125;    0.000
777.980;19098.199;  129.125;    0.000
778.172;15729.200;  139.125;    0.000
778.364;13597.200;  124.125;    0.000
778.556;12208.200;  163.125;    0.000
778.748;10862.200;  142.125;    0.000
778.940; 9948.200;  178.125;    0.000
779.132; 9280.200;  159.125;    0.000
779.324; 8584.200;  109.125;    0.000
779.516; 8187.200;  143.125;    0.000
779.708; 7706.200;  158.125;    0.000
779.900; 7433.200;  142.125;    0.000
780.091; 6937.200;  131.125;    0.000
780.283; 6625.200;  176.125;    0.000
780.475; 6585.200;  151.125;    0.000
780.667; 6416.200;  120.125;    0.000
780.859; 6058.200;  134.125;    0.000
781.050; 6026.200;  183.125;    0.000
781.242; 6010.200;   95.125;    0.000
781.434; 5866.200;  127.125;    0.000
781.625; 5813.200;  163.125;    0.000
781.817; 5434.200;  170.125;    0.000
782.008; 5496.200;  123.125;    0.000
782.200; 5432.200;  141.125;    0.000
782.392; 5358.200;  149.125;    0.000
782.583; 5346.200;  155.125;    0.000
782.775; 5292.200;  140.125;    0.000
782.966; 5041.200;  167.125;    0.000
783.158; 5027.200;  164.125;    0.000
783.349; 5010.200;  174.125;    0.000
783.541; 5060.200;  141.125;    0.000
783.732; 4929.200;  115.125;    0.000
783.924; 4912.200;  135.125;    0.000
784.115; 4987.200;  157.125;    0.000
784.306; 4824.200;  102.125;    0.000
784.498; 4853.200;  124.125;    0.000
784.689; 4906.200;  171.125;    0.000
784.880; 4743.200;  165.125;    0.000
785.072; 4785.200;  152.125;    0.000
785.263; 4777.200;  146.125;    0.000
785.454; 4732.200;  145.125;    0.000
785.645; 4702.200;  127.125;    0.000
785.837; 4741.200;  138.125;    0.000
786.028; 4742.200;  151.125;    0.000
786.219; 4756.200;  142.125;    0.000
786.410; 4603.200;  140.125;    0.000
786.601; 4606.200;  137.125;    0.000
786.792; 4640.200;  158.125;    0.000
786.984; 4646.200;  139.125;    0.000
787.175; 4597.200;  140.125;    0.000
787.366; 4527.200;  145.125;    0.000
787.557; 4636.200;  156.125;    0.000
787.748; 4719.200;  148.125;    0.000
787.939; 4792.200;  157.125;    0.000
788.130; 4796.200;  179.125;    0.000
788.321; 4689.200;  142.125;    0.000
788.512; 4887.200;  167.125;    0.000
788.703; 4787.200;  145.125;    0.000
788.894; 4811.200;  132.125;    0.000
789.084; 4689.200;  113.125;    0.000
789.275; 4722.200;  134.125;    0.000
789.466; 4821.200;  151.125;    0.000
789.657; 4793.200;  138.125;    0.000
789.848; 4933.200;  145.125;    0.000
790.039; 4890.200;  130.125;    0.000
790.229; 4872.200;  140.125;    0.000
790.420; 4844.200;  135.125;    0.000
790.611; 4808.200;  156.125;    0.000
790.801; 4870.200;   64.125;    0.000
790.992; 4802.200;  150.125;    0.000
791.183; 4863.200;  177.125;    0.000
791.373; 4697.200;   91.125;    0.000
791.564; 4749.200;   85.125;    0.000
791.755; 4768.200;  125.125;    0.000
791.945; 4684.200;   94.125;    0.000
792.136; 4721.200;   98.125;    0.000
792.326; 4842.200;  105.125;    0.000
792.517; 4756.200;  136.125;    0.000
792.707; 4729.200;  140.125;    0.000
792.898; 4893.200;  164.125;    0.000
793.088; 4828.200;  116.125;    0.000
793.279; 4884.200;  112.125;    0.000
793.469; 4787.200;  105.125;    0.000
793.660; 4976.200;  161.125;    0.000
793.850; 5094.200;  133.125;    0.000
794.040; 5277.200;  121.125;    0.000
794.231; 5589.200;  115.125;    0.000
794.421; 5815.200;  152.125;    0.000
794.611; 6371.200;  132.125;    0.000
794.802; 7128.200;  144.125;    0.000
794.992; 7500.200;  142.125;    0.000
795.182; 7648.200;  179.125;    0.000
795.372; 7229.200;  167.125;    0.000
795.563; 6601.200;  149.125;    0.000
795.753; 6101.200;  117.125;    0.000
795.943; 5921.200;  146.125;    0.000
796.133; 5515.200;  119.125;    0.000
796.323; 5410.200;  141.125;    0.000
796.513; 5108.200;  134.125;    0.000
796.703; 5046.200;  116.125;    0.000
796.893; 4870.200;  120.125;    0.000
797.083; 4917.200;  131.125;    0.000
797.273; 4742.200;  118.125;    0.000
797.463; 4595.200;  130.125;    0.000
797.653; 4532.200;   87.125;    0.000
797.843; 4386.200;  123.125;    0.000
798.033; 4540.200;  115.125;    0.000
798.223; 4444.200;  142.125;    0.000
798.413; 4323.200;  148.125;    0.000
798.603; 4235.200;  147.125;    0.000
798.793; 4108.200;  107.125;    0.000
798.983; 4255.200;  121.125;    0.000
799.172; 4253.200;  120.125;    0.000
799.362; 4141.200;  145.125;    0.000
799.552; 4219.200;  101.125;    0.000
799.742; 4055.200;  149.125;    0.000
799.932; 4063.200;  104.125;    0.000
800.121; 4074.200;  175.125;    0.000
800.311; 4040.200;  132.125;    0.000
800.501; 3993.200;  118.125;    0.000
800.690; 3979.200;  162.125;    0.000
800.880; 3871.200;  141.125;    0.000
801.070; 4014.200;  151.125;    0.000
801.259; 3935.200;  167.125;    0.000
801.449; 3954.200;  108.125;    0.000
801.638; 3899.200;  176.125;    0.000
801.828; 3891.200;  118.125;    0.000
802.017; 3906.200;  179.125;    0.000
802.207; 3861.200;  127.125;    0.000
802.396; 3854.200;  167.125;    0.000
802.586; 3739.200;  129.125;    0.000
802.775; 3745.200;  142.125;    0.000
802.965; 3762.200;  147.125;    0.000
803.154; 3778.200;  179.125;    0.000
803.343; 3656.200;  117.125;    0.000
803.533; 3779.200;  120.125;    0.000
803.722; 3722.200;  122.125;    0.000
803.911; 3780.200;  155.125;    0.000
804.101; 3732.200;  147.125;    0.000
804.290; 3743.200;  160.125;    0.000
804.479; 3653.200;  139.125;    0.000
804.668; 3724.200;  180.125;    0.000
804.857; 3719.200;  131.125;    0.000
805.047; 3621.200;  119.125;    0.000
805.236; 3669.200;  139.125;    0.000
805.425; 3586.200;  163.125;    0.000
805.614; 3703.200;  103.125;    0.000
805.803; 3723.200;  133.125;    0.000
805.992; 3630.200;  147.125;    0.000
806.181; 3698.200;  109.125;    0.000
806.370; 3572.200;  133.125;    0.000
806.559; 3527.200;  119.125;    0.000
806.748; 3619.200;  144.125;    0.000
806.937; 3606.200;  147.125;    0.000
807.126; 3626.200;  134.125;    0.000
807.315; 3499.200;  132.125;    0.000
807.504; 3519.200;  141.125;    0.000
807.693; 3507.200;  145.125;    0.000
807.882; 3514.200;   91.125;    0.000
808.071; 3674.200;  116.125;    0.000
808.260; 3609.200;  105.125;    0.000
808.448; 3519.200;  184.125;    0.000
808.637; 3575.200;  146.125;    0.000
808.826; 3530.200;  153.125;    0.000
809.015; 3530.200;  113.125;    0.000
809.203; 3562.200;  166.125;    0.000
809.392; 3607.200;  117.125;    0.000
809.581; 3563.200;  186.125;    0.000
809.770; 3508.200;  122.125;    0.000
809.958; 3580.200;  140.125;    0.000
810.147; 3538.200;  130.125;    0.000
810.335; 3487.200;  112.125;    0.000
810.524; 3665.200;  106.125;    0.000
810.713; 3523.200;  154.125;    0.000
810.901; 3691.200;  131.125;    0.000
811.090; 3600.200;  164.125;    0.000
811.278; 3511.200;  159.125;    0.000
811.467; 3730.200;  194.125;    0.000
811.655; 3875.200;  164.125;    0.000
811.844; 3703.200;  149.125;    0.000
812.032; 3695.200;  169.125;    0.000
812.220; 3671.200;  163.125;    0.000
812.409; 3636.200;  134.125;    0.000
812.597; 3675.200;  165.125;    0.000
812.785; 3651.200;  180.125;    0.000
812.974; 3637.200;  166.125;    0.000
813.162; 3603.200;  171.125;    0.000
813.350; 3635.200;  142.125;    0.000
813.539; 3539.200;  126.125;    0.000
813.727; 3659.200;  153.125;    0.000
813.915; 3640.200;  138.125;    0.000
814.103; 3677.200;  191.125;    0.000
814.291; 3715.200;  142.125;    0.000
814.479; 3597.200;  156.125;    0.000
814.668; 3599.200;  152.125;    0.000
814.856; 3707.200;  150.125;    0.000
815.044; 3814.200;  165.125;    0.000
815.232; 3743.200;  172.125;    0.000
815.420; 3878.200;  147.125;    0.000
815.608; 3863.200;  143.125;    0.000
815.796; 3665.200;  126.125;    0.000
815.984; 3838.200;  152.125;    0.000
816.172; 3911.200;  129.125;    0.000
816.360; 3798.200;  177.125;    0.000
816.548; 3893.200;  141.125;    0.000
816.736; 3938.200;  142.125;    0.000
816.924; 4002.200;  161.125;    0.000
817.111; 4131.200;  138.125;    0.000
817.299; 4122.200;  112.125;    0.000
817.487; 4362.200;  180.125;    0.000
817.675; 4560.200;  138.125;    0.000
817.863; 4754.200;  172.125;    0.000
818.050; 5461.200;  142.125;    0.000
818.238; 7556.200;  151.125;    0.000
818.426;10014.200;  129.125;    0.000
818.613; 8679.200;  124.125;    0.000
818.801; 8588.200;  209.125;    0.000
818.989; 8454.200;  178.125;    0.000
819.176; 7853.200;  155.125;    0.000
819.364; 9242.200;  174.125;    0.000
819.552;12399.200;  131.125;    0.000
819.739; 8567.200;  184.125;    0.000
819.927; 6920.200;  132.125;    0.000
820.114; 6618.200;  173.125;    0.000
820.302; 6418.200;  140.125;    0.000
820.489; 6101.200;  133.125;    0.000
820.677; 5993.200;  167.125;    0.000
820.864; 6391.200;  161.125;    0.000
821.052; 6978.200;  134.125;    0.000
821.239; 7460.200;  149.125;    0.000
821.426; 8242.200;  160.125;    0.000
821.614;10490.200;  143.125;    0.000
821.801;11669.200;  118.125;    0.000
821.988;10166.200;  154.125;    0.000
822.176; 9929.200;  112.125;    0.000
822.363;10218.200;  131.125;    0.000
822.550; 9422.200;  131.125;    0.000
822.737; 8456.200;  104.125;    0.000
822.924; 7954.200;  160.125;    0.000
823.112; 7306.200;  161.125;    0.000
823.299; 7060.200;  169.125;    0.000
823.486; 6748.200;  129.125;    0.000
823.673; 6467.200;  135.125;    0.000
823.860; 6260.200;  169.125;    0.000
824.047; 6324.200;  124.125;    0.000
824.234; 6999.200;  160.125;    0.000
824.421; 7279.200;  114.125;    0.000
824.608; 6371.200;  191.125;    0.000
824.795; 5845.200;  160.125;    0.000
824.982; 5503.200;  139.125;    0.000
825.169; 5065.200;  121.125;    0.000
825.356; 4875.200;  148.125;    0.000
825.543; 4703.200;  167.125;    0.000
825.730; 4506.200;  103.125;    0.000
825.917; 4411.200;  113.125;    0.000
826.104; 4258.200;  188.125;    0.000
826.290; 4193.200;  193.125;    0.000
826.477; 4149.200;  175.125;    0.000
826.664; 3990.200;  151.125;    0.000
826.851; 3903.200;  122.125;    0.000
827.038; 3810.200;  121.125;    0.000
827.224; 3798.200;  124.125;    0.000
827.411; 3814.200;  155.125;    0.000
827.598; 3624.200;  127.125;    0.000
827.784; 3547.200;  140.125;    0.000
827.971; 3606.200;  114.125;    0.000
828.157; 3486.200;  135.125;    0.000
828.344; 3514.200;  173.125;    0.000
828.531; 3433.200;  113.125;    0.000
828.717; 3433.200;  137.125;    0.000
828.904; 3356.200;  158.125;    0.000
829.090; 3398.200;  199.125;    0.000
829.277; 3360.200;  156.125;    0.000
829.463; 3336.200;  154.125;    0.000
829.650; 3358.200;  174.125;    0.000
829.836; 3229.200;  136.125;    0.000
830.022; 3222.200;  143.125;    0.000
830.209; 3175.200;  157.125;    0.000
830.395; 3205.200;  156.125;    0.000
830.581; 3188.200;  148.125;    0.000
830.768; 3134.200;  169.125;    0.000
830.954; 3140.200;  169.125;    0.000
831.140; 3069.200;  124.125;    0.000
831.327; 3122.200;  157.125;    0.000
831.513; 3135.200;  163.125;    0.000
831.699; 3124.200;  176.125;    0.000
831.885; 3163.200;  154.125;    0.000
832.071; 3042.200;  159.125;    0.000
832.257; 3040.200;  142.125;    0.000
832.444; 2991.200;  159.125;    0.000
832.630; 3081.200;  129.125;    0.000
832.816; 3053.200;  132.125;    0.000
833.002; 2864.200;  125.125;    0.000
833.188; 2909.200;  144.125;    0.000
833.374; 2927.200;  131.125;    0.000
833.560; 3002.200;  154.125;    0.000
833.746; 2922.200;  171.125;    0.000
833.932; 2899.200;  162.125;    0.000
834.118; 2864.200;  131.125;    0.000
834.303; 2919.200;  113.125;    0.000
834.489; 2870.200;  170.125;    0.000
834.675; 2944.200;  177.125;    0.000
834.861; 2875.200;  154.125;    0.000
835.047; 2911.200;  171.125;    0.000
835.233; 2871.200;   98.125;    0.000
835.418; 2986.200;  138.125;    0.000
835.604; 2885.200;  140.125;    0.000
835.790; 2755.200;  130.125;    0.000
835.976; 2855.200;  129.125;    0.000
836.161; 2767.200;  142.125;    0.000
836.347; 2734.200;  128.125;    0.000
836.533; 2738.200;  143.125;    0.000
836.718; 2857.200;  164.125;    0.000
836.904; 2847.200;  172.125;    0.000
837.089; 2801.200;  152.125;    0.000
837.275; 2802.200;  143.125;    0.000
837.460; 2820.200;  125.125;    0.000
837.646; 2832.200;  137.125;    0.000
837.831; 2877.200;  153.125;    0.000
838.017; 2826.200;  171.125;    0.000
838.202; 2800.200;  111.125;    0.000
838.388; 2863.200;  140.125;    0.000
838.573; 2839.200;  158.125;    0.000
838.759; 2950.200;  188.125;    0.000
838.944; 2766.200;  125.125;    0.000
839.129; 2859.200;  123.125;    0.000
839.315; 2853.200;  181.125;    0.000
839.500; 2831.200;  150.125;    0.000
839.685; 2844.200;  109.125;    0.000
839.870; 2850.200;  202.125;    0.000
840.056; 2827.200;  101.125;    0.000
840.241; 2896.200;  184.125;    0.000
840.426; 2839.200;  192.125;    0.000
840.611; 2967.200;  180.125;    0.000
840.796; 3012.200;  156.125;    0.000
840.981; 2943.200;  142.125;    0.000
841.166; 2965.200;  161.125;    0.000
841.352; 3057.200;  185.125;    0.000
841.537; 3109.200;  139.125;    0.000
841.722; 3011.200;  143.125;    0.000
841.907; 3089.200;  140.125;    0.000
842.092; 3160.200;  176.125;    0.000
842.277; 3070.200;  136.125;    0.000
842.461; 3280.200;  155.125;    0.000
842.646; 3295.200;  163.125;    0.000
842.831; 3296.200;  153.125;    0.000
843.016; 3455.200;  187.125;    0.000
843.201; 3562.200;  179.125;    0.000
843.386; 3733.200;  167.125;    0.000
843.571; 3823.200;  129.125;    0.000
843.755; 4037.200;  136.125;    0.000
843.940; 4213.200;  121.125;    0.000
844.125; 4782.200;  157.125;    0.000
844.310; 5526.200;  175.125;    0.000
844.494; 7235.200;  164.125;    0.000
844.679; 9826.200;  167.125;    0.000
844.864; 9882.200;  166.125;    0.000
845.048; 8014.200;  132.125;    0.000
845.233; 6512.200;  175.125;    0.000
845.418; 5899.200;  159.125;    0.000
845.602; 5164.200;  147.125;    0.000
845.787; 4844.200;  132.125;    0.000
845.971; 4458.200;  187.125;    0.000
846.156; 4267.200;  141.125;    0.000
846.340; 3995.200;  153.125;    0.000
846.525; 3887.200;  157.125;    0.000
846.709; 3721.200;  117.125;    0.000
846.893; 3384.200;  147.125;    0.000
847.078; 3441.200;  170.125;    0.000
847.262; 3491.200;  150.125;    0.000
847.447; 3147.200;  132.125;    0.000
847.631; 3234.200;  144.125;    0.000
847.815; 3153.200;  157.125;    0.000
848.000; 3010.200;  164.125;    0.000
848.184; 3031.200;  174.125;    0.000
848.368; 2945.200;  149.125;    0.000
848.552; 2960.200;  143.125;    0.000
848.736; 2950.200;  132.125;    0.000
848.921; 2822.200;  147.125;    0.000
849.105; 2771.200;  150.125;    0.000
849.289; 2900.200;  146.125;    0.000
849.473; 2799.200;  167.125;    0.000
849.657; 2820.200;  149.125;    0.000
849.841; 2778.200;  181.125;    0.000
850.025; 2707.200;  154.125;    0.000
850.209; 2749.200;  152.125;    0.000
850.393; 2673.200;  139.125;    0.000
850.577; 2735.200;  128.125;    0.000
850.761; 2716.200;  194.125;    0.000
850.945; 2605.200;  152.125;    0.000
851.129; 2712.200;  157.125;    0.000
851.313; 2608.200;  181.125;    0.000
851.497; 2585.200;  145.125;    0.000
851.680; 2537.200;  168.125;    0.000
851.864; 2556.200;  185.125;    0.000
852.048; 2531.200;  170.125;    0.000
852.232; 2599.200;  192.125;    0.000
852.416; 2622.200;  182.125;    0.000
852.599; 2556.200;  169.125;    0.000
852.783; 2595.200;  168.125;    0.000
852.967; 2637.200;  184.125;    0.000
853.150; 2649.200;  163.125;    0.000
853.334; 2508.200;  164.125;    0.000
853.518; 2559.200;  190.125;    0.000
853.701; 2545.200;  137.125;    0.000
853.885; 2504.200;  177.125;    0.000
854.068; 2578.200;  163.125;    0.000
854.252; 2551.200;  139.125;    0.000
854.435; 2577.200;  152.125;    0.000
854.619; 2518.200;  148.125;    0.000
854.802; 2507.200;  168.125;    0.000
854.986; 2490.200;  157.125;    0.000
855.169; 2457.200;  147.125;    0.000
855.353; 2638.200;  173.125;    0.000
855.536; 2426.200;  127.125;    0.000
855.719; 2491.200;  191.125;    0.000
855.903; 2622.200;  186.125;    0.000
856.086; 2524.200;  145.125;    0.000
856.269; 2468.200;  130.125;    0.000
856.452; 2636.200;  153.125;    0.000
856.636; 2609.200;  129.125;    0.000
856.819; 2814.200;  134.125;    0.000
857.002; 2873.200;  152.125;    0.000
857.185; 2827.200;  140.125;    0.000
857.368; 2817.200;  170.125;    0.000
857.552; 2728.200;  132.125;    0.000
857.735; 2694.200;  160.125;    0.000
857.918; 2742.200;  139.125;    0.000
858.101; 2667.200;  159.125;    0.000
858.284; 2648.200;  136.125;    0.000
858.467; 2683.200;  147.125;    0.000
858.650; 2770.200;  153.125;    0.000
858.833; 2838.200;  113.125;    0.000
859.016; 2801.200;  167.125;    0.000
859.199; 2889.200;  141.125;    0.000
859.382; 3211.200;  155.125;    0.000
859.564; 3418.200;  136.125;    0.000
859.747; 3200.200;  142.125;    0.000
859.930; 3158.200;  141.125;    0.000
860.113; 3100.200;  156.125;    0.000
860.296; 3053.200;  167.125;    0.000
860.478; 3000.200;  121.125;    0.000
860.661; 3039.200;  230.125;    0.000
860.844; 2972.200;  186.125;    0.000
861.027; 2911.200;  155.125;    0.000
861.209; 2960.200;  151.125;    0.000
861.392; 2949.200;  162.125;    0.000
861.575; 2887.200;  150.125;    0.000
861.757; 3035.200;  162.125;    0.000
861.940; 3077.200;  207.125;    0.000
862.122; 3089.200;  113.125;    0.000
862.305; 3064.200;  114.125;    0.000
862.487; 3243.200;  162.125;    0.000
862.670; 3351.200;  148.125;    0.000
862.852; 3912.200;  131.125;    0.000
863.035; 4600.200;  174.125;    0.000
863.217; 4477.200;  170.125;    0.000
863.400; 4139.200;  148.125;    0.000
863.582; 3913.200;  129.125;    0.000
863.764; 3719.200;  181.125;    0.000
863.947; 3579.200;  152.125;    0.000
864.129; 3604.200;  178.125;    0.000
864.311; 3475.200;  139.125;    0.000
864.493; 3372.200;  166.125;    0.000
864.676; 3433.200;  148.125;    0.000
864.858; 3359.200;  123.125;    0.000
865.040; 3369.200;  180.125;    0.000
865.222; 3429.200;  131.125;    0.000
865.404; 3491.200;  146.125;    0.000
865.587; 3502.200;  175.125;    0.000
865.769; 3621.200;  183.125;    0.000
865.951; 3698.200;  171.125;    0.000
866.133; 3664.200;  165.125;    0.000
866.315; 3569.200;  138.125;    0.000
866.497; 3708.200;  139.125;    0.000
866.679; 3816.200;  167.125;    0.000
866.861; 3850.200;  151.125;    0.000
867.043; 4081.200;  190.125;    0.000
867.225; 4360.200;  140.125;    0.000
867.407; 4633.200;  125.125;    0.000
867.589; 5187.200;  141.125;    0.000
867.770; 6180.200;  149.125;    0.000
867.952; 8366.200;  138.125;    0.000
868.134;10611.200;  153.125;    0.000
868.316;10634.200;  148.125;    0.000
868.498;10213.200;  180.125;    0.000
868.679; 8939.200;  152.125;    0.000
868.861; 7674.200;  174.125;    0.000
869.043; 6615.200;  152.125;    0.000
869.224; 5930.200;  177.125;    0.000
869.406; 5530.200;  171.125;    0.000
869.588; 5169.200;  177.125;    0.000
869.769; 4822.200;  174.125;    0.000
869.951; 4819.200;  167.125;    0.000
870.132; 4724.200;  144.125;    0.000
870.314; 5146.200;  143.125;    0.000
870.495; 5252.200;  162.125;    0.000
870.677; 4950.200;  136.125;    0.000
870.858; 4681.200;  155.125;    0.000
871.040; 4947.200;  179.125;    0.000
871.221; 5210.200;  177.125;    0.000
871.403; 5121.200;  180.125;    0.000
871.584; 4872.200;  157.125;    0.000
871.765; 5054.200;  183.125;    0.000
871.947; 5213.200;  169.125;    0.000
872.128; 4634.200;  162.125;    0.000
872.309; 4116.200;  159.125;    0.000
872.491; 3881.200;  148.125;    0.000
872.672; 3754.200;  163.125;    0.000
872.853; 3614.200;  152.125;    0.000
873.034; 3540.200;  166.125;    0.000
873.215; 3403.200;  155.125;    0.000
873.396; 3162.200;  147.125;    0.000
873.578; 3096.200;  147.125;    0.000
873.759; 3006.200;  153.125;    0.000
873.940; 2847.200;  194.125;    0.000
874.121; 2855.200;  179.125;    0.000
874.302; 2838.200;  155.125;    0.000
874.483; 2821.200;  131.125;    0.000
874.664; 2788.200;  106.125;    0.000
874.845; 2877.200;  122.125;    0.000
875.026; 2765.200;  127.125;    0.000
875.207; 2730.200;  151.125;    0.000
875.388; 2706.200;  149.125;    0.000
875.568; 2665.200;  164.125;    0.000
875.749; 2546.200;  176.125;    0.000
875.930; 2610.200;  207.125;    0.000
876.111; 2536.200;  177.125;    0.000
876.292; 2488.200;  178.125;    0.000
876.472; 2438.200;  163.125;    0.000
876.653; 2454.200;  159.125;    0.000
876.834; 2472.200;  177.125;    0.000
877.015; 2339.200;  212.125;    0.000
877.195; 2427.200;  166.125;    0.000
877.376; 2386.200;  157.125;    0.000
877.556; 2366.200;  175.125;    0.000
877.737; 2431.200;  220.125;    0.000
877.918; 2287.200;  163.125;    0.000
878.098; 2365.200;  166.125;    0.000
878.279; 2234.200;  136.125;    0.000
878.459; 2396.200;  167.125;    0.000
878.640; 2257.200;  167.125;    0.000
878.820; 2297.200;  155.125;    0.000
879.000; 2222.200;  158.125;    0.000
879.181; 2228.200;  155.125;    0.000
879.361; 2293.200;  181.125;    0.000
879.542; 2214.200;  181.125;    0.000
879.722; 2322.200;  117.125;    0.000
879.902; 2338.200;  180.125;    0.000
880.083; 2311.200;  139.125;    0.000
880.263; 2300.200;  168.125;    0.000
880.443; 2486.200;  206.125;    0.000
880.623; 3040.200;  132.125;    0.000
880.803; 3438.200;  149.125;    0.000
880.984; 2799.200;  189.125;    0.000
881.164; 2559.200;  171.125;    0.000
881.344; 2440.200;  150.125;    0.000
881.524; 2471.200;  185.125;    0.000
881.704; 2378.200;  152.125;    0.000
881.884; 2519.200;  188.125;    0.000
882.064; 2561.200;  155.125;    0.000
882.244; 2747.200;  182.125;    0.000
882.424; 2517.200;  154.125;    0.000
882.604; 2506.200;  175.125;    0.000
882.784; 2365.200;  137.125;    0.000
882.964; 2316.200;  135.125;    0.000
883.144; 2251.200;  142.125;    0.000
883.324; 2302.200;  192.125;    0.000
883.504; 2238.200;  193.125;    0.000
883.683; 2328.200;  208.125;    0.000
883.863; 2157.200;  127.125;    0.000
884.043; 2035.200;  140.125;    0.000
884.223; 2108.200;  167.125;    0.000
884.402; 2130.200;  156.125;    0.000
884.582; 2097.200;  185.125;    0.000
884.762; 2120.200;  187.125;    0.000
884.941; 2127.200;  201.125;    0.000
885.121; 2073.200;  157.125;    0.000
885.301; 2092.200;  173.125;    0.000
885.480; 2138.200;  158.125;    0.000
885.660; 2051.200;  153.125;    0.000
885.839; 2145.200;  144.125;    0.000
886.019; 2092.200;  184.125;    0.000
886.198; 2047.200;  132.125;    0.000
886.378; 1936.200;  124.125;    0.000
886.557; 2021.200;  146.125;    0.000
886.737; 2100.200;  157.125;    0.000
886.916; 2031.200;  203.125;    0.000
887.095; 2087.200;  151.125;    0.000
887.275; 2009.200;  143.125;    0.000
887.454; 2044.200;  140.125;    0.000
887.633; 2037.200;  196.125;    0.000
887.813; 2009.200;  161.125;    0.000
887.992; 2015.200;  183.125;    0.000
888.171; 2066.200;  153.125;    0.000
888.350; 2065.200;  185.125;    0.000
888.530; 1952.200;  163.125;    0.000
888.709; 1950.200;  174.125;    0.000
888.888; 2183.200;  179.125;    0.000
889.067; 2042.200;  178.125;    0.000
889.246; 2058.200;  184.125;    0.000
889.425; 2011.200;  169.125;    0.000
889.604; 2016.200;  210.125;    0.000
889.783; 2007.200;  183.125;    0.000
889.962; 1920.200;  116.125;    0.000
890.141; 2022.200;  179.125;    0.000
890.320; 1971.200;  182.125;    0.000
890.499; 2035.200;  188.125;    0.000
890.678; 2073.200;  167.125;    0.000
890.857; 2029.200;  141.125;    0.000
891.036; 2048.200;  179.125;    0.000
891.214; 1907.200;  156.125;    0.000
891.393; 2013.200;  209.125;    0.000
891.572; 2068.200;  181.125;    0.000
891.751; 1934.200;  172.125;    0.000
891.930; 1937.200;  169.125;    0.000
892.108; 2017.200;  131.125;    0.000
892.287; 1966.200;  162.125;    0.000
892.466; 1977.200;  178.125;    0.000
892.644; 2034.200;  161.125;    0.000
892.823; 1992.200;  180.125;    0.000
893.001; 1996.200;  179.125;    0.000
893.180; 1986.200;  152.125;    0.000
893.359; 2058.200;  184.125;    0.000
893.537; 1936.200;  178.125;    0.000
893.716; 1951.200;  169.125;    0.000
893.894; 2013.200;  159.125;    0.000
894.073; 1980.200;  179.125;    0.000
894.251; 1906.200;  167.125;    0.000
894.429; 1861.200;  142.125;    0.000
894.608; 2041.200;  166.125;    0.000
894.786; 1932.200;  153.125;    0.000
894.964; 1933.200;  181.125;    0.000
895.143; 1876.200;  161.125;    0.000
895.321; 1934.200;  198.125;    0.000
895.499; 1946.200;  184.125;    0.000
895.677; 1935.200;  178.125;    0.000
895.856; 2026.200;  226.125;    0.000
896.034; 2027.200;  180.125;    0.000
896.212; 2002.200;  200.125;    0.000
896.390; 2030.200;  161.125;    0.000
896.568; 2017.200;  204.125;    0.000
896.746; 2028.200;  136.125;    0.000
896.924; 1943.200;  171.125;    0.000
897.102; 2002.200;  203.125;    0.000
897.280; 1920.200;  142.125;    0.000
897.458; 1962.200;  159.125;    0.000
897.636; 2043.200;  163.125;    0.000
897.814; 2025.200;  137.125;    0.000
897.992; 2006.200;  199.125;    0.000
898.170; 2003.200;  176.125;    0.000
898.348; 2050.200;  195.125;    0.000
898.526; 1971.200;  199.125;    0.000
898.704; 2092.200;  260.125;    0.000
898.882; 2022.200;  185.125;    0.000
899.059; 2091.200;  169.125;    0.000
899.237; 2004.200;  197.125;    0.000
899.415; 2077.200;  207.125;    0.000
899.593; 2089.200;  169.125;    0.000
899.770; 2082.200;  182.125;    0.000
899.948; 2087.200;  198.125;    0.000
900.125; 2147.200;  200.125;    0.000
900.303; 2082.200;  165.125;    0.000
900.481; 2072.200;  182.125;    0.000
900.658; 2100.200;  206.125;    0.000
900.836; 2123.200;  188.125;    0.000
901.013; 2097.200;  169.125;    0.000
901.191; 2170.200;  172.125;    0.000
901.368; 2155.200;  170.125;    0.000
901.546; 2123.200;  234.125;    0.000
901.723; 2255.200;  173.125;    0.000
901.901; 2170.200;  190.125;    0.000
902.078; 2334.200;  145.125;    0.000
902.255; 2309.200;  204.125;    0.000
902.433; 2387.200;  198.125;    0.000
902.610; 2313.200;  190.125;    0.000
902.787; 2298.200;  204.125;    0.000
902.964; 2442.200;  208.125;    0.000
903.142; 2390.200;  187.125;    0.000
903.319; 2453.200;  216.125;    0.000
903.496; 2476.200;  186.125;    0.000
903.673; 2544.200;  201.125;    0.000
903.850; 2496.200;  195.125;    0.000
904.027; 2592.200;  211.125;    0.000
904.204; 2706.200;  197.125;    0.000
904.381; 2837.200;  198.125;    0.000
904.558; 3157.200;  188.125;    0.000
904.735; 3491.200;  207.125;    0.000
904.912; 3559.200;  217.125;    0.000
905.089; 3460.200;  188.125;    0.000
905.266; 3338.200;  160.125;    0.000
905.443; 3168.200;  221.125;    0.000
905.620; 2955.200;  163.125;    0.000
905.797; 2815.200;  186.125;    0.000
905.974; 2879.200;  205.125;    0.000
906.151; 2784.200;  159.125;    0.000
906.327; 2923.200;  206.125;    0.000
906.504; 2845.200;  201.125;    0.000
906.681; 2661.200;  202.125;    0.000
906.858; 2607.200;  188.125;    0.000
907.034; 2529.200;  207.125;    0.000
907.211; 2485.200;  182.125;    0.000
907.388; 2508.200;  184.125;    0.000
907.564; 2468.200;  148.125;    0.000
907.741; 2431.200;  181.125;    0.000
907.917; 2398.200;  191.125;    0.000
908.094; 2416.200;  210.125;    0.000
908.271; 2291.200;  171.125;    0.000
908.447; 2327.200;  241.125;    0.000
908.623; 2331.200;  188.125;    0.000
908.800; 2196.200;  205.125;    0.000
908.976; 2211.200;  210.125;    0.000
909.153; 2223.200;  193.125;    0.000
909.329; 2233.200;  206.125;    0.000
909.505; 2281.200;  181.125;    0.000
909.682; 2135.200;  192.125;    0.000
909.858; 2081.200;  134.125;    0.000
910.034; 2149.200;  214.125;    0.000
910.211; 2198.200;  182.125;    0.000
910.387; 2152.200;  194.125;    0.000
910.563; 2107.200;  199.125;    0.000
910.739; 2086.200;  188.125;    0.000
910.915; 2082.200;  192.125;    0.000
911.091; 2150.200;  198.125;    0.000
911.268; 2193.200;  178.125;    0.000
911.444; 2127.200;  201.125;    0.000
911.620; 2036.200;  181.125;    0.000
911.796; 2068.200;  185.125;    0.000
911.972; 2102.200;  176.125;    0.000
912.148; 2130.200;  196.125;    0.000
912.324; 2219.200;  192.125;    0.000
912.500; 2169.200;  204.125;    0.000
912.676; 2109.200;  164.125;    0.000
912.851; 2110.200;  193.125;    0.000
913.027; 2102.200;  175.125;    0.000
913.203; 2131.200;  193.125;    0.000
913.379; 2040.200;  213.125;    0.000
913.555; 2034.200;  211.125;    0.000
913.730; 2110.200;  194.125;    0.000
913.906; 2118.200;  153.125;    0.000
914.082; 2091.200;  212.125;    0.000
914.258; 2035.200;  194.125;    0.000
914.433; 2032.200;  191.125;    0.000
914.609; 2138.200;  208.125;    0.000
914.784; 2116.200;  176.125;    0.000
914.960; 2139.200;  227.125;    0.000
915.136; 2117.200;  152.125;    0.000
915.311; 2143.200;  171.125;    0.000
915.487; 2088.200;  173.125;    0.000
915.662; 2095.200;  189.125;    0.000
915.838; 2083.200;  179.125;    0.000
916.013; 2156.200;  191.125;    0.000
916.189; 2145.200;  207.125;    0.000
916.364; 2149.200;  194.125;    0.000
916.539; 2101.200;  174.125;    0.000
916.715; 2219.200;  207.125;    0.000
916.890; 2097.200;  193.125;    0.000
917.065; 2084.200;  199.125;    0.000
917.240; 2076.200;  214.125;    0.000
917.416; 2170.200;  194.125;    0.000
917.591; 2115.200;  213.125;    0.000
917.766; 2188.200;  194.125;    0.000
917.941; 2095.200;  201.125;    0.000
918.116; 2167.200;  198.125;    0.000
918.292; 2108.200;  176.125;    0.000
918.467; 2227.200;  190.125;    0.000
918.642; 2101.200;  200.125;    0.000
918.817; 2161.200;  186.125;    0.000
918.992; 2145.200;  174.125;    0.000
919.167; 2169.200;  197.125;    0.000
919.342; 2157.200;  188.125;    0.000
919.517; 2104.200;  179.125;    0.000
919.692; 2174.200;  182.125;    0.000
919.867; 2242.200;  216.125;    0.000
920.041; 2252.200;  208.125;    0.000
920.216; 2316.200;  223.125;    0.000
920.391; 2291.200;  203.125;    0.000
920.566; 2340.200;  202.125;    0.000
920.741; 2450.200;  197.125;    0.000
920.915; 2451.200;  223.125;    0.000
921.090; 2601.200;  183.125;    0.000
921.265; 2809.200;  169.125;    0.000
921.439; 3037.200;  212.125;    0.000
921.614; 2790.200;  190.125;    0.000
921.789; 2715.200;  177.125;    0.000
921.963; 2686.200;  233.125;    0.000
922.138; 2534.200;  156.125;    0.000
922.312; 2434.200;  193.125;    0.000
922.487; 2464.200;  208.125;    0.000
922.661; 2591.200;  212.125;    0.000
922.836; 2768.200;  210.125;    0.000
923.010; 2702.200;  183.125;    0.000
923.185; 2550.200;  228.125;    0.000
923.359; 2499.200;  227.125;    0.000
923.534; 2653.200;  189.125;    0.000
923.708; 2641.200;  210.125;    0.000
923.882; 2642.200;  217.125;    0.000
924.057; 2632.200;  195.125;    0.000
924.231; 2563.200;  201.125;    0.000
924.405; 2598.200;  188.125;    0.000
924.579; 2568.200;  188.125;    0.000
924.753; 2486.200;  174.125;    0.000
924.928; 2551.200;  179.125;    0.000
925.102; 2473.200;  186.125;    0.000
925.276; 2480.200;  201.125;    0.000
925.450; 2613.200;  211.125;    0.000
925.624; 2508.200;  238.125;    0.000
925.798; 2549.200;  191.125;    0.000
925.972; 2754.200;  192.125;    0.000
926.146; 2803.200;  198.125;    0.000
926.320; 3088.200;  151.125;    0.000
926.494; 3247.200;  202.125;    0.000
926.668; 3340.200;  197.125;    0.000
926.842; 3332.200;  177.125;    0.000
927.016; 3371.200;  202.125;    0.000
927.190; 3285.200;  207.125;    0.000
927.363; 3253.200;  180.125;    0.000
927.537; 3161.200;  212.125;    0.000
927.711; 3043.200;  148.125;    0.000
927.885; 3031.200;  196.125;    0.000
928.058; 2940.200;  173.125;    0.000
928.232; 2938.200;  219.125;    0.000
928.406; 2814.200;  141.125;    0.000
928.579; 2687.200;  157.125;    0.000
928.753; 2723.200;  205.125;    0.000
928.927; 2771.200;  196.125;    0.000
929.100; 2652.200;  237.125;    0.000
929.274; 2640.200;  166.125;    0.000
929.447; 2579.200;  150.125;    0.000
929.621; 2551.200;  188.125;    0.000
929.794; 2517.200;  169.125;    0.000
929.968; 2521.200;  194.125;    0.000
930.141; 2511.200;  226.125;    0.000
930.315; 2423.200;  196.125;    0.000
930.488; 2473.200;  233.125;    0.000
930.661; 2422.200;  188.125;    0.000
930.835; 2418.200;  170.125;    0.000
931.008; 2399.200;  176.125;    0.000
931.181; 2407.200;  175.125;    0.000
931.354; 2304.200;  212.125;    0.000
931.528; 2304.200;  177.125;    0.000
931.701; 2256.200;  218.125;    0.000
931.874; 2327.200;  175.125;    0.000
932.047; 2299.200;  157.125;    0.000
932.220; 2251.200;  187.125;    0.000
932.393; 2257.200;  166.125;    0.000
932.566; 2219.200;  168.125;    0.000
932.739; 2211.200;  203.125;    0.000
932.912; 2233.200;  202.125;    0.000
933.085; 2237.200;  209.125;    0.000
933.258; 2166.200;  196.125;    0.000
933.431; 2269.200;  207.125;    0.000
933.604; 2231.200;  201.125;    0.000
933.777; 2208.200;  202.125;    0.000
933.950; 2174.200;  184.125;    0.000
934.123; 2144.200;  167.125;    0.000
934.296; 2122.200;  209.125;    0.000
934.468; 2135.200;  216.125;    0.000
934.641; 2195.200;  156.125;    0.000
934.814; 2188.200;  215.125;    0.000
934.987; 2123.200;  201.125;    0.000
935.159; 2084.200;  176.125;    0.000
935.332; 2117.200;  203.125;    0.000
935.505; 2041.200;  163.125;    0.000
935.677; 2149.200;  169.125;    0.000
935.850; 2169.200;  178.125;    0.000
936.022; 2141.200;  187.125;    0.000
936.195; 2116.200;  207.125;    0.000
936.367; 2110.200;  191.125;    0.000
936.540; 2170.200;  214.125;    0.000
936.712; 2226.200;  202.125;    0.000
936.885; 2104.200;  195.125;    0.000
937.057; 2143.200;  173.125;    0.000
937.229; 2114.200;  179.125;    0.000
937.402; 2180.200;  174.125;    0.000
937.574; 2216.200;  140.125;    0.000
937.746; 2257.200;  153.125;    0.000
937.919; 2309.200;  196.125;    0.000
938.091; 2432.200;  173.125;    0.000
938.263; 2475.200;  206.125;    0.000
938.435; 2661.200;  213.125;    0.000
938.608; 2956.200;  204.125;    0.000
938.780; 3358.200;  199.125;    0.000
938.952; 3425.200;  190.125;    0.000
939.124; 3551.200;  182.125;    0.000
939.296; 3916.200;  188.125;    0.000
939.468; 3979.200;  119.125;    0.000
939.640; 3782.200;  171.125;    0.000
939.812; 3354.200;  222.125;    0.000
939.984; 3131.200;  172.125;    0.000
940.156; 2949.200;  171.125;    0.000
940.328; 2777.200;  215.125;    0.000
940.500; 2684.200;  179.125;    0.000
940.672; 2616.200;  178.125;    0.000
940.843; 2511.200;  193.125;    0.000
941.015; 2454.200;  207.125;    0.000
941.187; 2378.200;  179.125;    0.000
941.359; 2401.200;  191.125;    0.000
941.531; 2313.200;  160.125;    0.000
941.702; 2303.200;  208.125;    0.000
941.874; 2202.200;  143.125;    0.000
942.046; 2224.200;  189.125;    0.000
942.217; 2194.200;  167.125;    0.000
942.389; 2226.200;  199.125;    0.000
942.560; 2183.200;  179.125;    0.000
942.732; 2094.200;  209.125;    0.000
942.904; 2105.200;  180.125;    0.000
943.075; 2008.200;  197.125;    0.000
943.247; 2108.200;  207.125;    0.000
943.418; 2019.200;  183.125;    0.000
943.589; 2048.200;  176.125;    0.000
943.761; 1962.200;  165.125;    0.000
943.932; 1989.200;  170.125;    0.000
944.104; 1997.200;  147.125;    0.000
944.275; 1985.200;  149.125;    0.000
944.446; 2031.200;  191.125;    0.000
944.617; 1976.200;  128.125;    0.000
944.789; 1996.200;  166.125;    0.000
944.960; 2008.200;  195.125;    0.000
945.131; 1940.200;  164.125;    0.000
945.302; 2029.200;  229.125;    0.000
945.473; 1903.200;  153.125;    0.000
945.645; 1997.200;  166.125;    0.000
945.816; 2027.200;  187.125;    0.000
945.987; 1979.200;  193.125;    0.000
946.158; 2014.200;  166.125;    0.000
946.329; 2017.200;  196.125;    0.000
946.500; 1874.200;  152.125;    0.000
946.671; 1933.200;  161.125;    0.000
946.842; 2037.200;  176.125;    0.000
947.013; 1872.200;  188.125;    0.000
947.183; 1956.200;  213.125;    0.000
947.354; 1846.200;  163.125;    0.000
947.525; 1912.200;  204.125;    0.000
947.696; 1928.200;  159.125;    0.000
947.867; 1931.200;  197.125;    0.000
948.037; 1921.200;  174.125;    0.000
948.208; 1828.200;  163.125;    0.000
948.379; 1999.200;  189.125;    0.000
948.550; 1843.200;  173.125;    0.000
948.720; 1913.200;  186.125;    0.000
948.891; 1922.200;  166.125;    0.000
949.061; 1883.200;  197.125;    0.000
949.232; 1829.200;  168.125;    0.000
949.403; 1763.200;  188.125;    0.000
949.573; 1808.200;  164.125;    0.000
949.744; 1822.200;  194.125;    0.000
949.914; 1897.200;  154.125;    0.000
950.085; 1780.200;  197.125;    0.000
950.255; 1759.200;  187.125;    0.000
950.425; 1873.200;  193.125;    0.000
950.596; 1838.200;  182.125;    0.000
950.766; 1800.200;  202.125;    0.000
950.936; 1859.200;  230.125;    0.000
951.107; 1817.200;  133.125;    0.000
951.277; 1934.200;  234.125;    0.000
951.447; 1802.200;  200.125;    0.000
951.617; 1855.200;  212.125;    0.000
951.788; 1775.200;  176.125;    0.000
951.958; 1826.200;  218.125;    0.000
952.128; 1806.200;  198.125;    0.000
952.298; 1800.200;  185.125;    0.000
952.468; 1791.200;  231.125;    0.000
952.638; 1767.200;  213.125;    0.000
952.808; 1734.200;  218.125;    0.000
952.978; 1814.200;  252.125;    0.000
953.148; 1739.200;  200.125;    0.000
953.318; 1833.200;  243.125;    0.000
953.488; 1717.200;  140.125;    0.000
953.658; 1776.200;  208.125;    0.000
953.828; 1766.200;  179.125;    0.000
953.998; 1731.200;  211.125;    0.000
954.167; 1754.200;  197.125;    0.000
954.337; 1696.200;  217.125;    0.000
954.507; 1773.200;  219.125;    0.000
954.677; 1700.200;  201.125;    0.000
954.846; 1813.200;  241.125;    0.000
955.016; 1788.200;  222.125;    0.000
955.186; 1767.200;  200.125;    0.000
955.355; 1752.200;  247.125;    0.000
955.525; 1711.200;  212.125;    0.000
955.695; 1590.200;  200.125;    0.000
955.864; 1791.200;  196.125;    0.000
956.034; 1741.200;  195.125;    0.000
956.203; 1687.200;  243.125;    0.000
956.373; 1607.200;  197.125;    0.000
956.542; 1772.200;  237.125;    0.000
956.711; 1795.200;  249.125;    0.000
956.881; 1734.200;  235.125;    0.000
957.050; 1721.200;  259.125;    0.000
957.220; 1741.200;  234.125;    0.000
957.389; 1773.200;  250.125;    0.000
957.558; 1709.200;  214.125;    0.000
957.727; 1692.200;  225.125;    0.000
957.897; 1728.200;  211.125;    0.000
958.066; 1704.200;  200.125;    0.000
958.235; 1768.200;  202.125;    0.000
958.404; 1704.200;  242.125;    0.000
958.573; 1711.200;  222.125;    0.000
958.743; 1627.200;  191.125;    0.000
958.912; 1737.200;  183.125;    0.000
959.081; 1655.200;  212.125;    0.000
959.250; 1657.200;  192.125;    0.000
959.419; 1671.200;  238.125;    0.000
959.588; 1673.200;  205.125;    0.000
959.757; 1616.200;  213.125;    0.000
959.926; 1627.200;  217.125;    0.000
960.094; 1646.200;  215.125;    0.000
960.263; 1679.200;  220.125;    0.000
960.432; 1598.200;  164.125;    0.000
960.601; 1663.200;  228.125;    0.000
960.770; 1631.200;  176.125;    0.000
960.939; 1660.200;  201.125;    0.000
961.107; 1629.200;  183.125;    0.000
961.276; 1574.200;  199.125;    0.000
961.445; 1619.200;  205.125;    0.000
961.613; 1611.200;  183.125;    0.000
961.782; 1579.200;  216.125;    0.000
961.951; 1594.200;  169.125;    0.000
962.119; 1546.200;  211.125;    0.000
962.288; 1621.200;  204.125;    0.000
962.456; 1565.200;  187.125;    0.000
962.625; 1691.200;  223.125;    0.000
962.793; 1514.200;  200.125;    0.000
962.962; 1596.200;  185.125;    0.000
963.130; 1608.200;  195.125;    0.000
963.298; 1596.200;  187.125;    0.000
963.467; 1603.200;  247.125;    0.000
963.635; 1594.200;  165.125;    0.000
963.803; 1617.200;  192.125;    0.000
963.972; 1601.200;  191.125;    0.000
964.140; 1643.200;  163.125;    0.000
964.308; 1555.200;  161.125;    0.000
964.477; 1634.200;  182.125;    0.000
964.645; 1604.200;  195.125;    0.000
964.813; 1600.200;  165.125;    0.000
964.981; 1599.200;  193.125;    0.000
965.149; 1633.200;  174.125;    0.000
965.317; 1588.200;  194.125;    0.000
965.485; 1587.200;  209.125;    0.000
965.653; 1651.200;  210.125;    0.000
965.821; 1579.200;  194.125;    0.000
965.989; 1608.200;  182.125;    0.000
966.157; 1641.200;  180.125;    0.000
966.325; 1551.200;  198.125;    0.000
966.493; 1625.200;  182.125;    0.000
966.661; 1583.200;  200.125;    0.000
966.829; 1541.200;  190.125;    0.000
966.996; 1588.200;  221.125;    0.000
967.164; 1657.200;  176.125;    0.000
967.332; 1616.200;  228.125;    0.000
967.500; 1595.200;  177.125;    0.000
967.667; 1560.200;  202.125;    0.000
967.835; 1695.200;  220.125;    0.000
968.003; 1664.200;  183.125;    0.000
968.170; 1637.200;  163.125;    0.000
968.338; 1549.200;  162.125;    0.000
968.505; 1673.200;  198.125;    0.000
968.673; 1503.200;  213.125;    0.000
968.841; 1547.200;  131.125;    0.000
969.008; 1658.200;  225.125;    0.000
969.175; 1522.200;  202.125;    0.000
969.343; 1572.200;  222.125;    0.000
969.510; 1573.200;  230.125;    0.000
969.678; 1545.200;  161.125;    0.000
969.845; 1640.200;  208.125;    0.000
970.012; 1598.200;  186.125;    0.000
970.180; 1623.200;  226.125;    0.000
970.347; 1616.200;  222.125;    0.000
970.514; 1584.200;  206.125;    0.000
970.681; 1595.200;  173.125;    0.000
970.849; 1548.200;  190.125;    0.000
971.016; 1679.200;  220.125;    0.000
971.183; 1653.200;  202.125;    0.000
971.350; 1647.200;  196.125;    0.000
971.517; 1637.200;  218.125;    0.000
971.684; 1617.200;  228.125;    0.000
971.851; 1619.200;  235.125;    0.000
972.018; 1664.200;  200.125;    0.000
972.185; 1663.200;  183.125;    0.000
972.352; 1596.200;  216.125;    0.000
972.519; 1608.200;  227.125;    0.000
972.686; 1689.200;  209.125;    0.000
972.853; 1635.200;  157.125;    0.000
973.020; 1645.200;  179.125;    0.000
973.186; 1589.200;  173.125;    0.000
973.353; 1605.200;  189.125;    0.000
973.520; 1590.200;  228.125;    0.000
973.687; 1681.200;  190.125;    0.000
973.853; 1624.200;  197.125;    0.000
974.020; 1622.200;  208.125;    0.000
974.187; 1644.200;  158.125;    0.000
974.353; 1682.200;  201.125;    0.000
974.520; 1646.200;  158.125;    0.000
974.687; 1637.200;  192.125;    0.000
974.853; 1636.200;  177.125;    0.000
975.020; 1573.200;  212.125;    0.000
975.186; 1628.200;  200.125;    0.000
975.353; 1602.200;  208.125;    0.000
975.519; 1566.200;  169.125;    0.000
975.685; 1575.200;  176.125;    0.000
975.852; 1528.200;  201.125;    0.000
976.018; 1593.200;  209.125;    0.000
976.184; 1650.200;  197.125;    0.000
976.351; 1648.200;  196.125;    0.000
976.517; 1553.200;  243.125;    0.000
976.683; 1595.200;  210.125;    0.000
976.849; 1538.200;  226.125;    0.000
977.016; 1580.200;  218.125;    0.000
977.182; 1629.200;  213.125;    0.000
977.348; 1514.200;  205.125;    0.000
977.514; 1611.200;  210.125;    0.000
977.680; 1590.200;  226.125;    0.000
977.846; 1507.200;  206.125;    0.000
978.012; 1596.200;  222.125;    0.000
978.178; 1538.200;  216.125;    0.000
978.344; 1499.200;  172.125;    0.000
978.510; 1464.200;  210.125;    0.000
978.676; 1501.200;  184.125;    0.000
978.842; 1567.200;  190.125;    0.000
979.008; 1632.200;  203.125;    0.000
979.174; 1497.200;  211.125;    0.000
979.340; 1641.200;  190.125;    0.000
979.505; 1620.200;  235.125;    0.000
979.671; 1537.200;  182.125;    0.000
979.837; 1595.200;  235.125;    0.000
980.003; 1514.200;  183.125;    0.000
980.168; 1518.200;  220.125;    0.000
980.334; 1587.200;  161.125;    0.000
980.499; 1648.200;  212.125;    0.000
980.665; 1631.200;  219.125;    0.000
980.831; 1620.200;  201.125;    0.000
980.996; 1622.200;  189.125;    0.000
981.162; 1625.200;  222.125;    0.000
981.327; 1545.200;  173.125;    0.000
981.493; 1563.200;  197.125;    0.000
981.658; 1553.200;  178.125;    0.000
981.823; 1574.200;  196.125;    0.000
981.989; 1506.200;  248.125;    0.000
982.154; 1554.200;  222.125;    0.000
982.319; 1617.200;  226.125;    0.000
982.485; 1670.200;  188.125;    0.000
982.650; 1618.200;  203.125;    0.000
982.815; 1622.200;  237.125;    0.000
982.980; 1668.200;  210.125;    0.000
983.146; 1574.200;  202.125;    0.000
983.311; 1582.200;  195.125;    0.000
983.476; 1652.200;  207.125;    0.000
983.641; 1548.200;  198.125;    0.000
983.806; 1593.200;  136.125;    0.000
983.971; 1678.200;  248.125;    0.000
984.136; 1600.200;  213.125;    0.000
984.301; 1667.200;  181.125;    0.000
984.466; 1577.200;  210.125;    0.000
984.631; 1612.200;  219.125;    0.000
984.796; 1612.200;  207.125;    0.000
984.961; 1579.200;  214.125;    0.000
985.126; 1623.200;  218.125;    0.000
985.291; 1554.200;  214.125;    0.000
985.455; 1529.200;  187.125;    0.000
985.620; 1603.200;  191.125;    0.000
985.785; 1589.200;  190.125;    0.000
985.950; 1541.200;  184.125;    0.000
986.114; 1666.200;  242.125;    0.000
986.279; 1590.200;  251.125;    0.000
986.444; 1577.200;  177.125;    0.000
986.608; 1612.200;  216.125;    0.000
986.773; 1590.200;  211.125;    0.000
986.937; 1666.200;  244.125;    0.000
987.102; 1646.200;  187.125;    0.000
987.266; 1524.200;  178.125;    0.000
987.431; 1593.200;  205.125;    0.000
987.595; 1588.200;  221.125;    0.000
987.760; 1634.200;  205.125;    0.000
987.924; 1676.200;  195.125;    0.000
988.088; 1581.200;  184.125;    0.000
988.253; 1598.200;  188.125;    0.000
988.417; 1609.200;  196.125;    0.000
988.581; 1548.200;  218.125;    0.000
988.746; 1593.200;  203.125;    0.000
988.910; 1576.200;  195.125;    0.000
989.074; 1572.200;  187.125;    0.000
989.238; 1594.200;  243.125;    0.000
989.402; 1625.200;  242.125;    0.000
989.566; 1574.200;  205.125;    0.000
989.731; 1607.200;  195.125;    0.000
989.895; 1585.200;  211.125;    0.000
990.059; 1522.200;  175.125;    0.000
990.223; 1540.200;  176.125;    0.000
990.387; 1682.200;  234.125;    0.000
990.551; 1561.200;  231.125;    0.000
990.714; 1556.200;  209.125;    0.000
990.878; 1604.200;  187.125;    0.000
991.042; 1637.200;  183.125;    0.000
991.206; 1560.200;  216.125;    0.000
991.370; 1568.200;  257.125;    0.000
991.534; 1559.200;  188.125;    0.000
991.697; 1615.200;  203.125;    0.000
991.861; 1598.200;  219.125;    0.000
992.025; 1523.200;  221.125;    0.000
992.188; 1511.200;  188.125;    0.000
992.352; 1537.200;  205.125;    0.000
992.516; 1543.200;  189.125;    0.000
992.679; 1474.200;  207.125;    0.000
992.843; 1557.200;  210.125;    0.000
993.006; 1531.200;  191.125;    0.000
993.170; 1504.200;  228.125;    0.000
993.333; 1583.200;  142.125;    0.000
993.497; 1534.200;  175.125;    0.000
993.660; 1582.200;  220.125;    0.000
993.824; 1561.200;  193.125;    0.000
993.987; 1557.200;  219.125;    0.000
994.150; 1469.200;  166.125;    0.000
994.314; 1546.200;  207.125;    0.000
994.477; 1560.200;  227.125;    0.000
994.640; 1498.200;  210.125;    0.000
994.803; 1562.200;  219.125;    0.000
994.967; 1626.200;  192.125;    0.000
995.130; 1564.200;  197.125;    0.000
995.293; 1577.200;  189.125;    0.000
995.456; 1492.200;  180.125;    0.000
995.619; 1542.200;  239.125;    0.000
995.782; 1534.200;  209.125;    0.000
995.945; 1545.200;  216.125;    0.000
996.108; 1570.200;  198.125;    0.000
996.271; 1535.200;  205.125;    0.000
996.434; 1610.200;  205.125;    0.000
996.597; 1570.200;  208.125;    0.000
996.760; 1536.200;  205.125;    0.000
996.923; 1532.200;  174.125;    0.000
997.086; 1547.200;  198.125;    0.000
997.248; 1576.200;  214.125;    0.000
997.411; 1516.200;  237.125;    0.000
997.574; 1533.200;  182.125;    0.000
997.737; 1553.200;  188.125;    0.000
997.899; 1565.200;  216.125;    0.000
998.062; 1523.200;  210.125;    0.000
998.225; 1577.200;  202.125;    0.000
998.387; 1450.200;  202.125;    0.000
998.550; 1512.200;  193.125;    0.000
998.712; 1508.200;  225.125;    0.000
998.875; 1545.200;  228.125;    0.000
999.037; 1492.200;  186.125;    0.000
999.200; 1536.200;  212.125;    0.000
999.362; 1529.200;  234.125;    0.000
999.525; 1555.200;  170.125;    0.000
999.687; 1514.200;  191.125;    0.000
999.849; 1563.200;  218.125;    0.000
1000.012; 1513.200;  187.125;    0.000
1000.174; 1590.200;  216.125;    0.000
1000.336; 1585.200;  194.125;    0.000
1000.499; 1680.200;  209.125;    0.000
1000.661; 1651.200;  208.125;    0.000
1000.823; 1574.200;  197.125;    0.000
1000.985; 1634.200;  201.125;    0.000
1001.147; 1636.200;  234.125;    0.000
1001.309; 1587.200;  180.125;    0.000
1001.471; 1651.200;  223.125;    0.000
1001.633; 1604.200;  198.125;    0.000
1001.796; 1634.200;  200.125;    0.000
1001.958; 1629.200;  204.125;    0.000
1002.119; 1625.200;  193.125;    0.000
1002.281; 1783.200;  205.125;    0.000
1002.443; 1849.200;  236.125;    0.000
1002.605; 1906.200;  197.125;    0.000
1002.767; 1970.200;  223.125;    0.000
1002.929; 2002.200;  220.125;    0.000
1003.091; 2149.200;  214.125;    0.000
1003.252; 2192.200;  233.125;    0.000
1003.414; 2300.200;  230.125;    0.000
1003.576; 2472.200;  203.125;    0.000
1003.738; 2566.200;  201.125;    0.000
1003.899; 2764.200;  222.125;    0.000
1004.061; 2783.200;  208.125;    0.000
1004.222; 2943.200;  194.125;    0.000
1004.384; 3029.200;  205.125;    0.000
1004.546; 3176.200;  162.125;    0.000
1004.707; 3177.200;  232.125;    0.000
1004.869; 3159.200;  223.125;    0.000
1005.030; 3091.200;  204.125;    0.000
1005.191; 3090.200;  214.125;    0.000
1005.353; 2963.200;  226.125;    0.000
1005.514; 2816.200;  201.125;    0.000
1005.675; 2687.200;  205.125;    0.000
1005.837; 2611.200;  235.125;    0.000
1005.998; 2590.200;  210.125;    0.000
1006.159; 2473.200;  214.125;    0.000
1006.321; 2519.200;  236.125;    0.000
1006.482; 2605.200;  214.125;    0.000
1006.643; 2725.200;  213.125;    0.000
1006.804; 2780.200;  204.125;    0.000
1006.965; 2884.200;  212.125;    0.000
1007.126; 2959.200;  251.125;    0.000
1007.287; 3028.200;  238.125;    0.000
1007.448; 2854.200;  198.125;    0.000
1007.609; 2925.200;  241.125;    0.000
1007.770; 2803.200;  213.125;    0.000
1007.931; 2719.200;  225.125;    0.000
1008.092; 2873.200;  204.125;    0.000
1008.253; 2908.200;  220.125;    0.000
1008.414; 3032.200;  180.125;    0.000
1008.575; 2997.200;  224.125;    0.000
1008.736; 3061.200;  164.125;    0.000
1008.896; 2898.200;  247.125;    0.000
1009.057; 2933.200;  263.125;    0.000
1009.218; 2851.200;  233.125;    0.000
1009.379; 3026.200;  207.125;    0.000
1009.539; 3080.200;  221.125;    0.000
1009.700; 3180.200;  209.125;    0.000
1009.860; 3034.200;  217.125;    0.000
1010.021; 3033.200;  182.125;    0.000
1010.182; 2982.200;  233.125;    0.000
1010.342; 2965.200;  210.125;    0.000
1010.503; 3139.200;  232.125;    0.000
1010.663; 3204.200;  228.125;    0.000
1010.823; 3250.200;  212.125;    0.000
1010.984; 3284.200;  244.125;    0.000
1011.144; 3320.200;  200.125;    0.000
1011.305; 3229.200;  237.125;    0.000
1011.465; 3435.200;  225.125;    0.000
1011.625; 3554.200;  215.125;    0.000
1011.785; 3609.200;  235.125;    0.000
1011.946; 3529.200;  231.125;    0.000
1012.106; 3430.200;  206.125;    0.000
1012.266; 3315.200;  218.125;    0.000
1012.426; 3464.200;  249.125;    0.000
1012.586; 3394.200;  217.125;    0.000
1012.746; 3416.200;  231.125;    0.000
1012.906; 3346.200;  230.125;    0.000
1013.066; 3343.200;  260.125;    0.000
1013.226; 3493.200;  206.125;    0.000
1013.386; 3346.200;  220.125;    0.000
1013.546; 3351.200;  233.125;    0.000
1013.706; 3268.200;  194.125;    0.000
1013.866; 3493.200;  209.125;    0.000
1014.026; 3452.200;  204.125;    0.000
1014.186; 3312.200;  203.125;    0.000
1014.346; 3277.200;  244.125;    0.000
1014.505; 3557.200;  206.125;    0.000
1014.665; 3678.200;  210.125;    0.000
1014.825; 3425.200;  235.125;    0.000
1014.985; 3505.200;  227.125;    0.000
1015.144; 3716.200;  237.125;    0.000
1015.304; 3930.200;  196.125;    0.000
1015.464; 3796.200;  228.125;    0.000
1015.623; 3782.200;  235.125;    0.000
1015.783; 4156.200;  187.125;    0.000
1015.942; 4571.200;  184.125;    0.000
1016.102; 4302.200;  245.125;    0.000
1016.261; 4133.200;  203.125;    0.000
1016.420; 4784.200;  209.125;    0.000
1016.580; 5271.200;  235.125;    0.000
1016.739; 4871.200;  175.125;    0.000
1016.899; 4790.200;  220.125;    0.000
1017.058; 5154.200;  219.125;    0.000
1017.217; 5483.200;  238.125;    0.000
1017.376; 5129.200;  235.125;    0.000
1017.536; 4725.200;  195.125;    0.000
1017.695; 4806.200;  215.125;    0.000
1017.854; 4866.200;  231.125;    0.000
1018.013; 4659.200;  184.125;    0.000
1018.172; 4372.200;  179.125;    0.000
1018.331; 4566.200;  205.125;    0.000
1018.490; 4858.200;  203.125;    0.000
1018.649; 4996.200;  261.125;    0.000
1018.808; 5125.200;  253.125;    0.000
1018.967; 5175.200;  201.125;    0.000
1019.126; 5284.200;  216.125;    0.000
1019.285; 5164.200;  169.125;    0.000
1019.444; 5177.200;  226.125;    0.000
1019.603; 5050.200;  252.125;    0.000
1019.762; 4791.200;  206.125;    0.000
1019.921; 4869.200;  235.125;    0.000
1020.079; 5035.200;  192.125;    0.000
1020.238; 5592.200;  226.125;    0.000
1020.397; 5444.200;  231.125;    0.000
1020.555; 5023.200;  218.125;    0.000
1020.714; 5102.200;  235.125;    0.000
1020.873; 5545.200;  229.125;    0.000
1021.031; 5597.200;  234.125;    0.000
1021.190; 5167.200;  223.125;    0.000
1021.348; 5077.200;  186.125;    0.000
1021.507; 5484.200;  201.125;    0.000
1021.665; 6004.200;  222.125;    0.000
1021.824; 5582.200;  208.125;    0.000
1021.982; 5195.200;  209.125;    0.000
1022.141; 5102.200;  224.125;    0.000
1022.299; 5821.200;  214.125;    0.000
1022.457; 6283.200;  176.125;    0.000
1022.616; 5750.200;  211.125;    0.000
1022.774; 5135.200;  218.125;    0.000
1022.932; 5312.200;  205.125;    0.000
1023.090; 6252.200;  246.125;    0.000
1023.249; 6525.200;  249.125;    0.000
1023.407; 5854.200;  235.125;    0.000
1023.565; 5191.200;  202.125;    0.000
1023.723; 5485.200;  210.125;    0.000
1023.881; 6395.200;  206.125;    0.000
1024.039; 6506.200;  240.125;    0.000
1024.197; 5908.200;  275.125;    0.000
1024.355; 5523.200;  228.125;    0.000
1024.513; 5692.200;  234.125;    0.000
1024.671; 6635.200;  222.125;    0.000
1024.829; 6706.200;  241.125;    0.000
1024.987; 6175.200;  209.125;    0.000
1025.145; 5317.200;  227.125;    0.000
1025.302; 5625.200;  208.125;    0.000
1025.460; 6401.200;  210.125;    0.000
1025.618; 6844.200;  192.125;    0.000
1025.776; 6213.200;  220.125;    0.000
1025.933; 5438.200;  223.125;    0.000
1026.091; 5718.200;  189.125;    0.000
1026.249; 6548.200;  210.125;    0.000
1026.406; 7005.200;  231.125;    0.000
1026.564; 6632.200;  247.125;    0.000
1026.721; 5908.200;  213.125;    0.000
1026.879; 5528.200;  208.125;    0.000
1027.036; 6309.200;  222.125;    0.000
1027.194; 7050.200;  253.125;    0.000
1027.351; 7043.200;  239.125;    0.000
1027.509; 6255.200;  232.125;    0.000
1027.666; 5819.200;  251.125;    0.000
1027.823; 6422.200;  212.125;    0.000
1027.981; 6924.200;  260.125;    0.000
1028.138; 7369.200;  263.125;    0.000
1028.295; 6623.200;  251.125;    0.000
1028.452; 6049.200;  249.125;    0.000
1028.609; 5908.200;  259.125;    0.000
1028.767; 6713.200;  255.125;    0.000
1028.924; 7392.200;  201.125;    0.000
1029.081; 7075.200;  217.125;    0.000
1029.238; 6706.200;  230.125;    0.000
1029.395; 6161.200;  263.125;    0.000
1029.552; 6304.200;  207.125;    0.000
1029.709; 6911.200;  220.125;    0.000
1029.866; 7397.200;  214.125;    0.000
1030.023; 7252.200;  224.125;    0.000
1030.180; 6354.200;  209.125;    0.000
1030.337; 6127.200;  269.125;    0.000
1030.494; 6723.200;  207.125;    0.000
1030.650; 7120.200;  230.125;    0.000
1030.807; 7693.200;  217.125;    0.000
1030.964; 6932.200;  212.125;    0.000
1031.121; 6599.200;  220.125;    0.000
1031.277; 6331.200;  233.125;    0.000
1031.434; 6709.200;  266.125;    0.000
1031.591; 7388.200;  270.125;    0.000
1031.747; 7711.200;  229.125;    0.000
1031.904; 7555.200;  227.125;    0.000
1032.060; 6831.200;  210.125;    0.000
1032.217; 6648.200;  218.125;    0.000
1032.373; 7323.200;  190.125;    0.000
1032.530; 7501.200;  236.125;    0.000
1032.686; 8441.200;  199.125;    0.000
1032.843; 8351.200;  216.125;    0.000
1032.999; 7949.200;  204.125;    0.000
1033.155; 8015.200;  208.125;    0.000
1033.312; 8194.200;  231.125;    0.000
1033.468; 9546.200;  213.125;    0.000
1033.624; 9983.200;  235.125;    0.000
1033.780;10604.200;  233.125;    0.000
1033.937;10533.200;  201.125;    0.000
1034.093; 9808.200;  233.125;    0.000
1034.249;10092.200;  214.125;    0.000
1034.405; 9989.200;  245.125;    0.000
1034.561;10781.200;  228.125;    0.000
1034.717;11452.200;  234.125;    0.000
1034.873;11107.200;  248.125;    0.000
1035.029;11853.200;  220.125;    0.000
1035.185;10394.200;  294.125;    0.000
1035.341;10388.200;  231.125;    0.000
1035.497;10989.200;  254.125;    0.000
1035.653;11425.200;  225.125;    0.000
1035.809;12830.200;  243.125;    0.000
1035.964;13536.200;  216.125;    0.000
1036.120;12355.200;  199.125;    0.000
1036.276;12882.200;  220.125;    0.000
1036.432;12006.200;  210.125;    0.000
1036.587;11776.200;  225.125;    0.000
1036.743;12631.200;  245.125;    0.000
1036.899;13969.200;  219.125;    0.000
1037.054;13918.200;  157.125;    0.000
1037.210;15732.200;  208.125;    0.000
1037.365;15601.200;  230.125;    0.000
1037.521;14149.200;  236.125;    0.000
1037.676;13742.200;  193.125;    0.000
1037.832;12746.200;  246.125;    0.000
1037.987;12707.200;  231.125;    0.000
1038.143;13310.200;  234.125;    0.000
1038.298;15232.200;  219.125;    0.000
1038.453;15490.200;  230.125;    0.000
1038.609;16920.199;  254.125;    0.000
1038.764;16841.199;  249.125;    0.000
1038.919;15698.200;  224.125;    0.000
1039.074;15377.200;  209.125;    0.000
1039.229;14220.200;  214.125;    0.000
1039.385;14339.200;  268.125;    0.000
1039.540;14928.200;  268.125;    0.000
1039.695;16754.199;  229.125;    0.000
1039.850;18068.199;  252.125;    0.000
1040.005;18989.199;  248.125;    0.000
1040.160;19611.199;  215.125;    0.000
1040.315;19113.199;  239.125;    0.000
1040.470;17756.199;  210.125;    0.000
1040.625;17161.199;  239.125;    0.000
1040.780;16838.199;  251.125;    0.000
1040.935;16989.199;  247.125;    0.000
1041.089;18304.199;  215.125;    0.000
1041.244;20401.199;  210.125;    0.000
1041.399;20716.199;  237.125;    0.000
1041.554;22270.199;  253.125;    0.000
1041.708;24596.199;  227.125;    0.000
1041.863;22911.199;  219.125;    0.000
1042.018;21912.199;  246.125;    0.000
1042.172;21915.199;  236.125;    0.000
1042.327;20814.199;  272.125;    0.000
1042.481;21031.199;  197.125;    0.000
1042.636;22915.199;  213.125;    0.000
1042.791;22647.199;  250.125;    0.000
1042.945;25651.199;  267.125;    0.000
1043.099;28488.199;  257.125;    0.000
1043.254;27357.199;  206.125;    0.000
1043.408;28887.199;  266.125;    0.000
1043.563;31087.199;  232.125;    0.000
1043.717;28687.199;  241.125;    0.000
1043.871;27743.199;  248.125;    0.000
1044.025;27384.199;  234.125;    0.000
1044.180;25789.199;  222.125;    0.000
1044.334;26471.199;  235.125;    0.000
1044.488;27887.199;  270.125;    0.000
1044.642;29201.199;  215.125;    0.000
1044.796;31179.199;  212.125;    0.000
1044.950;34004.199;  228.125;    0.000
1045.104;37635.199;  223.125;    0.000
1045.258;37945.199;  236.125;    0.000
1045.412;37668.199;  225.125;    0.000
1045.566;36929.199;  245.125;    0.000
1045.720;35151.199;  201.125;    0.000
1045.874;33353.199;  229.125;    0.000
1046.028;30834.199;  243.125;    0.000
1046.182;32011.199;  212.125;    0.000
1046.336;32234.199;  256.125;    0.000
1046.489;32413.199;  234.125;    0.000
1046.643;34080.199;  246.125;    0.000
1046.797;37102.199;  219.125;    0.000
1046.951;37445.199;  231.125;    0.000
1047.104;37532.199;  285.125;    0.000
1047.258;40770.199;  256.125;    0.000
1047.411;42725.199;  232.125;    0.000
1047.565;42700.199;  269.125;    0.000
1047.719;41358.199;  213.125;    0.000
1047.872;39481.199;  210.125;    0.000
1048.026;37874.199;  251.125;    0.000
1048.179;37834.199;  213.125;    0.000
1048.332;36217.199;  212.125;    0.000
1048.486;35980.199;  218.125;    0.000
1048.639;36312.199;  218.125;    0.000
1048.792;36098.199;  247.125;    0.000
1048.946;40424.199;  208.125;    0.000
1049.099;43244.199;  247.125;    0.000
1049.252;44079.199;  274.125;    0.000
1049.406;40621.199;  232.125;    0.000
1049.559;42582.199;  251.125;    0.000
1049.712;47633.199;  243.125;    0.000
1049.865;51845.199;  219.125;    0.000
1050.018;50729.199;  216.125;    0.000
1050.171;46126.199;  237.125;    0.000
1050.324;45718.199;  291.125;    0.000
1050.477;45166.199;  241.125;    0.000
1050.630;48706.199;  245.125;    0.000
1050.783;50694.199;  213.125;    0.000
1050.936;46870.199;  246.125;    0.000
1051.089;44214.199;  255.125;    0.000
1051.242;46138.199;  228.125;    0.000
1051.394;51220.199;  276.125;    0.000
1051.547;54202.199;  246.125;    0.000
1051.700;50094.199;  252.125;    0.000
1051.853;46984.199;  267.125;    0.000
1052.005;49960.199;  261.125;    0.000
1052.158;56541.199;  313.125;    0.000
1052.311;61782.199;  264.125;    0.000
1052.463;59634.199;  271.125;    0.000
1052.616;54267.199;  291.125;    0.000
1052.768;48067.199;  298.125;    0.000
1052.921;45772.199;  262.125;    0.000
1053.073;49280.199;  307.125;    0.000
1053.226;56522.199;  301.125;    0.000
1053.378;64177.199;  309.125;    0.000
1053.531;65114.199;  280.125;    0.000
1053.683;65114.199;  258.125;    0.000
1053.835;57581.199;  267.125;    0.000
1053.988;43862.199;  294.125;    0.000
1054.140; 7734.200;  292.125;    0.000
1054.292; 1870.200;  249.125;    0.000
1054.444; 1518.200;  288.125;    0.000
1054.596; 1326.200;  275.125;    0.000
1054.749; 1188.200;  284.125;    0.000
1054.901; 1130.200;  291.125;    0.000
1055.053; 1046.200;  274.125;    0.000
1055.205;  994.200;  313.125;    0.000
1055.357;  944.200;  309.125;    0.000
1055.509;  885.200;  283.125;    0.000
1055.661;  904.200;  341.125;    0.000
1055.813;  884.200;  288.125;    0.000
1055.965;  868.200;  300.125;    0.000
1056.116;  823.200;  296.125;    0.000
1056.268;  764.200;  319.125;    0.000
1056.420;  801.200;  298.125;    0.000

