
Integration time [ms]:   1.000
Averaging Nr. [scans]: 1
Smoothing Nr. [pixels]: 0
Data measured with spectrometer [name]: UV2
Wave   ;Sample   ;Dark     ;Reference
[nm]   ;[counts] ;[counts] ;[counts] 

353.533;  233.425;  216.475;    0.000
353.597;  213.425;  244.475;    0.000
353.660;  188.425;  181.475;    0.000
353.723;  204.425;  203.475;    0.000
353.786;  177.425;  180.475;    0.000
353.850;  196.425;  213.475;    0.000
353.913;  226.425;  191.475;    0.000
353.976;  212.425;  195.475;    0.000
354.039;  194.425;  158.475;    0.000
354.102;  240.425;  199.475;    0.000
354.166;  226.425;  185.475;    0.000
354.229;  203.425;  188.475;    0.000
354.292;  212.425;  188.475;    0.000
354.355;  209.425;  226.475;    0.000
354.418;  202.425;  158.475;    0.000
354.481;  221.425;  185.475;    0.000
354.545;  509.425;  191.475;    0.000
354.608;  572.425;  247.475;    0.000
354.671;  554.425;  176.475;    0.000
354.734;  557.425;  198.475;    0.000
354.797;  508.425;  195.475;    0.000
354.860;  574.425;  212.475;    0.000
354.923;  566.425;  184.475;    0.000
354.986;  619.425;  169.475;    0.000
355.050;  564.425;  206.475;    0.000
355.113;  598.425;  210.475;    0.000
355.176;  571.425;  217.475;    0.000
355.239;  595.425;  201.475;    0.000
355.302;  605.425;  193.475;    0.000
355.365;  626.425;  234.475;    0.000
355.428;  577.425;  182.475;    0.000
355.491;  641.425;  233.475;    0.000
355.554;  633.425;  167.475;    0.000
355.617;  622.425;  195.475;    0.000
355.680;  667.425;  198.475;    0.000
355.743;  672.425;  186.475;    0.000
355.806;  594.425;  171.475;    0.000
355.869;  750.425;  244.475;    0.000
355.932;  643.425;  164.475;    0.000
355.995;  705.425;  220.475;    0.000
356.058;  660.425;  172.475;    0.000
356.121;  671.425;  228.475;    0.000
356.184;  679.425;  225.475;    0.000
356.247;  659.425;  161.475;    0.000
356.310;  676.425;  195.475;    0.000
356.373;  704.425;  191.475;    0.000
356.436;  669.425;  147.475;    0.000
356.498;  683.425;  183.475;    0.000
356.561;  699.425;  137.475;    0.000
356.624;  732.425;  186.475;    0.000
356.687;  684.425;  158.475;    0.000
356.750;  734.425;  194.475;    0.000
356.813;  697.425;  186.475;    0.000
356.876;  707.425;  161.475;    0.000
356.939;  664.425;  188.475;    0.000
357.001;  688.425;  200.475;    0.000
357.064;  741.425;  182.475;    0.000
357.127;  722.425;  168.475;    0.000
357.190;  711.425;  157.475;    0.000
357.253;  762.425;  199.475;    0.000
357.316;  756.425;  187.475;    0.000
357.378;  728.425;  174.475;    0.000
357.441;  693.425;  165.475;    0.000
357.504;  679.425;  189.475;    0.000
357.567;  737.425;  116.475;    0.000
357.629;  720.425;  176.475;    0.000
357.692;  728.425;  134.475;    0.000
357.755;  712.425;  175.475;    0.000
357.818;  701.425;  159.475;    0.000
357.880;  768.425;  185.475;    0.000
357.943;  700.425;  159.475;    0.000
358.006;  686.425;  176.475;    0.000
358.069;  712.425;  156.475;    0.000
358.131;  682.425;  170.475;    0.000
358.194;  694.425;  125.475;    0.000
358.257;  692.425;  186.475;    0.000
358.319;  701.425;  139.475;    0.000
358.382;  718.425;  175.475;    0.000
358.445;  757.425;  170.475;    0.000
358.507;  725.425;  129.475;    0.000
358.570;  688.425;  168.475;    0.000
358.633;  724.425;  152.475;    0.000
358.695;  769.425;  194.475;    0.000
358.758;  712.425;  154.475;    0.000
358.821;  748.425;  147.475;    0.000
358.883;  684.425;  163.475;    0.000
358.946;  698.425;  155.475;    0.000
359.008;  830.425;  208.475;    0.000
359.071;  724.425;  182.475;    0.000
359.134;  726.425;  126.475;    0.000
359.196;  734.425;  142.475;    0.000
359.259;  755.425;  138.475;    0.000
359.321;  771.425;  153.475;    0.000
359.384;  752.425;  186.475;    0.000
359.446;  823.425;  152.475;    0.000
359.509;  769.425;  144.475;    0.000
359.571;  771.425;  164.475;    0.000
359.634;  771.425;  171.475;    0.000
359.696;  760.425;  144.475;    0.000
359.759;  751.425;  171.475;    0.000
359.821;  754.425;  161.475;    0.000
359.884;  731.425;  159.475;    0.000
359.946;  801.425;  186.475;    0.000
360.009;  762.425;  171.475;    0.000
360.071;  823.425;  166.475;    0.000
360.134;  759.425;  215.475;    0.000
360.196;  739.425;  138.475;    0.000
360.259;  802.425;  196.475;    0.000
360.321;  797.425;  148.475;    0.000
360.384;  821.425;  150.475;    0.000
360.446;  763.425;  148.475;    0.000
360.508;  779.425;  172.475;    0.000
360.571;  803.425;  155.475;    0.000
360.633;  772.425;  153.475;    0.000
360.696;  786.425;  142.475;    0.000
360.758;  749.425;  165.475;    0.000
360.820;  811.425;  155.475;    0.000
360.883;  761.425;  156.475;    0.000
360.945;  856.425;  171.475;    0.000
361.007;  743.425;  138.475;    0.000
361.070;  814.425;  129.475;    0.000
361.132;  787.425;  166.475;    0.000
361.194;  786.425;  143.475;    0.000
361.257;  772.425;  154.475;    0.000
361.319;  785.425;  176.475;    0.000
361.381;  783.425;  143.475;    0.000
361.443;  823.425;  136.475;    0.000
361.506;  825.425;  160.475;    0.000
361.568;  786.425;  140.475;    0.000
361.630;  838.425;  159.475;    0.000
361.693;  785.425;  162.475;    0.000
361.755;  801.425;  185.475;    0.000
361.817;  818.425;  209.475;    0.000
361.879;  805.425;  161.475;    0.000
361.941;  797.425;  152.475;    0.000
362.004;  812.425;  132.475;    0.000
362.066;  798.425;  159.475;    0.000
362.128;  817.425;  143.475;    0.000
362.190;  808.425;  131.475;    0.000
362.252;  880.425;  131.475;    0.000
362.315;  838.425;  175.475;    0.000
362.377;  835.425;  140.475;    0.000
362.439;  872.425;  140.475;    0.000
362.501;  804.425;  140.475;    0.000
362.563;  854.425;  152.475;    0.000
362.625;  873.425;  174.475;    0.000
362.688;  829.425;  195.475;    0.000
362.750;  894.425;  221.475;    0.000
362.812;  848.425;  171.475;    0.000
362.874;  879.425;  117.475;    0.000
362.936;  826.425;  162.475;    0.000
362.998;  790.425;  142.475;    0.000
363.060;  911.425;  143.475;    0.000
363.122;  836.425;  148.475;    0.000
363.184;  883.425;  179.475;    0.000
363.246;  859.425;  186.475;    0.000
363.308;  855.425;  180.475;    0.000
363.370;  869.425;  200.475;    0.000
363.432;  844.425;  139.475;    0.000
363.494;  859.425;  138.475;    0.000
363.556;  831.425;  114.475;    0.000
363.618;  845.425;  153.475;    0.000
363.680;  848.425;  153.475;    0.000
363.742;  832.425;  178.475;    0.000
363.804;  871.425;  214.475;    0.000
363.866;  865.425;  170.475;    0.000
363.928;  898.425;  145.475;    0.000
363.990;  874.425;  215.475;    0.000
364.052;  866.425;  166.475;    0.000
364.114;  871.425;  168.475;    0.000
364.176;  878.425;  176.475;    0.000
364.238;  901.425;  203.475;    0.000
364.300;  859.425;  158.475;    0.000
364.362;  929.425;  152.475;    0.000
364.424;  815.425;  119.475;    0.000
364.486;  877.425;  187.475;    0.000
364.548;  818.425;  180.475;    0.000
364.609;  963.425;  212.475;    0.000
364.671;  856.425;  165.475;    0.000
364.733;  853.425;  190.475;    0.000
364.795;  856.425;  148.475;    0.000
364.857;  871.425;  159.475;    0.000
364.919;  925.425;  159.475;    0.000
364.981;  934.425;  191.475;    0.000
365.042;  904.425;  170.475;    0.000
365.104;  856.425;  145.475;    0.000
365.166;  849.425;  134.475;    0.000
365.228;  906.425;  150.475;    0.000
365.290;  865.425;  158.475;    0.000
365.351;  846.425;  168.475;    0.000
365.413;  864.425;  173.475;    0.000
365.475;  850.425;  172.475;    0.000
365.537;  863.425;  126.475;    0.000
365.598;  880.425;  160.475;    0.000
365.660;  839.425;  127.475;    0.000
365.722;  880.425;  189.475;    0.000
365.784;  873.425;  161.475;    0.000
365.845;  865.425;  152.475;    0.000
365.907;  836.425;  117.475;    0.000
365.969;  891.425;  146.475;    0.000
366.030;  886.425;  171.475;    0.000
366.092;  884.425;  155.475;    0.000
366.154;  832.425;  137.475;    0.000
366.215;  872.425;  147.475;    0.000
366.277;  855.425;  148.475;    0.000
366.339;  853.425;  158.475;    0.000
366.400;  900.425;  140.475;    0.000
366.462;  918.425;  159.475;    0.000
366.524;  872.425;  160.475;    0.000
366.585;  905.425;  157.475;    0.000
366.647;  962.425;  170.475;    0.000
366.708;  892.425;  123.475;    0.000
366.770;  897.425;  194.475;    0.000
366.832;  908.425;  191.475;    0.000
366.893;  910.425;  155.475;    0.000
366.955;  923.425;  132.475;    0.000
367.016;  926.425;  126.475;    0.000
367.078;  892.425;  202.475;    0.000
367.139;  874.425;  116.475;    0.000
367.201;  865.425;  134.475;    0.000
367.262;  915.425;  157.475;    0.000
367.324;  889.425;  202.475;    0.000
367.385;  868.425;  118.475;    0.000
367.447;  907.425;  155.475;    0.000
367.508;  876.425;  134.475;    0.000
367.570;  905.425;  165.475;    0.000
367.631;  876.425;  118.475;    0.000
367.693;  866.425;  170.475;    0.000
367.754;  923.425;  154.475;    0.000
367.816;  962.425;  146.475;    0.000
367.877;  982.425;  175.475;    0.000
367.939;  942.425;  200.475;    0.000
368.000;  911.425;  168.475;    0.000
368.062;  939.425;  138.475;    0.000
368.123;  907.425;  170.475;    0.000
368.184;  941.425;  188.475;    0.000
368.246;  913.425;  145.475;    0.000
368.307;  921.425;  163.475;    0.000
368.369;  941.425;  144.475;    0.000
368.430;  909.425;  140.475;    0.000
368.491;  878.425;  133.475;    0.000
368.553;  912.425;  145.475;    0.000
368.614;  912.425;  158.475;    0.000
368.675;  908.425;  147.475;    0.000
368.737;  938.425;  157.475;    0.000
368.798; 1007.425;  163.475;    0.000
368.859;  966.425;  173.475;    0.000
368.921;  978.425;  122.475;    0.000
368.982;  932.425;  184.475;    0.000
369.043;  949.425;  169.475;    0.000
369.104;  953.425;  142.475;    0.000
369.166;  977.425;  169.475;    0.000
369.227;  899.425;  156.475;    0.000
369.288;  918.425;  151.475;    0.000
369.349;  958.425;  191.475;    0.000
369.411;  954.425;  168.475;    0.000
369.472;  962.425;  155.475;    0.000
369.533;  893.425;  149.475;    0.000
369.594;  957.425;  174.475;    0.000
369.656;  921.425;  188.475;    0.000
369.717;  943.425;  113.475;    0.000
369.778;  959.425;  184.475;    0.000
369.839;  920.425;  151.475;    0.000
369.900; 1002.425;  180.475;    0.000
369.961;  970.425;  171.475;    0.000
370.023;  933.425;  143.475;    0.000
370.084;  989.425;  137.475;    0.000
370.145;  924.425;  152.475;    0.000
370.206;  941.425;  151.475;    0.000
370.267;  991.425;  134.475;    0.000
370.328;  952.425;  178.475;    0.000
370.389;  976.425;  181.475;    0.000
370.451;  952.425;  169.475;    0.000
370.512;  966.425;  172.475;    0.000
370.573;  969.425;  148.475;    0.000
370.634;  992.425;  156.475;    0.000
370.695;  980.425;  151.475;    0.000
370.756;  914.425;  185.475;    0.000
370.817;  979.425;  185.475;    0.000
370.878;  976.425;  191.475;    0.000
370.939;  916.425;  147.475;    0.000
371.000;  924.425;  162.475;    0.000
371.061;  973.425;  145.475;    0.000
371.122;  953.425;  179.475;    0.000
371.183;  894.425;  114.475;    0.000
371.244; 1014.425;  180.475;    0.000
371.305;  966.425;  138.475;    0.000
371.366;  982.425;  157.475;    0.000
371.427;  996.425;  148.475;    0.000
371.488; 1001.425;  138.475;    0.000
371.549;  947.425;  193.475;    0.000
371.610; 1025.425;  158.475;    0.000
371.671;  943.425;  119.475;    0.000
371.732;  962.425;  159.475;    0.000
371.793;  988.425;  178.475;    0.000
371.853;  937.425;  155.475;    0.000
371.914;  922.425;  148.475;    0.000
371.975;  935.425;  124.475;    0.000
372.036;  989.425;  158.475;    0.000
372.097;  996.425;  136.475;    0.000
372.158;  988.425;  116.475;    0.000
372.219; 1039.425;  157.475;    0.000
372.280;  965.425;  151.475;    0.000
372.340; 1012.425;  190.475;    0.000
372.401;  986.425;  151.475;    0.000
372.462; 1006.425;  129.475;    0.000
372.523;  993.425;  121.475;    0.000
372.584; 1008.425;  152.475;    0.000
372.645;  992.425;  132.475;    0.000
372.705; 1039.425;  190.475;    0.000
372.766; 1001.425;  153.475;    0.000
372.827; 1004.425;  133.475;    0.000
372.888; 1018.425;  161.475;    0.000
372.948; 1014.425;  159.475;    0.000
373.009; 1001.425;  164.475;    0.000
373.070; 1022.425;  139.475;    0.000
373.131;  966.425;  137.475;    0.000
373.191; 1041.425;  181.475;    0.000
373.252; 1043.425;  154.475;    0.000
373.313; 1072.425;  179.475;    0.000
373.373; 1007.425;  136.475;    0.000
373.434;  989.425;  169.475;    0.000
373.495;  996.425;   97.475;    0.000
373.555; 1069.425;  142.475;    0.000
373.616;  998.425;  178.475;    0.000
373.677; 1035.425;  167.475;    0.000
373.737;  994.425;  139.475;    0.000
373.798; 1028.425;  155.475;    0.000
373.859; 1002.425;  162.475;    0.000
373.919; 1001.425;  174.475;    0.000
373.980; 1037.425;  172.475;    0.000
374.041; 1009.425;  166.475;    0.000
374.101;  978.425;  172.475;    0.000
374.162; 1071.425;  188.475;    0.000
374.222; 1078.425;  186.475;    0.000
374.283; 1072.425;  195.475;    0.000
374.343; 1114.425;  204.475;    0.000
374.404; 1087.425;  187.475;    0.000
374.465; 1063.425;  183.475;    0.000
374.525; 1027.425;  136.475;    0.000
374.586; 1066.425;  140.475;    0.000
374.646; 1077.425;  191.475;    0.000
374.707; 1065.425;  208.475;    0.000
374.767; 1037.425;  178.475;    0.000
374.828;  983.425;  159.475;    0.000
374.888; 1137.425;  143.475;    0.000
374.949; 1056.425;  202.475;    0.000
375.009; 1100.425;  151.475;    0.000
375.070; 1032.425;  160.475;    0.000
375.130; 1037.425;  160.475;    0.000
375.190; 1082.425;  164.475;    0.000
375.251; 1128.425;  196.475;    0.000
375.311; 1014.425;  154.475;    0.000
375.372; 1088.425;  197.475;    0.000
375.432; 1044.425;  159.475;    0.000
375.493; 1057.425;  197.475;    0.000
375.553; 1044.425;  165.475;    0.000
375.613; 1073.425;  174.475;    0.000
375.674; 1078.425;  165.475;    0.000
375.734; 1094.425;  128.475;    0.000
375.794; 1016.425;  169.475;    0.000
375.855; 1058.425;  193.475;    0.000
375.915; 1046.425;  162.475;    0.000
375.975; 1113.425;  181.475;    0.000
376.036; 1073.425;  161.475;    0.000
376.096; 1064.425;  131.475;    0.000
376.156; 1093.425;  165.475;    0.000
376.217; 1095.425;  182.475;    0.000
376.277; 1030.425;  185.475;    0.000
376.337; 1020.425;  177.475;    0.000
376.398; 1078.425;  162.475;    0.000
376.458; 1074.425;  179.475;    0.000
376.518; 1049.425;  150.475;    0.000
376.578; 1103.425;  165.475;    0.000
376.639; 1116.425;  159.475;    0.000
376.699; 1049.425;  180.475;    0.000
376.759; 1111.425;  206.475;    0.000
376.819; 1092.425;  146.475;    0.000
376.880; 1107.425;  177.475;    0.000
376.940; 1110.425;  160.475;    0.000
377.000; 1048.425;  149.475;    0.000
377.060; 1045.425;  180.475;    0.000
377.120; 1098.425;  146.475;    0.000
377.180; 1091.425;  137.475;    0.000
377.241; 1043.425;  163.475;    0.000
377.301; 1066.425;  169.475;    0.000
377.361; 1064.425;  137.475;    0.000
377.421; 1077.425;  184.475;    0.000
377.481; 1023.425;  185.475;    0.000
377.541; 1105.425;  146.475;    0.000
377.601; 1141.425;  179.475;    0.000
377.661; 1126.425;  181.475;    0.000
377.722; 1106.425;  185.475;    0.000
377.782; 1151.425;  147.475;    0.000
377.842; 1102.425;  190.475;    0.000
377.902; 1138.425;  166.475;    0.000
377.962; 1105.425;  153.475;    0.000
378.022; 1151.425;  163.475;    0.000
378.082; 1199.425;  146.475;    0.000
378.142; 1123.425;  152.475;    0.000
378.202; 1213.425;  164.475;    0.000
378.262; 1118.425;  195.475;    0.000
378.322; 1183.425;  190.475;    0.000
378.382; 1137.425;  152.475;    0.000
378.442; 1167.425;  175.475;    0.000
378.502; 1140.425;  153.475;    0.000
378.562; 1145.425;  142.475;    0.000
378.622; 1239.425;  166.475;    0.000
378.682; 1188.425;  173.475;    0.000
378.742; 1209.425;  182.475;    0.000
378.802; 1178.425;  145.475;    0.000
378.862; 1194.425;  210.475;    0.000
378.921; 1127.425;  182.475;    0.000
378.981; 1210.425;  185.475;    0.000
379.041; 1204.425;  130.475;    0.000
379.101; 1189.425;  177.475;    0.000
379.161; 1191.425;  166.475;    0.000
379.221; 1191.425;  162.475;    0.000
379.281; 1189.425;  167.475;    0.000
379.341; 1226.425;  136.475;    0.000
379.401; 1262.425;  145.475;    0.000
379.460; 1185.425;  176.475;    0.000
379.520; 1229.425;  162.475;    0.000
379.580; 1222.425;  144.475;    0.000
379.640; 1203.425;  163.475;    0.000
379.700; 1259.425;  157.475;    0.000
379.759; 1246.425;  165.475;    0.000
379.819; 1260.425;  190.475;    0.000
379.879; 1243.425;  143.475;    0.000
379.939; 1275.425;  188.475;    0.000
379.999; 1259.425;  141.475;    0.000
380.058; 1247.425;  169.475;    0.000
380.118; 1338.425;  158.475;    0.000
380.178; 1209.425;  114.475;    0.000
380.237; 1237.425;  157.475;    0.000
380.297; 1339.425;  177.475;    0.000
380.357; 1265.425;  189.475;    0.000
380.417; 1313.425;  182.475;    0.000
380.476; 1322.425;  178.475;    0.000
380.536; 1352.425;  189.475;    0.000
380.596; 1283.425;  183.475;    0.000
380.655; 1318.425;  195.475;    0.000
380.715; 1302.425;  170.475;    0.000
380.775; 1351.425;  170.475;    0.000
380.834; 1380.425;  179.475;    0.000
380.894; 1283.425;  188.475;    0.000
380.954; 1341.425;  142.475;    0.000
381.013; 1357.425;  178.475;    0.000
381.073; 1307.425;  164.475;    0.000
381.132; 1408.425;  192.475;    0.000
381.192; 1319.425;  187.475;    0.000
381.252; 1306.425;  176.475;    0.000
381.311; 1328.425;  206.475;    0.000
381.371; 1327.425;  167.475;    0.000
381.430; 1362.425;  131.475;    0.000
381.490; 1421.425;  150.475;    0.000
381.549; 1373.425;  129.475;    0.000
381.609; 1350.425;  178.475;    0.000
381.668; 1383.425;  194.475;    0.000
381.728; 1375.425;  210.475;    0.000
381.787; 1410.425;  190.475;    0.000
381.847; 1398.425;  181.475;    0.000
381.906; 1357.425;  156.475;    0.000
381.966; 1419.425;  176.475;    0.000
382.025; 1481.425;  186.475;    0.000
382.085; 1511.425;  192.475;    0.000
382.144; 1481.425;  173.475;    0.000
382.204; 1522.425;  207.475;    0.000
382.263; 1533.425;  193.475;    0.000
382.323; 1578.425;  164.475;    0.000
382.382; 1599.425;  161.475;    0.000
382.441; 1558.425;  199.475;    0.000
382.501; 1677.425;  208.475;    0.000
382.560; 1670.425;  173.475;    0.000
382.619; 1743.425;  179.475;    0.000
382.679; 1791.425;  177.475;    0.000
382.738; 1803.425;  190.475;    0.000
382.798; 1962.425;  213.475;    0.000
382.857; 2093.425;  195.475;    0.000
382.916; 2415.425;  184.475;    0.000
382.976; 2441.425;  169.475;    0.000
383.035; 2301.425;  194.475;    0.000
383.094; 2427.425;  185.475;    0.000
383.154; 2670.425;  198.475;    0.000
383.213; 3117.425;  147.475;    0.000
383.272; 3022.425;  175.475;    0.000
383.331; 2428.425;  122.475;    0.000
383.391; 2165.425;  185.475;    0.000
383.450; 2157.425;  160.475;    0.000
383.509; 2104.425;  168.475;    0.000
383.568; 2257.425;  196.475;    0.000
383.628; 2312.425;  156.475;    0.000
383.687; 2558.425;  171.475;    0.000
383.746; 2896.425;  155.475;    0.000
383.805; 3432.425;  201.475;    0.000
383.864; 3350.425;  125.475;    0.000
383.924; 2722.425;  213.475;    0.000
383.983; 2105.425;  188.475;    0.000
384.042; 1950.425;  162.475;    0.000
384.101; 1950.425;  183.475;    0.000
384.160; 1745.425;  155.475;    0.000
384.219; 1755.425;  155.475;    0.000
384.279; 1728.425;  189.475;    0.000
384.338; 1635.425;  156.475;    0.000
384.397; 1667.425;  148.475;    0.000
384.456; 1548.425;  154.475;    0.000
384.515; 1579.425;  160.475;    0.000
384.574; 1586.425;  223.475;    0.000
384.633; 1561.425;  133.475;    0.000
384.692; 1559.425;  163.475;    0.000
384.751; 1532.425;  186.475;    0.000
384.810; 1611.425;  187.475;    0.000
384.869; 1531.425;  172.475;    0.000
384.929; 1454.425;  153.475;    0.000
384.988; 1521.425;  174.475;    0.000
385.047; 1482.425;  154.475;    0.000
385.106; 1499.425;  164.475;    0.000
385.165; 1387.425;  151.475;    0.000
385.224; 1465.425;  147.475;    0.000
385.283; 1562.425;  176.475;    0.000
385.342; 1439.425;  142.475;    0.000
385.401; 1467.425;  175.475;    0.000
385.459; 1435.425;  150.475;    0.000
385.518; 1506.425;  124.475;    0.000
385.577; 1405.425;  115.475;    0.000
385.636; 1449.425;  174.475;    0.000
385.695; 1487.425;  158.475;    0.000
385.754; 1471.425;  150.475;    0.000
385.813; 1475.425;  129.475;    0.000
385.872; 1466.425;  146.475;    0.000
385.931; 1494.425;  194.475;    0.000
385.990; 1503.425;  174.475;    0.000
386.049; 1425.425;  176.475;    0.000
386.107; 1513.425;  151.475;    0.000
386.166; 1483.425;  178.475;    0.000
386.225; 1417.425;  162.475;    0.000
386.284; 1393.425;  180.475;    0.000
386.343; 1522.425;  171.475;    0.000
386.402; 1466.425;  176.475;    0.000
386.460; 1433.425;  144.475;    0.000
386.519; 1428.425;  140.475;    0.000
386.578; 1454.425;  145.475;    0.000
386.637; 1499.425;  164.475;    0.000
386.696; 1497.425;  189.475;    0.000
386.754; 1398.425;  135.475;    0.000
386.813; 1494.425;  139.475;    0.000
386.872; 1445.425;  121.475;    0.000
386.931; 1417.425;  153.475;    0.000
386.989; 1502.425;  211.475;    0.000
387.048; 1417.425;  156.475;    0.000
387.107; 1525.425;  210.475;    0.000
387.165; 1466.425;  129.475;    0.000
387.224; 1378.425;  205.475;    0.000
387.283; 1419.425;  130.475;    0.000
387.342; 1440.425;  171.475;    0.000
387.400; 1468.425;  156.475;    0.000
387.459; 1387.425;  141.475;    0.000
387.517; 1495.425;  219.475;    0.000
387.576; 1423.425;  166.475;    0.000
387.635; 1426.425;  136.475;    0.000
387.693; 1472.425;  191.475;    0.000
387.752; 1479.425;  165.475;    0.000
387.811; 1441.425;  158.475;    0.000
387.869; 1443.425;  204.475;    0.000
387.928; 1397.425;  149.475;    0.000
387.986; 1462.425;  156.475;    0.000
388.045; 1351.425;  123.475;    0.000
388.103; 1458.425;  150.475;    0.000
388.162; 1471.425;  173.475;    0.000
388.221; 1392.425;  143.475;    0.000
388.279; 1291.425;  129.475;    0.000
388.338; 1467.425;  212.475;    0.000
388.396; 1383.425;  150.475;    0.000
388.455; 1431.425;  167.475;    0.000
388.513; 1384.425;  116.475;    0.000
388.572; 1397.425;  181.475;    0.000
388.630; 1445.425;  187.475;    0.000
388.689; 1389.425;  180.475;    0.000
388.747; 1307.425;  154.475;    0.000
388.806; 1324.425;  161.475;    0.000
388.864; 1368.425;  167.475;    0.000
388.922; 1414.425;  184.475;    0.000
388.981; 1396.425;  169.475;    0.000
389.039; 1383.425;  102.475;    0.000
389.098; 1452.425;  183.475;    0.000
389.156; 1400.425;  182.475;    0.000
389.214; 1433.425;  173.475;    0.000
389.273; 1384.425;  167.475;    0.000
389.331; 1479.425;  170.475;    0.000
389.390; 1372.425;  150.475;    0.000
389.448; 1358.425;  156.475;    0.000
389.506; 1496.425;  149.475;    0.000
389.565; 1434.425;  162.475;    0.000
389.623; 1467.425;  188.475;    0.000
389.681; 1448.425;  204.475;    0.000
389.740; 1415.425;  187.475;    0.000
389.798; 1404.425;  153.475;    0.000
389.856; 1501.425;  214.475;    0.000
389.914; 1409.425;  177.475;    0.000
389.973; 1370.425;  189.475;    0.000
390.031; 1377.425;  178.475;    0.000
390.089; 1414.425;  163.475;    0.000
390.147; 1386.425;  170.475;    0.000
390.206; 1402.425;  183.475;    0.000
390.264; 1387.425;  161.475;    0.000
390.322; 1424.425;  148.475;    0.000
390.380; 1377.425;  138.475;    0.000
390.439; 1459.425;  194.475;    0.000
390.497; 1421.425;  170.475;    0.000
390.555; 1307.425;  165.475;    0.000
390.613; 1360.425;  177.475;    0.000
390.671; 1406.425;  170.475;    0.000
390.729; 1385.425;  158.475;    0.000
390.788; 1392.425;  162.475;    0.000
390.846; 1449.425;  161.475;    0.000
390.904; 1422.425;  197.475;    0.000
390.962; 1447.425;  212.475;    0.000
391.020; 1430.425;  224.475;    0.000
391.078; 1428.425;  184.475;    0.000
391.136; 1374.425;  191.475;    0.000
391.194; 1509.425;  187.475;    0.000
391.253; 1429.425;  197.475;    0.000
391.311; 1395.425;  185.475;    0.000
391.369; 1488.425;  207.475;    0.000
391.427; 1463.425;  222.475;    0.000
391.485; 1456.425;  184.475;    0.000
391.543; 1486.425;  203.475;    0.000
391.601; 1413.425;  151.475;    0.000
391.659; 1404.425;  176.475;    0.000
391.717; 1479.425;  190.475;    0.000
391.775; 1374.425;  159.475;    0.000
391.833; 1437.425;  186.475;    0.000
391.891; 1440.425;  154.475;    0.000
391.949; 1396.425;  181.475;    0.000
392.007; 1473.425;  190.475;    0.000
392.065; 1423.425;  182.475;    0.000
392.123; 1488.425;  158.475;    0.000
392.180; 1464.425;  198.475;    0.000
392.238; 1452.425;  191.475;    0.000
392.296; 1440.425;  164.475;    0.000
392.354; 1489.425;  172.475;    0.000
392.412; 1446.425;  194.475;    0.000
392.470; 1396.425;  154.475;    0.000
392.528; 1478.425;  172.475;    0.000
392.586; 1450.425;  179.475;    0.000
392.644; 1486.425;  173.475;    0.000
392.701; 1489.425;  202.475;    0.000
392.759; 1424.425;  180.475;    0.000
392.817; 1409.425;  181.475;    0.000
392.875; 1473.425;  168.475;    0.000
392.933; 1455.425;  161.475;    0.000
392.991; 1406.425;  216.475;    0.000
393.048; 1500.425;  197.475;    0.000
393.106; 1474.425;  199.475;    0.000
393.164; 1496.425;  173.475;    0.000
393.222; 1477.425;  179.475;    0.000
393.279; 1535.425;  209.475;    0.000
393.337; 1532.425;  185.475;    0.000
393.395; 1539.425;  174.475;    0.000
393.453; 1518.425;  181.475;    0.000
393.510; 1480.425;  188.475;    0.000
393.568; 1515.425;  191.475;    0.000
393.626; 1502.425;  151.475;    0.000
393.684; 1493.425;  208.475;    0.000
393.741; 1507.425;  179.475;    0.000
393.799; 1480.425;  149.475;    0.000
393.857; 1503.425;  136.475;    0.000
393.914; 1457.425;  190.475;    0.000
393.972; 1492.425;  155.475;    0.000
394.030; 1473.425;  170.475;    0.000
394.087; 1484.425;  213.475;    0.000
394.145; 1439.425;  191.475;    0.000
394.202; 1516.425;  188.475;    0.000
394.260; 1452.425;  168.475;    0.000
394.318; 1506.425;  176.475;    0.000
394.375; 1522.425;  159.475;    0.000
394.433; 1493.425;  168.475;    0.000
394.490; 1526.425;  163.475;    0.000
394.548; 1574.425;  163.475;    0.000
394.605; 1539.425;  181.475;    0.000
394.663; 1577.425;  180.475;    0.000
394.720; 1470.425;  193.475;    0.000
394.778; 1471.425;  168.475;    0.000
394.836; 1531.425;  128.475;    0.000
394.893; 1515.425;  151.475;    0.000
394.951; 1534.425;  173.475;    0.000
395.008; 1623.425;  201.475;    0.000
395.065; 1533.425;  139.475;    0.000
395.123; 1509.425;  173.475;    0.000
395.180; 1493.425;  144.475;    0.000
395.238; 1535.425;  135.475;    0.000
395.295; 1505.425;  167.475;    0.000
395.353; 1462.425;  150.475;    0.000
395.410; 1576.425;  165.475;    0.000
395.468; 1566.425;  223.475;    0.000
395.525; 1587.425;  156.475;    0.000
395.582; 1590.425;  178.475;    0.000
395.640; 1613.425;  178.475;    0.000
395.697; 1562.425;  173.475;    0.000
395.754; 1495.425;  154.475;    0.000
395.812; 1543.425;  169.475;    0.000
395.869; 1561.425;  196.475;    0.000
395.927; 1536.425;  190.475;    0.000
395.984; 1599.425;  195.475;    0.000
396.041; 1555.425;  160.475;    0.000
396.098; 1585.425;  161.475;    0.000
396.156; 1550.425;  187.475;    0.000
396.213; 1634.425;  200.475;    0.000
396.270; 1599.425;  160.475;    0.000
396.328; 1521.425;  113.475;    0.000
396.385; 1580.425;  165.475;    0.000
396.442; 1577.425;  168.475;    0.000
396.499; 1561.425;  117.475;    0.000
396.557; 1547.425;  203.475;    0.000
396.614; 1648.425;  155.475;    0.000
396.671; 1624.425;  187.475;    0.000
396.728; 1620.425;  169.475;    0.000
396.785; 1610.425;  167.475;    0.000
396.843; 1577.425;  154.475;    0.000
396.900; 1580.425;  172.475;    0.000
396.957; 1550.425;  176.475;    0.000
397.014; 1642.425;  193.475;    0.000
397.071; 1609.425;  170.475;    0.000
397.128; 1684.425;  172.475;    0.000
397.186; 1620.425;  205.475;    0.000
397.243; 1703.425;  163.475;    0.000
397.300; 1677.425;  193.475;    0.000
397.357; 1594.425;  166.475;    0.000
397.414; 1534.425;  149.475;    0.000
397.471; 1702.425;  157.475;    0.000
397.528; 1545.425;  180.475;    0.000
397.585; 1696.425;  203.475;    0.000
397.642; 1605.425;  156.475;    0.000
397.699; 1693.425;  229.475;    0.000
397.756; 1639.425;  185.475;    0.000
397.814; 1668.425;  191.475;    0.000
397.871; 1638.425;  170.475;    0.000
397.928; 1682.425;  191.475;    0.000
397.985; 1576.425;  183.475;    0.000
398.042; 1589.425;  161.475;    0.000
398.099; 1670.425;  192.475;    0.000
398.156; 1695.425;  176.475;    0.000
398.212; 1699.425;  170.475;    0.000
398.269; 1708.425;  158.475;    0.000
398.326; 1686.425;  175.475;    0.000
398.383; 1697.425;  177.475;    0.000
398.440; 1681.425;  169.475;    0.000
398.497; 1709.425;  184.475;    0.000
398.554; 1746.425;  196.475;    0.000
398.611; 1733.425;  198.475;    0.000
398.668; 1694.425;  135.475;    0.000
398.725; 1692.425;  181.475;    0.000
398.782; 1792.425;  195.475;    0.000
398.839; 1761.425;  179.475;    0.000
398.895; 1776.425;  188.475;    0.000
398.952; 1759.425;  176.475;    0.000
399.009; 1728.425;  183.475;    0.000
399.066; 1762.425;  190.475;    0.000
399.123; 1744.425;  174.475;    0.000
399.180; 1790.425;  191.475;    0.000
399.236; 1739.425;  217.475;    0.000
399.293; 1816.425;  154.475;    0.000
399.350; 1815.425;  210.475;    0.000
399.407; 1884.425;  202.475;    0.000
399.463; 1785.425;  162.475;    0.000
399.520; 1809.425;  207.475;    0.000
399.577; 1930.425;  174.475;    0.000
399.634; 1897.425;  170.475;    0.000
399.690; 1798.425;  186.475;    0.000
399.747; 1928.425;  218.475;    0.000
399.804; 1848.425;  200.475;    0.000
399.861; 1923.425;  190.475;    0.000
399.917; 1892.425;  218.475;    0.000
399.974; 1921.425;  200.475;    0.000
400.031; 1870.425;  200.475;    0.000
400.087; 1844.425;  153.475;    0.000
400.144; 1891.425;  188.475;    0.000
400.201; 1884.425;  198.475;    0.000
400.257; 1834.425;  205.475;    0.000
400.314; 1857.425;  183.475;    0.000
400.370; 1852.425;  227.475;    0.000
400.427; 1889.425;  177.475;    0.000
400.484; 1814.425;  202.475;    0.000
400.540; 1859.425;  173.475;    0.000
400.597; 1862.425;  212.475;    0.000
400.653; 1828.425;  182.475;    0.000
400.710; 1830.425;  201.475;    0.000
400.766; 1853.425;  188.475;    0.000
400.823; 1797.425;  205.475;    0.000
400.879; 1763.425;  165.475;    0.000
400.936; 1784.425;  180.475;    0.000
400.993; 1821.425;  181.475;    0.000
401.049; 1858.425;  147.475;    0.000
401.105; 1886.425;  205.475;    0.000
401.162; 1879.425;  197.475;    0.000
401.218; 1906.425;  177.475;    0.000
401.275; 1782.425;  183.475;    0.000
401.331; 1791.425;  198.475;    0.000
401.388; 1829.425;  209.475;    0.000
401.444; 1853.425;  211.475;    0.000
401.501; 1869.425;  185.475;    0.000
401.557; 1765.425;  190.475;    0.000
401.614; 1767.425;  172.475;    0.000
401.670; 1828.425;  185.475;    0.000
401.726; 1896.425;  196.475;    0.000
401.783; 1848.425;  187.475;    0.000
401.839; 1772.425;  192.475;    0.000
401.895; 1805.425;  173.475;    0.000
401.952; 1814.425;  145.475;    0.000
402.008; 1820.425;  197.475;    0.000
402.064; 1834.425;  146.475;    0.000
402.121; 1898.425;  197.475;    0.000
402.177; 1806.425;  173.475;    0.000
402.233; 1755.425;  185.475;    0.000
402.290; 1854.425;  175.475;    0.000
402.346; 1801.425;  164.475;    0.000
402.402; 1829.425;  173.475;    0.000
402.458; 1799.425;  183.475;    0.000
402.515; 1787.425;  147.475;    0.000
402.571; 1775.425;  210.475;    0.000
402.627; 1736.425;  181.475;    0.000
402.683; 1856.425;  177.475;    0.000
402.740; 1873.425;  162.475;    0.000
402.796; 1847.425;  178.475;    0.000
402.852; 1841.425;  138.475;    0.000
402.908; 1822.425;  181.475;    0.000
402.964; 1882.425;  151.475;    0.000
403.021; 1800.425;  170.475;    0.000
403.077; 1823.425;  204.475;    0.000
403.133; 1850.425;  144.475;    0.000
403.189; 1829.425;  207.475;    0.000
403.245; 1851.425;  184.475;    0.000
403.301; 1860.425;  170.475;    0.000
403.357; 1891.425;  201.475;    0.000
403.414; 1881.425;  205.475;    0.000
403.470; 1858.425;  170.475;    0.000
403.526; 1891.425;  135.475;    0.000
403.582; 1892.425;  180.475;    0.000
403.638; 1961.425;  185.475;    0.000
403.694; 1870.425;  169.475;    0.000
403.750; 1917.425;  210.475;    0.000
403.806; 1925.425;  210.475;    0.000
403.862; 1896.425;  219.475;    0.000
403.918; 1916.425;  191.475;    0.000
403.974; 1913.425;  193.475;    0.000
404.030; 1900.425;  154.475;    0.000
404.086; 1882.425;  170.475;    0.000
404.142; 1936.425;  194.475;    0.000
404.198; 1962.425;  224.475;    0.000
404.254; 1954.425;  177.475;    0.000
404.310; 1886.425;  204.475;    0.000
404.366; 1911.425;  170.475;    0.000
404.422; 1874.425;  172.475;    0.000
404.478; 1959.425;  153.475;    0.000
404.534; 1909.425;  159.475;    0.000
404.590; 1881.425;  203.475;    0.000
404.646; 1893.425;  164.475;    0.000
404.701; 1969.425;  141.475;    0.000
404.757; 1939.425;  195.475;    0.000
404.813; 1910.425;  152.475;    0.000
404.869; 1948.425;  174.475;    0.000
404.925; 1942.425;  167.475;    0.000
404.981; 1934.425;  175.475;    0.000
405.037; 1947.425;  170.475;    0.000
405.092; 1977.425;  155.475;    0.000
405.148; 1934.425;  160.475;    0.000
405.204; 1931.425;  158.475;    0.000
405.260; 1863.425;  128.475;    0.000
405.316; 1889.425;  168.475;    0.000
405.371; 1930.425;  162.475;    0.000
405.427; 1825.425;  187.475;    0.000
405.483; 2027.425;  214.475;    0.000
405.539; 1933.425;  163.475;    0.000
405.594; 1946.425;  191.475;    0.000
405.650; 1923.425;  124.475;    0.000
405.706; 1970.425;  188.475;    0.000
405.761; 1941.425;  204.475;    0.000
405.817; 1904.425;  150.475;    0.000
405.873; 1953.425;  152.475;    0.000
405.928; 1907.425;  135.475;    0.000
405.984; 1985.425;  209.475;    0.000
406.040; 1976.425;  165.475;    0.000
406.095; 1982.425;  146.475;    0.000
406.151; 1978.425;  169.475;    0.000
406.207; 2035.425;  174.475;    0.000
406.262; 2032.425;  189.475;    0.000
406.318; 2020.425;  141.475;    0.000
406.374; 1907.425;  178.475;    0.000
406.429; 1979.425;  197.475;    0.000
406.485; 2061.425;  194.475;    0.000
406.540; 1948.425;  149.475;    0.000
406.596; 1954.425;  173.475;    0.000
406.651; 2069.425;  154.475;    0.000
406.707; 2025.425;  183.475;    0.000
406.763; 2028.425;  156.475;    0.000
406.818; 2108.425;  181.475;    0.000
406.874; 2095.425;  135.475;    0.000
406.929; 2168.425;  194.475;    0.000
406.985; 2068.425;  166.475;    0.000
407.040; 2092.425;  207.475;    0.000
407.095; 2108.425;  213.475;    0.000
407.151; 2089.425;  198.475;    0.000
407.206; 2098.425;  186.475;    0.000
407.262; 2182.425;  148.475;    0.000
407.317; 2154.425;  212.475;    0.000
407.373; 2208.425;  209.475;    0.000
407.428; 2188.425;  218.475;    0.000
407.484; 2137.425;  158.475;    0.000
407.539; 2161.425;  165.475;    0.000
407.594; 2199.425;  197.475;    0.000
407.650; 2148.425;  177.475;    0.000
407.705; 2202.425;  154.475;    0.000
407.760; 2088.425;  198.475;    0.000
407.816; 2218.425;  181.475;    0.000
407.871; 2171.425;  185.475;    0.000
407.926; 2190.425;  167.475;    0.000
407.982; 2213.425;  172.475;    0.000
408.037; 2154.425;  202.475;    0.000
408.092; 2125.425;  201.475;    0.000
408.148; 2167.425;  199.475;    0.000
408.203; 2163.425;  174.475;    0.000
408.258; 2148.425;  157.475;    0.000
408.314; 2083.425;  194.475;    0.000
408.369; 2130.425;  189.475;    0.000
408.424; 2081.425;  204.475;    0.000
408.479; 2153.425;  192.475;    0.000
408.534; 2124.425;  215.475;    0.000
408.590; 2161.425;  190.475;    0.000
408.645; 2137.425;  159.475;    0.000
408.700; 2244.425;  191.475;    0.000
408.755; 2202.425;  217.475;    0.000
408.810; 2124.425;  158.475;    0.000
408.866; 2062.425;  166.475;    0.000
408.921; 2176.425;  214.475;    0.000
408.976; 2132.425;  158.475;    0.000
409.031; 2173.425;  185.475;    0.000
409.086; 2142.425;  158.475;    0.000
409.141; 2057.425;  180.475;    0.000
409.196; 2096.425;  188.475;    0.000
409.252; 2062.425;  186.475;    0.000
409.307; 2056.425;  135.475;    0.000
409.362; 2061.425;  162.475;    0.000
409.417; 2102.425;  149.475;    0.000
409.472; 2114.425;  205.475;    0.000
409.527; 2071.425;  184.475;    0.000
409.582; 2158.425;  174.475;    0.000
409.637; 2162.425;  188.475;    0.000
409.692; 2213.425;  211.475;    0.000
409.747; 2109.425;  159.475;    0.000
409.802; 2147.425;  199.475;    0.000
409.857; 2111.425;  118.475;    0.000
409.912; 2163.425;  177.475;    0.000
409.967; 2116.425;  182.475;    0.000
410.022; 2206.425;  188.475;    0.000
410.077; 2121.425;  204.475;    0.000
410.132; 2185.425;  174.475;    0.000
410.187; 2139.425;  169.475;    0.000
410.242; 2088.425;  178.475;    0.000
410.297; 2137.425;  185.475;    0.000
410.351; 2230.425;  203.475;    0.000
410.406; 2146.425;  180.475;    0.000
410.461; 2167.425;  213.475;    0.000
410.516; 2154.425;  198.475;    0.000
410.571; 2162.425;  171.475;    0.000
410.626; 2107.425;  186.475;    0.000
410.681; 2117.425;  187.475;    0.000
410.736; 2169.425;  147.475;    0.000
410.790; 2175.425;  186.475;    0.000
410.845; 2203.425;  152.475;    0.000
410.900; 2213.425;  202.475;    0.000
410.955; 2188.425;  196.475;    0.000
411.010; 2142.425;  150.475;    0.000
411.064; 2129.425;  200.475;    0.000
411.119; 2129.425;  203.475;    0.000
411.174; 2160.425;  176.475;    0.000
411.229; 2214.425;  203.475;    0.000
411.283; 2145.425;  176.475;    0.000
411.338; 2150.425;  153.475;    0.000
411.393; 2130.425;  168.475;    0.000
411.447; 2138.425;  223.475;    0.000
411.502; 2107.425;  238.475;    0.000
411.557; 2122.425;  179.475;    0.000
411.612; 2061.425;  159.475;    0.000
411.666; 2125.425;  189.475;    0.000
411.721; 2139.425;  212.475;    0.000
411.776; 2155.425;  242.475;    0.000
411.830; 2143.425;  194.475;    0.000
411.885; 2208.425;  188.475;    0.000
411.939; 2224.425;  245.475;    0.000
411.994; 2199.425;  177.475;    0.000
412.049; 2225.425;  170.475;    0.000
412.103; 2279.425;  196.475;    0.000
412.158; 2184.425;  215.475;    0.000
412.212; 2174.425;  199.475;    0.000
412.267; 2167.425;  191.475;    0.000
412.322; 2254.425;  238.475;    0.000
412.376; 2169.425;  243.475;    0.000
412.431; 2176.425;  214.475;    0.000
412.485; 2167.425;  210.475;    0.000
412.540; 2213.425;  200.475;    0.000
412.594; 2163.425;  174.475;    0.000
412.649; 2224.425;  246.475;    0.000
412.703; 2134.425;  182.475;    0.000
412.758; 2143.425;  222.475;    0.000
412.812; 2072.425;  201.475;    0.000
412.866; 2113.425;  162.475;    0.000
412.921; 2174.425;  202.475;    0.000
412.975; 2145.425;  212.475;    0.000
413.030; 2237.425;  238.475;    0.000
413.084; 2108.425;  201.475;    0.000
413.139; 2124.425;  210.475;    0.000
413.193; 2091.425;  218.475;    0.000
413.247; 2166.425;  203.475;    0.000
413.302; 2080.425;  176.475;    0.000
413.356; 2128.425;  215.475;    0.000
413.410; 2148.425;  204.475;    0.000
413.465; 2127.425;  186.475;    0.000
413.519; 2073.425;  196.475;    0.000
413.573; 2160.425;  181.475;    0.000
413.628; 2096.425;  200.475;    0.000
413.682; 2242.425;  157.475;    0.000
413.736; 2115.425;  194.475;    0.000
413.791; 2132.425;  193.475;    0.000
413.845; 2132.425;  225.475;    0.000
413.899; 2172.425;  195.475;    0.000
413.953; 2135.425;  173.475;    0.000
414.008; 2119.425;  186.475;    0.000
414.062; 2140.425;  217.475;    0.000
414.116; 2154.425;  169.475;    0.000
414.170; 2078.425;  228.475;    0.000
414.225; 2187.425;  177.475;    0.000
414.279; 2157.425;  210.475;    0.000
414.333; 2178.425;  207.475;    0.000
414.387; 2169.425;  217.475;    0.000
414.441; 2157.425;  187.475;    0.000
414.496; 2187.425;  215.475;    0.000
414.550; 2196.425;  204.475;    0.000
414.604; 2153.425;  206.475;    0.000
414.658; 2188.425;  139.475;    0.000
414.712; 2162.425;  198.475;    0.000
414.766; 2187.425;  208.475;    0.000
414.820; 2160.425;  199.475;    0.000
414.874; 2160.425;  216.475;    0.000
414.928; 2180.425;  186.475;    0.000
414.982; 2235.425;  176.475;    0.000
415.037; 2137.425;  181.475;    0.000
415.091; 2264.425;  208.475;    0.000
415.145; 2116.425;  209.475;    0.000
415.199; 2088.425;  186.475;    0.000
415.253; 2147.425;  203.475;    0.000
415.307; 2198.425;  197.475;    0.000
415.361; 2206.425;  223.475;    0.000
415.415; 2020.425;  213.475;    0.000
415.469; 2172.425;  226.475;    0.000
415.523; 2235.425;  222.475;    0.000
415.577; 2153.425;  205.475;    0.000
415.631; 2167.425;  224.475;    0.000
415.684; 2162.425;  193.475;    0.000
415.738; 2166.425;  224.475;    0.000
415.792; 2103.425;  204.475;    0.000
415.846; 2128.425;  189.475;    0.000
415.900; 2073.425;  223.475;    0.000
415.954; 2241.425;  187.475;    0.000
416.008; 2191.425;  237.475;    0.000
416.062; 2085.425;  195.475;    0.000
416.116; 2036.425;  223.475;    0.000
416.169; 2144.425;  210.475;    0.000
416.223; 2114.425;  232.475;    0.000
416.277; 2167.425;  227.475;    0.000
416.331; 2116.425;  216.475;    0.000
416.385; 2142.425;  186.475;    0.000
416.439; 2232.425;  226.475;    0.000
416.492; 2113.425;  229.475;    0.000
416.546; 2165.425;  216.475;    0.000
416.600; 2152.425;  211.475;    0.000
416.654; 2153.425;  226.475;    0.000
416.707; 2258.425;  248.475;    0.000
416.761; 2054.425;  217.475;    0.000
416.815; 2072.425;  207.475;    0.000
416.869; 2150.425;  226.475;    0.000
416.922; 2160.425;  192.475;    0.000
416.976; 2175.425;  205.475;    0.000
417.030; 2201.425;  233.475;    0.000
417.083; 2120.425;  226.475;    0.000
417.137; 2137.425;  222.475;    0.000
417.191; 2152.425;  217.475;    0.000
417.244; 2139.425;  221.475;    0.000
417.298; 2094.425;  201.475;    0.000
417.352; 2168.425;  170.475;    0.000
417.405; 2164.425;  234.475;    0.000
417.459; 2172.425;  241.475;    0.000
417.512; 2103.425;  247.475;    0.000
417.566; 2087.425;  219.475;    0.000
417.620; 2092.425;  228.475;    0.000
417.673; 2182.425;  192.475;    0.000
417.727; 2184.425;  203.475;    0.000
417.780; 2143.425;  204.475;    0.000
417.834; 2155.425;  234.475;    0.000
417.887; 2164.425;  245.475;    0.000
417.941; 2201.425;  211.475;    0.000
417.994; 2130.425;  244.475;    0.000
418.048; 2139.425;  203.475;    0.000
418.101; 2101.425;  212.475;    0.000
418.155; 2148.425;  251.475;    0.000
418.208; 2232.425;  286.475;    0.000
418.262; 2131.425;  243.475;    0.000
418.315; 2089.425;  214.475;    0.000
418.369; 2178.425;  269.475;    0.000
418.422; 2124.425;  222.475;    0.000
418.476; 2176.425;  226.475;    0.000
418.529; 2251.425;  238.475;    0.000
418.582; 2120.425;  210.475;    0.000
418.636; 2177.425;  221.475;    0.000
418.689; 2164.425;  224.475;    0.000
418.743; 2192.425;  228.475;    0.000
418.796; 2115.425;  192.475;    0.000
418.849; 2062.425;  230.475;    0.000
418.903; 2180.425;  257.475;    0.000
418.956; 2152.425;  241.475;    0.000
419.009; 2194.425;  247.475;    0.000
419.063; 2171.425;  235.475;    0.000
419.116; 2177.425;  218.475;    0.000
419.169; 2194.425;  219.475;    0.000
419.222; 2108.425;  215.475;    0.000
419.276; 2179.425;  202.475;    0.000
419.329; 2129.425;  210.475;    0.000
419.382; 2112.425;  188.475;    0.000
419.435; 2129.425;  222.475;    0.000
419.489; 2210.425;  232.475;    0.000
419.542; 2121.425;  250.475;    0.000
419.595; 2080.425;  240.475;    0.000
419.648; 2098.425;  261.475;    0.000
419.701; 2126.425;  222.475;    0.000
419.755; 2123.425;  233.475;    0.000
419.808; 2110.425;  178.475;    0.000
419.861; 2096.425;  207.475;    0.000
419.914; 2175.425;  223.475;    0.000
419.967; 2097.425;  216.475;    0.000
420.020; 2153.425;  211.475;    0.000
420.073; 2119.425;  200.475;    0.000
420.127; 2152.425;  248.475;    0.000
420.180; 2087.425;  220.475;    0.000
420.233; 2164.425;  215.475;    0.000
420.286; 2066.425;  222.475;    0.000
420.339; 2155.425;  229.475;    0.000
420.392; 2140.425;  245.475;    0.000
420.445; 2081.425;  221.475;    0.000
420.498; 2112.425;  224.475;    0.000
420.551; 2023.425;  170.475;    0.000
420.604; 2037.425;  237.475;    0.000
420.657; 2124.425;  235.475;    0.000
420.710; 2102.425;  223.475;    0.000
420.763; 2054.425;  219.475;    0.000
420.816; 2091.425;  200.475;    0.000
420.869; 2076.425;  197.475;    0.000
420.922; 2012.425;  212.475;    0.000
420.975; 2059.425;  274.475;    0.000
421.028; 2069.425;  228.475;    0.000
421.081; 2063.425;  243.475;    0.000
421.134; 2048.425;  227.475;    0.000
421.187; 2010.425;  245.475;    0.000
421.239; 2083.425;  210.475;    0.000
421.292; 2022.425;  193.475;    0.000
421.345; 2089.425;  226.475;    0.000
421.398; 2036.425;  226.475;    0.000
421.451; 2089.425;  259.475;    0.000
421.504; 2003.425;  204.475;    0.000
421.557; 2019.425;  215.475;    0.000
421.609; 1952.425;  194.475;    0.000
421.662; 2032.425;  216.475;    0.000
421.715; 2092.425;  226.475;    0.000
421.768; 2003.425;  177.475;    0.000
421.821; 2019.425;  210.475;    0.000
421.873; 2034.425;  208.475;    0.000
421.926; 1980.425;  223.475;    0.000
421.979; 2096.425;  230.475;    0.000
422.032; 2081.425;  227.475;    0.000
422.084; 2057.425;  234.475;    0.000
422.137; 2015.425;  207.475;    0.000
422.190; 2026.425;  228.475;    0.000
422.243; 2044.425;  206.475;    0.000
422.295; 1984.425;  236.475;    0.000
422.348; 2024.425;  232.475;    0.000
422.401; 1971.425;  228.475;    0.000
422.453; 2021.425;  239.475;    0.000
422.506; 2008.425;  226.475;    0.000
422.559; 2036.425;  205.475;    0.000
422.611; 1996.425;  235.475;    0.000
422.664; 2025.425;  231.475;    0.000
422.716; 2020.425;  228.475;    0.000
422.769; 2026.425;  204.475;    0.000
422.822; 1964.425;  205.475;    0.000
422.874; 2044.425;  228.475;    0.000
422.927; 2040.425;  266.475;    0.000
422.979; 1984.425;  223.475;    0.000
423.032; 2053.425;  207.475;    0.000
423.084; 2052.425;  211.475;    0.000
423.137; 1948.425;  205.475;    0.000
423.189; 1996.425;  254.475;    0.000
423.242; 1914.425;  208.475;    0.000
423.294; 2004.425;  240.475;    0.000
423.347; 1992.425;  218.475;    0.000
423.399; 2002.425;  237.475;    0.000
423.452; 1972.425;  242.475;    0.000
423.504; 2025.425;  225.475;    0.000
423.557; 1988.425;  195.475;    0.000
423.609; 1942.425;  206.475;    0.000
423.662; 2027.425;  211.475;    0.000
423.714; 2048.425;  252.475;    0.000
423.766; 2034.425;  181.475;    0.000
423.819; 1926.425;  216.475;    0.000
423.871; 1979.425;  216.475;    0.000
423.923; 1989.425;  222.475;    0.000
423.976; 1926.425;  223.475;    0.000
424.028; 1903.425;  229.475;    0.000
424.081; 1969.425;  267.475;    0.000
424.133; 1947.425;  251.475;    0.000
424.185; 1962.425;  238.475;    0.000
424.238; 1995.425;  220.475;    0.000
424.290; 1963.425;  259.475;    0.000
424.342; 1974.425;  248.475;    0.000
424.394; 1913.425;  234.475;    0.000
424.447; 1951.425;  248.475;    0.000
424.499; 1975.425;  233.475;    0.000
424.551; 1987.425;  236.475;    0.000
424.603; 1979.425;  207.475;    0.000
424.656; 2002.425;  210.475;    0.000
424.708; 1937.425;  251.475;    0.000
424.760; 1933.425;  221.475;    0.000
424.812; 1961.425;  275.475;    0.000
424.864; 1999.425;  206.475;    0.000
424.917; 1939.425;  198.475;    0.000
424.969; 1994.425;  246.475;    0.000
425.021; 1920.425;  209.475;    0.000
425.073; 2000.425;  242.475;    0.000
425.125; 1983.425;  254.475;    0.000
425.177; 1871.425;  224.475;    0.000
425.229; 1947.425;  256.475;    0.000
425.282; 2014.425;  265.475;    0.000
425.334; 1978.425;  266.475;    0.000
425.386; 1941.425;  242.475;    0.000
425.438; 1915.425;  205.475;    0.000
425.490; 1907.425;  227.475;    0.000
425.542; 1937.425;  235.475;    0.000
425.594; 1907.425;  210.475;    0.000
425.646; 1922.425;  232.475;    0.000
425.698; 1905.425;  243.475;    0.000
425.750; 1927.425;  230.475;    0.000
425.802; 1910.425;  218.475;    0.000
425.854; 1885.425;  222.475;    0.000
425.906; 1953.425;  235.475;    0.000
425.958; 1908.425;  220.475;    0.000
426.010; 1957.425;  236.475;    0.000
426.062; 1869.425;  230.475;    0.000
426.114; 1948.425;  216.475;    0.000
426.166; 1896.425;  230.475;    0.000
426.218; 1892.425;  237.475;    0.000
426.270; 1938.425;  217.475;    0.000
426.321; 1896.425;  224.475;    0.000
426.373; 1864.425;  207.475;    0.000
426.425; 1902.425;  278.475;    0.000
426.477; 1894.425;  243.475;    0.000
426.529; 1933.425;  247.475;    0.000
426.581; 1914.425;  229.475;    0.000
426.633; 1902.425;  212.475;    0.000
426.684; 1983.425;  244.475;    0.000
426.736; 1871.425;  250.475;    0.000
426.788; 1882.425;  210.475;    0.000
426.840; 1843.425;  201.475;    0.000
426.892; 1883.425;  225.475;    0.000
426.943; 1919.425;  215.475;    0.000
426.995; 1911.425;  216.475;    0.000
427.047; 1885.425;  216.475;    0.000
427.099; 1853.425;  203.475;    0.000
427.150; 1879.425;  195.475;    0.000
427.202; 1871.425;  212.475;    0.000
427.254; 1899.425;  233.475;    0.000
427.306; 1834.425;  211.475;    0.000
427.357; 1890.425;  210.475;    0.000
427.409; 1881.425;  244.475;    0.000
427.461; 1855.425;  187.475;    0.000
427.512; 1875.425;  227.475;    0.000
427.564; 1903.425;  210.475;    0.000
427.616; 1857.425;  202.475;    0.000
427.667; 1818.425;  185.475;    0.000
427.719; 1871.425;  222.475;    0.000
427.770; 1823.425;  230.475;    0.000
427.822; 1873.425;  254.475;    0.000
427.874; 1854.425;  222.475;    0.000
427.925; 1827.425;  199.475;    0.000
427.977; 1815.425;  228.475;    0.000
428.028; 1863.425;  226.475;    0.000
428.080; 1906.425;  236.475;    0.000
428.131; 1847.425;  220.475;    0.000
428.183; 1889.425;  256.475;    0.000
428.234; 1865.425;  217.475;    0.000
428.286; 1839.425;  234.475;    0.000
428.337; 1785.425;  209.475;    0.000
428.389; 1841.425;  219.475;    0.000
428.440; 1886.425;  249.475;    0.000
428.492; 1802.425;  255.475;    0.000
428.543; 1869.425;  224.475;    0.000
428.595; 1798.425;  225.475;    0.000
428.646; 1818.425;  240.475;    0.000
428.697; 1817.425;  211.475;    0.000
428.749; 1813.425;  200.475;    0.000
428.800; 1822.425;  235.475;    0.000
428.852; 1811.425;  265.475;    0.000
428.903; 1797.425;  201.475;    0.000
428.954; 1780.425;  242.475;    0.000
429.006; 1806.425;  245.475;    0.000
429.057; 1803.425;  252.475;    0.000
429.108; 1733.425;  211.475;    0.000
429.160; 1794.425;  217.475;    0.000
429.211; 1802.425;  234.475;    0.000
429.262; 1751.425;  205.475;    0.000
429.314; 1837.425;  211.475;    0.000
429.365; 1812.425;  240.475;    0.000
429.416; 1815.425;  263.475;    0.000
429.467; 1839.425;  244.475;    0.000
429.519; 1783.425;  223.475;    0.000
429.570; 1762.425;  214.475;    0.000
429.621; 1788.425;  235.475;    0.000
429.672; 1751.425;  202.475;    0.000
429.724; 1751.425;  189.475;    0.000
429.775; 1843.425;  214.475;    0.000
429.826; 1767.425;  178.475;    0.000
429.877; 1776.425;  224.475;    0.000
429.928; 1839.425;  230.475;    0.000
429.980; 1741.425;  199.475;    0.000
430.031; 1791.425;  208.475;    0.000
430.082; 1765.425;  224.475;    0.000
430.133; 1750.425;  193.475;    0.000
430.184; 1789.425;  220.475;    0.000
430.235; 1842.425;  184.475;    0.000
430.286; 1759.425;  197.475;    0.000
430.337; 1746.425;  199.475;    0.000
430.388; 1817.425;  207.475;    0.000
430.439; 1732.425;  227.475;    0.000
430.490; 1789.425;  215.475;    0.000
430.542; 1739.425;  211.475;    0.000
430.593; 1713.425;  230.475;    0.000
430.644; 1772.425;  186.475;    0.000
430.695; 1766.425;  232.475;    0.000
430.746; 1772.425;  214.475;    0.000
430.797; 1759.425;  260.475;    0.000
430.848; 1786.425;  214.475;    0.000
430.898; 1860.425;  204.475;    0.000
430.949; 1743.425;  189.475;    0.000
431.000; 1768.425;  240.475;    0.000
431.051; 1851.425;  201.475;    0.000
431.102; 1737.425;  188.475;    0.000
431.153; 1744.425;  209.475;    0.000
431.204; 1825.425;  187.475;    0.000
431.255; 1752.425;  171.475;    0.000
431.306; 1729.425;  181.475;    0.000
431.357; 1760.425;  221.475;    0.000
431.408; 1766.425;  217.475;    0.000
431.458; 1732.425;  206.475;    0.000
431.509; 1832.425;  194.475;    0.000
431.560; 1832.425;  235.475;    0.000
431.611; 1784.425;  213.475;    0.000
431.662; 1781.425;  237.475;    0.000
431.713; 1738.425;  220.475;    0.000
431.763; 1782.425;  212.475;    0.000
431.814; 1782.425;  238.475;    0.000
431.865; 1742.425;  213.475;    0.000
431.916; 1768.425;  191.475;    0.000
431.966; 1795.425;  171.475;    0.000
432.017; 1763.425;  263.475;    0.000
432.068; 1811.425;  240.475;    0.000
432.118; 1829.425;  235.475;    0.000
432.169; 1780.425;  212.475;    0.000
432.220; 1737.425;  188.475;    0.000
432.271; 1683.425;  216.475;    0.000
432.321; 1693.425;  223.475;    0.000
432.372; 1702.425;  254.475;    0.000
432.423; 1702.425;  193.475;    0.000
432.473; 1758.425;  219.475;    0.000
432.524; 1777.425;  215.475;    0.000
432.574; 1690.425;  234.475;    0.000
432.625; 1743.425;  226.475;    0.000
432.676; 1729.425;  219.475;    0.000
432.726; 1703.425;  254.475;    0.000
432.777; 1782.425;  210.475;    0.000
432.827; 1789.425;  234.475;    0.000
432.878; 1765.425;  212.475;    0.000
432.928; 1744.425;  238.475;    0.000
432.979; 1731.425;  252.475;    0.000
433.029; 1741.425;  222.475;    0.000
433.080; 1698.425;  188.475;    0.000
433.130; 1742.425;  223.475;    0.000
433.181; 1832.425;  254.475;    0.000
433.231; 1837.425;  237.475;    0.000
433.282; 1812.425;  242.475;    0.000
433.332; 1761.425;  261.475;    0.000
433.383; 1789.425;  266.475;    0.000
433.433; 1878.425;  286.475;    0.000
433.484; 1748.425;  231.475;    0.000
433.534; 1798.425;  256.475;    0.000
433.585; 1804.425;  253.475;    0.000
433.635; 1784.425;  228.475;    0.000
433.685; 1847.425;  226.475;    0.000
433.736; 1870.425;  276.475;    0.000
433.786; 1739.425;  253.475;    0.000
433.836; 1786.425;  289.475;    0.000
433.887; 1790.425;  241.475;    0.000
433.937; 1827.425;  252.475;    0.000
433.987; 1733.425;  223.475;    0.000
434.038; 1785.425;  241.475;    0.000
434.088; 1757.425;  231.475;    0.000
434.138; 1763.425;  259.475;    0.000
434.189; 1717.425;  263.475;    0.000
434.239; 1782.425;  194.475;    0.000
434.289; 1754.425;  273.475;    0.000
434.339; 1720.425;  212.475;    0.000
434.389; 1853.425;  248.475;    0.000
434.440; 1798.425;  250.475;    0.000
434.490; 1807.425;  278.475;    0.000
434.540; 1849.425;  241.475;    0.000
434.590; 1870.425;  251.475;    0.000
434.640; 1816.425;  207.475;    0.000
434.691; 1841.425;  242.475;    0.000
434.741; 1823.425;  218.475;    0.000
434.791; 1854.425;  267.475;    0.000
434.841; 1785.425;  272.475;    0.000
434.891; 1872.425;  260.475;    0.000
434.941; 1822.425;  258.475;    0.000
434.991; 1895.425;  264.475;    0.000
435.042; 1767.425;  264.475;    0.000
435.092; 1836.425;  271.475;    0.000
435.142; 1848.425;  229.475;    0.000
435.192; 1737.425;  226.475;    0.000
435.242; 1833.425;  253.475;    0.000
435.292; 1799.425;  215.475;    0.000
435.342; 1764.425;  240.475;    0.000
435.392; 1770.425;  235.475;    0.000
435.442; 1754.425;  230.475;    0.000
435.492; 1756.425;  235.475;    0.000
435.542; 1691.425;  230.475;    0.000
435.592; 1752.425;  239.475;    0.000
435.642; 1747.425;  244.475;    0.000
435.692; 1775.425;  236.475;    0.000
435.742; 1704.425;  236.475;    0.000
435.792; 1707.425;  230.475;    0.000
435.842; 1826.425;  248.475;    0.000
435.891; 1761.425;  233.475;    0.000
435.941; 1675.425;  243.475;    0.000
435.991; 1764.425;  279.475;    0.000
436.041; 1731.425;  204.475;    0.000
436.091; 1741.425;  217.475;    0.000
436.141; 1732.425;  205.475;    0.000
436.191; 1685.425;  220.475;    0.000
436.241; 1688.425;  248.475;    0.000
436.290; 1693.425;  255.475;    0.000
436.340; 1718.425;  235.475;    0.000
436.390; 1652.425;  207.475;    0.000
436.440; 1746.425;  207.475;    0.000
436.490; 1692.425;  251.475;    0.000
436.539; 1654.425;  240.475;    0.000
436.589; 1743.425;  198.475;    0.000
436.639; 1674.425;  240.475;    0.000
436.689; 1733.425;  216.475;    0.000
436.738; 1752.425;  246.475;    0.000
436.788; 1667.425;  203.475;    0.000
436.838; 1695.425;  230.475;    0.000
436.887; 1751.425;  235.475;    0.000
436.937; 1618.425;  249.475;    0.000
436.987; 1598.425;  208.475;    0.000
437.036; 1687.425;  232.475;    0.000
437.086; 1761.425;  238.475;    0.000
437.136; 1697.425;  228.475;    0.000
437.185; 1597.425;  219.475;    0.000
437.235; 1699.425;  227.475;    0.000
437.285; 1705.425;  241.475;    0.000
437.334; 1690.425;  216.475;    0.000
437.384; 1658.425;  243.475;    0.000
437.433; 1676.425;  214.475;    0.000
437.483; 1687.425;  246.475;    0.000
437.532; 1660.425;  261.475;    0.000
437.582; 1713.425;  205.475;    0.000
437.631; 1609.425;  218.475;    0.000
437.681; 1714.425;  240.475;    0.000
437.730; 1645.425;  258.475;    0.000
437.780; 1644.425;  237.475;    0.000
437.829; 1728.425;  209.475;    0.000
437.879; 1702.425;  214.475;    0.000
437.928; 1605.425;  223.475;    0.000
437.978; 1644.425;  220.475;    0.000
438.027; 1702.425;  239.475;    0.000
438.077; 1662.425;  231.475;    0.000
438.126; 1591.425;  266.475;    0.000
438.176; 1632.425;  234.475;    0.000
438.225; 1720.425;  237.475;    0.000
438.274; 1625.425;  234.475;    0.000
438.324; 1625.425;  244.475;    0.000
438.373; 1703.425;  232.475;    0.000
438.422; 1672.425;  218.475;    0.000
438.472; 1650.425;  221.475;    0.000
438.521; 1550.425;  190.475;    0.000
438.570; 1618.425;  243.475;    0.000
438.620; 1713.425;  255.475;    0.000
438.669; 1646.425;  210.475;    0.000
438.718; 1649.425;  237.475;    0.000
438.768; 1685.425;  220.475;    0.000
438.817; 1543.425;  218.475;    0.000
438.866; 1622.425;  198.475;    0.000
438.915; 1741.425;  256.475;    0.000
438.965; 1636.425;  221.475;    0.000
439.014; 1658.425;  255.475;    0.000
439.063; 1755.425;  276.475;    0.000
439.112; 1683.425;  220.475;    0.000
439.162; 1680.425;  253.475;    0.000
439.211; 1740.425;  247.475;    0.000
439.260; 1693.425;  220.475;    0.000
439.309; 1633.425;  235.475;    0.000
439.358; 1569.425;  205.475;    0.000
439.407; 1650.425;  207.475;    0.000
439.456; 1616.425;  216.475;    0.000
439.506; 1738.425;  245.475;    0.000
439.555; 1644.425;  264.475;    0.000
439.604; 1718.425;  227.475;    0.000
439.653; 1673.425;  220.475;    0.000
439.702; 1672.425;  223.475;    0.000
439.751; 1703.425;  197.475;    0.000
439.800; 1644.425;  207.475;    0.000
439.849; 1647.425;  238.475;    0.000
439.898; 1618.425;  209.475;    0.000
439.947; 1632.425;  170.475;    0.000
439.996; 1639.425;  233.475;    0.000
440.045; 1620.425;  222.475;    0.000
440.094; 1639.425;  240.475;    0.000
440.143; 1673.425;  249.475;    0.000
440.192; 1688.425;  252.475;    0.000
440.241; 1669.425;  239.475;    0.000
440.290; 1664.425;  234.475;    0.000
440.339; 1605.425;  241.475;    0.000
440.388; 1654.425;  239.475;    0.000
440.437; 1622.425;  231.475;    0.000
440.486; 1612.425;  254.475;    0.000
440.535; 1670.425;  266.475;    0.000
440.583; 1624.425;  205.475;    0.000
440.632; 1657.425;  234.475;    0.000
440.681; 1697.425;  218.475;    0.000
440.730; 1704.425;  248.475;    0.000
440.779; 1663.425;  246.475;    0.000
440.828; 1706.425;  235.475;    0.000
440.876; 1630.425;  218.475;    0.000
440.925; 1700.425;  228.475;    0.000
440.974; 1670.425;  249.475;    0.000
441.023; 1699.425;  192.475;    0.000
441.072; 1663.425;  226.475;    0.000
441.120; 1729.425;  238.475;    0.000
441.169; 1760.425;  255.475;    0.000
441.218; 1689.425;  233.475;    0.000
441.267; 1779.425;  231.475;    0.000
441.315; 1757.425;  214.475;    0.000
441.364; 1658.425;  250.475;    0.000
441.413; 1702.425;  228.475;    0.000
441.461; 1664.425;  209.475;    0.000
441.510; 1829.425;  260.475;    0.000
441.559; 1794.425;  230.475;    0.000
441.607; 1687.425;  220.475;    0.000
441.656; 1721.425;  251.475;    0.000
441.705; 1726.425;  237.475;    0.000
441.753; 1796.425;  257.475;    0.000
441.802; 1731.425;  256.475;    0.000
441.850; 1745.425;  253.475;    0.000
441.899; 1760.425;  212.475;    0.000
441.948; 1769.425;  251.475;    0.000
441.996; 1776.425;  239.475;    0.000
442.045; 1755.425;  223.475;    0.000
442.093; 1754.425;  211.475;    0.000
442.142; 1704.425;  235.475;    0.000
442.190; 1776.425;  254.475;    0.000
442.239; 1724.425;  226.475;    0.000
442.287; 1793.425;  242.475;    0.000
442.336; 1741.425;  256.475;    0.000
442.384; 1726.425;  252.475;    0.000
442.433; 1880.425;  262.475;    0.000
442.481; 1750.425;  246.475;    0.000
442.529; 1762.425;  290.475;    0.000
442.578; 1716.425;  247.475;    0.000
442.626; 1679.425;  247.475;    0.000
442.675; 1816.425;  272.475;    0.000
442.723; 1743.425;  230.475;    0.000
442.771; 1747.425;  234.475;    0.000
442.820; 1756.425;  224.475;    0.000
442.868; 1789.425;  246.475;    0.000
442.917; 1736.425;  249.475;    0.000
442.965; 1715.425;  260.475;    0.000
443.013; 1745.425;  258.475;    0.000
443.062; 1702.425;  259.475;    0.000
443.110; 1744.425;  226.475;    0.000
443.158; 1736.425;  213.475;    0.000
443.206; 1727.425;  201.475;    0.000
443.255; 1828.425;  280.475;    0.000
443.303; 1717.425;  292.475;    0.000
443.351; 1730.425;  256.475;    0.000
443.399; 1766.425;  215.475;    0.000
443.448; 1781.425;  243.475;    0.000
443.496; 1810.425;  249.475;    0.000
443.544; 1736.425;  231.475;    0.000
443.592; 1779.425;  243.475;    0.000
443.640; 1903.425;  252.475;    0.000
443.689; 1778.425;  220.475;    0.000
443.737; 1777.425;  231.475;    0.000
443.785; 1780.425;  256.475;    0.000
443.833; 1783.425;  268.475;    0.000
443.881; 1779.425;  181.475;    0.000
443.929; 1849.425;  245.475;    0.000
443.977; 1876.425;  278.475;    0.000
444.025; 1776.425;  245.475;    0.000
444.074; 1827.425;  233.475;    0.000
444.122; 1813.425;  267.475;    0.000
444.170; 1756.425;  247.475;    0.000
444.218; 1798.425;  246.475;    0.000
444.266; 1782.425;  275.475;    0.000
444.314; 1831.425;  263.475;    0.000
444.362; 1862.425;  240.475;    0.000
444.410; 1850.425;  220.475;    0.000
444.458; 1957.425;  258.475;    0.000
444.506; 1855.425;  258.475;    0.000
444.554; 1871.425;  224.475;    0.000
444.602; 1873.425;  245.475;    0.000
444.650; 1921.425;  261.475;    0.000
444.698; 1870.425;  232.475;    0.000
444.746; 1933.425;  206.475;    0.000
444.793; 1909.425;  249.475;    0.000
444.841; 1868.425;  261.475;    0.000
444.889; 1906.425;  221.475;    0.000
444.937; 1865.425;  215.475;    0.000
444.985; 1874.425;  244.475;    0.000
445.033; 1820.425;  211.475;    0.000
445.081; 1908.425;  225.475;    0.000
445.129; 1793.425;  217.475;    0.000
445.176; 1798.425;  196.475;    0.000
445.224; 1887.425;  211.475;    0.000
445.272; 1902.425;  242.475;    0.000
445.320; 1888.425;  225.475;    0.000
445.368; 1892.425;  249.475;    0.000
445.415; 1963.425;  243.475;    0.000
445.463; 1799.425;  242.475;    0.000
445.511; 1913.425;  248.475;    0.000
445.559; 1914.425;  219.475;    0.000
445.606; 1898.425;  221.475;    0.000
445.654; 1855.425;  202.475;    0.000
445.702; 1921.425;  210.475;    0.000
445.749; 1914.425;  249.475;    0.000
445.797; 1883.425;  206.475;    0.000
445.845; 1847.425;  213.475;    0.000
445.892; 1865.425;  224.475;    0.000
445.940; 1908.425;  214.475;    0.000
445.988; 1923.425;  247.475;    0.000
446.035; 1929.425;  204.475;    0.000
446.083; 1897.425;  235.475;    0.000
446.130; 1810.425;  195.475;    0.000
446.178; 1888.425;  236.475;    0.000
446.226; 1877.425;  218.475;    0.000
446.273; 1960.425;  215.475;    0.000
446.321; 1896.425;  222.475;    0.000
446.368; 1953.425;  228.475;    0.000
446.416; 1956.425;  223.475;    0.000
446.463; 1970.425;  220.475;    0.000
446.511; 1944.425;  198.475;    0.000
446.558; 1926.425;  208.475;    0.000
446.606; 2030.425;  253.475;    0.000
446.653; 1986.425;  198.475;    0.000
446.701; 2021.425;  231.475;    0.000
446.748; 1980.425;  224.475;    0.000
446.796; 2039.425;  201.475;    0.000
446.843; 2023.425;  257.475;    0.000
446.891; 2061.425;  218.475;    0.000
446.938; 2016.425;  232.475;    0.000
446.985; 2064.425;  229.475;    0.000
447.033; 2051.425;  251.475;    0.000
447.080; 2055.425;  257.475;    0.000
447.128; 2138.425;  232.475;    0.000
447.175; 2158.425;  269.475;    0.000
447.222; 2102.425;  185.475;    0.000
447.270; 2179.425;  264.475;    0.000
447.317; 2149.425;  225.475;    0.000
447.364; 2115.425;  243.475;    0.000
447.411; 2119.425;  263.475;    0.000
447.459; 2187.425;  257.475;    0.000
447.506; 2201.425;  175.475;    0.000
447.553; 2262.425;  203.475;    0.000
447.601; 2377.425;  238.475;    0.000
447.648; 2303.425;  244.475;    0.000
447.695; 2337.425;  249.475;    0.000
447.742; 2332.425;  234.475;    0.000
447.789; 2437.425;  228.475;    0.000
447.837; 2382.425;  258.475;    0.000
447.884; 2433.425;  243.475;    0.000
447.931; 2530.425;  235.475;    0.000
447.978; 2500.425;  224.475;    0.000
448.025; 2484.425;  245.475;    0.000
448.072; 2457.425;  212.475;    0.000
448.120; 2564.425;  256.475;    0.000
448.167; 2613.425;  240.475;    0.000
448.214; 2474.425;  247.475;    0.000
448.261; 2442.425;  245.475;    0.000
448.308; 2454.425;  273.475;    0.000
448.355; 2412.425;  257.475;    0.000
448.402; 2354.425;  259.475;    0.000
448.449; 2327.425;  238.475;    0.000
448.496; 2229.425;  245.475;    0.000
448.543; 2221.425;  217.475;    0.000
448.590; 2174.425;  269.475;    0.000
448.637; 2189.425;  250.475;    0.000
448.684; 2193.425;  250.475;    0.000
448.731; 2200.425;  235.475;    0.000
448.778; 2146.425;  265.475;    0.000
448.825; 2109.425;  257.475;    0.000
448.872; 2084.425;  234.475;    0.000
448.919; 2018.425;  216.475;    0.000
448.966; 2076.425;  274.475;    0.000
449.013; 2085.425;  263.475;    0.000
449.060; 2022.425;  247.475;    0.000
449.107; 2004.425;  218.475;    0.000
449.154; 1991.425;  225.475;    0.000
449.200; 1962.425;  212.475;    0.000
449.247; 2068.425;  242.475;    0.000
449.294; 1969.425;  228.475;    0.000
449.341; 1928.425;  232.475;    0.000
449.388; 1905.425;  247.475;    0.000
449.435; 1935.425;  227.475;    0.000
449.481; 1966.425;  270.475;    0.000
449.528; 1918.425;  265.475;    0.000
449.575; 1896.425;  255.475;    0.000
449.622; 1942.425;  210.475;    0.000
449.668; 1959.425;  234.475;    0.000
449.715; 1843.425;  262.475;    0.000
449.762; 1885.425;  247.475;    0.000
449.809; 1888.425;  286.475;    0.000
449.855; 1891.425;  246.475;    0.000
449.902; 1847.425;  224.475;    0.000
449.949; 1875.425;  244.475;    0.000
449.995; 1894.425;  274.475;    0.000
450.042; 1854.425;  272.475;    0.000
450.089; 1895.425;  274.475;    0.000
450.135; 1831.425;  285.475;    0.000
450.182; 1845.425;  251.475;    0.000
450.229; 1807.425;  242.475;    0.000
450.275; 1839.425;  277.475;    0.000
450.322; 1769.425;  260.475;    0.000
450.368; 1825.425;  257.475;    0.000
450.415; 1806.425;  276.475;    0.000
450.462; 1797.425;  298.475;    0.000
450.508; 1821.425;  255.475;    0.000
450.555; 1876.425;  271.475;    0.000
450.601; 1780.425;  281.475;    0.000
450.648; 1819.425;  249.475;    0.000
450.694; 1786.425;  270.475;    0.000
450.741; 1824.425;  256.475;    0.000
450.787; 1792.425;  292.475;    0.000
450.834; 1800.425;  221.475;    0.000
450.880; 1775.425;  265.475;    0.000
450.927; 1805.425;  242.475;    0.000
450.973; 1796.425;  259.475;    0.000
451.019; 1750.425;  221.475;    0.000
451.066; 1794.425;  257.475;    0.000
451.112; 1735.425;  251.475;    0.000
451.159; 1706.425;  278.475;    0.000
451.205; 1768.425;  274.475;    0.000
451.251; 1675.425;  281.475;    0.000
451.298; 1783.425;  273.475;    0.000
451.344; 1707.425;  246.475;    0.000
451.390; 1761.425;  286.475;    0.000
451.437; 1710.425;  268.475;    0.000
451.483; 1755.425;  315.475;    0.000
451.529; 1703.425;  251.475;    0.000
451.576; 1733.425;  306.475;    0.000
451.622; 1726.425;  234.475;    0.000
451.668; 1757.425;  243.475;    0.000
451.714; 1721.425;  256.475;    0.000
451.761; 1659.425;  264.475;    0.000
451.807; 1756.425;  284.475;    0.000
451.853; 1661.425;  282.475;    0.000
451.899; 1636.425;  240.475;    0.000
451.945; 1658.425;  263.475;    0.000
451.992; 1663.425;  255.475;    0.000
452.038; 1646.425;  273.475;    0.000
452.084; 1716.425;  274.475;    0.000
452.130; 1704.425;  261.475;    0.000
452.176; 1607.425;  246.475;    0.000
452.222; 1645.425;  238.475;    0.000
452.268; 1639.425;  267.475;    0.000
452.315; 1734.425;  274.475;    0.000
452.361; 1632.425;  241.475;    0.000
452.407; 1685.425;  274.475;    0.000
452.453; 1666.425;  260.475;    0.000
452.499; 1687.425;  232.475;    0.000
452.545; 1661.425;  252.475;    0.000
452.591; 1680.425;  263.475;    0.000
452.637; 1698.425;  208.475;    0.000
452.683; 1633.425;  237.475;    0.000
452.729; 1631.425;  263.475;    0.000
452.775; 1630.425;  291.475;    0.000
452.821; 1666.425;  238.475;    0.000
452.867; 1587.425;  223.475;    0.000
452.913; 1648.425;  257.475;    0.000
452.959; 1633.425;  238.475;    0.000
453.005; 1621.425;  252.475;    0.000
453.051; 1661.425;  260.475;    0.000
453.097; 1661.425;  268.475;    0.000
453.142; 1684.425;  231.475;    0.000
453.188; 1638.425;  266.475;    0.000
453.234; 1670.425;  233.475;    0.000
453.280; 1600.425;  219.475;    0.000
453.326; 1602.425;  265.475;    0.000
453.372; 1590.425;  238.475;    0.000
453.418; 1561.425;  240.475;    0.000
453.463; 1619.425;  219.475;    0.000
453.509; 1652.425;  264.475;    0.000
453.555; 1555.425;  247.475;    0.000
453.601; 1605.425;  230.475;    0.000
453.647; 1674.425;  285.475;    0.000
453.692; 1527.425;  240.475;    0.000
453.738; 1660.425;  233.475;    0.000
453.784; 1547.425;  230.475;    0.000
453.829; 1624.425;  246.475;    0.000
453.875; 1587.425;  261.475;    0.000
453.921; 1585.425;  203.475;    0.000
453.967; 1692.425;  241.475;    0.000
454.012; 1617.425;  250.475;    0.000
454.058; 1554.425;  252.475;    0.000
454.104; 1595.425;  239.475;    0.000
454.149; 1610.425;  250.475;    0.000
454.195; 1560.425;  243.475;    0.000
454.240; 1564.425;  252.475;    0.000
454.286; 1575.425;  245.475;    0.000
454.332; 1683.425;  286.475;    0.000
454.377; 1591.425;  254.475;    0.000
454.423; 1602.425;  246.475;    0.000
454.468; 1574.425;  235.475;    0.000
454.514; 1625.425;  231.475;    0.000
454.559; 1565.425;  246.475;    0.000
454.605; 1569.425;  204.475;    0.000
454.650; 1597.425;  272.475;    0.000
454.696; 1539.425;  222.475;    0.000
454.741; 1554.425;  290.475;    0.000
454.787; 1530.425;  262.475;    0.000
454.832; 1572.425;  227.475;    0.000
454.878; 1648.425;  241.475;    0.000
454.923; 1565.425;  272.475;    0.000
454.969; 1611.425;  290.475;    0.000
455.014; 1641.425;  278.475;    0.000
455.060; 1548.425;  246.475;    0.000
455.105; 1596.425;  231.475;    0.000
455.150; 1668.425;  265.475;    0.000
455.196; 1581.425;  266.475;    0.000
455.241; 1656.425;  258.475;    0.000
455.286; 1586.425;  266.475;    0.000
455.332; 1664.425;  252.475;    0.000
455.377; 1520.425;  219.475;    0.000
455.422; 1622.425;  262.475;    0.000
455.468; 1642.425;  260.475;    0.000
455.513; 1593.425;  212.475;    0.000
455.558; 1576.425;  197.475;    0.000
455.604; 1560.425;  262.475;    0.000
455.649; 1539.425;  238.475;    0.000
455.694; 1577.425;  221.475;    0.000
455.739; 1568.425;  251.475;    0.000
455.785; 1716.425;  287.475;    0.000
455.830; 1608.425;  284.475;    0.000
455.875; 1553.425;  234.475;    0.000
455.920; 1576.425;  215.475;    0.000
455.965; 1520.425;  256.475;    0.000
456.010; 1606.425;  266.475;    0.000
456.056; 1630.425;  263.475;    0.000
456.101; 1568.425;  240.475;    0.000
456.146; 1510.425;  258.475;    0.000
456.191; 1554.425;  241.475;    0.000
456.236; 1551.425;  252.475;    0.000
456.281; 1549.425;  218.475;    0.000
456.326; 1618.425;  251.475;    0.000
456.371; 1599.425;  256.475;    0.000
456.416; 1591.425;  301.475;    0.000
456.461; 1573.425;  233.475;    0.000
456.507; 1478.425;  218.475;    0.000
456.552; 1577.425;  278.475;    0.000
456.597; 1537.425;  223.475;    0.000
456.642; 1569.425;  203.475;    0.000
456.687; 1578.425;  245.475;    0.000
456.732; 1639.425;  256.475;    0.000
456.776; 1648.425;  244.475;    0.000
456.821; 1542.425;  276.475;    0.000
456.866; 1606.425;  232.475;    0.000
456.911; 1543.425;  225.475;    0.000
456.956; 1655.425;  237.475;    0.000
457.001; 1616.425;  261.475;    0.000
457.046; 1565.425;  205.475;    0.000
457.091; 1599.425;  241.475;    0.000
457.136; 1559.425;  217.475;    0.000
457.181; 1531.425;  251.475;    0.000
457.225; 1608.425;  241.475;    0.000
457.270; 1532.425;  237.475;    0.000
457.315; 1627.425;  279.475;    0.000
457.360; 1603.425;  245.475;    0.000
457.405; 1525.425;  202.475;    0.000
457.450; 1488.425;  247.475;    0.000
457.494; 1542.425;  243.475;    0.000
457.539; 1541.425;  222.475;    0.000
457.584; 1587.425;  239.475;    0.000
457.629; 1608.425;  236.475;    0.000
457.673; 1616.425;  234.475;    0.000
457.718; 1581.425;  202.475;    0.000
457.763; 1594.425;  274.475;    0.000
457.807; 1551.425;  236.475;    0.000
457.852; 1558.425;  265.475;    0.000
457.897; 1592.425;  252.475;    0.000
457.941; 1530.425;  264.475;    0.000
457.986; 1597.425;  280.475;    0.000
458.031; 1633.425;  217.475;    0.000
458.075; 1611.425;  249.475;    0.000
458.120; 1648.425;  257.475;    0.000
458.165; 1621.425;  183.475;    0.000
458.209; 1652.425;  245.475;    0.000
458.254; 1668.425;  245.475;    0.000
458.298; 1575.425;  265.475;    0.000
458.343; 1600.425;  241.475;    0.000
458.387; 1654.425;  262.475;    0.000
458.432; 1668.425;  245.475;    0.000
458.476; 1598.425;  255.475;    0.000
458.521; 1659.425;  269.475;    0.000
458.565; 1684.425;  265.475;    0.000
458.610; 1649.425;  222.475;    0.000
458.654; 1638.425;  257.475;    0.000
458.699; 1713.425;  296.475;    0.000
458.743; 1625.425;  203.475;    0.000
458.788; 1688.425;  267.475;    0.000
458.832; 1680.425;  274.475;    0.000
458.877; 1637.425;  251.475;    0.000
458.921; 1674.425;  237.475;    0.000
458.965; 1684.425;  264.475;    0.000
459.010; 1694.425;  256.475;    0.000
459.054; 1722.425;  280.475;    0.000
459.099; 1642.425;  240.475;    0.000
459.143; 1747.425;  287.475;    0.000
459.187; 1708.425;  257.475;    0.000
459.231; 1803.425;  273.475;    0.000
459.276; 1673.425;  231.475;    0.000
459.320; 1703.425;  261.475;    0.000
459.364; 1601.425;  278.475;    0.000
459.409; 1688.425;  249.475;    0.000
459.453; 1745.425;  235.475;    0.000
459.497; 1694.425;  262.475;    0.000
459.541; 1687.425;  269.475;    0.000
459.586; 1672.425;  240.475;    0.000
459.630; 1762.425;  261.475;    0.000
459.674; 1782.425;  276.475;    0.000
459.718; 1743.425;  236.475;    0.000
459.762; 1701.425;  263.475;    0.000
459.807; 1738.425;  263.475;    0.000
459.851; 1739.425;  225.475;    0.000
459.895; 1721.425;  247.475;    0.000
459.939; 1715.425;  231.475;    0.000
459.983; 1736.425;  242.475;    0.000
460.027; 1703.425;  248.475;    0.000
460.071; 1741.425;  273.475;    0.000
460.115; 1726.425;  282.475;    0.000
460.159; 1729.425;  264.475;    0.000
460.204; 1754.425;  288.475;    0.000
460.248; 1701.425;  293.475;    0.000
460.292; 1736.425;  277.475;    0.000
460.336; 1737.425;  250.475;    0.000
460.380; 1738.425;  275.475;    0.000
460.424; 1733.425;  243.475;    0.000
460.468; 1792.425;  277.475;    0.000
460.512; 1844.425;  261.475;    0.000
460.556; 1726.425;  266.475;    0.000
460.599; 1755.425;  246.475;    0.000
460.643; 1826.425;  256.475;    0.000
460.687; 1780.425;  257.475;    0.000
460.731; 1684.425;  235.475;    0.000
460.775; 1687.425;  278.475;    0.000
460.819; 1815.425;  268.475;    0.000
460.863; 1751.425;  257.475;    0.000
460.907; 1626.425;  213.475;    0.000
460.951; 1760.425;  274.475;    0.000
460.995; 1825.425;  258.475;    0.000
461.038; 1773.425;  219.475;    0.000
461.082; 1773.425;  253.475;    0.000
461.126; 1805.425;  281.475;    0.000
461.170; 1808.425;  244.475;    0.000
461.214; 1808.425;  262.475;    0.000
461.257; 1758.425;  284.475;    0.000
461.301; 1812.425;  275.475;    0.000
461.345; 1748.425;  267.475;    0.000
461.389; 1790.425;  255.475;    0.000
461.432; 1810.425;  282.475;    0.000
461.476; 1753.425;  263.475;    0.000
461.520; 1840.425;  260.475;    0.000
461.563; 1788.425;  278.475;    0.000
461.607; 1821.425;  236.475;    0.000
461.651; 1789.425;  262.475;    0.000
461.694; 1784.425;  236.475;    0.000
461.738; 1758.425;  295.475;    0.000
461.782; 1792.425;  252.475;    0.000
461.825; 1856.425;  271.475;    0.000
461.869; 1782.425;  278.475;    0.000
461.913; 1780.425;  255.475;    0.000
461.956; 1781.425;  254.475;    0.000
462.000; 1816.425;  299.475;    0.000
462.043; 1870.425;  282.475;    0.000
462.087; 1827.425;  274.475;    0.000
462.130; 1866.425;  270.475;    0.000
462.174; 1838.425;  274.475;    0.000
462.217; 1844.425;  272.475;    0.000
462.261; 1867.425;  286.475;    0.000
462.304; 1827.425;  236.475;    0.000
462.348; 1835.425;  262.475;    0.000
462.391; 1805.425;  244.475;    0.000
462.435; 1882.425;  321.475;    0.000
462.478; 1837.425;  230.475;    0.000
462.522; 1797.425;  245.475;    0.000
462.565; 1791.425;  278.475;    0.000
462.608; 1906.425;  303.475;    0.000
462.652; 1939.425;  275.475;    0.000
462.695; 1856.425;  314.475;    0.000
462.739; 1874.425;  307.475;    0.000
462.782; 1867.425;  286.475;    0.000
462.825; 1931.425;  312.475;    0.000
462.869; 1999.425;  338.475;    0.000
462.912; 1958.425;  304.475;    0.000
462.955; 1861.425;  288.475;    0.000
462.998; 1925.425;  292.475;    0.000
463.042; 1945.425;  309.475;    0.000
463.085; 1933.425;  292.475;    0.000
463.128; 1915.425;  317.475;    0.000
463.172; 1884.425;  287.475;    0.000
463.215;  394.425;  313.475;    0.000
463.258;  342.425;  295.475;    0.000
463.301;  280.425;  275.475;    0.000
463.344;  333.425;  311.475;    0.000
463.388;  314.425;  296.475;    0.000
463.431;  297.425;  277.475;    0.000
463.474;  339.425;  364.475;    0.000
463.517;  306.425;  306.475;    0.000
463.560;  304.425;  308.475;    0.000
463.603;  325.425;  343.475;    0.000
463.646;  332.425;  309.475;    0.000
463.690;  299.425;  309.475;    0.000
463.733;  331.425;  320.475;    0.000
463.776;  308.425;  299.475;    0.000
463.819;  350.425;  320.475;    0.000
463.862;  286.425;  283.475;    0.000

