
Integration time [ms]:   1.000
Averaging Nr. [scans]: 1
Smoothing Nr. [pixels]: 0
Data measured with spectrometer [name]: NIR
Wave   ;Sample   ;Dark     ;Reference
[nm]   ;[counts] ;[counts] ;[counts] 

691.496;  -20.450;  163.125;    0.000
691.696;  -18.450;  208.125;    0.000
691.896;  -53.450;  111.125;    0.000
692.096;  -58.450;  178.125;    0.000
692.296; -103.450;   93.125;    0.000
692.496;  -60.450;  161.125;    0.000
692.695;  -75.450;  135.125;    0.000
692.895;  -45.450;  179.125;    0.000
693.095;  -95.450;  158.125;    0.000
693.295;  -40.450;  168.125;    0.000
693.495;  -38.450;  170.125;    0.000
693.695;  -54.450;  155.125;    0.000
693.894;  -31.450;  151.125;    0.000
694.094;  -32.450;  164.125;    0.000
694.294;  -78.450;  129.125;    0.000
694.494;  144.550;  170.125;    0.000
694.693; 2036.550;  137.125;    0.000
694.893; 2195.550;  163.125;    0.000
695.093; 2231.550;  121.125;    0.000
695.293; 2304.550;  144.125;    0.000
695.492; 2277.550;   88.125;    0.000
695.692; 2375.550;  148.125;    0.000
695.891; 2319.550;  125.125;    0.000
696.091; 2315.550;  184.125;    0.000
696.291; 2325.550;  153.125;    0.000
696.490; 2264.550;  131.125;    0.000
696.690; 2327.550;  123.125;    0.000
696.889; 2351.550;  180.125;    0.000
697.089; 2367.550;  147.125;    0.000
697.288; 2416.550;  164.125;    0.000
697.488; 2277.550;  133.125;    0.000
697.687; 2317.550;  153.125;    0.000
697.887; 2421.550;  119.125;    0.000
698.086; 2351.550;  143.125;    0.000
698.286; 2357.550;  125.125;    0.000
698.485; 2284.550;  120.125;    0.000
698.684; 2358.550;  116.125;    0.000
698.884; 2246.550;  131.125;    0.000
699.083; 2329.550;  115.125;    0.000
699.282; 2344.550;  144.125;    0.000
699.482; 2369.550;  109.125;    0.000
699.681; 2450.550;  115.125;    0.000
699.880; 2484.550;  125.125;    0.000
700.080; 2478.550;  139.125;    0.000
700.279; 2337.550;  111.125;    0.000
700.478; 2420.550;  146.125;    0.000
700.677; 2408.550;  131.125;    0.000
700.877; 2413.550;  156.125;    0.000
701.076; 2398.550;  153.125;    0.000
701.275; 2396.550;  123.125;    0.000
701.474; 2409.550;  150.125;    0.000
701.673; 2341.550;   97.125;    0.000
701.872; 2420.550;  139.125;    0.000
702.071; 2372.550;  108.125;    0.000
702.271; 2463.550;  125.125;    0.000
702.470; 2412.550;  108.125;    0.000
702.669; 2430.550;  102.125;    0.000
702.868; 2463.550;  153.125;    0.000
703.067; 2479.550;  145.125;    0.000
703.266; 2377.550;   96.125;    0.000
703.465; 2539.550;  165.125;    0.000
703.664; 2404.550;  106.125;    0.000
703.863; 2437.550;  144.125;    0.000
704.062; 2441.550;   86.125;    0.000
704.260; 2490.550;   99.125;    0.000
704.459; 2429.550;  112.125;    0.000
704.658; 2525.550;  106.125;    0.000
704.857; 2550.550;  129.125;    0.000
705.056; 2412.550;   98.125;    0.000
705.255; 2470.550;   97.125;    0.000
705.454; 2460.550;  101.125;    0.000
705.652; 2450.550;  142.125;    0.000
705.851; 2482.550;  100.125;    0.000
706.050; 2461.550;  162.125;    0.000
706.249; 2478.550;  146.125;    0.000
706.447; 2551.550;  120.125;    0.000
706.646; 2532.550;  114.125;    0.000
706.845; 2526.550;  117.125;    0.000
707.043; 2564.550;  136.125;    0.000
707.242; 2470.550;   90.125;    0.000
707.441; 2441.550;  131.125;    0.000
707.639; 2497.550;  120.125;    0.000
707.838; 2542.550;  122.125;    0.000
708.037; 2425.550;  109.125;    0.000
708.235; 2510.550;  122.125;    0.000
708.434; 2524.550;  109.125;    0.000
708.632; 2460.550;   47.125;    0.000
708.831; 2502.550;  122.125;    0.000
709.029; 2566.550;  130.125;    0.000
709.228; 2454.550;  112.125;    0.000
709.426; 2607.550;  128.125;    0.000
709.625; 2601.550;  129.125;    0.000
709.823; 2548.550;  130.125;    0.000
710.022; 2612.550;   90.125;    0.000
710.220; 2578.550;  131.125;    0.000
710.418; 2643.550;  133.125;    0.000
710.617; 2494.550;   82.125;    0.000
710.815; 2591.550;   90.125;    0.000
711.013; 2519.550;   86.125;    0.000
711.212; 2594.550;  117.125;    0.000
711.410; 2593.550;  106.125;    0.000
711.608; 2600.550;  138.125;    0.000
711.807; 2581.550;  116.125;    0.000
712.005; 2591.550;   82.125;    0.000
712.203; 2642.550;   90.125;    0.000
712.401; 2594.550;  124.125;    0.000
712.599; 2665.550;   64.125;    0.000
712.798; 2652.550;  113.125;    0.000
712.996; 2575.550;  100.125;    0.000
713.194; 2642.550;  130.125;    0.000
713.392; 2604.550;   89.125;    0.000
713.590; 2724.550;  105.125;    0.000
713.788; 2731.550;  100.125;    0.000
713.986; 2689.550;  117.125;    0.000
714.184; 2660.550;   72.125;    0.000
714.382; 2849.550;   88.125;    0.000
714.580; 2745.550;   88.125;    0.000
714.778; 2873.550;  129.125;    0.000
714.976; 2760.550;   90.125;    0.000
715.174; 2935.550;  119.125;    0.000
715.372; 2926.550;  117.125;    0.000
715.570; 2974.550;  101.125;    0.000
715.768; 3192.550;  122.125;    0.000
715.966; 3149.550;  114.125;    0.000
716.164; 3273.550;  135.125;    0.000
716.362; 3168.550;  126.125;    0.000
716.560; 3048.550;  126.125;    0.000
716.758; 3009.550;   98.125;    0.000
716.955; 2996.550;   76.125;    0.000
717.153; 2956.550;   45.125;    0.000
717.351; 2963.550;  106.125;    0.000
717.549; 2905.550;  108.125;    0.000
717.746; 2982.550;   66.125;    0.000
717.944; 3001.550;  127.125;    0.000
718.142; 2959.550;  148.125;    0.000
718.340; 2899.550;   94.125;    0.000
718.537; 3102.550;  107.125;    0.000
718.735; 3012.550;  130.125;    0.000
718.933; 3002.550;  111.125;    0.000
719.130; 2939.550;  107.125;    0.000
719.328; 2911.550;  128.125;    0.000
719.525; 2996.550;  141.125;    0.000
719.723; 2929.550;  122.125;    0.000
719.920; 2836.550;   85.125;    0.000
720.118; 2809.550;  115.125;    0.000
720.316; 2929.550;  153.125;    0.000
720.513; 2945.550;  120.125;    0.000
720.711; 2994.550;  134.125;    0.000
720.908; 2923.550;  126.125;    0.000
721.105; 2982.550;  119.125;    0.000
721.303; 2906.550;  112.125;    0.000
721.500; 2930.550;  125.125;    0.000
721.698; 2992.550;   94.125;    0.000
721.895; 2987.550;  118.125;    0.000
722.092; 2968.550;   77.125;    0.000
722.290; 2908.550;  135.125;    0.000
722.487; 2860.550;  154.125;    0.000
722.684; 2919.550;  122.125;    0.000
722.882; 2929.550;   90.125;    0.000
723.079; 2885.550;  132.125;    0.000
723.276; 2947.550;   95.125;    0.000
723.473; 2935.550;  106.125;    0.000
723.671; 2917.550;   80.125;    0.000
723.868; 2984.550;  112.125;    0.000
724.065; 2888.550;  107.125;    0.000
724.262; 2993.550;  119.125;    0.000
724.459; 2999.550;   80.125;    0.000
724.656; 2994.550;  109.125;    0.000
724.854; 3015.550;  107.125;    0.000
725.051; 3109.550;  103.125;    0.000
725.248; 2960.550;  101.125;    0.000
725.445; 2905.550;   93.125;    0.000
725.642; 3006.550;   92.125;    0.000
725.839; 3163.550;  157.125;    0.000
726.036; 2996.550;   71.125;    0.000
726.233; 2971.550;   80.125;    0.000
726.430; 3000.550;  146.125;    0.000
726.627; 2958.550;  103.125;    0.000
726.824; 2937.550;   46.125;    0.000
727.021; 3093.550;  149.125;    0.000
727.218; 2967.550;   87.125;    0.000
727.414; 2975.550;  112.125;    0.000
727.611; 3062.550;  111.125;    0.000
727.808; 3044.550;  122.125;    0.000
728.005; 3106.550;   58.125;    0.000
728.202; 3077.550;  129.125;    0.000
728.399; 3069.550;  111.125;    0.000
728.595; 3038.550;   93.125;    0.000
728.792; 3045.550;   78.125;    0.000
728.989; 3132.550;  104.125;    0.000
729.186; 3068.550;  110.125;    0.000
729.382; 3040.550;   93.125;    0.000
729.579; 3012.550;  102.125;    0.000
729.776; 3092.550;  112.125;    0.000
729.972; 3113.550;  101.125;    0.000
730.169; 3097.550;  150.125;    0.000
730.366; 3007.550;   92.125;    0.000
730.562; 3163.550;   74.125;    0.000
730.759; 3161.550;   97.125;    0.000
730.955; 3020.550;   86.125;    0.000
731.152; 3104.550;   88.125;    0.000
731.348; 2999.550;  117.125;    0.000
731.545; 3111.550;   62.125;    0.000
731.741; 3164.550;   84.125;    0.000
731.938; 3085.550;  108.125;    0.000
732.134; 3137.550;  115.125;    0.000
732.331; 3023.550;   88.125;    0.000
732.527; 3061.550;   96.125;    0.000
732.724; 3115.550;  103.125;    0.000
732.920; 3190.550;   93.125;    0.000
733.116; 3114.550;  109.125;    0.000
733.313; 3031.550;   77.125;    0.000
733.509; 3072.550;   81.125;    0.000
733.705; 3135.550;  141.125;    0.000
733.902; 3158.550;   88.125;    0.000
734.098; 3078.550;   56.125;    0.000
734.294; 3199.550;  122.125;    0.000
734.490; 3187.550;  102.125;    0.000
734.687; 3173.550;   70.125;    0.000
734.883; 3064.550;   73.125;    0.000
735.079; 3198.550;   65.125;    0.000
735.275; 3069.550;  112.125;    0.000
735.471; 3121.550;  124.125;    0.000
735.667; 3192.550;   94.125;    0.000
735.863; 3145.550;  106.125;    0.000
736.060; 3166.550;  106.125;    0.000
736.256; 3188.550;   95.125;    0.000
736.452; 3072.550;  103.125;    0.000
736.648; 3217.550;  106.125;    0.000
736.844; 3162.550;   98.125;    0.000
737.040; 3212.550;  118.125;    0.000
737.236; 3267.550;   95.125;    0.000
737.432; 3273.550;   59.125;    0.000
737.628; 3274.550;  120.125;    0.000
737.824; 3196.550;   78.125;    0.000
738.019; 3275.550;   98.125;    0.000
738.215; 3319.550;  127.125;    0.000
738.411; 3244.550;  111.125;    0.000
738.607; 3122.550;   69.125;    0.000
738.803; 3267.550;   40.125;    0.000
738.999; 3309.550;  128.125;    0.000
739.195; 3233.550;   81.125;    0.000
739.390; 3351.550;   97.125;    0.000
739.586; 3394.550;  100.125;    0.000
739.782; 3371.550;  135.125;    0.000
739.978; 3328.550;  121.125;    0.000
740.173; 3378.550;   92.125;    0.000
740.369; 3297.550;   92.125;    0.000
740.565; 3422.550;  119.125;    0.000
740.760; 3311.550;  139.125;    0.000
740.956; 3593.550;  134.125;    0.000
741.152; 3444.550;  107.125;    0.000
741.347; 3458.550;   63.125;    0.000
741.543; 3464.550;   99.125;    0.000
741.738; 3521.550;  119.125;    0.000
741.934; 3604.550;  156.125;    0.000
742.129; 3673.550;   87.125;    0.000
742.325; 4072.550;  143.125;    0.000
742.520; 4359.550;  109.125;    0.000
742.716; 4158.550;  135.125;    0.000
742.911; 4047.550;   77.125;    0.000
743.107; 4110.550;  117.125;    0.000
743.302; 3995.550;   93.125;    0.000
743.498; 4057.550;  118.125;    0.000
743.693; 4050.550;   95.125;    0.000
743.888; 4313.550;  122.125;    0.000
744.084; 4668.550;  104.125;    0.000
744.279; 5449.550;   94.125;    0.000
744.474; 5458.550;  138.125;    0.000
744.670; 5040.550;  113.125;    0.000
744.865; 4804.550;  116.125;    0.000
745.060; 4623.550;   89.125;    0.000
745.255; 4570.550;  144.125;    0.000
745.451; 4472.550;   98.125;    0.000
745.646; 4335.550;  110.125;    0.000
745.841; 4339.550;   87.125;    0.000
746.036; 4367.550;   98.125;    0.000
746.231; 4400.550;  153.125;    0.000
746.426; 4555.550;   90.125;    0.000
746.622; 5067.550;  154.125;    0.000
746.817; 6209.550;  111.125;    0.000
747.012; 6853.550;  110.125;    0.000
747.207; 6353.550;   76.125;    0.000
747.402; 5927.550;   94.125;    0.000
747.597; 5519.550;   68.125;    0.000
747.792; 5316.550;  125.125;    0.000
747.987; 5094.550;   92.125;    0.000
748.182; 4976.550;  113.125;    0.000
748.377; 4775.550;   72.125;    0.000
748.572; 4825.550;  135.125;    0.000
748.767; 4445.550;   98.125;    0.000
748.961; 4362.550;  123.125;    0.000
749.156; 4267.550;   96.125;    0.000
749.351; 4287.550;  121.125;    0.000
749.546; 4060.550;   95.125;    0.000
749.741; 4110.550;  144.125;    0.000
749.936; 4170.550;  105.125;    0.000
750.130; 4067.550;  101.125;    0.000
750.325; 4005.550;  126.125;    0.000
750.520; 3981.550;  113.125;    0.000
750.715; 3986.550;  135.125;    0.000
750.909; 3922.550;  138.125;    0.000
751.104; 3967.550;   96.125;    0.000
751.299; 3856.550;  118.125;    0.000
751.493; 3848.550;  124.125;    0.000
751.688; 3788.550;  131.125;    0.000
751.882; 3780.550;   96.125;    0.000
752.077; 3807.550;  123.125;    0.000
752.272; 3807.550;  112.125;    0.000
752.466; 3785.550;  143.125;    0.000
752.661; 3701.550;  107.125;    0.000
752.855; 3649.550;   97.125;    0.000
753.050; 3675.550;  125.125;    0.000
753.244; 3463.550;  161.125;    0.000
753.439; 3524.550;  101.125;    0.000
753.633; 3596.550;  129.125;    0.000
753.828; 3596.550;  114.125;    0.000
754.022; 3667.550;  118.125;    0.000
754.216; 3511.550;  126.125;    0.000
754.411; 3681.550;  148.125;    0.000
754.605; 3489.550;  100.125;    0.000
754.799; 3569.550;  146.125;    0.000
754.994; 3559.550;  116.125;    0.000
755.188; 3649.550;  146.125;    0.000
755.382; 3532.550;  103.125;    0.000
755.576; 3580.550;  119.125;    0.000
755.771; 3608.550;  100.125;    0.000
755.965; 3581.550;  129.125;    0.000
756.159; 3526.550;  100.125;    0.000
756.353; 3561.550;  153.125;    0.000
756.547; 3501.550;  113.125;    0.000
756.742; 3535.550;  129.125;    0.000
756.936; 3408.550;   70.125;    0.000
757.130; 3520.550;   91.125;    0.000
757.324; 3488.550;   92.125;    0.000
757.518; 3412.550;  128.125;    0.000
757.712; 3507.550;  146.125;    0.000
757.906; 3485.550;  114.125;    0.000
758.100; 3557.550;  153.125;    0.000
758.294; 3581.550;  133.125;    0.000
758.488; 3577.550;  149.125;    0.000
758.682; 3455.550;  132.125;    0.000
758.876; 3460.550;  128.125;    0.000
759.070; 3520.550;  178.125;    0.000
759.264; 3528.550;   98.125;    0.000
759.458; 3526.550;  168.125;    0.000
759.651; 3507.550;  131.125;    0.000
759.845; 3513.550;  133.125;    0.000
760.039; 3439.550;  120.125;    0.000
760.233; 3599.550;  116.125;    0.000
760.427; 3516.550;  121.125;    0.000
760.620; 3459.550;  163.125;    0.000
760.814; 3474.550;  106.125;    0.000
761.008; 3547.550;  119.125;    0.000
761.202; 3475.550;  121.125;    0.000
761.395; 3507.550;  136.125;    0.000
761.589; 3473.550;  111.125;    0.000
761.783; 3426.550;  116.125;    0.000
761.976; 3573.550;  139.125;    0.000
762.170; 3555.550;  140.125;    0.000
762.363; 3515.550;  115.125;    0.000
762.557; 3528.550;  129.125;    0.000
762.750; 3514.550;   85.125;    0.000
762.944; 3476.550;  107.125;    0.000
763.138; 3543.550;   99.125;    0.000
763.331; 3459.550;   97.125;    0.000
763.524; 3541.550;  100.125;    0.000
763.718; 3764.550;  130.125;    0.000
763.911; 3593.550;  127.125;    0.000
764.105; 3503.550;   69.125;    0.000
764.298; 3567.550;   94.125;    0.000
764.492; 3598.550;  129.125;    0.000
764.685; 3527.550;  114.125;    0.000
764.878; 3530.550;  145.125;    0.000
765.072; 3451.550;  124.125;    0.000
765.265; 3665.550;  124.125;    0.000
765.458; 3530.550;  108.125;    0.000
765.651; 3591.550;  132.125;    0.000
765.845; 3616.550;  106.125;    0.000
766.038; 3631.550;  155.125;    0.000
766.231; 4300.550;  153.125;    0.000
766.424; 6292.550;  165.125;    0.000
766.617; 6423.550;   85.125;    0.000
766.811; 4011.550;  140.125;    0.000
767.004; 3747.550;  151.125;    0.000
767.197; 3705.550;  178.125;    0.000
767.390; 3729.550;  112.125;    0.000
767.583; 3643.550;  134.125;    0.000
767.776; 3635.550;  101.125;    0.000
767.969; 3693.550;   99.125;    0.000
768.162; 3664.550;  152.125;    0.000
768.355; 3520.550;  115.125;    0.000
768.548; 3665.550;  154.125;    0.000
768.741; 3633.550;  124.125;    0.000
768.934; 3746.550;  129.125;    0.000
769.127; 3827.550;  137.125;    0.000
769.320; 3791.550;  115.125;    0.000
769.513; 3924.550;  144.125;    0.000
769.706; 4374.550;  107.125;    0.000
769.898; 6254.550;  134.125;    0.000
770.091; 4863.550;  128.125;    0.000
770.284; 3975.550;   97.125;    0.000
770.477; 3901.550;  135.125;    0.000
770.670; 3982.550;  137.125;    0.000
770.862; 3918.550;  112.125;    0.000
771.055; 3973.550;  127.125;    0.000
771.248; 3965.550;  116.125;    0.000
771.441; 4020.550;  101.125;    0.000
771.633; 4108.550;  130.125;    0.000
771.826; 4054.550;  147.125;    0.000
772.018; 4080.550;  117.125;    0.000
772.211; 4062.550;  141.125;    0.000
772.404; 4105.550;  104.125;    0.000
772.596; 4293.550;  128.125;    0.000
772.789; 4070.550;  131.125;    0.000
772.981; 4315.550;  134.125;    0.000
773.174; 4316.550;  108.125;    0.000
773.366; 4332.550;  153.125;    0.000
773.559; 4364.550;  137.125;    0.000
773.751; 4444.550;  119.125;    0.000
773.944; 4575.550;  148.125;    0.000
774.136; 4667.550;  155.125;    0.000
774.329; 4601.550;  126.125;    0.000
774.521; 4819.550;  116.125;    0.000
774.713; 4993.550;  119.125;    0.000
774.906; 5167.550;  179.125;    0.000
775.098; 5191.550;  127.125;    0.000
775.290; 5470.550;  146.125;    0.000
775.483; 5665.550;  123.125;    0.000
775.675; 5972.550;  119.125;    0.000
775.867; 6387.550;  119.125;    0.000
776.059; 6673.550;  137.125;    0.000
776.251; 7438.550;  154.125;    0.000
776.444; 8464.550;  101.125;    0.000
776.636; 9453.550;  153.125;    0.000
776.828;11567.550;  127.125;    0.000
777.020;16082.550;  140.125;    0.000
777.212;22996.551;  160.125;    0.000
777.404;25639.551;  170.125;    0.000
777.596;24080.551;  136.125;    0.000
777.788;18301.551;  137.125;    0.000
777.980;14170.550;  129.125;    0.000
778.172;11949.550;  139.125;    0.000
778.364;10281.550;  124.125;    0.000
778.556; 9343.550;  163.125;    0.000
778.748; 8390.550;  142.125;    0.000
778.940; 7740.550;  178.125;    0.000
779.132; 7272.550;  159.125;    0.000
779.324; 6570.550;  109.125;    0.000
779.516; 6309.550;  143.125;    0.000
779.708; 5988.550;  158.125;    0.000
779.900; 5749.550;  142.125;    0.000
780.091; 5451.550;  131.125;    0.000
780.283; 5390.550;  176.125;    0.000
780.475; 5288.550;  151.125;    0.000
780.667; 5013.550;  120.125;    0.000
780.859; 4974.550;  134.125;    0.000
781.050; 4747.550;  183.125;    0.000
781.242; 4560.550;   95.125;    0.000
781.434; 4547.550;  127.125;    0.000
781.625; 4470.550;  163.125;    0.000
781.817; 4432.550;  170.125;    0.000
782.008; 4331.550;  123.125;    0.000
782.200; 4211.550;  141.125;    0.000
782.392; 4243.550;  149.125;    0.000
782.583; 4138.550;  155.125;    0.000
782.775; 4223.550;  140.125;    0.000
782.966; 3981.550;  167.125;    0.000
783.158; 3983.550;  164.125;    0.000
783.349; 3981.550;  174.125;    0.000
783.541; 4034.550;  141.125;    0.000
783.732; 3975.550;  115.125;    0.000
783.924; 3850.550;  135.125;    0.000
784.115; 3889.550;  157.125;    0.000
784.306; 3808.550;  102.125;    0.000
784.498; 3856.550;  124.125;    0.000
784.689; 3883.550;  171.125;    0.000
784.880; 3668.550;  165.125;    0.000
785.072; 3854.550;  152.125;    0.000
785.263; 3761.550;  146.125;    0.000
785.454; 3759.550;  145.125;    0.000
785.645; 3715.550;  127.125;    0.000
785.837; 3723.550;  138.125;    0.000
786.028; 3758.550;  151.125;    0.000
786.219; 3670.550;  142.125;    0.000
786.410; 3723.550;  140.125;    0.000
786.601; 3669.550;  137.125;    0.000
786.792; 3643.550;  158.125;    0.000
786.984; 3706.550;  139.125;    0.000
787.175; 3636.550;  140.125;    0.000
787.366; 3575.550;  145.125;    0.000
787.557; 3752.550;  156.125;    0.000
787.748; 3669.550;  148.125;    0.000
787.939; 3722.550;  157.125;    0.000
788.130; 3741.550;  179.125;    0.000
788.321; 3621.550;  142.125;    0.000
788.512; 3761.550;  167.125;    0.000
788.703; 3736.550;  145.125;    0.000
788.894; 3736.550;  132.125;    0.000
789.084; 3714.550;  113.125;    0.000
789.275; 3712.550;  134.125;    0.000
789.466; 3712.550;  151.125;    0.000
789.657; 3785.550;  138.125;    0.000
789.848; 3815.550;  145.125;    0.000
790.039; 3796.550;  130.125;    0.000
790.229; 3775.550;  140.125;    0.000
790.420; 3751.550;  135.125;    0.000
790.611; 3838.550;  156.125;    0.000
790.801; 3749.550;   64.125;    0.000
790.992; 3783.550;  150.125;    0.000
791.183; 3819.550;  177.125;    0.000
791.373; 3767.550;   91.125;    0.000
791.564; 3670.550;   85.125;    0.000
791.755; 3788.550;  125.125;    0.000
791.945; 3751.550;   94.125;    0.000
792.136; 3643.550;   98.125;    0.000
792.326; 3735.550;  105.125;    0.000
792.517; 3770.550;  136.125;    0.000
792.707; 3769.550;  140.125;    0.000
792.898; 3779.550;  164.125;    0.000
793.088; 3811.550;  116.125;    0.000
793.279; 3733.550;  112.125;    0.000
793.469; 3906.550;  105.125;    0.000
793.660; 3930.550;  161.125;    0.000
793.850; 3941.550;  133.125;    0.000
794.040; 4117.550;  121.125;    0.000
794.231; 4286.550;  115.125;    0.000
794.421; 4624.550;  152.125;    0.000
794.611; 4842.550;  132.125;    0.000
794.802; 5396.550;  144.125;    0.000
794.992; 5720.550;  142.125;    0.000
795.182; 5830.550;  179.125;    0.000
795.372; 5559.550;  167.125;    0.000
795.563; 5172.550;  149.125;    0.000
795.753; 4831.550;  117.125;    0.000
795.943; 4557.550;  146.125;    0.000
796.133; 4302.550;  119.125;    0.000
796.323; 4199.550;  141.125;    0.000
796.513; 4017.550;  134.125;    0.000
796.703; 3971.550;  116.125;    0.000
796.893; 3860.550;  120.125;    0.000
797.083; 3854.550;  131.125;    0.000
797.273; 3851.550;  118.125;    0.000
797.463; 3810.550;  130.125;    0.000
797.653; 3603.550;   87.125;    0.000
797.843; 3647.550;  123.125;    0.000
798.033; 3562.550;  115.125;    0.000
798.223; 3541.550;  142.125;    0.000
798.413; 3498.550;  148.125;    0.000
798.603; 3531.550;  147.125;    0.000
798.793; 3501.550;  107.125;    0.000
798.983; 3460.550;  121.125;    0.000
799.172; 3466.550;  120.125;    0.000
799.362; 3298.550;  145.125;    0.000
799.552; 3201.550;  101.125;    0.000
799.742; 3346.550;  149.125;    0.000
799.932; 3255.550;  104.125;    0.000
800.121; 3228.550;  175.125;    0.000
800.311; 3084.550;  132.125;    0.000
800.501; 3158.550;  118.125;    0.000
800.690; 3178.550;  162.125;    0.000
800.880; 3207.550;  141.125;    0.000
801.070; 3109.550;  151.125;    0.000
801.259; 3153.550;  167.125;    0.000
801.449; 3042.550;  108.125;    0.000
801.638; 3240.550;  176.125;    0.000
801.828; 3019.550;  118.125;    0.000
802.017; 3126.550;  179.125;    0.000
802.207; 2986.550;  127.125;    0.000
802.396; 3084.550;  167.125;    0.000
802.586; 3027.550;  129.125;    0.000
802.775; 3083.550;  142.125;    0.000
802.965; 3090.550;  147.125;    0.000
803.154; 3068.550;  179.125;    0.000
803.343; 3051.550;  117.125;    0.000
803.533; 3033.550;  120.125;    0.000
803.722; 2955.550;  122.125;    0.000
803.911; 3026.550;  155.125;    0.000
804.101; 2919.550;  147.125;    0.000
804.290; 2943.550;  160.125;    0.000
804.479; 2932.550;  139.125;    0.000
804.668; 2951.550;  180.125;    0.000
804.857; 3000.550;  131.125;    0.000
805.047; 2821.550;  119.125;    0.000
805.236; 2969.550;  139.125;    0.000
805.425; 2961.550;  163.125;    0.000
805.614; 2923.550;  103.125;    0.000
805.803; 2899.550;  133.125;    0.000
805.992; 2944.550;  147.125;    0.000
806.181; 2938.550;  109.125;    0.000
806.370; 2812.550;  133.125;    0.000
806.559; 2909.550;  119.125;    0.000
806.748; 2991.550;  144.125;    0.000
806.937; 2803.550;  147.125;    0.000
807.126; 2892.550;  134.125;    0.000
807.315; 2949.550;  132.125;    0.000
807.504; 2938.550;  141.125;    0.000
807.693; 2885.550;  145.125;    0.000
807.882; 2857.550;   91.125;    0.000
808.071; 2919.550;  116.125;    0.000
808.260; 2876.550;  105.125;    0.000
808.448; 2786.550;  184.125;    0.000
808.637; 2944.550;  146.125;    0.000
808.826; 2874.550;  153.125;    0.000
809.015; 2909.550;  113.125;    0.000
809.203; 2891.550;  166.125;    0.000
809.392; 2852.550;  117.125;    0.000
809.581; 2931.550;  186.125;    0.000
809.770; 2796.550;  122.125;    0.000
809.958; 2820.550;  140.125;    0.000
810.147; 2867.550;  130.125;    0.000
810.335; 2895.550;  112.125;    0.000
810.524; 2873.550;  106.125;    0.000
810.713; 2943.550;  154.125;    0.000
810.901; 2847.550;  131.125;    0.000
811.090; 2885.550;  164.125;    0.000
811.278; 2899.550;  159.125;    0.000
811.467; 2904.550;  194.125;    0.000
811.655; 2963.550;  164.125;    0.000
811.844; 2959.550;  149.125;    0.000
812.032; 2914.550;  169.125;    0.000
812.220; 2935.550;  163.125;    0.000
812.409; 2779.550;  134.125;    0.000
812.597; 2985.550;  165.125;    0.000
812.785; 2929.550;  180.125;    0.000
812.974; 2944.550;  166.125;    0.000
813.162; 2889.550;  171.125;    0.000
813.350; 2993.550;  142.125;    0.000
813.539; 2892.550;  126.125;    0.000
813.727; 2900.550;  153.125;    0.000
813.915; 2897.550;  138.125;    0.000
814.103; 2934.550;  191.125;    0.000
814.291; 2850.550;  142.125;    0.000
814.479; 2881.550;  156.125;    0.000
814.668; 2999.550;  152.125;    0.000
814.856; 3010.550;  150.125;    0.000
815.044; 3010.550;  165.125;    0.000
815.232; 3002.550;  172.125;    0.000
815.420; 3106.550;  147.125;    0.000
815.608; 3097.550;  143.125;    0.000
815.796; 3040.550;  126.125;    0.000
815.984; 3030.550;  152.125;    0.000
816.172; 3168.550;  129.125;    0.000
816.360; 3138.550;  177.125;    0.000
816.548; 3074.550;  141.125;    0.000
816.736; 3309.550;  142.125;    0.000
816.924; 3400.550;  161.125;    0.000
817.111; 3297.550;  138.125;    0.000
817.299; 3422.550;  112.125;    0.000
817.487; 3582.550;  180.125;    0.000
817.675; 3742.550;  138.125;    0.000
817.863; 3971.550;  172.125;    0.000
818.050; 4582.550;  142.125;    0.000
818.238; 6764.550;  151.125;    0.000
818.426; 9112.550;  129.125;    0.000
818.613; 7386.550;  124.125;    0.000
818.801; 6995.550;  209.125;    0.000
818.989; 6774.550;  178.125;    0.000
819.176; 6653.550;  155.125;    0.000
819.364; 8239.550;  174.125;    0.000
819.552;11602.550;  131.125;    0.000
819.739; 7933.550;  184.125;    0.000
819.927; 6140.550;  132.125;    0.000
820.114; 5766.550;  173.125;    0.000
820.302; 5351.550;  140.125;    0.000
820.489; 5096.550;  133.125;    0.000
820.677; 5154.550;  167.125;    0.000
820.864; 5179.550;  161.125;    0.000
821.052; 5524.550;  134.125;    0.000
821.239; 5985.550;  149.125;    0.000
821.426; 6429.550;  160.125;    0.000
821.614; 7944.550;  143.125;    0.000
821.801; 8749.550;  118.125;    0.000
821.988; 7819.550;  154.125;    0.000
822.176; 7458.550;  112.125;    0.000
822.363; 7672.550;  131.125;    0.000
822.550; 7261.550;  131.125;    0.000
822.737; 6502.550;  104.125;    0.000
822.924; 6169.550;  160.125;    0.000
823.112; 5844.550;  161.125;    0.000
823.299; 5449.550;  169.125;    0.000
823.486; 5154.550;  129.125;    0.000
823.673; 4962.550;  135.125;    0.000
823.860; 4842.550;  169.125;    0.000
824.047; 4973.550;  124.125;    0.000
824.234; 5318.550;  160.125;    0.000
824.421; 5616.550;  114.125;    0.000
824.608; 4938.550;  191.125;    0.000
824.795; 4546.550;  160.125;    0.000
824.982; 4158.550;  139.125;    0.000
825.169; 4086.550;  121.125;    0.000
825.356; 3933.550;  148.125;    0.000
825.543; 3784.550;  167.125;    0.000
825.730; 3626.550;  103.125;    0.000
825.917; 3562.550;  113.125;    0.000
826.104; 3428.550;  188.125;    0.000
826.290; 3388.550;  193.125;    0.000
826.477; 3231.550;  175.125;    0.000
826.664; 3240.550;  151.125;    0.000
826.851; 3138.550;  122.125;    0.000
827.038; 3095.550;  121.125;    0.000
827.224; 3055.550;  124.125;    0.000
827.411; 3017.550;  155.125;    0.000
827.598; 2977.550;  127.125;    0.000
827.784; 3024.550;  140.125;    0.000
827.971; 2873.550;  114.125;    0.000
828.157; 2801.550;  135.125;    0.000
828.344; 2870.550;  173.125;    0.000
828.531; 2848.550;  113.125;    0.000
828.717; 2773.550;  137.125;    0.000
828.904; 2718.550;  158.125;    0.000
829.090; 2836.550;  199.125;    0.000
829.277; 2734.550;  156.125;    0.000
829.463; 2605.550;  154.125;    0.000
829.650; 2740.550;  174.125;    0.000
829.836; 2706.550;  136.125;    0.000
830.022; 2653.550;  143.125;    0.000
830.209; 2698.550;  157.125;    0.000
830.395; 2620.550;  156.125;    0.000
830.581; 2543.550;  148.125;    0.000
830.768; 2526.550;  169.125;    0.000
830.954; 2480.550;  169.125;    0.000
831.140; 2478.550;  124.125;    0.000
831.327; 2549.550;  157.125;    0.000
831.513; 2537.550;  163.125;    0.000
831.699; 2508.550;  176.125;    0.000
831.885; 2437.550;  154.125;    0.000
832.071; 2434.550;  159.125;    0.000
832.257; 2454.550;  142.125;    0.000
832.444; 2456.550;  159.125;    0.000
832.630; 2407.550;  129.125;    0.000
832.816; 2434.550;  132.125;    0.000
833.002; 2354.550;  125.125;    0.000
833.188; 2366.550;  144.125;    0.000
833.374; 2385.550;  131.125;    0.000
833.560; 2393.550;  154.125;    0.000
833.746; 2466.550;  171.125;    0.000
833.932; 2438.550;  162.125;    0.000
834.118; 2318.550;  131.125;    0.000
834.303; 2296.550;  113.125;    0.000
834.489; 2324.550;  170.125;    0.000
834.675; 2404.550;  177.125;    0.000
834.861; 2290.550;  154.125;    0.000
835.047; 2402.550;  171.125;    0.000
835.233; 2319.550;   98.125;    0.000
835.418; 2329.550;  138.125;    0.000
835.604; 2343.550;  140.125;    0.000
835.790; 2316.550;  130.125;    0.000
835.976; 2318.550;  129.125;    0.000
836.161; 2273.550;  142.125;    0.000
836.347; 2240.550;  128.125;    0.000
836.533; 2315.550;  143.125;    0.000
836.718; 2395.550;  164.125;    0.000
836.904; 2310.550;  172.125;    0.000
837.089; 2280.550;  152.125;    0.000
837.275; 2327.550;  143.125;    0.000
837.460; 2285.550;  125.125;    0.000
837.646; 2373.550;  137.125;    0.000
837.831; 2306.550;  153.125;    0.000
838.017; 2341.550;  171.125;    0.000
838.202; 2193.550;  111.125;    0.000
838.388; 2324.550;  140.125;    0.000
838.573; 2276.550;  158.125;    0.000
838.759; 2264.550;  188.125;    0.000
838.944; 2292.550;  125.125;    0.000
839.129; 2324.550;  123.125;    0.000
839.315; 2313.550;  181.125;    0.000
839.500; 2317.550;  150.125;    0.000
839.685; 2387.550;  109.125;    0.000
839.870; 2381.550;  202.125;    0.000
840.056; 2357.550;  101.125;    0.000
840.241; 2348.550;  184.125;    0.000
840.426; 2302.550;  192.125;    0.000
840.611; 2371.550;  180.125;    0.000
840.796; 2400.550;  156.125;    0.000
840.981; 2376.550;  142.125;    0.000
841.166; 2441.550;  161.125;    0.000
841.352; 2402.550;  185.125;    0.000
841.537; 2461.550;  139.125;    0.000
841.722; 2439.550;  143.125;    0.000
841.907; 2515.550;  140.125;    0.000
842.092; 2582.550;  176.125;    0.000
842.277; 2506.550;  136.125;    0.000
842.461; 2600.550;  155.125;    0.000
842.646; 2659.550;  163.125;    0.000
842.831; 2687.550;  153.125;    0.000
843.016; 2658.550;  187.125;    0.000
843.201; 2738.550;  179.125;    0.000
843.386; 2887.550;  167.125;    0.000
843.571; 3047.550;  129.125;    0.000
843.755; 3201.550;  136.125;    0.000
843.940; 3450.550;  121.125;    0.000
844.125; 3670.550;  157.125;    0.000
844.310; 4253.550;  175.125;    0.000
844.494; 5329.550;  164.125;    0.000
844.679; 7084.550;  167.125;    0.000
844.864; 7158.550;  166.125;    0.000
845.048; 5864.550;  132.125;    0.000
845.233; 5228.550;  175.125;    0.000
845.418; 4512.550;  159.125;    0.000
845.602; 4071.550;  147.125;    0.000
845.787; 3812.550;  132.125;    0.000
845.971; 3515.550;  187.125;    0.000
846.156; 3229.550;  141.125;    0.000
846.340; 3191.550;  153.125;    0.000
846.525; 3081.550;  157.125;    0.000
846.709; 2983.550;  117.125;    0.000
846.893; 2859.550;  147.125;    0.000
847.078; 2760.550;  170.125;    0.000
847.262; 2647.550;  150.125;    0.000
847.447; 2566.550;  132.125;    0.000
847.631; 2579.550;  144.125;    0.000
847.815; 2569.550;  157.125;    0.000
848.000; 2451.550;  164.125;    0.000
848.184; 2475.550;  174.125;    0.000
848.368; 2438.550;  149.125;    0.000
848.552; 2389.550;  143.125;    0.000
848.736; 2392.550;  132.125;    0.000
848.921; 2385.550;  147.125;    0.000
849.105; 2371.550;  150.125;    0.000
849.289; 2306.550;  146.125;    0.000
849.473; 2232.550;  167.125;    0.000
849.657; 2177.550;  149.125;    0.000
849.841; 2266.550;  181.125;    0.000
850.025; 2309.550;  154.125;    0.000
850.209; 2188.550;  152.125;    0.000
850.393; 2093.550;  139.125;    0.000
850.577; 2140.550;  128.125;    0.000
850.761; 2172.550;  194.125;    0.000
850.945; 2150.550;  152.125;    0.000
851.129; 2139.550;  157.125;    0.000
851.313; 2082.550;  181.125;    0.000
851.497; 2187.550;  145.125;    0.000
851.680; 2129.550;  168.125;    0.000
851.864; 2160.550;  185.125;    0.000
852.048; 2115.550;  170.125;    0.000
852.232; 2118.550;  192.125;    0.000
852.416; 2133.550;  182.125;    0.000
852.599; 2132.550;  169.125;    0.000
852.783; 2113.550;  168.125;    0.000
852.967; 2141.550;  184.125;    0.000
853.150; 2100.550;  163.125;    0.000
853.334; 2128.550;  164.125;    0.000
853.518; 2111.550;  190.125;    0.000
853.701; 2160.550;  137.125;    0.000
853.885; 2138.550;  177.125;    0.000
854.068; 2063.550;  163.125;    0.000
854.252; 2035.550;  139.125;    0.000
854.435; 2093.550;  152.125;    0.000
854.619; 2059.550;  148.125;    0.000
854.802; 2038.550;  168.125;    0.000
854.986; 2161.550;  157.125;    0.000
855.169; 2077.550;  147.125;    0.000
855.353; 2076.550;  173.125;    0.000
855.536; 2027.550;  127.125;    0.000
855.719; 2096.550;  191.125;    0.000
855.903; 2140.550;  186.125;    0.000
856.086; 2094.550;  145.125;    0.000
856.269; 2165.550;  130.125;    0.000
856.452; 2203.550;  153.125;    0.000
856.636; 2189.550;  129.125;    0.000
856.819; 2345.550;  134.125;    0.000
857.002; 2366.550;  152.125;    0.000
857.185; 2246.550;  140.125;    0.000
857.368; 2255.550;  170.125;    0.000
857.552; 2244.550;  132.125;    0.000
857.735; 2218.550;  160.125;    0.000
857.918; 2128.550;  139.125;    0.000
858.101; 2162.550;  159.125;    0.000
858.284; 2153.550;  136.125;    0.000
858.467; 2297.550;  147.125;    0.000
858.650; 2290.550;  153.125;    0.000
858.833; 2259.550;  113.125;    0.000
859.016; 2322.550;  167.125;    0.000
859.199; 2336.550;  141.125;    0.000
859.382; 2588.550;  155.125;    0.000
859.564; 2612.550;  136.125;    0.000
859.747; 2579.550;  142.125;    0.000
859.930; 2590.550;  141.125;    0.000
860.113; 2511.550;  156.125;    0.000
860.296; 2455.550;  167.125;    0.000
860.478; 2373.550;  121.125;    0.000
860.661; 2393.550;  230.125;    0.000
860.844; 2338.550;  186.125;    0.000
861.027; 2351.550;  155.125;    0.000
861.209; 2357.550;  151.125;    0.000
861.392; 2380.550;  162.125;    0.000
861.575; 2412.550;  150.125;    0.000
861.757; 2394.550;  162.125;    0.000
861.940; 2401.550;  207.125;    0.000
862.122; 2380.550;  113.125;    0.000
862.305; 2457.550;  114.125;    0.000
862.487; 2527.550;  162.125;    0.000
862.670; 2758.550;  148.125;    0.000
862.852; 3008.550;  131.125;    0.000
863.035; 3441.550;  174.125;    0.000
863.217; 3480.550;  170.125;    0.000
863.400; 3193.550;  148.125;    0.000
863.582; 3052.550;  129.125;    0.000
863.764; 2949.550;  181.125;    0.000
863.947; 2848.550;  152.125;    0.000
864.129; 2857.550;  178.125;    0.000
864.311; 2734.550;  139.125;    0.000
864.493; 2733.550;  166.125;    0.000
864.676; 2668.550;  148.125;    0.000
864.858; 2683.550;  123.125;    0.000
865.040; 2688.550;  180.125;    0.000
865.222; 2686.550;  131.125;    0.000
865.404; 2784.550;  146.125;    0.000
865.587; 2845.550;  175.125;    0.000
865.769; 2981.550;  183.125;    0.000
865.951; 2875.550;  171.125;    0.000
866.133; 2902.550;  165.125;    0.000
866.315; 2893.550;  138.125;    0.000
866.497; 2872.550;  139.125;    0.000
866.679; 3008.550;  167.125;    0.000
866.861; 3075.550;  151.125;    0.000
867.043; 3220.550;  190.125;    0.000
867.225; 3340.550;  140.125;    0.000
867.407; 3695.550;  125.125;    0.000
867.589; 3887.550;  141.125;    0.000
867.770; 4683.550;  149.125;    0.000
867.952; 6203.550;  138.125;    0.000
868.134; 7883.550;  153.125;    0.000
868.316; 7961.550;  148.125;    0.000
868.498; 7691.550;  180.125;    0.000
868.679; 6631.550;  152.125;    0.000
868.861; 5803.550;  174.125;    0.000
869.043; 5031.550;  152.125;    0.000
869.224; 4624.550;  177.125;    0.000
869.406; 4177.550;  171.125;    0.000
869.588; 3927.550;  177.125;    0.000
869.769; 3781.550;  174.125;    0.000
869.951; 3689.550;  167.125;    0.000
870.132; 3597.550;  144.125;    0.000
870.314; 3942.550;  143.125;    0.000
870.495; 4017.550;  162.125;    0.000
870.677; 3780.550;  136.125;    0.000
870.858; 3728.550;  155.125;    0.000
871.040; 3702.550;  179.125;    0.000
871.221; 4034.550;  177.125;    0.000
871.403; 3890.550;  180.125;    0.000
871.584; 3777.550;  157.125;    0.000
871.765; 3953.550;  183.125;    0.000
871.947; 4086.550;  169.125;    0.000
872.128; 3638.550;  162.125;    0.000
872.309; 3256.550;  159.125;    0.000
872.491; 3058.550;  148.125;    0.000
872.672; 2994.550;  163.125;    0.000
872.853; 2872.550;  152.125;    0.000
873.034; 2822.550;  166.125;    0.000
873.215; 2745.550;  155.125;    0.000
873.396; 2568.550;  147.125;    0.000
873.578; 2486.550;  147.125;    0.000
873.759; 2491.550;  153.125;    0.000
873.940; 2366.550;  194.125;    0.000
874.121; 2328.550;  179.125;    0.000
874.302; 2321.550;  155.125;    0.000
874.483; 2262.550;  131.125;    0.000
874.664; 2287.550;  106.125;    0.000
874.845; 2284.550;  122.125;    0.000
875.026; 2141.550;  127.125;    0.000
875.207; 2140.550;  151.125;    0.000
875.388; 2168.550;  149.125;    0.000
875.568; 2105.550;  164.125;    0.000
875.749; 2121.550;  176.125;    0.000
875.930; 2122.550;  207.125;    0.000
876.111; 2065.550;  177.125;    0.000
876.292; 2071.550;  178.125;    0.000
876.472; 2050.550;  163.125;    0.000
876.653; 2046.550;  159.125;    0.000
876.834; 2034.550;  177.125;    0.000
877.015; 2034.550;  212.125;    0.000
877.195; 2017.550;  166.125;    0.000
877.376; 2022.550;  157.125;    0.000
877.556; 2010.550;  175.125;    0.000
877.737; 2044.550;  220.125;    0.000
877.918; 2008.550;  163.125;    0.000
878.098; 2016.550;  166.125;    0.000
878.279; 1904.550;  136.125;    0.000
878.459; 1898.550;  167.125;    0.000
878.640; 1985.550;  167.125;    0.000
878.820; 1887.550;  155.125;    0.000
879.000; 1885.550;  158.125;    0.000
879.181; 1865.550;  155.125;    0.000
879.361; 1862.550;  181.125;    0.000
879.542; 1898.550;  181.125;    0.000
879.722; 1847.550;  117.125;    0.000
879.902; 1924.550;  180.125;    0.000
880.083; 1938.550;  139.125;    0.000
880.263; 1916.550;  168.125;    0.000
880.443; 2066.550;  206.125;    0.000
880.623; 2397.550;  132.125;    0.000
880.803; 2699.550;  149.125;    0.000
880.984; 2298.550;  189.125;    0.000
881.164; 2137.550;  171.125;    0.000
881.344; 2066.550;  150.125;    0.000
881.524; 2038.550;  185.125;    0.000
881.704; 2015.550;  152.125;    0.000
881.884; 2116.550;  188.125;    0.000
882.064; 2088.550;  155.125;    0.000
882.244; 2258.550;  182.125;    0.000
882.424; 2180.550;  154.125;    0.000
882.604; 2087.550;  175.125;    0.000
882.784; 2013.550;  137.125;    0.000
882.964; 2001.550;  135.125;    0.000
883.144; 1962.550;  142.125;    0.000
883.324; 1995.550;  192.125;    0.000
883.504; 1989.550;  193.125;    0.000
883.683; 1836.550;  208.125;    0.000
883.863; 1828.550;  127.125;    0.000
884.043; 1830.550;  140.125;    0.000
884.223; 1857.550;  167.125;    0.000
884.402; 1856.550;  156.125;    0.000
884.582; 1829.550;  185.125;    0.000
884.762; 1841.550;  187.125;    0.000
884.941; 1866.550;  201.125;    0.000
885.121; 1862.550;  157.125;    0.000
885.301; 1811.550;  173.125;    0.000
885.480; 1802.550;  158.125;    0.000
885.660; 1880.550;  153.125;    0.000
885.839; 1756.550;  144.125;    0.000
886.019; 1844.550;  184.125;    0.000
886.198; 1679.550;  132.125;    0.000
886.378; 1698.550;  124.125;    0.000
886.557; 1841.550;  146.125;    0.000
886.737; 1745.550;  157.125;    0.000
886.916; 1775.550;  203.125;    0.000
887.095; 1751.550;  151.125;    0.000
887.275; 1800.550;  143.125;    0.000
887.454; 1794.550;  140.125;    0.000
887.633; 1756.550;  196.125;    0.000
887.813; 1753.550;  161.125;    0.000
887.992; 1761.550;  183.125;    0.000
888.171; 1691.550;  153.125;    0.000
888.350; 1810.550;  185.125;    0.000
888.530; 1713.550;  163.125;    0.000
888.709; 1746.550;  174.125;    0.000
888.888; 1764.550;  179.125;    0.000
889.067; 1753.550;  178.125;    0.000
889.246; 1748.550;  184.125;    0.000
889.425; 1822.550;  169.125;    0.000
889.604; 1816.550;  210.125;    0.000
889.783; 1813.550;  183.125;    0.000
889.962; 1716.550;  116.125;    0.000
890.141; 1725.550;  179.125;    0.000
890.320; 1692.550;  182.125;    0.000
890.499; 1699.550;  188.125;    0.000
890.678; 1712.550;  167.125;    0.000
890.857; 1639.550;  141.125;    0.000
891.036; 1776.550;  179.125;    0.000
891.214; 1739.550;  156.125;    0.000
891.393; 1779.550;  209.125;    0.000
891.572; 1749.550;  181.125;    0.000
891.751; 1751.550;  172.125;    0.000
891.930; 1713.550;  169.125;    0.000
892.108; 1745.550;  131.125;    0.000
892.287; 1721.550;  162.125;    0.000
892.466; 1770.550;  178.125;    0.000
892.644; 1759.550;  161.125;    0.000
892.823; 1676.550;  180.125;    0.000
893.001; 1730.550;  179.125;    0.000
893.180; 1692.550;  152.125;    0.000
893.359; 1760.550;  184.125;    0.000
893.537; 1683.550;  178.125;    0.000
893.716; 1755.550;  169.125;    0.000
893.894; 1720.550;  159.125;    0.000
894.073; 1739.550;  179.125;    0.000
894.251; 1739.550;  167.125;    0.000
894.429; 1637.550;  142.125;    0.000
894.608; 1751.550;  166.125;    0.000
894.786; 1693.550;  153.125;    0.000
894.964; 1757.550;  181.125;    0.000
895.143; 1661.550;  161.125;    0.000
895.321; 1750.550;  198.125;    0.000
895.499; 1723.550;  184.125;    0.000
895.677; 1702.550;  178.125;    0.000
895.856; 1720.550;  226.125;    0.000
896.034; 1774.550;  180.125;    0.000
896.212; 1716.550;  200.125;    0.000
896.390; 1705.550;  161.125;    0.000
896.568; 1752.550;  204.125;    0.000
896.746; 1747.550;  136.125;    0.000
896.924; 1690.550;  171.125;    0.000
897.102; 1725.550;  203.125;    0.000
897.280; 1626.550;  142.125;    0.000
897.458; 1783.550;  159.125;    0.000
897.636; 1713.550;  163.125;    0.000
897.814; 1802.550;  137.125;    0.000
897.992; 1802.550;  199.125;    0.000
898.170; 1786.550;  176.125;    0.000
898.348; 1843.550;  195.125;    0.000
898.526; 1810.550;  199.125;    0.000
898.704; 1868.550;  260.125;    0.000
898.882; 1766.550;  185.125;    0.000
899.059; 1800.550;  169.125;    0.000
899.237; 1821.550;  197.125;    0.000
899.415; 1796.550;  207.125;    0.000
899.593; 1801.550;  169.125;    0.000
899.770; 1720.550;  182.125;    0.000
899.948; 1827.550;  198.125;    0.000
900.125; 1816.550;  200.125;    0.000
900.303; 1807.550;  165.125;    0.000
900.481; 1824.550;  182.125;    0.000
900.658; 1929.550;  206.125;    0.000
900.836; 1789.550;  188.125;    0.000
901.013; 1803.550;  169.125;    0.000
901.191; 1819.550;  172.125;    0.000
901.368; 1919.550;  170.125;    0.000
901.546; 1954.550;  234.125;    0.000
901.723; 1986.550;  173.125;    0.000
901.901; 1907.550;  190.125;    0.000
902.078; 1821.550;  145.125;    0.000
902.255; 1867.550;  204.125;    0.000
902.433; 1902.550;  198.125;    0.000
902.610; 1964.550;  190.125;    0.000
902.787; 1967.550;  204.125;    0.000
902.964; 2020.550;  208.125;    0.000
903.142; 2075.550;  187.125;    0.000
903.319; 2104.550;  216.125;    0.000
903.496; 2035.550;  186.125;    0.000
903.673; 2131.550;  201.125;    0.000
903.850; 2129.550;  195.125;    0.000
904.027; 2195.550;  211.125;    0.000
904.204; 2149.550;  197.125;    0.000
904.381; 2309.550;  198.125;    0.000
904.558; 2547.550;  188.125;    0.000
904.735; 2824.550;  207.125;    0.000
904.912; 2765.550;  217.125;    0.000
905.089; 2968.550;  188.125;    0.000
905.266; 2572.550;  160.125;    0.000
905.443; 2587.550;  221.125;    0.000
905.620; 2459.550;  163.125;    0.000
905.797; 2402.550;  186.125;    0.000
905.974; 2389.550;  205.125;    0.000
906.151; 2219.550;  159.125;    0.000
906.327; 2323.550;  206.125;    0.000
906.504; 2327.550;  201.125;    0.000
906.681; 2286.550;  202.125;    0.000
906.858; 2260.550;  188.125;    0.000
907.034; 2205.550;  207.125;    0.000
907.211; 2125.550;  182.125;    0.000
907.388; 2061.550;  184.125;    0.000
907.564; 2018.550;  148.125;    0.000
907.741; 2063.550;  181.125;    0.000
907.917; 2070.550;  191.125;    0.000
908.094; 2076.550;  210.125;    0.000
908.271; 1986.550;  171.125;    0.000
908.447; 2026.550;  241.125;    0.000
908.623; 1947.550;  188.125;    0.000
908.800; 2006.550;  205.125;    0.000
908.976; 1961.550;  210.125;    0.000
909.153; 1982.550;  193.125;    0.000
909.329; 1952.550;  206.125;    0.000
909.505; 1861.550;  181.125;    0.000
909.682; 1924.550;  192.125;    0.000
909.858; 1912.550;  134.125;    0.000
910.034; 1886.550;  214.125;    0.000
910.211; 1891.550;  182.125;    0.000
910.387; 1904.550;  194.125;    0.000
910.563; 1867.550;  199.125;    0.000
910.739; 1945.550;  188.125;    0.000
910.915; 1872.550;  192.125;    0.000
911.091; 1853.550;  198.125;    0.000
911.268; 1851.550;  178.125;    0.000
911.444; 1869.550;  201.125;    0.000
911.620; 1792.550;  181.125;    0.000
911.796; 1785.550;  185.125;    0.000
911.972; 1892.550;  176.125;    0.000
912.148; 1903.550;  196.125;    0.000
912.324; 1950.550;  192.125;    0.000
912.500; 1861.550;  204.125;    0.000
912.676; 1862.550;  164.125;    0.000
912.851; 1861.550;  193.125;    0.000
913.027; 1823.550;  175.125;    0.000
913.203; 1960.550;  193.125;    0.000
913.379; 1850.550;  213.125;    0.000
913.555; 1880.550;  211.125;    0.000
913.730; 1786.550;  194.125;    0.000
913.906; 1781.550;  153.125;    0.000
914.082; 1913.550;  212.125;    0.000
914.258; 1890.550;  194.125;    0.000
914.433; 1827.550;  191.125;    0.000
914.609; 1888.550;  208.125;    0.000
914.784; 1814.550;  176.125;    0.000
914.960; 1808.550;  227.125;    0.000
915.136; 1760.550;  152.125;    0.000
915.311; 1811.550;  171.125;    0.000
915.487; 1847.550;  173.125;    0.000
915.662; 1848.550;  189.125;    0.000
915.838; 1835.550;  179.125;    0.000
916.013; 1897.550;  191.125;    0.000
916.189; 1833.550;  207.125;    0.000
916.364; 1843.550;  194.125;    0.000
916.539; 1895.550;  174.125;    0.000
916.715; 1845.550;  207.125;    0.000
916.890; 1892.550;  193.125;    0.000
917.065; 1840.550;  199.125;    0.000
917.240; 1857.550;  214.125;    0.000
917.416; 1909.550;  194.125;    0.000
917.591; 1832.550;  213.125;    0.000
917.766; 1885.550;  194.125;    0.000
917.941; 1831.550;  201.125;    0.000
918.116; 1910.550;  198.125;    0.000
918.292; 1840.550;  176.125;    0.000
918.467; 1895.550;  190.125;    0.000
918.642; 1838.550;  200.125;    0.000
918.817; 1853.550;  186.125;    0.000
918.992; 1842.550;  174.125;    0.000
919.167; 1911.550;  197.125;    0.000
919.342; 1921.550;  188.125;    0.000
919.517; 1826.550;  179.125;    0.000
919.692; 1878.550;  182.125;    0.000
919.867; 2020.550;  216.125;    0.000
920.041; 1919.550;  208.125;    0.000
920.216; 1958.550;  223.125;    0.000
920.391; 2020.550;  203.125;    0.000
920.566; 1966.550;  202.125;    0.000
920.741; 2001.550;  197.125;    0.000
920.915; 2121.550;  223.125;    0.000
921.090; 2146.550;  183.125;    0.000
921.265; 2303.550;  169.125;    0.000
921.439; 2582.550;  212.125;    0.000
921.614; 2362.550;  190.125;    0.000
921.789; 2268.550;  177.125;    0.000
921.963; 2228.550;  233.125;    0.000
922.138; 2147.550;  156.125;    0.000
922.312; 2086.550;  193.125;    0.000
922.487; 2182.550;  208.125;    0.000
922.661; 2063.550;  212.125;    0.000
922.836; 2371.550;  210.125;    0.000
923.010; 2271.550;  183.125;    0.000
923.185; 2162.550;  228.125;    0.000
923.359; 2162.550;  227.125;    0.000
923.534; 2147.550;  189.125;    0.000
923.708; 2235.550;  210.125;    0.000
923.882; 2323.550;  217.125;    0.000
924.057; 2226.550;  195.125;    0.000
924.231; 2278.550;  201.125;    0.000
924.405; 2235.550;  188.125;    0.000
924.579; 2169.550;  188.125;    0.000
924.753; 2183.550;  174.125;    0.000
924.928; 2034.550;  179.125;    0.000
925.102; 2176.550;  186.125;    0.000
925.276; 2085.550;  201.125;    0.000
925.450; 2090.550;  211.125;    0.000
925.624; 2177.550;  238.125;    0.000
925.798; 2112.550;  191.125;    0.000
925.972; 2155.550;  192.125;    0.000
926.146; 2440.550;  198.125;    0.000
926.320; 2416.550;  151.125;    0.000
926.494; 2578.550;  202.125;    0.000
926.668; 2643.550;  197.125;    0.000
926.842; 2827.550;  177.125;    0.000
927.016; 2767.550;  202.125;    0.000
927.190; 2667.550;  207.125;    0.000
927.363; 2598.550;  180.125;    0.000
927.537; 2607.550;  212.125;    0.000
927.711; 2511.550;  148.125;    0.000
927.885; 2515.550;  196.125;    0.000
928.058; 2475.550;  173.125;    0.000
928.232; 2458.550;  219.125;    0.000
928.406; 2301.550;  141.125;    0.000
928.579; 2415.550;  157.125;    0.000
928.753; 2311.550;  205.125;    0.000
928.927; 2295.550;  196.125;    0.000
929.100; 2284.550;  237.125;    0.000
929.274; 2238.550;  166.125;    0.000
929.447; 2235.550;  150.125;    0.000
929.621; 2127.550;  188.125;    0.000
929.794; 2235.550;  169.125;    0.000
929.968; 2167.550;  194.125;    0.000
930.141; 2266.550;  226.125;    0.000
930.315; 2131.550;  196.125;    0.000
930.488; 2093.550;  233.125;    0.000
930.661; 2105.550;  188.125;    0.000
930.835; 2111.550;  170.125;    0.000
931.008; 1998.550;  176.125;    0.000
931.181; 2039.550;  175.125;    0.000
931.354; 2038.550;  212.125;    0.000
931.528; 2090.550;  177.125;    0.000
931.701; 1995.550;  218.125;    0.000
931.874; 1938.550;  175.125;    0.000
932.047; 1983.550;  157.125;    0.000
932.220; 1960.550;  187.125;    0.000
932.393; 1918.550;  166.125;    0.000
932.566; 1851.550;  168.125;    0.000
932.739; 1892.550;  203.125;    0.000
932.912; 1873.550;  202.125;    0.000
933.085; 1947.550;  209.125;    0.000
933.258; 1910.550;  196.125;    0.000
933.431; 1845.550;  207.125;    0.000
933.604; 1947.550;  201.125;    0.000
933.777; 1982.550;  202.125;    0.000
933.950; 1907.550;  184.125;    0.000
934.123; 1882.550;  167.125;    0.000
934.296; 1908.550;  209.125;    0.000
934.468; 1901.550;  216.125;    0.000
934.641; 1854.550;  156.125;    0.000
934.814; 1893.550;  215.125;    0.000
934.987; 1888.550;  201.125;    0.000
935.159; 1783.550;  176.125;    0.000
935.332; 1826.550;  203.125;    0.000
935.505; 1890.550;  163.125;    0.000
935.677; 1890.550;  169.125;    0.000
935.850; 1843.550;  178.125;    0.000
936.022; 1957.550;  187.125;    0.000
936.195; 1918.550;  207.125;    0.000
936.367; 1890.550;  191.125;    0.000
936.540; 1866.550;  214.125;    0.000
936.712; 1897.550;  202.125;    0.000
936.885; 1938.550;  195.125;    0.000
937.057; 1880.550;  173.125;    0.000
937.229; 1866.550;  179.125;    0.000
937.402; 1978.550;  174.125;    0.000
937.574; 1978.550;  140.125;    0.000
937.746; 1964.550;  153.125;    0.000
937.919; 2075.550;  196.125;    0.000
938.091; 2020.550;  173.125;    0.000
938.263; 2136.550;  206.125;    0.000
938.435; 2278.550;  213.125;    0.000
938.608; 2419.550;  204.125;    0.000
938.780; 2719.550;  199.125;    0.000
938.952; 2907.550;  190.125;    0.000
939.124; 2897.550;  182.125;    0.000
939.296; 3120.550;  188.125;    0.000
939.468; 3183.550;  119.125;    0.000
939.640; 2867.550;  171.125;    0.000
939.812; 2713.550;  222.125;    0.000
939.984; 2442.550;  172.125;    0.000
940.156; 2471.550;  171.125;    0.000
940.328; 2393.550;  215.125;    0.000
940.500; 2325.550;  179.125;    0.000
940.672; 2290.550;  178.125;    0.000
940.843; 2184.550;  193.125;    0.000
941.015; 2157.550;  207.125;    0.000
941.187; 2150.550;  179.125;    0.000
941.359; 2140.550;  191.125;    0.000
941.531; 2108.550;  160.125;    0.000
941.702; 2043.550;  208.125;    0.000
941.874; 2044.550;  143.125;    0.000
942.046; 2014.550;  189.125;    0.000
942.217; 1975.550;  167.125;    0.000
942.389; 2029.550;  199.125;    0.000
942.560; 1957.550;  179.125;    0.000
942.732; 1999.550;  209.125;    0.000
942.904; 2004.550;  180.125;    0.000
943.075; 1841.550;  197.125;    0.000
943.247; 1838.550;  207.125;    0.000
943.418; 1844.550;  183.125;    0.000
943.589; 1887.550;  176.125;    0.000
943.761; 1883.550;  165.125;    0.000
943.932; 1850.550;  170.125;    0.000
944.104; 1874.550;  147.125;    0.000
944.275; 1805.550;  149.125;    0.000
944.446; 1823.550;  191.125;    0.000
944.617; 1795.550;  128.125;    0.000
944.789; 1774.550;  166.125;    0.000
944.960; 1798.550;  195.125;    0.000
945.131; 1814.550;  164.125;    0.000
945.302; 1855.550;  229.125;    0.000
945.473; 1735.550;  153.125;    0.000
945.645; 1830.550;  166.125;    0.000
945.816; 1732.550;  187.125;    0.000
945.987; 1758.550;  193.125;    0.000
946.158; 1843.550;  166.125;    0.000
946.329; 1917.550;  196.125;    0.000
946.500; 1742.550;  152.125;    0.000
946.671; 1779.550;  161.125;    0.000
946.842; 1850.550;  176.125;    0.000
947.013; 1759.550;  188.125;    0.000
947.183; 1834.550;  213.125;    0.000
947.354; 1764.550;  163.125;    0.000
947.525; 1767.550;  204.125;    0.000
947.696; 1768.550;  159.125;    0.000
947.867; 1755.550;  197.125;    0.000
948.037; 1740.550;  174.125;    0.000
948.208; 1767.550;  163.125;    0.000
948.379; 1835.550;  189.125;    0.000
948.550; 1737.550;  173.125;    0.000
948.720; 1651.550;  186.125;    0.000
948.891; 1723.550;  166.125;    0.000
949.061; 1707.550;  197.125;    0.000
949.232; 1711.550;  168.125;    0.000
949.403; 1666.550;  188.125;    0.000
949.573; 1649.550;  164.125;    0.000
949.744; 1695.550;  194.125;    0.000
949.914; 1723.550;  154.125;    0.000
950.085; 1771.550;  197.125;    0.000
950.255; 1670.550;  187.125;    0.000
950.425; 1646.550;  193.125;    0.000
950.596; 1701.550;  182.125;    0.000
950.766; 1715.550;  202.125;    0.000
950.936; 1695.550;  230.125;    0.000
951.107; 1692.550;  133.125;    0.000
951.277; 1726.550;  234.125;    0.000
951.447; 1716.550;  200.125;    0.000
951.617; 1685.550;  212.125;    0.000
951.788; 1689.550;  176.125;    0.000
951.958; 1677.550;  218.125;    0.000
952.128; 1718.550;  198.125;    0.000
952.298; 1699.550;  185.125;    0.000
952.468; 1686.550;  231.125;    0.000
952.638; 1602.550;  213.125;    0.000
952.808; 1596.550;  218.125;    0.000
952.978; 1702.550;  252.125;    0.000
953.148; 1691.550;  200.125;    0.000
953.318; 1684.550;  243.125;    0.000
953.488; 1666.550;  140.125;    0.000
953.658; 1663.550;  208.125;    0.000
953.828; 1724.550;  179.125;    0.000
953.998; 1667.550;  211.125;    0.000
954.167; 1663.550;  197.125;    0.000
954.337; 1668.550;  217.125;    0.000
954.507; 1691.550;  219.125;    0.000
954.677; 1703.550;  201.125;    0.000
954.846; 1603.550;  241.125;    0.000
955.016; 1667.550;  222.125;    0.000
955.186; 1685.550;  200.125;    0.000
955.355; 1687.550;  247.125;    0.000
955.525; 1625.550;  212.125;    0.000
955.695; 1607.550;  200.125;    0.000
955.864; 1657.550;  196.125;    0.000
956.034; 1628.550;  195.125;    0.000
956.203; 1693.550;  243.125;    0.000
956.373; 1630.550;  197.125;    0.000
956.542; 1557.550;  237.125;    0.000
956.711; 1638.550;  249.125;    0.000
956.881; 1659.550;  235.125;    0.000
957.050; 1690.550;  259.125;    0.000
957.220; 1738.550;  234.125;    0.000
957.389; 1634.550;  250.125;    0.000
957.558; 1650.550;  214.125;    0.000
957.727; 1647.550;  225.125;    0.000
957.897; 1622.550;  211.125;    0.000
958.066; 1690.550;  200.125;    0.000
958.235; 1658.550;  202.125;    0.000
958.404; 1666.550;  242.125;    0.000
958.573; 1613.550;  222.125;    0.000
958.743; 1554.550;  191.125;    0.000
958.912; 1588.550;  183.125;    0.000
959.081; 1594.550;  212.125;    0.000
959.250; 1536.550;  192.125;    0.000
959.419; 1604.550;  238.125;    0.000
959.588; 1628.550;  205.125;    0.000
959.757; 1571.550;  213.125;    0.000
959.926; 1628.550;  217.125;    0.000
960.094; 1585.550;  215.125;    0.000
960.263; 1575.550;  220.125;    0.000
960.432; 1585.550;  164.125;    0.000
960.601; 1479.550;  228.125;    0.000
960.770; 1605.550;  176.125;    0.000
960.939; 1586.550;  201.125;    0.000
961.107; 1567.550;  183.125;    0.000
961.276; 1570.550;  199.125;    0.000
961.445; 1527.550;  205.125;    0.000
961.613; 1566.550;  183.125;    0.000
961.782; 1570.550;  216.125;    0.000
961.951; 1539.550;  169.125;    0.000
962.119; 1538.550;  211.125;    0.000
962.288; 1509.550;  204.125;    0.000
962.456; 1470.550;  187.125;    0.000
962.625; 1592.550;  223.125;    0.000
962.793; 1577.550;  200.125;    0.000
962.962; 1568.550;  185.125;    0.000
963.130; 1530.550;  195.125;    0.000
963.298; 1488.550;  187.125;    0.000
963.467; 1573.550;  247.125;    0.000
963.635; 1554.550;  165.125;    0.000
963.803; 1607.550;  192.125;    0.000
963.972; 1666.550;  191.125;    0.000
964.140; 1595.550;  163.125;    0.000
964.308; 1492.550;  161.125;    0.000
964.477; 1560.550;  182.125;    0.000
964.645; 1609.550;  195.125;    0.000
964.813; 1582.550;  165.125;    0.000
964.981; 1497.550;  193.125;    0.000
965.149; 1539.550;  174.125;    0.000
965.317; 1523.550;  194.125;    0.000
965.485; 1514.550;  209.125;    0.000
965.653; 1514.550;  210.125;    0.000
965.821; 1586.550;  194.125;    0.000
965.989; 1557.550;  182.125;    0.000
966.157; 1495.550;  180.125;    0.000
966.325; 1492.550;  198.125;    0.000
966.493; 1570.550;  182.125;    0.000
966.661; 1556.550;  200.125;    0.000
966.829; 1520.550;  190.125;    0.000
966.996; 1519.550;  221.125;    0.000
967.164; 1527.550;  176.125;    0.000
967.332; 1530.550;  228.125;    0.000
967.500; 1533.550;  177.125;    0.000
967.667; 1505.550;  202.125;    0.000
967.835; 1619.550;  220.125;    0.000
968.003; 1597.550;  183.125;    0.000
968.170; 1520.550;  163.125;    0.000
968.338; 1560.550;  162.125;    0.000
968.505; 1604.550;  198.125;    0.000
968.673; 1595.550;  213.125;    0.000
968.841; 1468.550;  131.125;    0.000
969.008; 1559.550;  225.125;    0.000
969.175; 1533.550;  202.125;    0.000
969.343; 1599.550;  222.125;    0.000
969.510; 1519.550;  230.125;    0.000
969.678; 1569.550;  161.125;    0.000
969.845; 1527.550;  208.125;    0.000
970.012; 1616.550;  186.125;    0.000
970.180; 1605.550;  226.125;    0.000
970.347; 1569.550;  222.125;    0.000
970.514; 1518.550;  206.125;    0.000
970.681; 1615.550;  173.125;    0.000
970.849; 1549.550;  190.125;    0.000
971.016; 1608.550;  220.125;    0.000
971.183; 1600.550;  202.125;    0.000
971.350; 1560.550;  196.125;    0.000
971.517; 1563.550;  218.125;    0.000
971.684; 1578.550;  228.125;    0.000
971.851; 1607.550;  235.125;    0.000
972.018; 1617.550;  200.125;    0.000
972.185; 1555.550;  183.125;    0.000
972.352; 1649.550;  216.125;    0.000
972.519; 1626.550;  227.125;    0.000
972.686; 1657.550;  209.125;    0.000
972.853; 1620.550;  157.125;    0.000
973.020; 1609.550;  179.125;    0.000
973.186; 1602.550;  173.125;    0.000
973.353; 1630.550;  189.125;    0.000
973.520; 1602.550;  228.125;    0.000
973.687; 1629.550;  190.125;    0.000
973.853; 1646.550;  197.125;    0.000
974.020; 1588.550;  208.125;    0.000
974.187; 1532.550;  158.125;    0.000
974.353; 1644.550;  201.125;    0.000
974.520; 1518.550;  158.125;    0.000
974.687; 1692.550;  192.125;    0.000
974.853; 1593.550;  177.125;    0.000
975.020; 1563.550;  212.125;    0.000
975.186; 1605.550;  200.125;    0.000
975.353; 1596.550;  208.125;    0.000
975.519; 1553.550;  169.125;    0.000
975.685; 1576.550;  176.125;    0.000
975.852; 1555.550;  201.125;    0.000
976.018; 1588.550;  209.125;    0.000
976.184; 1553.550;  197.125;    0.000
976.351; 1536.550;  196.125;    0.000
976.517; 1635.550;  243.125;    0.000
976.683; 1629.550;  210.125;    0.000
976.849; 1577.550;  226.125;    0.000
977.016; 1580.550;  218.125;    0.000
977.182; 1565.550;  213.125;    0.000
977.348; 1533.550;  205.125;    0.000
977.514; 1582.550;  210.125;    0.000
977.680; 1524.550;  226.125;    0.000
977.846; 1499.550;  206.125;    0.000
978.012; 1564.550;  222.125;    0.000
978.178; 1528.550;  216.125;    0.000
978.344; 1582.550;  172.125;    0.000
978.510; 1499.550;  210.125;    0.000
978.676; 1539.550;  184.125;    0.000
978.842; 1535.550;  190.125;    0.000
979.008; 1423.550;  203.125;    0.000
979.174; 1544.550;  211.125;    0.000
979.340; 1535.550;  190.125;    0.000
979.505; 1565.550;  235.125;    0.000
979.671; 1555.550;  182.125;    0.000
979.837; 1551.550;  235.125;    0.000
980.003; 1569.550;  183.125;    0.000
980.168; 1549.550;  220.125;    0.000
980.334; 1486.550;  161.125;    0.000
980.499; 1559.550;  212.125;    0.000
980.665; 1573.550;  219.125;    0.000
980.831; 1590.550;  201.125;    0.000
980.996; 1610.550;  189.125;    0.000
981.162; 1592.550;  222.125;    0.000
981.327; 1539.550;  173.125;    0.000
981.493; 1612.550;  197.125;    0.000
981.658; 1540.550;  178.125;    0.000
981.823; 1610.550;  196.125;    0.000
981.989; 1495.550;  248.125;    0.000
982.154; 1673.550;  222.125;    0.000
982.319; 1541.550;  226.125;    0.000
982.485; 1551.550;  188.125;    0.000
982.650; 1626.550;  203.125;    0.000
982.815; 1593.550;  237.125;    0.000
982.980; 1590.550;  210.125;    0.000
983.146; 1576.550;  202.125;    0.000
983.311; 1585.550;  195.125;    0.000
983.476; 1630.550;  207.125;    0.000
983.641; 1598.550;  198.125;    0.000
983.806; 1600.550;  136.125;    0.000
983.971; 1639.550;  248.125;    0.000
984.136; 1600.550;  213.125;    0.000
984.301; 1558.550;  181.125;    0.000
984.466; 1614.550;  210.125;    0.000
984.631; 1523.550;  219.125;    0.000
984.796; 1543.550;  207.125;    0.000
984.961; 1579.550;  214.125;    0.000
985.126; 1556.550;  218.125;    0.000
985.291; 1538.550;  214.125;    0.000
985.455; 1547.550;  187.125;    0.000
985.620; 1517.550;  191.125;    0.000
985.785; 1571.550;  190.125;    0.000
985.950; 1581.550;  184.125;    0.000
986.114; 1634.550;  242.125;    0.000
986.279; 1505.550;  251.125;    0.000
986.444; 1646.550;  177.125;    0.000
986.608; 1651.550;  216.125;    0.000
986.773; 1592.550;  211.125;    0.000
986.937; 1694.550;  244.125;    0.000
987.102; 1646.550;  187.125;    0.000
987.266; 1612.550;  178.125;    0.000
987.431; 1607.550;  205.125;    0.000
987.595; 1603.550;  221.125;    0.000
987.760; 1608.550;  205.125;    0.000
987.924; 1644.550;  195.125;    0.000
988.088; 1543.550;  184.125;    0.000
988.253; 1633.550;  188.125;    0.000
988.417; 1547.550;  196.125;    0.000
988.581; 1579.550;  218.125;    0.000
988.746; 1461.550;  203.125;    0.000
988.910; 1555.550;  195.125;    0.000
989.074; 1594.550;  187.125;    0.000
989.238; 1559.550;  243.125;    0.000
989.402; 1563.550;  242.125;    0.000
989.566; 1572.550;  205.125;    0.000
989.731; 1553.550;  195.125;    0.000
989.895; 1576.550;  211.125;    0.000
990.059; 1585.550;  175.125;    0.000
990.223; 1503.550;  176.125;    0.000
990.387; 1559.550;  234.125;    0.000
990.551; 1566.550;  231.125;    0.000
990.714; 1555.550;  209.125;    0.000
990.878; 1630.550;  187.125;    0.000
991.042; 1611.550;  183.125;    0.000
991.206; 1591.550;  216.125;    0.000
991.370; 1630.550;  257.125;    0.000
991.534; 1513.550;  188.125;    0.000
991.697; 1586.550;  203.125;    0.000
991.861; 1535.550;  219.125;    0.000
992.025; 1533.550;  221.125;    0.000
992.188; 1578.550;  188.125;    0.000
992.352; 1638.550;  205.125;    0.000
992.516; 1538.550;  189.125;    0.000
992.679; 1539.550;  207.125;    0.000
992.843; 1552.550;  210.125;    0.000
993.006; 1638.550;  191.125;    0.000
993.170; 1564.550;  228.125;    0.000
993.333; 1572.550;  142.125;    0.000
993.497; 1557.550;  175.125;    0.000
993.660; 1603.550;  220.125;    0.000
993.824; 1636.550;  193.125;    0.000
993.987; 1585.550;  219.125;    0.000
994.150; 1645.550;  166.125;    0.000
994.314; 1558.550;  207.125;    0.000
994.477; 1563.550;  227.125;    0.000
994.640; 1515.550;  210.125;    0.000
994.803; 1570.550;  219.125;    0.000
994.967; 1630.550;  192.125;    0.000
995.130; 1584.550;  197.125;    0.000
995.293; 1607.550;  189.125;    0.000
995.456; 1579.550;  180.125;    0.000
995.619; 1586.550;  239.125;    0.000
995.782; 1546.550;  209.125;    0.000
995.945; 1631.550;  216.125;    0.000
996.108; 1613.550;  198.125;    0.000
996.271; 1559.550;  205.125;    0.000
996.434; 1584.550;  205.125;    0.000
996.597; 1598.550;  208.125;    0.000
996.760; 1545.550;  205.125;    0.000
996.923; 1650.550;  174.125;    0.000
997.086; 1565.550;  198.125;    0.000
997.248; 1605.550;  214.125;    0.000
997.411; 1614.550;  237.125;    0.000
997.574; 1482.550;  182.125;    0.000
997.737; 1492.550;  188.125;    0.000
997.899; 1568.550;  216.125;    0.000
998.062; 1560.550;  210.125;    0.000
998.225; 1500.550;  202.125;    0.000
998.387; 1574.550;  202.125;    0.000
998.550; 1507.550;  193.125;    0.000
998.712; 1525.550;  225.125;    0.000
998.875; 1591.550;  228.125;    0.000
999.037; 1531.550;  186.125;    0.000
999.200; 1620.550;  212.125;    0.000
999.362; 1627.550;  234.125;    0.000
999.525; 1538.550;  170.125;    0.000
999.687; 1541.550;  191.125;    0.000
999.849; 1583.550;  218.125;    0.000
1000.012; 1593.550;  187.125;    0.000
1000.174; 1517.550;  216.125;    0.000
1000.336; 1520.550;  194.125;    0.000
1000.499; 1664.550;  209.125;    0.000
1000.661; 1617.550;  208.125;    0.000
1000.823; 1542.550;  197.125;    0.000
1000.985; 1590.550;  201.125;    0.000
1001.147; 1705.550;  234.125;    0.000
1001.309; 1643.550;  180.125;    0.000
1001.471; 1640.550;  223.125;    0.000
1001.633; 1672.550;  198.125;    0.000
1001.796; 1614.550;  200.125;    0.000
1001.958; 1712.550;  204.125;    0.000
1002.119; 1713.550;  193.125;    0.000
1002.281; 1787.550;  205.125;    0.000
1002.443; 1939.550;  236.125;    0.000
1002.605; 1934.550;  197.125;    0.000
1002.767; 2043.550;  223.125;    0.000
1002.929; 2102.550;  220.125;    0.000
1003.091; 2227.550;  214.125;    0.000
1003.252; 2323.550;  233.125;    0.000
1003.414; 2518.550;  230.125;    0.000
1003.576; 2609.550;  203.125;    0.000
1003.738; 2714.550;  201.125;    0.000
1003.899; 2833.550;  222.125;    0.000
1004.061; 3039.550;  208.125;    0.000
1004.222; 3034.550;  194.125;    0.000
1004.384; 3296.550;  205.125;    0.000
1004.546; 3304.550;  162.125;    0.000
1004.707; 3446.550;  232.125;    0.000
1004.869; 3351.550;  223.125;    0.000
1005.030; 3332.550;  204.125;    0.000
1005.191; 3235.550;  214.125;    0.000
1005.353; 3159.550;  226.125;    0.000
1005.514; 3062.550;  201.125;    0.000
1005.675; 2959.550;  205.125;    0.000
1005.837; 2779.550;  235.125;    0.000
1005.998; 2809.550;  210.125;    0.000
1006.159; 2689.550;  214.125;    0.000
1006.321; 2686.550;  236.125;    0.000
1006.482; 2883.550;  214.125;    0.000
1006.643; 2795.550;  213.125;    0.000
1006.804; 3126.550;  204.125;    0.000
1006.965; 3106.550;  212.125;    0.000
1007.126; 3140.550;  251.125;    0.000
1007.287; 3171.550;  238.125;    0.000
1007.448; 3017.550;  198.125;    0.000
1007.609; 3024.550;  241.125;    0.000
1007.770; 2926.550;  213.125;    0.000
1007.931; 2967.550;  225.125;    0.000
1008.092; 3009.550;  204.125;    0.000
1008.253; 3054.550;  220.125;    0.000
1008.414; 3229.550;  180.125;    0.000
1008.575; 3178.550;  224.125;    0.000
1008.736; 3191.550;  164.125;    0.000
1008.896; 3078.550;  247.125;    0.000
1009.057; 3076.550;  263.125;    0.000
1009.218; 3066.550;  233.125;    0.000
1009.379; 3146.550;  207.125;    0.000
1009.539; 3117.550;  221.125;    0.000
1009.700; 3240.550;  209.125;    0.000
1009.860; 3167.550;  217.125;    0.000
1010.021; 3160.550;  182.125;    0.000
1010.182; 3084.550;  233.125;    0.000
1010.342; 3098.550;  210.125;    0.000
1010.503; 3167.550;  232.125;    0.000
1010.663; 3333.550;  228.125;    0.000
1010.823; 3359.550;  212.125;    0.000
1010.984; 3301.550;  244.125;    0.000
1011.144; 3330.550;  200.125;    0.000
1011.305; 3511.550;  237.125;    0.000
1011.465; 3632.550;  225.125;    0.000
1011.625; 3611.550;  215.125;    0.000
1011.785; 3510.550;  235.125;    0.000
1011.946; 3504.550;  231.125;    0.000
1012.106; 3625.550;  206.125;    0.000
1012.266; 3583.550;  218.125;    0.000
1012.426; 3473.550;  249.125;    0.000
1012.586; 3504.550;  217.125;    0.000
1012.746; 3627.550;  231.125;    0.000
1012.906; 3538.550;  230.125;    0.000
1013.066; 3615.550;  260.125;    0.000
1013.226; 3584.550;  206.125;    0.000
1013.386; 3703.550;  220.125;    0.000
1013.546; 3663.550;  233.125;    0.000
1013.706; 3498.550;  194.125;    0.000
1013.866; 3515.550;  209.125;    0.000
1014.026; 3617.550;  204.125;    0.000
1014.186; 3551.550;  203.125;    0.000
1014.346; 3515.550;  244.125;    0.000
1014.505; 3596.550;  206.125;    0.000
1014.665; 3885.550;  210.125;    0.000
1014.825; 3718.550;  235.125;    0.000
1014.985; 3759.550;  227.125;    0.000
1015.144; 4059.550;  237.125;    0.000
1015.304; 4259.550;  196.125;    0.000
1015.464; 4146.550;  228.125;    0.000
1015.623; 4052.550;  235.125;    0.000
1015.783; 4539.550;  187.125;    0.000
1015.942; 4947.550;  184.125;    0.000
1016.102; 4703.550;  245.125;    0.000
1016.261; 4682.550;  203.125;    0.000
1016.420; 5077.550;  209.125;    0.000
1016.580; 5845.550;  235.125;    0.000
1016.739; 5585.550;  175.125;    0.000
1016.899; 5415.550;  220.125;    0.000
1017.058; 5770.550;  219.125;    0.000
1017.217; 6244.550;  238.125;    0.000
1017.376; 5798.550;  235.125;    0.000
1017.536; 5152.550;  195.125;    0.000
1017.695; 5331.550;  215.125;    0.000
1017.854; 5514.550;  231.125;    0.000
1018.013; 5287.550;  184.125;    0.000
1018.172; 4840.550;  179.125;    0.000
1018.331; 4927.550;  205.125;    0.000
1018.490; 5397.550;  203.125;    0.000
1018.649; 5476.550;  261.125;    0.000
1018.808; 5699.550;  253.125;    0.000
1018.967; 5555.550;  201.125;    0.000
1019.126; 5793.550;  216.125;    0.000
1019.285; 5842.550;  169.125;    0.000
1019.444; 5791.550;  226.125;    0.000
1019.603; 5605.550;  252.125;    0.000
1019.762; 5287.550;  206.125;    0.000
1019.921; 5580.550;  235.125;    0.000
1020.079; 5880.550;  192.125;    0.000
1020.238; 6041.550;  226.125;    0.000
1020.397; 5676.550;  231.125;    0.000
1020.555; 5693.550;  218.125;    0.000
1020.714; 5867.550;  235.125;    0.000
1020.873; 6055.550;  229.125;    0.000
1021.031; 5944.550;  234.125;    0.000
1021.190; 5709.550;  223.125;    0.000
1021.348; 5798.550;  186.125;    0.000
1021.507; 6293.550;  201.125;    0.000
1021.665; 6641.550;  222.125;    0.000
1021.824; 5955.550;  208.125;    0.000
1021.982; 5696.550;  209.125;    0.000
1022.141; 6010.550;  224.125;    0.000
1022.299; 6754.550;  214.125;    0.000
1022.457; 6724.550;  176.125;    0.000
1022.616; 6215.550;  211.125;    0.000
1022.774; 5703.550;  218.125;    0.000
1022.932; 6346.550;  205.125;    0.000
1023.090; 6918.550;  246.125;    0.000
1023.249; 6911.550;  249.125;    0.000
1023.407; 6293.550;  235.125;    0.000
1023.565; 5807.550;  202.125;    0.000
1023.723; 6364.550;  210.125;    0.000
1023.881; 7186.550;  206.125;    0.000
1024.039; 7007.550;  240.125;    0.000
1024.197; 6388.550;  275.125;    0.000
1024.355; 5921.550;  228.125;    0.000
1024.513; 6611.550;  234.125;    0.000
1024.671; 7304.550;  222.125;    0.000
1024.829; 7223.550;  241.125;    0.000
1024.987; 6583.550;  209.125;    0.000
1025.145; 5826.550;  227.125;    0.000
1025.302; 6567.550;  208.125;    0.000
1025.460; 7191.550;  210.125;    0.000
1025.618; 7457.550;  192.125;    0.000
1025.776; 7063.550;  220.125;    0.000
1025.933; 6210.550;  223.125;    0.000
1026.091; 6599.550;  189.125;    0.000
1026.249; 7127.550;  210.125;    0.000
1026.406; 7600.550;  231.125;    0.000
1026.564; 7315.550;  247.125;    0.000
1026.721; 6742.550;  213.125;    0.000
1026.879; 6257.550;  208.125;    0.000
1027.036; 7019.550;  222.125;    0.000
1027.194; 7941.550;  253.125;    0.000
1027.351; 7701.550;  239.125;    0.000
1027.509; 7018.550;  232.125;    0.000
1027.666; 6590.550;  251.125;    0.000
1027.823; 7241.550;  212.125;    0.000
1027.981; 7586.550;  260.125;    0.000
1028.138; 7990.550;  263.125;    0.000
1028.295; 7360.550;  251.125;    0.000
1028.452; 7002.550;  249.125;    0.000
1028.609; 6800.550;  259.125;    0.000
1028.767; 7526.550;  255.125;    0.000
1028.924; 7990.550;  201.125;    0.000
1029.081; 7993.550;  217.125;    0.000
1029.238; 7374.550;  230.125;    0.000
1029.395; 7191.550;  263.125;    0.000
1029.552; 7360.550;  207.125;    0.000
1029.709; 7754.550;  220.125;    0.000
1029.866; 8168.550;  214.125;    0.000
1030.023; 7914.550;  224.125;    0.000
1030.180; 7099.550;  209.125;    0.000
1030.337; 7091.550;  269.125;    0.000
1030.494; 7434.550;  207.125;    0.000
1030.650; 7973.550;  230.125;    0.000
1030.807; 8566.550;  217.125;    0.000
1030.964; 7923.550;  212.125;    0.000
1031.121; 7637.550;  220.125;    0.000
1031.277; 7158.550;  233.125;    0.000
1031.434; 7622.550;  266.125;    0.000
1031.591; 8082.550;  270.125;    0.000
1031.747; 8243.550;  229.125;    0.000
1031.904; 8242.550;  227.125;    0.000
1032.060; 7832.550;  210.125;    0.000
1032.217; 7756.550;  218.125;    0.000
1032.373; 8446.550;  190.125;    0.000
1032.530; 8399.550;  236.125;    0.000
1032.686; 9762.550;  199.125;    0.000
1032.843; 9503.550;  216.125;    0.000
1032.999; 9023.550;  204.125;    0.000
1033.155; 9386.550;  208.125;    0.000
1033.312; 9021.550;  231.125;    0.000
1033.468;10960.550;  213.125;    0.000
1033.624;11447.550;  235.125;    0.000
1033.780;12241.550;  233.125;    0.000
1033.937;12122.550;  201.125;    0.000
1034.093;11332.550;  233.125;    0.000
1034.249;11595.550;  214.125;    0.000
1034.405;11675.550;  245.125;    0.000
1034.561;12258.550;  228.125;    0.000
1034.717;13270.550;  234.125;    0.000
1034.873;13031.550;  248.125;    0.000
1035.029;13609.550;  220.125;    0.000
1035.185;12543.550;  294.125;    0.000
1035.341;11702.550;  231.125;    0.000
1035.497;12872.550;  254.125;    0.000
1035.653;13245.550;  225.125;    0.000
1035.809;14546.550;  243.125;    0.000
1035.964;15901.550;  216.125;    0.000
1036.120;14456.550;  199.125;    0.000
1036.276;15463.550;  220.125;    0.000
1036.432;14418.550;  210.125;    0.000
1036.587;13638.550;  225.125;    0.000
1036.743;14328.550;  245.125;    0.000
1036.899;15981.550;  219.125;    0.000
1037.054;15911.550;  157.125;    0.000
1037.210;18178.551;  208.125;    0.000
1037.365;17576.551;  230.125;    0.000
1037.521;16417.551;  236.125;    0.000
1037.676;16200.550;  193.125;    0.000
1037.832;14843.550;  246.125;    0.000
1037.987;15360.550;  231.125;    0.000
1038.143;15611.550;  234.125;    0.000
1038.298;17806.551;  219.125;    0.000
1038.453;17437.551;  230.125;    0.000
1038.609;19779.551;  254.125;    0.000
1038.764;20095.551;  249.125;    0.000
1038.919;18379.551;  224.125;    0.000
1039.074;18156.551;  209.125;    0.000
1039.229;16422.551;  214.125;    0.000
1039.385;16255.550;  268.125;    0.000
1039.540;16931.551;  268.125;    0.000
1039.695;19195.551;  229.125;    0.000
1039.850;21033.551;  252.125;    0.000
1040.005;22412.551;  248.125;    0.000
1040.160;24513.551;  215.125;    0.000
1040.315;22777.551;  239.125;    0.000
1040.470;21455.551;  210.125;    0.000
1040.625;19520.551;  239.125;    0.000
1040.780;19483.551;  251.125;    0.000
1040.935;19856.551;  247.125;    0.000
1041.089;21196.551;  215.125;    0.000
1041.244;24565.551;  210.125;    0.000
1041.399;25663.551;  237.125;    0.000
1041.554;27497.551;  253.125;    0.000
1041.708;28983.551;  227.125;    0.000
1041.863;27415.551;  219.125;    0.000
1042.018;26782.551;  246.125;    0.000
1042.172;26291.551;  236.125;    0.000
1042.327;23372.551;  272.125;    0.000
1042.481;24677.551;  197.125;    0.000
1042.636;25215.551;  213.125;    0.000
1042.791;25906.551;  250.125;    0.000
1042.945;30809.551;  267.125;    0.000
1043.099;33671.551;  257.125;    0.000
1043.254;31712.551;  206.125;    0.000
1043.408;33521.551;  266.125;    0.000
1043.563;35676.551;  232.125;    0.000
1043.717;32894.551;  241.125;    0.000
1043.871;30497.551;  248.125;    0.000
1044.025;30831.551;  234.125;    0.000
1044.180;29088.551;  222.125;    0.000
1044.334;31469.551;  235.125;    0.000
1044.488;32326.551;  270.125;    0.000
1044.642;31756.551;  215.125;    0.000
1044.796;36137.551;  212.125;    0.000
1044.950;39407.551;  228.125;    0.000
1045.104;43016.551;  223.125;    0.000
1045.258;42670.551;  236.125;    0.000
1045.412;43165.551;  225.125;    0.000
1045.566;42282.551;  245.125;    0.000
1045.720;39217.551;  201.125;    0.000
1045.874;36885.551;  229.125;    0.000
1046.028;33342.551;  243.125;    0.000
1046.182;34832.551;  212.125;    0.000
1046.336;36970.551;  256.125;    0.000
1046.489;37822.551;  234.125;    0.000
1046.643;40184.551;  246.125;    0.000
1046.797;42846.551;  219.125;    0.000
1046.951;43669.551;  231.125;    0.000
1047.104;45048.551;  285.125;    0.000
1047.258;47234.551;  256.125;    0.000
1047.411;50273.551;  232.125;    0.000
1047.565;48892.551;  269.125;    0.000
1047.719;46210.551;  213.125;    0.000
1047.872;43979.551;  210.125;    0.000
1048.026;42162.551;  251.125;    0.000
1048.179;41686.551;  213.125;    0.000
1048.332;42167.551;  212.125;    0.000
1048.486;42218.551;  218.125;    0.000
1048.639;41441.551;  218.125;    0.000
1048.792;43836.551;  247.125;    0.000
1048.946;49092.551;  208.125;    0.000
1049.099;54481.551;  247.125;    0.000
1049.252;54530.551;  274.125;    0.000
1049.406;49674.551;  232.125;    0.000
1049.559;51903.551;  251.125;    0.000
1049.712;54881.551;  243.125;    0.000
1049.865;60346.551;  219.125;    0.000
1050.018;58638.551;  216.125;    0.000
1050.171;50654.551;  237.125;    0.000
1050.324;47949.551;  291.125;    0.000
1050.477;51350.551;  241.125;    0.000
1050.630;55462.551;  245.125;    0.000
1050.783;57278.551;  213.125;    0.000
1050.936;54122.551;  246.125;    0.000
1051.089;51918.551;  255.125;    0.000
1051.242;52880.551;  228.125;    0.000
1051.394;59464.551;  276.125;    0.000
1051.547;62234.551;  246.125;    0.000
1051.700;59462.551;  252.125;    0.000
1051.853;57578.551;  267.125;    0.000
1052.005;62137.551;  261.125;    0.000
1052.158;65086.551;  313.125;    0.000
1052.311;65086.551;  264.125;    0.000
1052.463;65086.551;  271.125;    0.000
1052.616;62304.551;  291.125;    0.000
1052.768;55176.551;  298.125;    0.000
1052.921;53392.551;  262.125;    0.000
1053.073;59237.551;  307.125;    0.000
1053.226;65086.551;  301.125;    0.000
1053.378;65086.551;  309.125;    0.000
1053.531;65086.551;  280.125;    0.000
1053.683;65086.551;  258.125;    0.000
1053.835;63694.551;  267.125;    0.000
1053.988;49658.551;  294.125;    0.000
1054.140; 9105.550;  292.125;    0.000
1054.292; 2114.550;  249.125;    0.000
1054.444; 1626.550;  288.125;    0.000
1054.596; 1516.550;  275.125;    0.000
1054.749; 1300.550;  284.125;    0.000
1054.901; 1266.550;  291.125;    0.000
1055.053; 1152.550;  274.125;    0.000
1055.205; 1108.550;  313.125;    0.000
1055.357; 1041.550;  309.125;    0.000
1055.509; 1009.550;  283.125;    0.000
1055.661;  936.550;  341.125;    0.000
1055.813;  885.550;  288.125;    0.000
1055.965;  855.550;  300.125;    0.000
1056.116;  818.550;  296.125;    0.000
1056.268;  872.550;  319.125;    0.000
1056.420;  859.550;  298.125;    0.000

