
Integration time [ms]:   1.000
Averaging Nr. [scans]: 1
Smoothing Nr. [pixels]: 0
Data measured with spectrometer [name]: VIS
Wave   ;Sample   ;Dark     ;Reference
[nm]   ;[counts] ;[counts] ;[counts] 

450.961;  204.700;  200.375;    0.000
451.100;  218.700;  241.375;    0.000
451.239;  212.700;  201.375;    0.000
451.377;  252.700;  262.375;    0.000
451.516;  181.700;  229.375;    0.000
451.655;  233.700;  211.375;    0.000
451.794;  212.700;  225.375;    0.000
451.932;  205.700;  247.375;    0.000
452.071;  225.700;  260.375;    0.000
452.210;  211.700;  235.375;    0.000
452.348;  179.700;  276.375;    0.000
452.487;  249.700;  259.375;    0.000
452.626;  211.700;  254.375;    0.000
452.764;  217.700;  233.375;    0.000
452.903;  220.700;  202.375;    0.000
453.042;  290.700;  211.375;    0.000
453.180; 4069.700;  240.375;    0.000
453.319; 4132.700;  238.375;    0.000
453.458; 4247.700;  215.375;    0.000
453.596; 4193.700;  252.375;    0.000
453.735; 4220.700;  240.375;    0.000
453.873; 4371.700;  257.375;    0.000
454.012; 4399.700;  228.375;    0.000
454.150; 4436.700;  270.375;    0.000
454.289; 4405.700;  233.375;    0.000
454.427; 4505.700;  243.375;    0.000
454.566; 4570.700;  257.375;    0.000
454.704; 4656.700;  243.375;    0.000
454.843; 4649.700;  190.375;    0.000
454.981; 4597.700;  271.375;    0.000
455.120; 4601.700;  210.375;    0.000
455.258; 4914.700;  235.375;    0.000
455.397; 4955.700;  214.375;    0.000
455.535; 4865.700;  214.375;    0.000
455.674; 4885.700;  184.375;    0.000
455.812; 4907.700;  228.375;    0.000
455.951; 4956.700;  204.375;    0.000
456.089; 4964.700;  220.375;    0.000
456.227; 5045.700;  196.375;    0.000
456.366; 5089.700;  261.375;    0.000
456.504; 5140.700;  249.375;    0.000
456.642; 5297.700;  245.375;    0.000
456.781; 5217.700;  183.375;    0.000
456.919; 5385.700;  203.375;    0.000
457.057; 5327.700;  177.375;    0.000
457.196; 5373.700;  191.375;    0.000
457.334; 5459.700;  233.375;    0.000
457.472; 5527.700;  214.375;    0.000
457.610; 5679.700;  230.375;    0.000
457.749; 5712.700;  247.375;    0.000
457.887; 5873.700;  220.375;    0.000
458.025; 5902.700;  195.375;    0.000
458.163; 5888.700;  224.375;    0.000
458.301; 6022.700;  228.375;    0.000
458.440; 6115.700;  200.375;    0.000
458.578; 6297.700;  233.375;    0.000
458.716; 6286.700;  182.375;    0.000
458.854; 6473.700;  251.375;    0.000
458.992; 6536.700;  187.375;    0.000
459.130; 6628.700;  229.375;    0.000
459.269; 6663.700;  237.375;    0.000
459.407; 6908.700;  228.375;    0.000
459.545; 6797.700;  216.375;    0.000
459.683; 6929.700;  204.375;    0.000
459.821; 7077.700;  191.375;    0.000
459.959; 7156.700;  227.375;    0.000
460.097; 7359.700;  221.375;    0.000
460.235; 7505.700;  241.375;    0.000
460.373; 7299.700;  231.375;    0.000
460.511; 7585.700;  214.375;    0.000
460.649; 7443.700;  172.375;    0.000
460.787; 7542.700;  275.375;    0.000
460.925; 7539.700;  175.375;    0.000
461.063; 7600.700;  252.375;    0.000
461.201; 7709.700;  210.375;    0.000
461.339; 7798.700;  237.375;    0.000
461.477; 7548.700;  210.375;    0.000
461.615; 7920.700;  236.375;    0.000
461.753; 7925.700;  215.375;    0.000
461.891; 8055.700;  222.375;    0.000
462.029; 8184.700;  227.375;    0.000
462.166; 8391.700;  202.375;    0.000
462.304; 8299.700;  191.375;    0.000
462.442; 8637.700;  210.375;    0.000
462.580; 8684.700;  184.375;    0.000
462.718; 8815.700;  220.375;    0.000
462.856; 8864.700;  226.375;    0.000
462.993; 8840.700;  254.375;    0.000
463.131; 8823.700;  200.375;    0.000
463.269; 8797.700;  215.375;    0.000
463.407; 8398.700;  213.375;    0.000
463.545; 8471.700;  242.375;    0.000
463.682; 8431.700;  212.375;    0.000
463.820; 8660.700;  185.375;    0.000
463.958; 9143.700;  212.375;    0.000
464.095; 9226.700;  181.375;    0.000
464.233; 9246.700;  192.375;    0.000
464.371; 9332.700;  247.375;    0.000
464.509; 9073.700;  151.375;    0.000
464.646; 9080.700;  207.375;    0.000
464.784; 9002.700;  199.375;    0.000
464.921; 8766.700;  253.375;    0.000
465.059; 8681.700;  214.375;    0.000
465.197; 8499.700;  200.375;    0.000
465.334; 8345.700;  180.375;    0.000
465.472; 8176.700;  204.375;    0.000
465.609; 8214.700;  203.375;    0.000
465.747; 8005.700;  214.375;    0.000
465.885; 7940.700;  233.375;    0.000
466.022; 7941.700;  215.375;    0.000
466.160; 7781.700;  201.375;    0.000
466.297; 7792.700;  196.375;    0.000
466.435; 7655.700;  230.375;    0.000
466.572; 7805.700;  227.375;    0.000
466.710; 7819.700;  218.375;    0.000
466.847; 7851.700;  245.375;    0.000
466.985; 7529.700;  223.375;    0.000
467.122; 7548.700;  168.375;    0.000
467.260; 7791.700;  196.375;    0.000
467.397; 7474.700;  198.375;    0.000
467.534; 7586.700;  219.375;    0.000
467.672; 7643.700;  214.375;    0.000
467.809; 7499.700;  185.375;    0.000
467.947; 7582.700;  247.375;    0.000
468.084; 7548.700;  196.375;    0.000
468.221; 7560.700;  238.375;    0.000
468.359; 7454.700;  236.375;    0.000
468.496; 7616.700;  235.375;    0.000
468.633; 7600.700;  218.375;    0.000
468.771; 7673.700;  223.375;    0.000
468.908; 7573.700;  208.375;    0.000
469.045; 7810.700;  249.375;    0.000
469.183; 7749.700;  222.375;    0.000
469.320; 7865.700;  216.375;    0.000
469.457; 7899.700;  224.375;    0.000
469.594; 7977.700;  259.375;    0.000
469.732; 8066.700;  223.375;    0.000
469.869; 8025.700;  234.375;    0.000
470.006; 8193.700;  225.375;    0.000
470.143; 8398.700;  243.375;    0.000
470.280; 8377.700;  208.375;    0.000
470.417; 8282.700;  232.375;    0.000
470.555; 8431.700;  218.375;    0.000
470.692; 8301.700;  223.375;    0.000
470.829; 8328.700;  238.375;    0.000
470.966; 8249.700;  205.375;    0.000
471.103; 8302.700;  259.375;    0.000
471.240; 8270.700;  214.375;    0.000
471.377; 8245.700;  226.375;    0.000
471.514; 8125.700;  250.375;    0.000
471.651; 8149.700;  221.375;    0.000
471.789; 8042.700;  242.375;    0.000
471.926; 8064.700;  190.375;    0.000
472.063; 8023.700;  234.375;    0.000
472.200; 7961.700;  252.375;    0.000
472.337; 7993.700;  241.375;    0.000
472.474; 7888.700;  244.375;    0.000
472.611; 7845.700;  268.375;    0.000
472.748; 7890.700;  222.375;    0.000
472.884; 7811.700;  271.375;    0.000
473.021; 7885.700;  195.375;    0.000
473.158; 7761.700;  205.375;    0.000
473.295; 7749.700;  223.375;    0.000
473.432; 7782.700;  216.375;    0.000
473.569; 7716.700;  196.375;    0.000
473.706; 7813.700;  190.375;    0.000
473.843; 7791.700;  211.375;    0.000
473.980; 7851.700;  254.375;    0.000
474.117; 7590.700;  185.375;    0.000
474.253; 7835.700;  229.375;    0.000
474.390; 7953.700;  238.375;    0.000
474.527; 7878.700;  220.375;    0.000
474.664; 8030.700;  242.375;    0.000
474.801; 7958.700;  229.375;    0.000
474.937; 7856.700;  229.375;    0.000
475.074; 8035.700;  210.375;    0.000
475.211; 7946.700;  219.375;    0.000
475.348; 8160.700;  226.375;    0.000
475.484; 8050.700;  207.375;    0.000
475.621; 7997.700;  233.375;    0.000
475.758; 7994.700;  230.375;    0.000
475.894; 8086.700;  234.375;    0.000
476.031; 8057.700;  202.375;    0.000
476.168; 7990.700;  222.375;    0.000
476.304; 8087.700;  237.375;    0.000
476.441; 8186.700;  238.375;    0.000
476.578; 8060.700;  216.375;    0.000
476.714; 8133.700;  212.375;    0.000
476.851; 8224.700;  210.375;    0.000
476.987; 8286.700;  239.375;    0.000
477.124; 8402.700;  250.375;    0.000
477.261; 8413.700;  227.375;    0.000
477.397; 8539.700;  189.375;    0.000
477.534; 8633.700;  204.375;    0.000
477.670; 8580.700;  190.375;    0.000
477.807; 8714.700;  198.375;    0.000
477.943; 8699.700;  216.375;    0.000
478.080; 8840.700;  213.375;    0.000
478.216; 8941.700;  239.375;    0.000
478.353; 8869.700;  218.375;    0.000
478.489; 9012.700;  184.375;    0.000
478.626; 9062.700;  223.375;    0.000
478.762; 9211.700;  213.375;    0.000
478.898; 9285.700;  216.375;    0.000
479.035; 9353.700;  250.375;    0.000
479.171; 9217.700;  201.375;    0.000
479.308; 9056.700;  242.375;    0.000
479.444; 8990.700;  205.375;    0.000
479.580; 9223.700;  203.375;    0.000
479.717; 9303.700;  260.375;    0.000
479.853; 9395.700;  225.375;    0.000
479.989; 9331.700;  226.375;    0.000
480.126; 9482.700;  211.375;    0.000
480.262; 9604.700;  220.375;    0.000
480.398; 9608.700;  207.375;    0.000
480.535; 9538.700;  179.375;    0.000
480.671; 9384.700;  200.375;    0.000
480.807; 9464.700;  190.375;    0.000
480.943; 9387.700;  165.375;    0.000
481.080; 9269.700;  210.375;    0.000
481.216; 9362.700;  232.375;    0.000
481.352; 9115.700;  235.375;    0.000
481.488; 9293.700;  208.375;    0.000
481.624; 9214.700;  245.375;    0.000
481.760; 9187.700;  210.375;    0.000
481.897; 9032.700;  189.375;    0.000
482.033; 9074.700;  256.375;    0.000
482.169; 9303.700;  257.375;    0.000
482.305; 9348.700;  199.375;    0.000
482.441; 9106.700;  182.375;    0.000
482.577; 9123.700;  223.375;    0.000
482.713; 9174.700;  243.375;    0.000
482.849; 9132.700;  197.375;    0.000
482.985; 9381.700;  240.375;    0.000
483.121; 9152.700;  210.375;    0.000
483.258; 9198.700;  248.375;    0.000
483.394; 9098.700;  224.375;    0.000
483.530; 9289.700;  209.375;    0.000
483.665; 9193.700;  225.375;    0.000
483.801; 9285.700;  216.375;    0.000
483.937; 9384.700;  211.375;    0.000
484.073; 9416.700;  259.375;    0.000
484.209; 9551.700;  191.375;    0.000
484.345; 9517.700;  239.375;    0.000
484.481; 9429.700;  231.375;    0.000
484.617; 9509.700;  216.375;    0.000
484.753; 9505.700;  180.375;    0.000
484.889; 9652.700;  252.375;    0.000
485.025; 9513.700;  244.375;    0.000
485.161; 9565.700;  242.375;    0.000
485.296; 9681.700;  235.375;    0.000
485.432; 9629.700;  247.375;    0.000
485.568; 9721.700;  203.375;    0.000
485.704; 9727.700;  229.375;    0.000
485.840; 9727.700;  230.375;    0.000
485.975; 9695.700;  266.375;    0.000
486.111; 9695.700;  220.375;    0.000
486.247; 9555.700;  264.375;    0.000
486.383; 9690.700;  213.375;    0.000
486.518; 9596.700;  222.375;    0.000
486.654; 9662.700;  244.375;    0.000
486.790; 9634.700;  273.375;    0.000
486.926; 9696.700;  203.375;    0.000
487.061; 9720.700;  227.375;    0.000
487.197; 9603.700;  210.375;    0.000
487.333; 9540.700;  209.375;    0.000
487.468; 9604.700;  197.375;    0.000
487.604; 9499.700;  230.375;    0.000
487.740; 9525.700;  254.375;    0.000
487.875; 9500.700;  286.375;    0.000
488.011; 9601.700;  225.375;    0.000
488.146; 9521.700;  251.375;    0.000
488.282; 9596.700;  242.375;    0.000
488.417; 9517.700;  230.375;    0.000
488.553; 9549.700;  260.375;    0.000
488.688; 9567.700;  207.375;    0.000
488.824; 9595.700;  204.375;    0.000
488.960; 9591.700;  248.375;    0.000
489.095; 9513.700;  204.375;    0.000
489.230; 9693.700;  227.375;    0.000
489.366; 9632.700;  226.375;    0.000
489.501; 9610.700;  199.375;    0.000
489.637; 9548.700;  233.375;    0.000
489.772; 9477.700;  249.375;    0.000
489.908; 9501.700;  200.375;    0.000
490.043; 9343.700;  246.375;    0.000
490.178; 9760.700;  222.375;    0.000
490.314; 9689.700;  219.375;    0.000
490.449; 9537.700;  227.375;    0.000
490.585; 9601.700;  209.375;    0.000
490.720; 9500.700;  238.375;    0.000
490.855; 9449.700;  222.375;    0.000
490.991; 9427.700;  202.375;    0.000
491.126; 9473.700;  272.375;    0.000
491.261; 9345.700;  261.375;    0.000
491.396; 9201.700;  190.375;    0.000
491.532; 9249.700;  202.375;    0.000
491.667; 9254.700;  208.375;    0.000
491.802; 9463.700;  203.375;    0.000
491.937; 9375.700;  253.375;    0.000
492.073; 9623.700;  242.375;    0.000
492.208; 9519.700;  230.375;    0.000
492.343; 9458.700;  183.375;    0.000
492.478; 9602.700;  246.375;    0.000
492.613; 9492.700;  223.375;    0.000
492.749; 9392.700;  230.375;    0.000
492.884; 9518.700;  190.375;    0.000
493.019; 9566.700;  234.375;    0.000
493.154; 9456.700;  218.375;    0.000
493.289; 9505.700;  222.375;    0.000
493.424; 9731.700;  196.375;    0.000
493.559; 9724.700;  202.375;    0.000
493.694; 9432.700;  180.375;    0.000
493.829; 9477.700;  224.375;    0.000
493.964; 9471.700;  218.375;    0.000
494.099; 9636.700;  275.375;    0.000
494.234; 9625.700;  226.375;    0.000
494.369; 9447.700;  225.375;    0.000
494.504; 9421.700;  219.375;    0.000
494.639; 9410.700;  296.375;    0.000
494.774; 9339.700;  228.375;    0.000
494.909; 9299.700;  222.375;    0.000
495.044; 9492.700;  215.375;    0.000
495.179; 9389.700;  200.375;    0.000
495.314; 9372.700;  235.375;    0.000
495.449; 9416.700;  249.375;    0.000
495.584; 9402.700;  228.375;    0.000
495.719; 9603.700;  212.375;    0.000
495.854; 9669.700;  201.375;    0.000
495.988; 9487.700;  248.375;    0.000
496.123; 9421.700;  209.375;    0.000
496.258; 9586.700;  249.375;    0.000
496.393; 9580.700;  223.375;    0.000
496.528; 9829.700;  209.375;    0.000
496.663; 9676.700;  207.375;    0.000
496.797; 9819.700;  229.375;    0.000
496.932; 9790.700;  225.375;    0.000
497.067;10125.700;  218.375;    0.000
497.202; 9997.700;  163.375;    0.000
497.336;10161.700;  246.375;    0.000
497.471;10120.700;  229.375;    0.000
497.606;10394.700;  251.375;    0.000
497.740;10429.700;  220.375;    0.000
497.875;10851.700;  216.375;    0.000
498.010;10843.700;  226.375;    0.000
498.144;11007.700;  237.375;    0.000
498.279;11322.700;  196.375;    0.000
498.414;11461.700;  219.375;    0.000
498.548;11798.700;  205.375;    0.000
498.683;12034.700;  206.375;    0.000
498.817;12232.700;  225.375;    0.000
498.952;12784.700;  221.375;    0.000
499.087;13135.700;  220.375;    0.000
499.221;13414.700;  233.375;    0.000
499.356;14010.700;  230.375;    0.000
499.490;14269.700;  229.375;    0.000
499.625;15187.700;  231.375;    0.000
499.759;15522.700;  243.375;    0.000
499.894;16386.699;  241.375;    0.000
500.028;16784.699;  264.375;    0.000
500.162;17587.699;  287.375;    0.000
500.297;17886.699;  234.375;    0.000
500.431;17900.699;  230.375;    0.000
500.566;17778.699;  213.375;    0.000
500.700;17645.699;  243.375;    0.000
500.835;17222.699;  272.375;    0.000
500.969;16312.700;  188.375;    0.000
501.103;15743.700;  200.375;    0.000
501.238;15284.700;  257.375;    0.000
501.372;14599.700;  224.375;    0.000
501.506;13980.700;  225.375;    0.000
501.641;13401.700;  271.375;    0.000
501.775;12928.700;  199.375;    0.000
501.909;12387.700;  249.375;    0.000
502.043;12336.700;  211.375;    0.000
502.178;12043.700;  269.375;    0.000
502.312;11619.700;  198.375;    0.000
502.446;11407.700;  256.375;    0.000
502.580;11196.700;  195.375;    0.000
502.715;10953.700;  224.375;    0.000
502.849;10698.700;  245.375;    0.000
502.983;10706.700;  250.375;    0.000
503.117;10420.700;  193.375;    0.000
503.251;10265.700;  242.375;    0.000
503.385;10225.700;  227.375;    0.000
503.520; 9964.700;  235.375;    0.000
503.654; 9706.700;  220.375;    0.000
503.788; 9767.700;  267.375;    0.000
503.922; 9591.700;  220.375;    0.000
504.056; 9787.700;  238.375;    0.000
504.190; 9715.700;  212.375;    0.000
504.324; 9618.700;  265.375;    0.000
504.458; 9606.700;  228.375;    0.000
504.592; 9532.700;  231.375;    0.000
504.726; 9270.700;  218.375;    0.000
504.860; 9126.700;  253.375;    0.000
504.994; 8948.700;  217.375;    0.000
505.128; 8838.700;  243.375;    0.000
505.262; 8673.700;  194.375;    0.000
505.396; 8498.700;  210.375;    0.000
505.530; 8446.700;  211.375;    0.000
505.664; 8335.700;  219.375;    0.000
505.798; 8188.700;  240.375;    0.000
505.932; 8183.700;  240.375;    0.000
506.066; 8144.700;  252.375;    0.000
506.199; 8086.700;  242.375;    0.000
506.333; 7910.700;  244.375;    0.000
506.467; 7777.700;  223.375;    0.000
506.601; 7794.700;  183.375;    0.000
506.735; 7687.700;  249.375;    0.000
506.869; 7766.700;  270.375;    0.000
507.002; 7800.700;  207.375;    0.000
507.136; 7465.700;  242.375;    0.000
507.270; 7604.700;  232.375;    0.000
507.404; 7524.700;  195.375;    0.000
507.537; 7478.700;  218.375;    0.000
507.671; 7409.700;  246.375;    0.000
507.805; 7357.700;  244.375;    0.000
507.939; 7477.700;  251.375;    0.000
508.072; 7321.700;  212.375;    0.000
508.206; 7282.700;  198.375;    0.000
508.340; 7303.700;  234.375;    0.000
508.473; 7273.700;  217.375;    0.000
508.607; 7115.700;  224.375;    0.000
508.740; 7035.700;  207.375;    0.000
508.874; 7228.700;  230.375;    0.000
509.008; 7138.700;  246.375;    0.000
509.141; 7155.700;  239.375;    0.000
509.275; 7040.700;  229.375;    0.000
509.408; 7092.700;  234.375;    0.000
509.542; 6953.700;  212.375;    0.000
509.675; 6920.700;  256.375;    0.000
509.809; 6982.700;  232.375;    0.000
509.942; 7043.700;  237.375;    0.000
510.076; 6983.700;  226.375;    0.000
510.209; 6935.700;  251.375;    0.000
510.343; 6861.700;  229.375;    0.000
510.476; 7050.700;  285.375;    0.000
510.610; 6912.700;  211.375;    0.000
510.743; 6816.700;  258.375;    0.000
510.877; 6914.700;  244.375;    0.000
511.010; 6669.700;  235.375;    0.000
511.143; 6810.700;  251.375;    0.000
511.277; 6715.700;  228.375;    0.000
511.410; 6845.700;  216.375;    0.000
511.543; 6840.700;  231.375;    0.000
511.677; 6773.700;  244.375;    0.000
511.810; 6492.700;  186.375;    0.000
511.943; 6668.700;  211.375;    0.000
512.077; 6669.700;  201.375;    0.000
512.210; 6549.700;  194.375;    0.000
512.343; 6675.700;  233.375;    0.000
512.476; 6647.700;  234.375;    0.000
512.610; 6669.700;  224.375;    0.000
512.743; 6755.700;  255.375;    0.000
512.876; 6727.700;  264.375;    0.000
513.009; 6766.700;  283.375;    0.000
513.142; 6796.700;  246.375;    0.000
513.276; 6683.700;  217.375;    0.000
513.409; 6784.700;  222.375;    0.000
513.542; 6750.700;  237.375;    0.000
513.675; 6676.700;  238.375;    0.000
513.808; 6505.700;  220.375;    0.000
513.941; 6792.700;  233.375;    0.000
514.074; 6651.700;  248.375;    0.000
514.207; 6636.700;  233.375;    0.000
514.340; 6565.700;  190.375;    0.000
514.474; 6615.700;  221.375;    0.000
514.607; 6703.700;  213.375;    0.000
514.740; 6760.700;  251.375;    0.000
514.873; 6781.700;  257.375;    0.000
515.006; 6717.700;  268.375;    0.000
515.139; 6768.700;  257.375;    0.000
515.272; 6730.700;  227.375;    0.000
515.404; 6787.700;  238.375;    0.000
515.537; 6925.700;  275.375;    0.000
515.670; 7025.700;  239.375;    0.000
515.803; 7013.700;  223.375;    0.000
515.936; 6986.700;  202.375;    0.000
516.069; 7102.700;  188.375;    0.000
516.202; 7209.700;  240.375;    0.000
516.335; 7359.700;  252.375;    0.000
516.468; 7719.700;  254.375;    0.000
516.600; 9026.700;  254.375;    0.000
516.733;11244.700;  255.375;    0.000
516.866;10859.700;  265.375;    0.000
516.999; 9634.700;  251.375;    0.000
517.132;12268.700;  256.375;    0.000
517.264;16844.699;  202.375;    0.000
517.397;15869.700;  248.375;    0.000
517.530;11578.700;  221.375;    0.000
517.663; 9812.700;  244.375;    0.000
517.795; 9363.700;  245.375;    0.000
517.928; 9003.700;  236.375;    0.000
518.061; 9173.700;  219.375;    0.000
518.193;12122.700;  251.375;    0.000
518.326;19459.699;  271.375;    0.000
518.459;19996.699;  207.375;    0.000
518.591;14266.700;  217.375;    0.000
518.724;10503.700;  200.375;    0.000
518.857; 9150.700;  204.375;    0.000
518.989; 8638.700;  242.375;    0.000
519.122; 8137.700;  254.375;    0.000
519.254; 7756.700;  239.375;    0.000
519.387; 7528.700;  235.375;    0.000
519.519; 7422.700;  227.375;    0.000
519.652; 7202.700;  178.375;    0.000
519.784; 7089.700;  226.375;    0.000
519.917; 6865.700;  256.375;    0.000
520.049; 6825.700;  234.375;    0.000
520.182; 6746.700;  258.375;    0.000
520.314; 6886.700;  298.375;    0.000
520.447; 7179.700;  204.375;    0.000
520.579; 7385.700;  235.375;    0.000
520.712; 7363.700;  208.375;    0.000
520.844; 7412.700;  272.375;    0.000
520.976; 6876.700;  234.375;    0.000
521.109; 6472.700;  235.375;    0.000
521.241; 6453.700;  250.375;    0.000
521.373; 6252.700;  233.375;    0.000
521.506; 6233.700;  231.375;    0.000
521.638; 6309.700;  258.375;    0.000
521.770; 6215.700;  226.375;    0.000
521.903; 5985.700;  258.375;    0.000
522.035; 6075.700;  263.375;    0.000
522.167; 5995.700;  214.375;    0.000
522.300; 6087.700;  212.375;    0.000
522.432; 5798.700;  220.375;    0.000
522.564; 5959.700;  228.375;    0.000
522.696; 6016.700;  272.375;    0.000
522.828; 5950.700;  222.375;    0.000
522.961; 5926.700;  205.375;    0.000
523.093; 5890.700;  253.375;    0.000
523.225; 5918.700;  239.375;    0.000
523.357; 5979.700;  263.375;    0.000
523.489; 5810.700;  264.375;    0.000
523.621; 5840.700;  259.375;    0.000
523.753; 5734.700;  233.375;    0.000
523.885; 5728.700;  232.375;    0.000
524.018; 5610.700;  214.375;    0.000
524.150; 5744.700;  235.375;    0.000
524.282; 5721.700;  242.375;    0.000
524.414; 5696.700;  261.375;    0.000
524.546; 5625.700;  233.375;    0.000
524.678; 5714.700;  242.375;    0.000
524.810; 5585.700;  216.375;    0.000
524.942; 5579.700;  220.375;    0.000
525.074; 5529.700;  249.375;    0.000
525.206; 5567.700;  227.375;    0.000
525.338; 5532.700;  250.375;    0.000
525.469; 5329.700;  231.375;    0.000
525.601; 5438.700;  245.375;    0.000
525.733; 5425.700;  187.375;    0.000
525.865; 5528.700;  280.375;    0.000
525.997; 5423.700;  216.375;    0.000
526.129; 5445.700;  228.375;    0.000
526.261; 5444.700;  187.375;    0.000
526.393; 5441.700;  228.375;    0.000
526.524; 5375.700;  201.375;    0.000
526.656; 5484.700;  199.375;    0.000
526.788; 5351.700;  233.375;    0.000
526.920; 5511.700;  256.375;    0.000
527.052; 5407.700;  219.375;    0.000
527.183; 5280.700;  227.375;    0.000
527.315; 5235.700;  266.375;    0.000
527.447; 5368.700;  239.375;    0.000
527.578; 5422.700;  213.375;    0.000
527.710; 5360.700;  216.375;    0.000
527.842; 5239.700;  240.375;    0.000
527.973; 5394.700;  286.375;    0.000
528.105; 5315.700;  222.375;    0.000
528.237; 5338.700;  223.375;    0.000
528.368; 5261.700;  211.375;    0.000
528.500; 5284.700;  215.375;    0.000
528.632; 5332.700;  216.375;    0.000
528.763; 5176.700;  234.375;    0.000
528.895; 5308.700;  196.375;    0.000
529.026; 5249.700;  202.375;    0.000
529.158; 5301.700;  226.375;    0.000
529.289; 5255.700;  229.375;    0.000
529.421; 5175.700;  264.375;    0.000
529.552; 5201.700;  265.375;    0.000
529.684; 5235.700;  260.375;    0.000
529.815; 5345.700;  284.375;    0.000
529.947; 5222.700;  237.375;    0.000
530.078; 5318.700;  223.375;    0.000
530.210; 5281.700;  223.375;    0.000
530.341; 5178.700;  209.375;    0.000
530.472; 5267.700;  203.375;    0.000
530.604; 5178.700;  223.375;    0.000
530.735; 5154.700;  218.375;    0.000
530.867; 5257.700;  222.375;    0.000
530.998; 5250.700;  239.375;    0.000
531.129; 5184.700;  250.375;    0.000
531.260; 5326.700;  224.375;    0.000
531.392; 5290.700;  216.375;    0.000
531.523; 5303.700;  234.375;    0.000
531.654; 5364.700;  256.375;    0.000
531.786; 5429.700;  226.375;    0.000
531.917; 5380.700;  239.375;    0.000
532.048; 5240.700;  205.375;    0.000
532.179; 5318.700;  244.375;    0.000
532.311; 5195.700;  235.375;    0.000
532.442; 5393.700;  258.375;    0.000
532.573; 5293.700;  220.375;    0.000
532.704; 5399.700;  213.375;    0.000
532.835; 5406.700;  249.375;    0.000
532.966; 5296.700;  226.375;    0.000
533.097; 5361.700;  246.375;    0.000
533.229; 5321.700;  237.375;    0.000
533.360; 5328.700;  225.375;    0.000
533.491; 5338.700;  241.375;    0.000
533.622; 5261.700;  242.375;    0.000
533.753; 5287.700;  264.375;    0.000
533.884; 5209.700;  245.375;    0.000
534.015; 5299.700;  269.375;    0.000
534.146; 5294.700;  267.375;    0.000
534.277; 5321.700;  282.375;    0.000
534.408; 5282.700;  229.375;    0.000
534.539; 5383.700;  269.375;    0.000
534.670; 5382.700;  231.375;    0.000
534.801; 5218.700;  260.375;    0.000
534.932; 5245.700;  232.375;    0.000
535.063; 5162.700;  227.375;    0.000
535.194; 5258.700;  281.375;    0.000
535.324; 5176.700;  206.375;    0.000
535.455; 5254.700;  257.375;    0.000
535.586; 5277.700;  275.375;    0.000
535.717; 5166.700;  206.375;    0.000
535.848; 5216.700;  271.375;    0.000
535.979; 5079.700;  250.375;    0.000
536.109; 5174.700;  253.375;    0.000
536.240; 5125.700;  234.375;    0.000
536.371; 5090.700;  230.375;    0.000
536.502; 5089.700;  270.375;    0.000
536.632; 5106.700;  228.375;    0.000
536.763; 5210.700;  249.375;    0.000
536.894; 5127.700;  262.375;    0.000
537.025; 5056.700;  258.375;    0.000
537.155; 5205.700;  278.375;    0.000
537.286; 5068.700;  209.375;    0.000
537.417; 5148.700;  255.375;    0.000
537.547; 4962.700;  208.375;    0.000
537.678; 4977.700;  224.375;    0.000
537.808; 5071.700;  224.375;    0.000
537.939; 5001.700;  257.375;    0.000
538.070; 5041.700;  240.375;    0.000
538.200; 5068.700;  259.375;    0.000
538.331; 4985.700;  235.375;    0.000
538.461; 5054.700;  251.375;    0.000
538.592; 5103.700;  245.375;    0.000
538.722; 5127.700;  239.375;    0.000
538.853; 5027.700;  216.375;    0.000
538.983; 5093.700;  226.375;    0.000
539.114; 5044.700;  240.375;    0.000
539.244; 4960.700;  237.375;    0.000
539.375; 5026.700;  198.375;    0.000
539.505; 5078.700;  263.375;    0.000
539.636; 4965.700;  226.375;    0.000
539.766; 5087.700;  229.375;    0.000
539.896; 4995.700;  219.375;    0.000
540.027; 5014.700;  246.375;    0.000
540.157; 4990.700;  218.375;    0.000
540.287; 5009.700;  216.375;    0.000
540.418; 5086.700;  267.375;    0.000
540.548; 5136.700;  260.375;    0.000
540.678; 5162.700;  242.375;    0.000
540.809; 5026.700;  260.375;    0.000
540.939; 5229.700;  257.375;    0.000
541.069; 5090.700;  226.375;    0.000
541.200; 5065.700;  227.375;    0.000
541.330; 5078.700;  218.375;    0.000
541.460; 5062.700;  223.375;    0.000
541.590; 5083.700;  237.375;    0.000
541.720; 4968.700;  222.375;    0.000
541.851; 5059.700;  250.375;    0.000
541.981; 5058.700;  222.375;    0.000
542.111; 5058.700;  212.375;    0.000
542.241; 4990.700;  205.375;    0.000
542.371; 5171.700;  202.375;    0.000
542.501; 5324.700;  218.375;    0.000
542.631; 5272.700;  222.375;    0.000
542.761; 5332.700;  249.375;    0.000
542.891; 5294.700;  173.375;    0.000
543.021; 5156.700;  218.375;    0.000
543.151; 5271.700;  222.375;    0.000
543.281; 5257.700;  188.375;    0.000
543.411; 5167.700;  239.375;    0.000
543.542; 5114.700;  215.375;    0.000
543.671; 5169.700;  250.375;    0.000
543.801; 5156.700;  212.375;    0.000
543.931; 5137.700;  233.375;    0.000
544.061; 5058.700;  194.375;    0.000
544.191; 5106.700;  218.375;    0.000
544.321; 5157.700;  220.375;    0.000
544.451; 5223.700;  183.375;    0.000
544.581; 5351.700;  221.375;    0.000
544.711; 5304.700;  224.375;    0.000
544.841; 5300.700;  214.375;    0.000
544.970; 5319.700;  227.375;    0.000
545.100; 5260.700;  186.375;    0.000
545.230; 5436.700;  205.375;    0.000
545.360; 5475.700;  211.375;    0.000
545.490; 5431.700;  202.375;    0.000
545.619; 5338.700;  182.375;    0.000
545.749; 5303.700;  174.375;    0.000
545.879; 5173.700;  169.375;    0.000
546.009; 5278.700;  182.375;    0.000
546.138; 5338.700;  200.375;    0.000
546.268; 5314.700;  204.375;    0.000
546.398; 5268.700;  200.375;    0.000
546.527; 5197.700;  179.375;    0.000
546.657; 5262.700;  162.375;    0.000
546.786; 5338.700;  179.375;    0.000
546.916; 5238.700;  221.375;    0.000
547.046; 5355.700;  179.375;    0.000
547.175; 5177.700;  168.375;    0.000
547.305; 5248.700;  200.375;    0.000
547.434; 5296.700;  166.375;    0.000
547.564; 5224.700;  177.375;    0.000
547.693; 5362.700;  152.375;    0.000
547.823; 5461.700;  171.375;    0.000
547.953; 5293.700;  195.375;    0.000
548.082; 5381.700;  214.375;    0.000
548.211; 5301.700;  177.375;    0.000
548.341; 5374.700;  189.375;    0.000
548.470; 5327.700;  194.375;    0.000
548.600; 5297.700;  172.375;    0.000
548.729; 5447.700;  158.375;    0.000
548.859; 5317.700;  193.375;    0.000
548.988; 5380.700;  131.375;    0.000
549.117; 5422.700;  204.375;    0.000
549.247; 5531.700;  191.375;    0.000
549.376; 5386.700;  202.375;    0.000
549.505; 5349.700;  187.375;    0.000
549.635; 5375.700;  198.375;    0.000
549.764; 5390.700;  155.375;    0.000
549.893; 5368.700;  176.375;    0.000
550.023; 5462.700;  202.375;    0.000
550.152; 5435.700;  168.375;    0.000
550.281; 5458.700;  180.375;    0.000
550.410; 5452.700;  180.375;    0.000
550.539; 5523.700;  181.375;    0.000
550.669; 5424.700;  168.375;    0.000
550.798; 5444.700;  223.375;    0.000
550.927; 5442.700;  179.375;    0.000
551.056; 5441.700;  159.375;    0.000
551.185; 5470.700;  199.375;    0.000
551.314; 5451.700;  185.375;    0.000
551.443; 5433.700;  172.375;    0.000
551.573; 5516.700;  158.375;    0.000
551.702; 5439.700;  210.375;    0.000
551.831; 5572.700;  238.375;    0.000
551.960; 5664.700;  191.375;    0.000
552.089; 5659.700;  195.375;    0.000
552.218; 5639.700;  196.375;    0.000
552.347; 5694.700;  194.375;    0.000
552.476; 5697.700;  192.375;    0.000
552.605; 5793.700;  172.375;    0.000
552.734; 5976.700;  214.375;    0.000
552.863; 6184.700;  177.375;    0.000
552.992; 6052.700;  190.375;    0.000
553.121; 5963.700;  185.375;    0.000
553.249; 5939.700;  175.375;    0.000
553.378; 6005.700;  192.375;    0.000
553.507; 5975.700;  193.375;    0.000
553.636; 6073.700;  182.375;    0.000
553.765; 5788.700;  187.375;    0.000
553.894; 5756.700;  214.375;    0.000
554.023; 5779.700;  217.375;    0.000
554.151; 5740.700;  223.375;    0.000
554.280; 5681.700;  170.375;    0.000
554.409; 5571.700;  172.375;    0.000
554.538; 5689.700;  182.375;    0.000
554.666; 5512.700;  195.375;    0.000
554.795; 5505.700;  176.375;    0.000
554.924; 5385.700;  164.375;    0.000
555.052; 5538.700;  171.375;    0.000
555.181; 5563.700;  208.375;    0.000
555.310; 5407.700;  214.375;    0.000
555.439; 5539.700;  193.375;    0.000
555.567; 5435.700;  189.375;    0.000
555.696; 5360.700;  196.375;    0.000
555.824; 5220.700;  183.375;    0.000
555.953; 5378.700;  234.375;    0.000
556.082; 5254.700;  183.375;    0.000
556.210; 5312.700;  199.375;    0.000
556.339; 5285.700;  201.375;    0.000
556.467; 5227.700;  208.375;    0.000
556.596; 5236.700;  194.375;    0.000
556.724; 5282.700;  170.375;    0.000
556.853; 5175.700;  166.375;    0.000
556.981; 5225.700;  185.375;    0.000
557.110; 5276.700;  213.375;    0.000
557.238; 5129.700;  188.375;    0.000
557.367; 5100.700;  176.375;    0.000
557.495; 5056.700;  180.375;    0.000
557.623; 5135.700;  193.375;    0.000
557.752; 5177.700;  207.375;    0.000
557.880; 5371.700;  189.375;    0.000
558.008; 5259.700;  169.375;    0.000
558.137; 5239.700;  203.375;    0.000
558.265; 5236.700;  167.375;    0.000
558.393; 5201.700;  204.375;    0.000
558.522; 5234.700;  203.375;    0.000
558.650; 5226.700;  215.375;    0.000
558.778; 5340.700;  190.375;    0.000
558.906; 5383.700;  186.375;    0.000
559.035; 5285.700;  193.375;    0.000
559.163; 5134.700;  198.375;    0.000
559.291; 5156.700;  222.375;    0.000
559.419; 5201.700;  192.375;    0.000
559.548; 5174.700;  186.375;    0.000
559.676; 5185.700;  199.375;    0.000
559.804; 5384.700;  186.375;    0.000
559.932; 5219.700;  202.375;    0.000
560.060; 5263.700;  183.375;    0.000
560.188; 5396.700;  212.375;    0.000
560.316; 5301.700;  192.375;    0.000
560.444; 5363.700;  180.375;    0.000
560.572; 5340.700;  206.375;    0.000
560.700; 5214.700;  184.375;    0.000
560.828; 5321.700;  177.375;    0.000
560.956; 5335.700;  221.375;    0.000
561.085; 5282.700;  227.375;    0.000
561.212; 5371.700;  208.375;    0.000
561.340; 5452.700;  189.375;    0.000
561.468; 5383.700;  189.375;    0.000
561.596; 5392.700;  183.375;    0.000
561.724; 5424.700;  188.375;    0.000
561.852; 5286.700;  183.375;    0.000
561.980; 5291.700;  209.375;    0.000
562.108; 5318.700;  165.375;    0.000
562.236; 5657.700;  188.375;    0.000
562.364; 5381.700;  177.375;    0.000
562.492; 5400.700;  192.375;    0.000
562.619; 5540.700;  187.375;    0.000
562.747; 5608.700;  217.375;    0.000
562.875; 5543.700;  221.375;    0.000
563.003; 5521.700;  199.375;    0.000
563.130; 5519.700;  191.375;    0.000
563.258; 5605.700;  186.375;    0.000
563.386; 5813.700;  191.375;    0.000
563.514; 5798.700;  217.375;    0.000
563.641; 5891.700;  220.375;    0.000
563.769; 5730.700;  186.375;    0.000
563.897; 5713.700;  158.375;    0.000
564.024; 6035.700;  192.375;    0.000
564.152; 6050.700;  217.375;    0.000
564.280; 6096.700;  203.375;    0.000
564.407; 6050.700;  190.375;    0.000
564.535; 6053.700;  188.375;    0.000
564.662; 6204.700;  199.375;    0.000
564.790; 6222.700;  227.375;    0.000
564.917; 6343.700;  160.375;    0.000
565.045; 6190.700;  222.375;    0.000
565.173; 6335.700;  169.375;    0.000
565.300; 6359.700;  208.375;    0.000
565.428; 6484.700;  174.375;    0.000
565.555; 6544.700;  201.375;    0.000
565.682; 6674.700;  180.375;    0.000
565.810; 6924.700;  165.375;    0.000
565.937; 6966.700;  167.375;    0.000
566.065; 7239.700;  190.375;    0.000
566.192; 7385.700;  169.375;    0.000
566.320; 7588.700;  167.375;    0.000
566.447; 7787.700;  151.375;    0.000
566.574; 7826.700;  176.375;    0.000
566.702; 8106.700;  198.375;    0.000
566.829; 7989.700;  209.375;    0.000
566.956; 8149.700;  186.375;    0.000
567.083; 8228.700;  188.375;    0.000
567.211; 8332.700;  159.375;    0.000
567.338; 8514.700;  204.375;    0.000
567.465; 8565.700;  141.375;    0.000
567.593; 8825.700;  168.375;    0.000
567.720; 8667.700;  177.375;    0.000
567.847; 8855.700;  160.375;    0.000
567.974; 8584.700;  139.375;    0.000
568.101; 8469.700;  153.375;    0.000
568.228; 8443.700;  173.375;    0.000
568.356; 8402.700;  149.375;    0.000
568.483; 8072.700;  185.375;    0.000
568.610; 7825.700;  170.375;    0.000
568.737; 8071.700;  223.375;    0.000
568.864; 8080.700;  167.375;    0.000
568.991; 7568.700;  177.375;    0.000
569.118; 7195.700;  169.375;    0.000
569.245; 6893.700;  128.375;    0.000
569.372; 6682.700;  160.375;    0.000
569.499; 6591.700;  156.375;    0.000
569.626; 6479.700;  191.375;    0.000
569.753; 6478.700;  163.375;    0.000
569.880; 6319.700;  167.375;    0.000
570.007; 6336.700;  143.375;    0.000
570.134; 6382.700;  191.375;    0.000
570.261; 6192.700;  164.375;    0.000
570.388; 6212.700;  162.375;    0.000
570.515; 6148.700;  220.375;    0.000
570.642; 6075.700;  184.375;    0.000
570.768; 6148.700;  174.375;    0.000
570.895; 6095.700;  177.375;    0.000
571.022; 6061.700;  152.375;    0.000
571.149; 6031.700;  183.375;    0.000
571.276; 5888.700;  153.375;    0.000
571.402; 5871.700;  190.375;    0.000
571.529; 5924.700;  187.375;    0.000
571.656; 5761.700;  167.375;    0.000
571.783; 5540.700;  186.375;    0.000
571.909; 5749.700;  183.375;    0.000
572.036; 5688.700;  162.375;    0.000
572.163; 5719.700;  196.375;    0.000
572.289; 5557.700;  180.375;    0.000
572.416; 5611.700;  190.375;    0.000
572.543; 5625.700;  174.375;    0.000
572.669; 5485.700;  186.375;    0.000
572.796; 5478.700;  205.375;    0.000
572.922; 5489.700;  185.375;    0.000
573.049; 5386.700;  178.375;    0.000
573.176; 5337.700;  196.375;    0.000
573.302; 5351.700;  202.375;    0.000
573.429; 5418.700;  189.375;    0.000
573.555; 5325.700;  145.375;    0.000
573.682; 5306.700;  228.375;    0.000
573.808; 5267.700;  197.375;    0.000
573.935; 5310.700;  216.375;    0.000
574.061; 5418.700;  173.375;    0.000
574.188; 5391.700;  151.375;    0.000
574.314; 5254.700;  181.375;    0.000
574.440; 5200.700;  167.375;    0.000
574.567; 5326.700;  185.375;    0.000
574.693; 5272.700;  173.375;    0.000
574.820; 5304.700;  164.375;    0.000
574.946; 5254.700;  199.375;    0.000
575.072; 5301.700;  162.375;    0.000
575.198; 5250.700;  225.375;    0.000
575.325; 5211.700;  171.375;    0.000
575.451; 5337.700;  183.375;    0.000
575.577; 5260.700;  190.375;    0.000
575.704; 5141.700;  210.375;    0.000
575.830; 5298.700;  185.375;    0.000
575.956; 5230.700;  168.375;    0.000
576.082; 5235.700;  158.375;    0.000
576.208; 5173.700;  158.375;    0.000
576.335; 5129.700;  196.375;    0.000
576.461; 5224.700;  187.375;    0.000
576.587; 5220.700;  157.375;    0.000
576.713; 5226.700;  156.375;    0.000
576.839; 5245.700;  196.375;    0.000
576.965; 5073.700;  187.375;    0.000
577.091; 5201.700;  204.375;    0.000
577.217; 5219.700;  207.375;    0.000
577.343; 5080.700;  175.375;    0.000
577.469; 5219.700;  197.375;    0.000
577.596; 5149.700;  182.375;    0.000
577.722; 4981.700;  159.375;    0.000
577.848; 5052.700;  162.375;    0.000
577.974; 4995.700;  180.375;    0.000
578.099; 5008.700;  161.375;    0.000
578.225; 5169.700;  180.375;    0.000
578.351; 5063.700;  190.375;    0.000
578.477; 5139.700;  212.375;    0.000
578.603; 5174.700;  179.375;    0.000
578.729; 5139.700;  195.375;    0.000
578.855; 5143.700;  153.375;    0.000
578.981; 5134.700;  162.375;    0.000
579.107; 5106.700;  149.375;    0.000
579.232; 4994.700;  164.375;    0.000
579.358; 5152.700;  162.375;    0.000
579.484; 5138.700;  181.375;    0.000
579.610; 5132.700;  190.375;    0.000
579.735; 5112.700;  191.375;    0.000
579.861; 5226.700;  189.375;    0.000
579.987; 5059.700;  202.375;    0.000
580.113; 5132.700;  197.375;    0.000
580.238; 5071.700;  228.375;    0.000
580.364; 5107.700;  212.375;    0.000
580.490; 5104.700;  225.375;    0.000
580.615; 5114.700;  218.375;    0.000
580.741; 5007.700;  167.375;    0.000
580.867; 5120.700;  215.375;    0.000
580.992; 5056.700;  191.375;    0.000
581.118; 5117.700;  171.375;    0.000
581.243; 5058.700;  204.375;    0.000
581.369; 4966.700;  186.375;    0.000
581.494; 5005.700;  184.375;    0.000
581.620; 5105.700;  212.375;    0.000
581.745; 5061.700;  192.375;    0.000
581.871; 5120.700;  195.375;    0.000
581.996; 5164.700;  160.375;    0.000
582.122; 5079.700;  217.375;    0.000
582.247; 5045.700;  213.375;    0.000
582.373; 4979.700;  187.375;    0.000
582.498; 5089.700;  208.375;    0.000
582.624; 5161.700;  189.375;    0.000
582.749; 5158.700;  185.375;    0.000
582.874; 5221.700;  195.375;    0.000
583.000; 5276.700;  208.375;    0.000
583.125; 5121.700;  147.375;    0.000
583.250; 5249.700;  201.375;    0.000
583.376; 5296.700;  191.375;    0.000
583.501; 5141.700;  206.375;    0.000
583.626; 5125.700;  167.375;    0.000
583.751; 5203.700;  180.375;    0.000
583.877; 5303.700;  185.375;    0.000
584.002; 5155.700;  186.375;    0.000
584.127; 5067.700;  176.375;    0.000
584.252; 5125.700;  214.375;    0.000
584.377; 5298.700;  225.375;    0.000
584.503; 5246.700;  195.375;    0.000
584.628; 5360.700;  206.375;    0.000
584.753; 5224.700;  181.375;    0.000
584.878; 5295.700;  136.375;    0.000
585.003; 5264.700;  215.375;    0.000
585.128; 5298.700;  206.375;    0.000
585.253; 5531.700;  200.375;    0.000
585.378; 5333.700;  169.375;    0.000
585.503; 5452.700;  191.375;    0.000
585.628; 5393.700;  182.375;    0.000
585.753; 5500.700;  164.375;    0.000
585.878; 5406.700;  123.375;    0.000
586.003; 5433.700;  187.375;    0.000
586.128; 5417.700;  198.375;    0.000
586.253; 5469.700;  172.375;    0.000
586.378; 5617.700;  191.375;    0.000
586.503; 5558.700;  190.375;    0.000
586.628; 5719.700;  178.375;    0.000
586.753; 5859.700;  184.375;    0.000
586.878; 5757.700;  169.375;    0.000
587.003; 5827.700;  186.375;    0.000
587.127; 6004.700;  170.375;    0.000
587.252; 6092.700;  170.375;    0.000
587.377; 6180.700;  181.375;    0.000
587.502; 6235.700;  209.375;    0.000
587.627; 6472.700;  210.375;    0.000
587.751; 6557.700;  212.375;    0.000
587.876; 6939.700;  198.375;    0.000
588.001; 7153.700;  161.375;    0.000
588.125; 7696.700;  191.375;    0.000
588.250; 8167.700;  132.375;    0.000
588.375; 8955.700;  183.375;    0.000
588.499;10496.700;  176.375;    0.000
588.624;12927.700;  173.375;    0.000
588.749;18585.699;  204.375;    0.000
588.873;33196.699;  179.375;    0.000
588.998;47822.699;  182.375;    0.000
589.122;41285.699;  165.375;    0.000
589.247;26938.699;  185.375;    0.000
589.372;22615.699;  199.375;    0.000
589.496;32367.699;  182.375;    0.000
589.621;39490.699;  158.375;    0.000
589.745;30453.699;  213.375;    0.000
589.870;18418.699;  175.375;    0.000
589.994;13352.700;  194.375;    0.000
590.118;11074.700;  218.375;    0.000
590.243; 9970.700;  170.375;    0.000
590.367; 8881.700;  189.375;    0.000
590.492; 8232.700;  196.375;    0.000
590.616; 7865.700;  182.375;    0.000
590.740; 7460.700;  210.375;    0.000
590.865; 7308.700;  242.375;    0.000
590.989; 7161.700;  191.375;    0.000
591.114; 6727.700;  167.375;    0.000
591.238; 6641.700;  194.375;    0.000
591.362; 6649.700;  236.375;    0.000
591.486; 6395.700;  194.375;    0.000
591.611; 6553.700;  154.375;    0.000
591.735; 6468.700;  186.375;    0.000
591.859; 6445.700;  148.375;    0.000
591.983; 6491.700;  211.375;    0.000
592.107; 6420.700;  204.375;    0.000
592.232; 6319.700;  194.375;    0.000
592.356; 6413.700;  238.375;    0.000
592.480; 6479.700;  179.375;    0.000
592.604; 6436.700;  192.375;    0.000
592.728; 6503.700;  201.375;    0.000
592.852; 6402.700;  158.375;    0.000
592.976; 6365.700;  152.375;    0.000
593.100; 6536.700;  194.375;    0.000
593.224; 6671.700;  235.375;    0.000
593.349; 6526.700;  233.375;    0.000
593.473; 6320.700;  194.375;    0.000
593.597; 6445.700;  215.375;    0.000
593.721; 6429.700;  212.375;    0.000
593.844; 6410.700;  220.375;    0.000
593.968; 6576.700;  221.375;    0.000
594.092; 6409.700;  150.375;    0.000
594.216; 6497.700;  212.375;    0.000
594.340; 6277.700;  209.375;    0.000
594.464; 6224.700;  207.375;    0.000
594.588; 6283.700;  195.375;    0.000
594.712; 6091.700;  176.375;    0.000
594.836; 6089.700;  219.375;    0.000
594.959; 5991.700;  215.375;    0.000
595.083; 5859.700;  200.375;    0.000
595.207; 5806.700;  206.375;    0.000
595.331; 5798.700;  207.375;    0.000
595.455; 5571.700;  206.375;    0.000
595.578; 5728.700;  204.375;    0.000
595.702; 5716.700;  225.375;    0.000
595.826; 5650.700;  186.375;    0.000
595.949; 5568.700;  196.375;    0.000
596.073; 5530.700;  188.375;    0.000
596.197; 5481.700;  217.375;    0.000
596.320; 5355.700;  225.375;    0.000
596.444; 5490.700;  220.375;    0.000
596.568; 5211.700;  155.375;    0.000
596.691; 5212.700;  195.375;    0.000
596.815; 5409.700;  163.375;    0.000
596.938; 5382.700;  181.375;    0.000
597.062; 5228.700;  201.375;    0.000
597.186; 5284.700;  200.375;    0.000
597.309; 5271.700;  214.375;    0.000
597.433; 5287.700;  176.375;    0.000
597.556; 5136.700;  193.375;    0.000
597.680; 5141.700;  241.375;    0.000
597.803; 5157.700;  185.375;    0.000
597.926; 5046.700;  200.375;    0.000
598.050; 5040.700;  193.375;    0.000
598.173; 5029.700;  219.375;    0.000
598.297; 5207.700;  223.375;    0.000
598.420; 4963.700;  187.375;    0.000
598.543; 4992.700;  205.375;    0.000
598.667; 4897.700;  177.375;    0.000
598.790; 5067.700;  208.375;    0.000
598.913; 5018.700;  170.375;    0.000
599.037; 4978.700;  212.375;    0.000
599.160; 4889.700;  165.375;    0.000
599.283; 4935.700;  211.375;    0.000
599.406; 4942.700;  207.375;    0.000
599.530; 4894.700;  182.375;    0.000
599.653; 4864.700;  215.375;    0.000
599.776; 4917.700;  167.375;    0.000
599.899; 4832.700;  190.375;    0.000
600.022; 4964.700;  182.375;    0.000
600.145; 4826.700;  180.375;    0.000
600.269; 4941.700;  208.375;    0.000
600.392; 4923.700;  214.375;    0.000
600.515; 4803.700;  196.375;    0.000
600.638; 4955.700;  204.375;    0.000
600.761; 4880.700;  209.375;    0.000
600.884; 4809.700;  207.375;    0.000
601.007; 4696.700;  234.375;    0.000
601.130; 4794.700;  183.375;    0.000
601.253; 4824.700;  211.375;    0.000
601.376; 4735.700;  199.375;    0.000
601.499; 4805.700;  190.375;    0.000
601.622; 4811.700;  210.375;    0.000
601.745; 4714.700;  180.375;    0.000
601.868; 4751.700;  204.375;    0.000
601.991; 4864.700;  188.375;    0.000
602.113; 4821.700;  210.375;    0.000
602.236; 4690.700;  194.375;    0.000
602.359; 4694.700;  213.375;    0.000
602.482; 4710.700;  169.375;    0.000
602.605; 4795.700;  189.375;    0.000
602.728; 4741.700;  236.375;    0.000
602.850; 4770.700;  230.375;    0.000
602.973; 4796.700;  187.375;    0.000
603.096; 4698.700;  201.375;    0.000
603.219; 4760.700;  209.375;    0.000
603.341; 4731.700;  209.375;    0.000
603.464; 4786.700;  194.375;    0.000
603.587; 4723.700;  166.375;    0.000
603.709; 4730.700;  175.375;    0.000
603.832; 4655.700;  239.375;    0.000
603.955; 4740.700;  205.375;    0.000
604.077; 4622.700;  196.375;    0.000
604.200; 4690.700;  188.375;    0.000
604.323; 4730.700;  224.375;    0.000
604.445; 4616.700;  182.375;    0.000
604.568; 4779.700;  199.375;    0.000
604.690; 4626.700;  175.375;    0.000
604.813; 4650.700;  211.375;    0.000
604.935; 4676.700;  171.375;    0.000
605.058; 4583.700;  196.375;    0.000
605.180; 4702.700;  194.375;    0.000
605.303; 4708.700;  198.375;    0.000
605.425; 4654.700;  212.375;    0.000
605.547; 4677.700;  238.375;    0.000
605.670; 4610.700;  207.375;    0.000
605.792; 4582.700;  204.375;    0.000
605.915; 4563.700;  198.375;    0.000
606.037; 4682.700;  215.375;    0.000
606.159; 4697.700;  170.375;    0.000
606.282; 4510.700;  194.375;    0.000
606.404; 4640.700;  207.375;    0.000
606.526; 4644.700;  208.375;    0.000
606.648; 4530.700;  174.375;    0.000
606.771; 4469.700;  170.375;    0.000
606.893; 4580.700;  182.375;    0.000
607.015; 4539.700;  180.375;    0.000
607.137; 4623.700;  187.375;    0.000
607.260; 4496.700;  202.375;    0.000
607.382; 4617.700;  226.375;    0.000
607.504; 4475.700;  208.375;    0.000
607.626; 4618.700;  229.375;    0.000
607.748; 4532.700;  170.375;    0.000
607.870; 4645.700;  208.375;    0.000
607.992; 4521.700;  184.375;    0.000
608.114; 4464.700;  213.375;    0.000
608.237; 4534.700;  237.375;    0.000
608.359; 4595.700;  176.375;    0.000
608.481; 4453.700;  173.375;    0.000
608.603; 4523.700;  189.375;    0.000
608.725; 4665.700;  185.375;    0.000
608.847; 4574.700;  239.375;    0.000
608.969; 4656.700;  237.375;    0.000
609.090; 4667.700;  189.375;    0.000
609.212; 4492.700;  147.375;    0.000
609.334; 4553.700;  177.375;    0.000
609.456; 4548.700;  196.375;    0.000
609.578; 4493.700;  199.375;    0.000
609.700; 4540.700;  167.375;    0.000
609.822; 4435.700;  140.375;    0.000
609.944; 4529.700;  225.375;    0.000
610.065; 4511.700;  183.375;    0.000
610.187; 4541.700;  170.375;    0.000
610.309; 4475.700;  210.375;    0.000
610.431; 4524.700;  185.375;    0.000
610.552; 4479.700;  197.375;    0.000
610.674; 4506.700;  188.375;    0.000
610.796; 4477.700;  162.375;    0.000
610.918; 4510.700;  200.375;    0.000
611.039; 4535.700;  209.375;    0.000
611.161; 4580.700;  201.375;    0.000
611.282; 4472.700;  197.375;    0.000
611.404; 4571.700;  220.375;    0.000
611.526; 4594.700;  159.375;    0.000
611.647; 4534.700;  205.375;    0.000
611.769; 4463.700;  161.375;    0.000
611.890; 4519.700;  173.375;    0.000
612.012; 4496.700;  225.375;    0.000
612.133; 4578.700;  188.375;    0.000
612.255; 4596.700;  217.375;    0.000
612.377; 4620.700;  219.375;    0.000
612.498; 4562.700;  177.375;    0.000
612.619; 4593.700;  211.375;    0.000
612.741; 4498.700;  185.375;    0.000
612.862; 4503.700;  191.375;    0.000
612.984; 4499.700;  190.375;    0.000
613.105; 4538.700;  211.375;    0.000
613.226; 4439.700;  174.375;    0.000
613.348; 4556.700;  235.375;    0.000
613.469; 4484.700;  230.375;    0.000
613.590; 4444.700;  208.375;    0.000
613.712; 4432.700;  244.375;    0.000
613.833; 4432.700;  202.375;    0.000
613.954; 4431.700;  228.375;    0.000
614.076; 4549.700;  220.375;    0.000
614.197; 4571.700;  191.375;    0.000
614.318; 4539.700;  201.375;    0.000
614.439; 4481.700;  212.375;    0.000
614.560; 4412.700;  219.375;    0.000
614.682; 4443.700;  189.375;    0.000
614.803; 4444.700;  188.375;    0.000
614.924; 4426.700;  225.375;    0.000
615.045; 4449.700;  227.375;    0.000
615.166; 4521.700;  200.375;    0.000
615.287; 4560.700;  195.375;    0.000
615.408; 4639.700;  199.375;    0.000
615.529; 4644.700;  227.375;    0.000
615.650; 4491.700;  176.375;    0.000
615.771; 4485.700;  211.375;    0.000
615.892; 4597.700;  212.375;    0.000
616.013; 4886.700;  172.375;    0.000
616.134; 4951.700;  220.375;    0.000
616.255; 4974.700;  251.375;    0.000
616.376; 4725.700;  186.375;    0.000
616.497; 4405.700;  201.375;    0.000
616.618; 4538.700;  149.375;    0.000
616.739; 4644.700;  213.375;    0.000
616.860; 4638.700;  224.375;    0.000
616.981; 4501.700;  224.375;    0.000
617.102; 4565.700;  217.375;    0.000
617.222; 4566.700;  237.375;    0.000
617.343; 4545.700;  205.375;    0.000
617.464; 4604.700;  229.375;    0.000
617.585; 4535.700;  227.375;    0.000
617.705; 4479.700;  191.375;    0.000
617.826; 4572.700;  237.375;    0.000
617.947; 4639.700;  223.375;    0.000
618.068; 4475.700;  189.375;    0.000
618.188; 4388.700;  194.375;    0.000
618.309; 4538.700;  206.375;    0.000
618.430; 4487.700;  229.375;    0.000
618.550; 4540.700;  250.375;    0.000
618.671; 4476.700;  201.375;    0.000
618.791; 4451.700;  226.375;    0.000
618.912; 4386.700;  246.375;    0.000
619.033; 4494.700;  243.375;    0.000
619.153; 4399.700;  208.375;    0.000
619.274; 4445.700;  223.375;    0.000
619.394; 4452.700;  226.375;    0.000
619.515; 4350.700;  188.375;    0.000
619.635; 4446.700;  216.375;    0.000
619.756; 4440.700;  229.375;    0.000
619.876; 4397.700;  216.375;    0.000
619.996; 4353.700;  244.375;    0.000
620.117; 4376.700;  225.375;    0.000
620.237; 4392.700;  207.375;    0.000
620.358; 4463.700;  239.375;    0.000
620.478; 4453.700;  237.375;    0.000
620.598; 4405.700;  237.375;    0.000
620.719; 4425.700;  223.375;    0.000
620.839; 4365.700;  254.375;    0.000
620.959; 4336.700;  244.375;    0.000
621.079; 4425.700;  193.375;    0.000
621.200; 4425.700;  233.375;    0.000
621.320; 4439.700;  270.375;    0.000
621.440; 4369.700;  206.375;    0.000
621.560; 4399.700;  241.375;    0.000
621.681; 4419.700;  231.375;    0.000
621.801; 4421.700;  235.375;    0.000
621.921; 4306.700;  240.375;    0.000
622.041; 4311.700;  244.375;    0.000
622.161; 4320.700;  225.375;    0.000
622.281; 4362.700;  222.375;    0.000
622.401; 4289.700;  238.375;    0.000
622.521; 4298.700;  233.375;    0.000
622.641; 4234.700;  241.375;    0.000
622.761; 4245.700;  233.375;    0.000
622.882; 4252.700;  230.375;    0.000
623.002; 4279.700;  206.375;    0.000
623.121; 4268.700;  217.375;    0.000
623.241; 4272.700;  263.375;    0.000
623.361; 4343.700;  245.375;    0.000
623.481; 4185.700;  194.375;    0.000
623.601; 4324.700;  228.375;    0.000
623.721; 4337.700;  219.375;    0.000
623.841; 4261.700;  234.375;    0.000
623.961; 4230.700;  235.375;    0.000
624.081; 4213.700;  166.375;    0.000
624.201; 4235.700;  229.375;    0.000
624.320; 4233.700;  224.375;    0.000
624.440; 4289.700;  200.375;    0.000
624.560; 4216.700;  220.375;    0.000
624.680; 4221.700;  214.375;    0.000
624.799; 4228.700;  179.375;    0.000
624.919; 4141.700;  199.375;    0.000
625.039; 4143.700;  211.375;    0.000
625.159; 4151.700;  213.375;    0.000
625.278; 4205.700;  178.375;    0.000
625.398; 4161.700;  206.375;    0.000
625.518; 4147.700;  182.375;    0.000
625.637; 4212.700;  206.375;    0.000
625.757; 4176.700;  197.375;    0.000
625.876; 4201.700;  204.375;    0.000
625.996; 4113.700;  222.375;    0.000
626.115; 4092.700;  222.375;    0.000
626.235; 4097.700;  222.375;    0.000
626.354; 4131.700;  211.375;    0.000
626.474; 4129.700;  217.375;    0.000
626.594; 4119.700;  190.375;    0.000
626.713; 4085.700;  200.375;    0.000
626.832; 4219.700;  234.375;    0.000
626.952; 4026.700;  214.375;    0.000
627.071; 4101.700;  243.375;    0.000
627.191; 4090.700;  192.375;    0.000
627.310; 4165.700;  211.375;    0.000
627.429; 4124.700;  218.375;    0.000
627.549; 4112.700;  214.375;    0.000
627.668; 4099.700;  208.375;    0.000
627.787; 4166.700;  199.375;    0.000
627.907; 4117.700;  208.375;    0.000
628.026; 4127.700;  216.375;    0.000
628.145; 4173.700;  170.375;    0.000
628.264; 4096.700;  217.375;    0.000
628.384; 4072.700;  190.375;    0.000
628.503; 4031.700;  203.375;    0.000
628.622; 4076.700;  197.375;    0.000
628.741; 4129.700;  186.375;    0.000
628.860; 4129.700;  191.375;    0.000
628.980; 4135.700;  196.375;    0.000
629.099; 4060.700;  190.375;    0.000
629.218; 4047.700;  165.375;    0.000
629.337; 4091.700;  190.375;    0.000
629.456; 4107.700;  222.375;    0.000
629.575; 4208.700;  197.375;    0.000
629.694; 4037.700;  210.375;    0.000
629.813; 4004.700;  187.375;    0.000
629.932; 4034.700;  224.375;    0.000
630.051; 4096.700;  216.375;    0.000
630.170; 4067.700;  203.375;    0.000
630.289; 4083.700;  178.375;    0.000
630.408; 4011.700;  192.375;    0.000
630.527; 4132.700;  223.375;    0.000
630.646; 3953.700;  177.375;    0.000
630.764; 3966.700;  224.375;    0.000
630.883; 3992.700;  220.375;    0.000
631.002; 4054.700;  187.375;    0.000
631.121; 4015.700;  208.375;    0.000
631.240; 4061.700;  217.375;    0.000
631.359; 4052.700;  241.375;    0.000
631.477; 4035.700;  189.375;    0.000
631.596; 4118.700;  244.375;    0.000
631.715; 4008.700;  241.375;    0.000
631.834; 4107.700;  219.375;    0.000
631.952; 4065.700;  231.375;    0.000
632.071; 3970.700;  197.375;    0.000
632.190; 3994.700;  193.375;    0.000
632.308; 4043.700;  185.375;    0.000
632.427; 4010.700;  188.375;    0.000
632.546; 3991.700;  208.375;    0.000
632.664; 4004.700;  191.375;    0.000
632.783; 4062.700;  201.375;    0.000
632.901; 3996.700;  239.375;    0.000
633.020; 3950.700;  197.375;    0.000
633.138; 3990.700;  189.375;    0.000
633.257; 4091.700;  210.375;    0.000
633.375; 4020.700;  213.375;    0.000
633.494; 4069.700;  206.375;    0.000
633.612; 3990.700;  231.375;    0.000
633.731; 4108.700;  213.375;    0.000
633.849; 3928.700;  244.375;    0.000
633.968; 4019.700;  251.375;    0.000
634.086; 3993.700;  224.375;    0.000
634.204; 3978.700;  212.375;    0.000
634.323; 4225.700;  213.375;    0.000
634.441; 4065.700;  219.375;    0.000
634.559; 4034.700;  198.375;    0.000
634.678; 4043.700;  201.375;    0.000
634.796; 4044.700;  179.375;    0.000
634.914; 4099.700;  255.375;    0.000
635.032; 3997.700;  264.375;    0.000
635.151; 4024.700;  228.375;    0.000
635.269; 4042.700;  223.375;    0.000
635.387; 4049.700;  228.375;    0.000
635.505; 3934.700;  214.375;    0.000
635.623; 4007.700;  279.375;    0.000
635.742; 4057.700;  237.375;    0.000
635.860; 4026.700;  244.375;    0.000
635.978; 4015.700;  213.375;    0.000
636.096; 3942.700;  230.375;    0.000
636.214; 3896.700;  252.375;    0.000
636.332; 3913.700;  221.375;    0.000
636.450; 4012.700;  227.375;    0.000
636.568; 4000.700;  193.375;    0.000
636.686; 3936.700;  208.375;    0.000
636.804; 3963.700;  213.375;    0.000
636.922; 3907.700;  199.375;    0.000
637.040; 4001.700;  202.375;    0.000
637.158; 3953.700;  239.375;    0.000
637.276; 4043.700;  225.375;    0.000
637.394; 3992.700;  217.375;    0.000
637.512; 3960.700;  192.375;    0.000
637.629; 3983.700;  216.375;    0.000
637.747; 3993.700;  198.375;    0.000
637.865; 4020.700;  265.375;    0.000
637.983; 4045.700;  245.375;    0.000
638.101; 3995.700;  199.375;    0.000
638.218; 3872.700;  197.375;    0.000
638.336; 3909.700;  212.375;    0.000
638.454; 3961.700;  227.375;    0.000
638.572; 3985.700;  215.375;    0.000
638.689; 3998.700;  214.375;    0.000
638.807; 4031.700;  233.375;    0.000
638.925; 3895.700;  217.375;    0.000
639.042; 3879.700;  180.375;    0.000
639.160; 3941.700;  220.375;    0.000
639.278; 3892.700;  180.375;    0.000
639.395; 3962.700;  243.375;    0.000
639.513; 3982.700;  207.375;    0.000
639.630; 3892.700;  183.375;    0.000
639.748; 3927.700;  231.375;    0.000
639.865; 4001.700;  215.375;    0.000
639.983; 3948.700;  182.375;    0.000
640.100; 3964.700;  190.375;    0.000
640.218; 3857.700;  224.375;    0.000
640.335; 3988.700;  214.375;    0.000
640.453; 3925.700;  212.375;    0.000
640.570; 3927.700;  224.375;    0.000
640.688; 3979.700;  220.375;    0.000
640.805; 3973.700;  189.375;    0.000
640.922; 4017.700;  256.375;    0.000
641.040; 3987.700;  209.375;    0.000
641.157; 3928.700;  195.375;    0.000
641.274; 4014.700;  195.375;    0.000
641.391; 3947.700;  231.375;    0.000
641.509; 3999.700;  207.375;    0.000
641.626; 4052.700;  227.375;    0.000
641.743; 4015.700;  188.375;    0.000
641.860; 3978.700;  208.375;    0.000
641.978; 3968.700;  222.375;    0.000
642.095; 3990.700;  194.375;    0.000
642.212; 3941.700;  202.375;    0.000
642.329; 4124.700;  241.375;    0.000
642.446; 3958.700;  261.375;    0.000
642.563; 3969.700;  236.375;    0.000
642.681; 3942.700;  228.375;    0.000
642.798; 4073.700;  242.375;    0.000
642.915; 4001.700;  197.375;    0.000
643.032; 3992.700;  239.375;    0.000
643.149; 4031.700;  241.375;    0.000
643.266; 4042.700;  199.375;    0.000
643.383; 4101.700;  200.375;    0.000
643.500; 3983.700;  221.375;    0.000
643.617; 4113.700;  196.375;    0.000
643.734; 4084.700;  207.375;    0.000
643.850; 4142.700;  222.375;    0.000
643.967; 4185.700;  235.375;    0.000
644.084; 4102.700;  233.375;    0.000
644.201; 4095.700;  229.375;    0.000
644.318; 4089.700;  210.375;    0.000
644.435; 4164.700;  234.375;    0.000
644.552; 4085.700;  220.375;    0.000
644.668; 4124.700;  231.375;    0.000
644.785; 4238.700;  231.375;    0.000
644.902; 4137.700;  238.375;    0.000
645.019; 4185.700;  226.375;    0.000
645.135; 4149.700;  179.375;    0.000
645.252; 4279.700;  224.375;    0.000
645.369; 4194.700;  206.375;    0.000
645.485; 4229.700;  200.375;    0.000
645.602; 4243.700;  210.375;    0.000
645.719; 4211.700;  206.375;    0.000
645.835; 4310.700;  247.375;    0.000
645.952; 4232.700;  222.375;    0.000
646.068; 4341.700;  205.375;    0.000
646.185; 4454.700;  230.375;    0.000
646.302; 4428.700;  254.375;    0.000
646.418; 4400.700;  230.375;    0.000
646.535; 4373.700;  214.375;    0.000
646.651; 4303.700;  179.375;    0.000
646.768; 4416.700;  190.375;    0.000
646.884; 4581.700;  208.375;    0.000
647.000; 4547.700;  262.375;    0.000
647.117; 4507.700;  212.375;    0.000
647.233; 4604.700;  228.375;    0.000
647.350; 4591.700;  208.375;    0.000
647.466; 4473.700;  211.375;    0.000
647.582; 4632.700;  196.375;    0.000
647.699; 4658.700;  217.375;    0.000
647.815; 4643.700;  203.375;    0.000
647.931; 4710.700;  201.375;    0.000
648.047; 4733.700;  182.375;    0.000
648.164; 4697.700;  219.375;    0.000
648.280; 4836.700;  213.375;    0.000
648.396; 4826.700;  202.375;    0.000
648.512; 4826.700;  233.375;    0.000
648.629; 4775.700;  206.375;    0.000
648.745; 4917.700;  188.375;    0.000
648.861; 4865.700;  209.375;    0.000
648.977; 4884.700;  218.375;    0.000
649.093; 4918.700;  225.375;    0.000
649.209; 4814.700;  240.375;    0.000
649.325; 4949.700;  253.375;    0.000
649.441; 4813.700;  263.375;    0.000
649.557; 5053.700;  256.375;    0.000
649.673; 5030.700;  211.375;    0.000
649.789; 5012.700;  237.375;    0.000
649.905; 4861.700;  183.375;    0.000
650.021; 5075.700;  238.375;    0.000
650.137; 5041.700;  241.375;    0.000
650.253; 5004.700;  228.375;    0.000
650.369; 5015.700;  221.375;    0.000
650.485; 5167.700;  240.375;    0.000
650.601; 5206.700;  254.375;    0.000
650.717; 5331.700;  201.375;    0.000
650.833; 5207.700;  257.375;    0.000
650.948; 5206.700;  213.375;    0.000
651.064; 5266.700;  223.375;    0.000
651.180; 5386.700;  230.375;    0.000
651.296; 5454.700;  235.375;    0.000
651.411; 5434.700;  221.375;    0.000
651.527; 5438.700;  233.375;    0.000
651.643; 5518.700;  236.375;    0.000
651.759; 5510.700;  268.375;    0.000
651.874; 5624.700;  214.375;    0.000
651.990; 5774.700;  251.375;    0.000
652.105; 5718.700;  217.375;    0.000
652.221; 5770.700;  243.375;    0.000
652.337; 5864.700;  231.375;    0.000
652.452; 5897.700;  238.375;    0.000
652.568; 5944.700;  188.375;    0.000
652.683; 6064.700;  197.375;    0.000
652.799; 6204.700;  194.375;    0.000
652.914; 6185.700;  222.375;    0.000
653.030; 6319.700;  200.375;    0.000
653.145; 6407.700;  235.375;    0.000
653.261; 6517.700;  261.375;    0.000
653.376; 6705.700;  228.375;    0.000
653.492; 7025.700;  222.375;    0.000
653.607; 6852.700;  227.375;    0.000
653.722; 6968.700;  250.375;    0.000
653.838; 7217.700;  255.375;    0.000
653.953; 7309.700;  235.375;    0.000
654.068; 7501.700;  266.375;    0.000
654.184; 7625.700;  210.375;    0.000
654.299; 7941.700;  240.375;    0.000
654.414; 8071.700;  222.375;    0.000
654.530; 8301.700;  222.375;    0.000
654.645; 8413.700;  256.375;    0.000
654.760; 8843.700;  244.375;    0.000
654.875; 8991.700;  229.375;    0.000
654.990; 9366.700;  226.375;    0.000
655.106; 9603.700;  254.375;    0.000
655.221;10081.700;  251.375;    0.000
655.336;10504.700;  245.375;    0.000
655.451;11012.700;  199.375;    0.000
655.566;11474.700;  228.375;    0.000
655.681;12142.700;  208.375;    0.000
655.796;12701.700;  218.375;    0.000
655.911;13567.700;  233.375;    0.000
656.026;14403.700;  232.375;    0.000
656.141;15288.700;  223.375;    0.000
656.256;16196.700;  247.375;    0.000
656.371;16265.700;  220.375;    0.000
656.486;15864.700;  225.375;    0.000
656.601;15476.700;  257.375;    0.000
656.716;14781.700;  248.375;    0.000
656.831;14265.700;  262.375;    0.000
656.946;13631.700;  249.375;    0.000
657.060;13089.700;  245.375;    0.000
657.175;12633.700;  245.375;    0.000
657.290;12117.700;  219.375;    0.000
657.405;11723.700;  286.375;    0.000
657.520;11298.700;  259.375;    0.000
657.634;10933.700;  239.375;    0.000
657.749;10603.700;  227.375;    0.000
657.864;10359.700;  210.375;    0.000
657.979;10050.700;  236.375;    0.000
658.093; 9662.700;  210.375;    0.000
658.208; 9467.700;  248.375;    0.000
658.323; 9096.700;  216.375;    0.000
658.437; 8908.700;  248.375;    0.000
658.552; 8720.700;  249.375;    0.000
658.666; 8360.700;  256.375;    0.000
658.781; 8262.700;  247.375;    0.000
658.895; 8231.700;  209.375;    0.000
659.010; 7957.700;  219.375;    0.000
659.125; 7677.700;  215.375;    0.000
659.239; 7685.700;  205.375;    0.000
659.353; 7500.700;  246.375;    0.000
659.468; 7426.700;  245.375;    0.000
659.582; 7233.700;  244.375;    0.000
659.697; 7121.700;  242.375;    0.000
659.811; 7075.700;  239.375;    0.000
659.926; 6787.700;  226.375;    0.000
660.040; 6782.700;  255.375;    0.000
660.154; 6649.700;  225.375;    0.000
660.269; 6601.700;  200.375;    0.000
660.383; 6508.700;  192.375;    0.000
660.497; 6326.700;  218.375;    0.000
660.612; 6432.700;  236.375;    0.000
660.726; 6297.700;  263.375;    0.000
660.840; 6251.700;  205.375;    0.000
660.954; 6051.700;  219.375;    0.000
661.068; 5918.700;  240.375;    0.000
661.183; 6057.700;  221.375;    0.000
661.297; 5851.700;  194.375;    0.000
661.411; 5842.700;  253.375;    0.000
661.525; 5736.700;  246.375;    0.000
661.639; 5706.700;  217.375;    0.000
661.753; 5411.700;  241.375;    0.000
661.867; 5476.700;  276.375;    0.000
661.981; 5294.700;  203.375;    0.000
662.095; 5405.700;  224.375;    0.000
662.209; 5200.700;  217.375;    0.000
662.323; 5132.700;  251.375;    0.000
662.437; 5103.700;  243.375;    0.000
662.551; 4986.700;  244.375;    0.000
662.665; 5039.700;  247.375;    0.000
662.779; 5019.700;  251.375;    0.000
662.893; 4967.700;  254.375;    0.000
663.007; 4830.700;  222.375;    0.000
663.121; 4836.700;  253.375;    0.000
663.235; 4888.700;  270.375;    0.000
663.349; 4748.700;  242.375;    0.000
663.462; 4666.700;  230.375;    0.000
663.576; 4654.700;  230.375;    0.000
663.690; 4563.700;  249.375;    0.000
663.804; 4697.700;  200.375;    0.000
663.917; 4585.700;  204.375;    0.000
664.031; 4608.700;  206.375;    0.000
664.145; 4396.700;  202.375;    0.000
664.258; 4552.700;  221.375;    0.000
664.372; 4373.700;  215.375;    0.000
664.486; 4265.700;  179.375;    0.000
664.599; 4331.700;  208.375;    0.000
664.713; 4405.700;  268.375;    0.000
664.827; 4235.700;  225.375;    0.000
664.940; 4183.700;  222.375;    0.000
665.054; 4175.700;  208.375;    0.000
665.167; 4178.700;  253.375;    0.000
665.281; 4173.700;  237.375;    0.000
665.394; 4172.700;  227.375;    0.000
665.508; 4028.700;  192.375;    0.000
665.621; 4106.700;  175.375;    0.000
665.735; 4166.700;  249.375;    0.000
665.848; 4203.700;  197.375;    0.000
665.961; 4099.700;  206.375;    0.000
666.075; 3927.700;  245.375;    0.000
666.188; 3982.700;  230.375;    0.000
666.301; 4010.700;  219.375;    0.000
666.415; 4010.700;  231.375;    0.000
666.528; 3834.700;  258.375;    0.000
666.641; 3952.700;  243.375;    0.000
666.755; 3944.700;  208.375;    0.000
666.868; 3888.700;  228.375;    0.000
666.981; 3860.700;  244.375;    0.000
667.094; 3926.700;  244.375;    0.000
667.207; 3833.700;  226.375;    0.000
667.321; 3811.700;  175.375;    0.000
667.434; 3681.700;  211.375;    0.000
667.547; 3783.700;  249.375;    0.000
667.660; 3700.700;  225.375;    0.000
667.773; 3711.700;  242.375;    0.000
667.886; 3738.700;  246.375;    0.000
667.999; 3719.700;  244.375;    0.000
668.112; 3678.700;  227.375;    0.000
668.225; 3647.700;  231.375;    0.000
668.338; 3590.700;  256.375;    0.000
668.451; 3672.700;  216.375;    0.000
668.564; 3520.700;  261.375;    0.000
668.677; 3532.700;  230.375;    0.000
668.790; 3468.700;  192.375;    0.000
668.903; 3584.700;  243.375;    0.000
669.016; 3413.700;  201.375;    0.000
669.129; 3411.700;  249.375;    0.000
669.242; 3391.700;  190.375;    0.000
669.354; 3511.700;  219.375;    0.000
669.467; 3529.700;  242.375;    0.000
669.580; 3375.700;  237.375;    0.000
669.693; 3388.700;  243.375;    0.000
669.806; 3418.700;  234.375;    0.000
669.918; 3406.700;  206.375;    0.000
670.031; 3455.700;  258.375;    0.000
670.144; 3382.700;  231.375;    0.000
670.256; 3395.700;  244.375;    0.000
670.369; 3408.700;  262.375;    0.000
670.482; 3330.700;  264.375;    0.000
670.594; 3344.700;  256.375;    0.000
670.707; 3380.700;  224.375;    0.000
670.820; 3316.700;  261.375;    0.000
670.932; 3407.700;  226.375;    0.000
671.045; 3394.700;  243.375;    0.000
671.157; 3375.700;  235.375;    0.000
671.270; 3289.700;  217.375;    0.000
671.382; 3317.700;  267.375;    0.000
671.495; 3192.700;  258.375;    0.000
671.607; 3254.700;  236.375;    0.000
671.720; 3202.700;  200.375;    0.000
671.832; 3251.700;  219.375;    0.000
671.944; 3223.700;  234.375;    0.000
672.057; 3237.700;  226.375;    0.000
672.169; 3226.700;  225.375;    0.000
672.281; 3254.700;  253.375;    0.000
672.394; 3208.700;  238.375;    0.000
672.506; 3186.700;  244.375;    0.000
672.618; 3185.700;  272.375;    0.000
672.731; 3196.700;  247.375;    0.000
672.843; 3138.700;  261.375;    0.000
672.955; 3173.700;  262.375;    0.000
673.067; 3078.700;  253.375;    0.000
673.180; 3145.700;  239.375;    0.000
673.292; 3207.700;  240.375;    0.000
673.404; 3182.700;  243.375;    0.000
673.516; 3163.700;  258.375;    0.000
673.628; 3166.700;  263.375;    0.000
673.740; 3063.700;  250.375;    0.000
673.852; 3082.700;  285.375;    0.000
673.964; 3142.700;  264.375;    0.000
674.076; 3114.700;  260.375;    0.000
674.188; 3034.700;  226.375;    0.000
674.300; 3058.700;  272.375;    0.000
674.412; 3036.700;  259.375;    0.000
674.524; 3042.700;  283.375;    0.000
674.636; 3008.700;  259.375;    0.000
674.748; 3024.700;  238.375;    0.000
674.860; 3072.700;  277.375;    0.000
674.972; 2989.700;  272.375;    0.000
675.084; 3014.700;  244.375;    0.000
675.196; 2989.700;  272.375;    0.000
675.307; 3033.700;  244.375;    0.000
675.419; 3013.700;  219.375;    0.000
675.531; 3027.700;  275.375;    0.000
675.643; 2938.700;  215.375;    0.000
675.755; 2963.700;  243.375;    0.000
675.866; 3009.700;  223.375;    0.000
675.978; 3051.700;  216.375;    0.000
676.090; 2992.700;  242.375;    0.000
676.201; 2968.700;  276.375;    0.000
676.313; 2984.700;  226.375;    0.000
676.425; 2925.700;  234.375;    0.000
676.536; 3004.700;  231.375;    0.000
676.648; 2973.700;  254.375;    0.000
676.759; 3025.700;  273.375;    0.000
676.871; 2935.700;  250.375;    0.000
676.983; 2893.700;  256.375;    0.000
677.094; 2891.700;  210.375;    0.000
677.206; 2977.700;  248.375;    0.000
677.317; 2947.700;  263.375;    0.000
677.429; 2792.700;  238.375;    0.000
677.540; 2899.700;  247.375;    0.000
677.651; 2792.700;  224.375;    0.000
677.763; 2857.700;  217.375;    0.000
677.874; 2786.700;  234.375;    0.000
677.986; 2887.700;  238.375;    0.000
678.097; 2762.700;  226.375;    0.000
678.208; 2871.700;  253.375;    0.000
678.320; 2795.700;  217.375;    0.000
678.431; 2840.700;  238.375;    0.000
678.542; 2770.700;  236.375;    0.000
678.653; 2816.700;  218.375;    0.000
678.765; 2802.700;  275.375;    0.000
678.876; 2788.700;  213.375;    0.000
678.987; 2693.700;  182.375;    0.000
679.098; 2760.700;  221.375;    0.000
679.209; 2709.700;  238.375;    0.000
679.320; 2774.700;  212.375;    0.000
679.432; 2805.700;  231.375;    0.000
679.543; 2763.700;  198.375;    0.000
679.654; 2811.700;  191.375;    0.000
679.765; 2727.700;  214.375;    0.000
679.876; 2738.700;  221.375;    0.000
679.987; 2775.700;  162.375;    0.000
680.098; 2742.700;  230.375;    0.000
680.209; 2732.700;  206.375;    0.000
680.320; 2744.700;  196.375;    0.000
680.431; 2686.700;  191.375;    0.000
680.542; 2742.700;  214.375;    0.000
680.653; 2736.700;  238.375;    0.000
680.763; 2649.700;  182.375;    0.000
680.874; 2775.700;  213.375;    0.000
680.985; 2664.700;  224.375;    0.000
681.096; 2666.700;  222.375;    0.000
681.207; 2623.700;  220.375;    0.000
681.318; 2683.700;  216.375;    0.000
681.428; 2652.700;  229.375;    0.000
681.539; 2731.700;  183.375;    0.000
681.650; 2708.700;  202.375;    0.000
681.760; 2642.700;  223.375;    0.000
681.871; 2644.700;  211.375;    0.000
681.982; 2683.700;  189.375;    0.000
682.093; 2568.700;  222.375;    0.000
682.203; 2643.700;  220.375;    0.000
682.314; 2604.700;  214.375;    0.000
682.424; 2613.700;  208.375;    0.000
682.535; 2580.700;  213.375;    0.000
682.646; 2719.700;  302.375;    0.000
682.756; 2658.700;  255.375;    0.000
682.867; 2645.700;  244.375;    0.000
682.977; 2623.700;  221.375;    0.000
683.088; 2673.700;  259.375;    0.000
683.198; 2586.700;  212.375;    0.000
683.308; 2616.700;  202.375;    0.000
683.419; 2629.700;  255.375;    0.000
683.529; 2630.700;  217.375;    0.000
683.640; 2629.700;  240.375;    0.000
683.750; 2610.700;  181.375;    0.000
683.860; 2679.700;  246.375;    0.000
683.971; 2629.700;  254.375;    0.000
684.081; 2638.700;  235.375;    0.000
684.191; 2679.700;  251.375;    0.000
684.301; 2598.700;  233.375;    0.000
684.412; 2670.700;  202.375;    0.000
684.522; 2639.700;  232.375;    0.000
684.632; 2638.700;  202.375;    0.000
684.742; 2606.700;  254.375;    0.000
684.852; 2584.700;  219.375;    0.000
684.963; 2570.700;  256.375;    0.000
685.073; 2606.700;  253.375;    0.000
685.183; 2638.700;  254.375;    0.000
685.293; 2520.700;  232.375;    0.000
685.403; 2617.700;  242.375;    0.000
685.513; 2702.700;  261.375;    0.000
685.623; 2566.700;  245.375;    0.000
685.733; 2546.700;  254.375;    0.000
685.843; 2573.700;  249.375;    0.000
685.953; 2613.700;  252.375;    0.000
686.063; 2584.700;  227.375;    0.000
686.173; 2662.700;  223.375;    0.000
686.283; 2568.700;  234.375;    0.000
686.393; 2509.700;  239.375;    0.000
686.503; 2545.700;  231.375;    0.000
686.612; 2597.700;  232.375;    0.000
686.722; 2566.700;  258.375;    0.000
686.832; 2605.700;  256.375;    0.000
686.942; 2549.700;  230.375;    0.000
687.052; 2557.700;  274.375;    0.000
687.161; 2561.700;  269.375;    0.000
687.271; 2478.700;  218.375;    0.000
687.381; 2505.700;  235.375;    0.000
687.491; 2497.700;  262.375;    0.000
687.600; 2531.700;  256.375;    0.000
687.710; 2583.700;  225.375;    0.000
687.820; 2558.700;  230.375;    0.000
687.929; 2533.700;  226.375;    0.000
688.039; 2471.700;  228.375;    0.000
688.148; 2486.700;  249.375;    0.000
688.258; 2506.700;  237.375;    0.000
688.367; 2602.700;  260.375;    0.000
688.477; 2523.700;  200.375;    0.000
688.586; 2486.700;  223.375;    0.000
688.696; 2556.700;  223.375;    0.000
688.805; 2528.700;  257.375;    0.000
688.915; 2542.700;  185.375;    0.000
689.024; 2544.700;  227.375;    0.000
689.134; 2562.700;  224.375;    0.000
689.243; 2501.700;  206.375;    0.000
689.352; 2585.700;  275.375;    0.000
689.462; 2534.700;  233.375;    0.000
689.571; 2473.700;  244.375;    0.000
689.680; 2534.700;  261.375;    0.000
689.790; 2409.700;  192.375;    0.000
689.899; 2525.700;  214.375;    0.000
690.008; 2480.700;  255.375;    0.000
690.117; 2503.700;  219.375;    0.000
690.227; 2534.700;  241.375;    0.000
690.336; 2463.700;  231.375;    0.000
690.445; 2461.700;  212.375;    0.000
690.554; 2477.700;  234.375;    0.000
690.663; 2446.700;  210.375;    0.000
690.772; 2496.700;  221.375;    0.000
690.881; 2476.700;  244.375;    0.000
690.990; 2417.700;  247.375;    0.000
691.099; 2411.700;  222.375;    0.000
691.209; 2458.700;  240.375;    0.000
691.318; 2373.700;  223.375;    0.000
691.427; 2477.700;  217.375;    0.000
691.536; 2471.700;  216.375;    0.000
691.644; 2510.700;  194.375;    0.000
691.753; 2396.700;  221.375;    0.000
691.862; 2501.700;  224.375;    0.000
691.971; 2501.700;  191.375;    0.000
692.080; 2470.700;  247.375;    0.000
692.189; 2418.700;  208.375;    0.000
692.298; 2469.700;  203.375;    0.000
692.406; 2547.700;  239.375;    0.000
692.515; 2407.700;  250.375;    0.000
692.624; 2442.700;  226.375;    0.000
692.733; 2430.700;  229.375;    0.000
692.842; 2427.700;  254.375;    0.000
692.950; 2438.700;  242.375;    0.000
693.059; 2396.700;  204.375;    0.000
693.168; 2500.700;  252.375;    0.000
693.276; 2432.700;  195.375;    0.000
693.385; 2434.700;  228.375;    0.000
693.494; 2466.700;  282.375;    0.000
693.602; 2359.700;  221.375;    0.000
693.711; 2421.700;  225.375;    0.000
693.819; 2411.700;  234.375;    0.000
693.928; 2416.700;  229.375;    0.000
694.036; 2426.700;  192.375;    0.000
694.145; 2428.700;  233.375;    0.000
694.253; 2415.700;  277.375;    0.000
694.362; 2394.700;  188.375;    0.000
694.470; 2499.700;  263.375;    0.000
694.579; 2390.700;  253.375;    0.000
694.687; 2473.700;  281.375;    0.000
694.795; 2436.700;  233.375;    0.000
694.904; 2412.700;  223.375;    0.000
695.012; 2410.700;  296.375;    0.000
695.120; 2440.700;  227.375;    0.000
695.229; 2445.700;  269.375;    0.000
695.337; 2389.700;  229.375;    0.000
695.445; 2467.700;  244.375;    0.000
695.553; 2438.700;  259.375;    0.000
695.662; 2427.700;  208.375;    0.000
695.770; 2355.700;  241.375;    0.000
695.878; 2379.700;  239.375;    0.000
695.986; 2382.700;  247.375;    0.000
696.094; 2370.700;  224.375;    0.000
696.202; 2360.700;  205.375;    0.000
696.310; 2350.700;  217.375;    0.000
696.419; 2378.700;  228.375;    0.000
696.527; 2474.700;  246.375;    0.000
696.635; 2330.700;  245.375;    0.000
696.743; 2385.700;  233.375;    0.000
696.851; 2418.700;  251.375;    0.000
696.959; 2396.700;  257.375;    0.000
697.067; 2478.700;  260.375;    0.000
697.174; 2458.700;  223.375;    0.000
697.282; 2367.700;  239.375;    0.000
697.390; 2434.700;  264.375;    0.000
697.498; 2433.700;  227.375;    0.000
697.606; 2380.700;  243.375;    0.000
697.714; 2414.700;  256.375;    0.000
697.822; 2482.700;  278.375;    0.000
697.929; 2326.700;  227.375;    0.000
698.037; 2363.700;  232.375;    0.000
698.145; 2397.700;  256.375;    0.000
698.253; 2320.700;  245.375;    0.000
698.360; 2364.700;  282.375;    0.000
698.468; 2368.700;  244.375;    0.000
698.576; 2438.700;  279.375;    0.000
698.683; 2405.700;  259.375;    0.000
698.791; 2389.700;  265.375;    0.000
698.899; 2439.700;  250.375;    0.000
699.006; 2373.700;  245.375;    0.000
699.114; 2442.700;  280.375;    0.000
699.221; 2409.700;  240.375;    0.000
699.329; 2411.700;  293.375;    0.000
699.436; 2354.700;  216.375;    0.000
699.544; 2353.700;  269.375;    0.000
699.651; 2374.700;  219.375;    0.000
699.759; 2329.700;  245.375;    0.000
699.866; 2302.700;  261.375;    0.000
699.974; 2282.700;  245.375;    0.000
700.081; 2361.700;  257.375;    0.000
700.188; 2334.700;  268.375;    0.000
700.296; 2371.700;  225.375;    0.000
700.403; 2336.700;  257.375;    0.000
700.510; 2330.700;  267.375;    0.000
700.618; 2319.700;  299.375;    0.000
700.725; 2402.700;  223.375;    0.000
700.832; 2308.700;  233.375;    0.000
700.940; 2347.700;  255.375;    0.000
701.047; 2328.700;  244.375;    0.000
701.154; 2340.700;  248.375;    0.000
701.261; 2260.700;  264.375;    0.000
701.368; 2393.700;  299.375;    0.000
701.475; 2290.700;  264.375;    0.000
701.582; 2271.700;  275.375;    0.000
701.690; 2331.700;  261.375;    0.000
701.797; 2333.700;  273.375;    0.000
701.904; 2385.700;  320.375;    0.000
702.011; 2284.700;  299.375;    0.000
702.118; 2366.700;  292.375;    0.000
702.225; 2378.700;  317.375;    0.000
702.332; 2361.700;  307.375;    0.000
702.439; 2305.700;  313.375;    0.000
702.546; 2377.700;  312.375;    0.000
702.652; 2436.700;  297.375;    0.000
702.759; 2368.700;  345.375;    0.000
702.866; 2373.700;  330.375;    0.000
702.973; 2405.700;  303.375;    0.000
703.080; 2347.700;  303.375;    0.000
703.187; 2331.700;  327.375;    0.000
703.294; 2461.700;  325.375;    0.000
703.400; 2195.700;  302.375;    0.000
703.507;  525.700;  344.375;    0.000
703.614;  282.700;  294.375;    0.000
703.720;  308.700;  322.375;    0.000
703.827;  299.700;  329.375;    0.000
703.934;  318.700;  318.375;    0.000
704.040;  303.700;  299.375;    0.000
704.147;  322.700;  352.375;    0.000
704.254;  339.700;  350.375;    0.000
704.360;  322.700;  347.375;    0.000
704.467;  326.700;  336.375;    0.000
704.573;  322.700;  344.375;    0.000
704.680;  304.700;  365.375;    0.000
704.786;  326.700;  332.375;    0.000
704.893;  318.700;  304.375;    0.000
704.999;  320.700;  299.375;    0.000
705.106;  320.700;  365.375;    0.000

