
Integration time [ms]:   1.000
Averaging Nr. [scans]: 1
Smoothing Nr. [pixels]: 0
Data measured with spectrometer [name]: UV1
Wave   ;Sample   ;Dark     ;Reference
[nm]   ;[counts] ;[counts] ;[counts] 

236.381;  164.175;  175.825;    0.000
236.451;  182.175;  220.825;    0.000
236.520;  188.175;  178.825;    0.000
236.590;  214.175;  182.825;    0.000
236.660;  163.175;  180.825;    0.000
236.730;  197.175;  201.825;    0.000
236.799;  204.175;  168.825;    0.000
236.869;  183.175;  205.825;    0.000
236.939;  190.175;  175.825;    0.000
237.009;  172.175;  186.825;    0.000
237.078;  155.175;  200.825;    0.000
237.148;  145.175;  156.825;    0.000
237.218;  174.175;  190.825;    0.000
237.287;  172.175;  167.825;    0.000
237.357;  149.175;  213.825;    0.000
237.427;  140.175;  164.825;    0.000
237.496;  689.175;  210.825;    0.000
237.566;  630.175;  193.825;    0.000
237.636;  593.175;  179.825;    0.000
237.705;  659.175;  218.825;    0.000
237.775;  597.175;  160.825;    0.000
237.845;  623.175;  207.825;    0.000
237.914;  630.175;  180.825;    0.000
237.984;  685.175;  207.825;    0.000
238.054;  568.175;  149.825;    0.000
238.123;  619.175;  190.825;    0.000
238.193;  620.175;  167.825;    0.000
238.263;  648.175;  172.825;    0.000
238.332;  567.175;  173.825;    0.000
238.402;  617.175;  214.825;    0.000
238.471;  638.175;  181.825;    0.000
238.541;  613.175;  177.825;    0.000
238.611;  585.175;  138.825;    0.000
238.680;  618.175;  168.825;    0.000
238.750;  603.175;  171.825;    0.000
238.819;  626.175;  156.825;    0.000
238.889;  629.175;  194.825;    0.000
238.958;  583.175;  185.825;    0.000
239.028;  628.175;  170.825;    0.000
239.097;  622.175;  159.825;    0.000
239.167;  668.175;  208.825;    0.000
239.237;  627.175;  167.825;    0.000
239.306;  562.175;  154.825;    0.000
239.376;  627.175;  183.825;    0.000
239.445;  668.175;  221.825;    0.000
239.515;  609.175;  208.825;    0.000
239.584;  642.175;  177.825;    0.000
239.654;  600.175;  133.825;    0.000
239.723;  640.175;  167.825;    0.000
239.793;  637.175;  190.825;    0.000
239.862;  597.175;  192.825;    0.000
239.932;  628.175;  174.825;    0.000
240.001;  603.175;  166.825;    0.000
240.070;  651.175;  179.825;    0.000
240.140;  605.175;  191.825;    0.000
240.209;  609.175;  134.825;    0.000
240.279;  587.175;  185.825;    0.000
240.348;  610.175;  193.825;    0.000
240.418;  618.175;  149.825;    0.000
240.487;  581.175;  197.825;    0.000
240.556;  627.175;  193.825;    0.000
240.626;  586.175;  178.825;    0.000
240.695;  578.175;  194.825;    0.000
240.765;  626.175;  178.825;    0.000
240.834;  529.175;  190.825;    0.000
240.903;  606.175;  212.825;    0.000
240.973;  590.175;  153.825;    0.000
241.042;  594.175;  177.825;    0.000
241.112;  608.175;  193.825;    0.000
241.181;  601.175;  171.825;    0.000
241.250;  544.175;  152.825;    0.000
241.320;  646.175;  176.825;    0.000
241.389;  572.175;  186.825;    0.000
241.458;  625.175;  182.825;    0.000
241.528;  595.175;  175.825;    0.000
241.597;  623.175;  180.825;    0.000
241.666;  588.175;  162.825;    0.000
241.736;  623.175;  187.825;    0.000
241.805;  529.175;  173.825;    0.000
241.874;  574.175;  177.825;    0.000
241.943;  598.175;  208.825;    0.000
242.013;  651.175;  183.825;    0.000
242.082;  568.175;  171.825;    0.000
242.151;  565.175;  208.825;    0.000
242.221;  562.175;  160.825;    0.000
242.290;  576.175;  200.825;    0.000
242.359;  538.175;  167.825;    0.000
242.428;  565.175;  213.825;    0.000
242.498;  601.175;  156.825;    0.000
242.567;  594.175;  200.825;    0.000
242.636;  583.175;  178.825;    0.000
242.705;  578.175;  185.825;    0.000
242.774;  599.175;  190.825;    0.000
242.844;  579.175;  194.825;    0.000
242.913;  560.175;  162.825;    0.000
242.982;  588.175;  189.825;    0.000
243.051;  576.175;  176.825;    0.000
243.120;  598.175;  213.825;    0.000
243.190;  616.175;  155.825;    0.000
243.259;  617.175;  183.825;    0.000
243.328;  583.175;  170.825;    0.000
243.397;  571.175;  224.825;    0.000
243.466;  560.175;  172.825;    0.000
243.535;  627.175;  145.825;    0.000
243.605;  543.175;  157.825;    0.000
243.674;  618.175;  199.825;    0.000
243.743;  564.175;  196.825;    0.000
243.812;  537.175;  152.825;    0.000
243.881;  590.175;  188.825;    0.000
243.950;  566.175;  154.825;    0.000
244.019;  552.175;  195.825;    0.000
244.088;  601.175;  164.825;    0.000
244.158;  587.175;  220.825;    0.000
244.227;  550.175;  150.825;    0.000
244.296;  508.175;  153.825;    0.000
244.365;  573.175;  195.825;    0.000
244.434;  535.175;  136.825;    0.000
244.503;  530.175;  172.825;    0.000
244.572;  518.175;  129.825;    0.000
244.641;  543.175;  132.825;    0.000
244.710;  553.175;  185.825;    0.000
244.779;  580.175;  164.825;    0.000
244.848;  520.175;  132.825;    0.000
244.917;  622.175;  196.825;    0.000
244.986;  544.175;  148.825;    0.000
245.055;  565.175;  192.825;    0.000
245.124;  509.175;  170.825;    0.000
245.193;  583.175;  172.825;    0.000
245.262;  494.175;  146.825;    0.000
245.331;  571.175;  178.825;    0.000
245.400;  553.175;  108.825;    0.000
245.469;  531.175;  173.825;    0.000
245.538;  544.175;  180.825;    0.000
245.607;  570.175;  171.825;    0.000
245.676;  572.175;  149.825;    0.000
245.745;  515.175;  194.825;    0.000
245.814;  532.175;  186.825;    0.000
245.883;  535.175;  192.825;    0.000
245.952;  552.175;  169.825;    0.000
246.021;  515.175;  190.825;    0.000
246.090;  534.175;  181.825;    0.000
246.159;  485.175;  179.825;    0.000
246.227;  498.175;  182.825;    0.000
246.296;  515.175;  182.825;    0.000
246.365;  526.175;  171.825;    0.000
246.434;  550.175;  218.825;    0.000
246.503;  505.175;  147.825;    0.000
246.572;  504.175;  227.825;    0.000
246.641;  498.175;  193.825;    0.000
246.710;  538.175;  207.825;    0.000
246.779;  498.175;  181.825;    0.000
246.847;  499.175;  179.825;    0.000
246.916;  523.175;  155.825;    0.000
246.985;  540.175;  168.825;    0.000
247.054;  474.175;  137.825;    0.000
247.123;  486.175;  128.825;    0.000
247.192;  518.175;  163.825;    0.000
247.260;  474.175;  173.825;    0.000
247.329;  519.175;  174.825;    0.000
247.398;  530.175;  238.825;    0.000
247.467;  506.175;  168.825;    0.000
247.536;  502.175;  203.825;    0.000
247.604;  516.175;  194.825;    0.000
247.673;  548.175;  145.825;    0.000
247.742;  512.175;  167.825;    0.000
247.811;  540.175;  180.825;    0.000
247.879;  482.175;  187.825;    0.000
247.948;  537.175;  187.825;    0.000
248.017;  491.175;  170.825;    0.000
248.086;  491.175;  223.825;    0.000
248.154;  521.175;  160.825;    0.000
248.223;  486.175;  163.825;    0.000
248.292;  547.175;  201.825;    0.000
248.361;  540.175;  205.825;    0.000
248.429;  504.175;  191.825;    0.000
248.498;  479.175;  194.825;    0.000
248.567;  500.175;  217.825;    0.000
248.635;  516.175;  224.825;    0.000
248.704;  547.175;  204.825;    0.000
248.773;  517.175;  175.825;    0.000
248.841;  460.175;  157.825;    0.000
248.910;  501.175;  206.825;    0.000
248.979;  521.175;  170.825;    0.000
249.047;  508.175;  178.825;    0.000
249.116;  471.175;  183.825;    0.000
249.185;  491.175;  202.825;    0.000
249.253;  499.175;  159.825;    0.000
249.322;  513.175;  177.825;    0.000
249.390;  515.175;  157.825;    0.000
249.459;  508.175;  211.825;    0.000
249.528;  466.175;  181.825;    0.000
249.596;  552.175;  179.825;    0.000
249.665;  465.175;  176.825;    0.000
249.733;  524.175;  186.825;    0.000
249.802;  477.175;  185.825;    0.000
249.871;  536.175;  166.825;    0.000
249.939;  479.175;  163.825;    0.000
250.008;  509.175;  212.825;    0.000
250.076;  493.175;  227.825;    0.000
250.145;  489.175;  172.825;    0.000
250.213;  477.175;  173.825;    0.000
250.282;  484.175;  189.825;    0.000
250.350;  461.175;  166.825;    0.000
250.419;  507.175;  161.825;    0.000
250.487;  509.175;  178.825;    0.000
250.556;  485.175;  208.825;    0.000
250.624;  479.175;  190.825;    0.000
250.693;  427.175;  163.825;    0.000
250.761;  482.175;  194.825;    0.000
250.830;  479.175;  225.825;    0.000
250.898;  465.175;  140.825;    0.000
250.967;  462.175;  167.825;    0.000
251.035;  478.175;  155.825;    0.000
251.104;  466.175;  189.825;    0.000
251.172;  444.175;  136.825;    0.000
251.241;  431.175;  148.825;    0.000
251.309;  480.175;  201.825;    0.000
251.378;  484.175;  169.825;    0.000
251.446;  430.175;  178.825;    0.000
251.514;  509.175;  206.825;    0.000
251.583;  456.175;  178.825;    0.000
251.651;  455.175;  168.825;    0.000
251.720;  453.175;  190.825;    0.000
251.788;  496.175;  209.825;    0.000
251.856;  417.175;  173.825;    0.000
251.925;  427.175;  171.825;    0.000
251.993;  440.175;  188.825;    0.000
252.062;  497.175;  169.825;    0.000
252.130;  425.175;  196.825;    0.000
252.198;  455.175;  210.825;    0.000
252.267;  478.175;  181.825;    0.000
252.335;  437.175;  164.825;    0.000
252.403;  423.175;  152.825;    0.000
252.472;  449.175;  166.825;    0.000
252.540;  472.175;  189.825;    0.000
252.608;  454.175;  198.825;    0.000
252.677;  447.175;  156.825;    0.000
252.745;  448.175;  184.825;    0.000
252.813;  439.175;  163.825;    0.000
252.881;  389.175;  130.825;    0.000
252.950;  428.175;  189.825;    0.000
253.018;  420.175;  164.825;    0.000
253.086;  445.175;  172.825;    0.000
253.155;  408.175;  205.825;    0.000
253.223;  357.175;  175.825;    0.000
253.291;  381.175;  176.825;    0.000
253.359;  391.175;  182.825;    0.000
253.428;  379.175;  222.825;    0.000
253.496;  377.175;  166.825;    0.000
253.564;  373.175;  135.825;    0.000
253.632;  343.175;  184.825;    0.000
253.700;  358.175;  173.825;    0.000
253.769;  358.175;  163.825;    0.000
253.837;  401.175;  179.825;    0.000
253.905;  377.175;  157.825;    0.000
253.973;  350.175;  164.825;    0.000
254.041;  384.175;  170.825;    0.000
254.110;  376.175;  169.825;    0.000
254.178;  379.175;  165.825;    0.000
254.246;  413.175;  126.825;    0.000
254.314;  368.175;  166.825;    0.000
254.382;  371.175;  169.825;    0.000
254.450;  329.175;  170.825;    0.000
254.518;  382.175;  196.825;    0.000
254.587;  353.175;  161.825;    0.000
254.655;  389.175;  187.825;    0.000
254.723;  352.175;  144.825;    0.000
254.791;  421.175;  175.825;    0.000
254.859;  374.175;  168.825;    0.000
254.927;  371.175;  198.825;    0.000
254.995;  357.175;  165.825;    0.000
255.063;  375.175;  150.825;    0.000
255.131;  373.175;  181.825;    0.000
255.199;  326.175;  160.825;    0.000
255.267;  346.175;  131.825;    0.000
255.336;  407.175;  188.825;    0.000
255.404;  338.175;  163.825;    0.000
255.472;  429.175;  192.825;    0.000
255.540;  384.175;  158.825;    0.000
255.608;  376.175;  147.825;    0.000
255.676;  368.175;  166.825;    0.000
255.744;  396.175;  159.825;    0.000
255.812;  405.175;  164.825;    0.000
255.880;  421.175;  195.825;    0.000
255.948;  397.175;  167.825;    0.000
256.016;  375.175;  185.825;    0.000
256.084;  415.175;  191.825;    0.000
256.152;  401.175;  214.825;    0.000
256.220;  383.175;  195.825;    0.000
256.288;  401.175;  185.825;    0.000
256.356;  366.175;  168.825;    0.000
256.424;  378.175;  161.825;    0.000
256.491;  381.175;  161.825;    0.000
256.559;  360.175;  157.825;    0.000
256.627;  423.175;  164.825;    0.000
256.695;  366.175;  146.825;    0.000
256.763;  408.175;  194.825;    0.000
256.831;  427.175;  182.825;    0.000
256.899;  401.175;  192.825;    0.000
256.967;  422.175;  172.825;    0.000
257.035;  418.175;  169.825;    0.000
257.103;  479.175;  223.825;    0.000
257.171;  392.175;  141.825;    0.000
257.238;  377.175;  146.825;    0.000
257.306;  416.175;  180.825;    0.000
257.374;  372.175;  138.825;    0.000
257.442;  432.175;  135.825;    0.000
257.510;  439.175;  130.825;    0.000
257.578;  463.175;  123.825;    0.000
257.646;  501.175;  162.825;    0.000
257.713;  461.175;  149.825;    0.000
257.781;  515.175;  125.825;    0.000
257.849;  494.175;  149.825;    0.000
257.917;  440.175;  177.825;    0.000
257.985;  433.175;  143.825;    0.000
258.052;  447.175;  154.825;    0.000
258.120;  500.175;  162.825;    0.000
258.188;  450.175;  172.825;    0.000
258.256;  437.175;  160.825;    0.000
258.324;  493.175;  209.825;    0.000
258.391;  454.175;  153.825;    0.000
258.459;  499.175;  133.825;    0.000
258.527;  524.175;  160.825;    0.000
258.595;  483.175;  128.825;    0.000
258.662;  475.175;  114.825;    0.000
258.730;  546.175;  192.825;    0.000
258.798;  458.175;  144.825;    0.000
258.865;  509.175;  140.825;    0.000
258.933;  500.175;  150.825;    0.000
259.001;  546.175;  149.825;    0.000
259.069;  506.175;  110.825;    0.000
259.136;  552.175;  150.825;    0.000
259.204;  567.175;  156.825;    0.000
259.272;  589.175;  185.825;    0.000
259.339;  570.175;  148.825;    0.000
259.407;  592.175;  163.825;    0.000
259.475;  547.175;  129.825;    0.000
259.542;  500.175;  144.825;    0.000
259.610;  593.175;  164.825;    0.000
259.677;  554.175;  188.825;    0.000
259.745;  603.175;  113.825;    0.000
259.813;  640.175;  188.825;    0.000
259.880;  677.175;  174.825;    0.000
259.948;  691.175;  166.825;    0.000
260.016;  616.175;  150.825;    0.000
260.083;  636.175;  178.825;    0.000
260.151;  637.175;  120.825;    0.000
260.218;  631.175;  175.825;    0.000
260.286;  636.175;  155.825;    0.000
260.353;  703.175;  165.825;    0.000
260.421;  647.175;  169.825;    0.000
260.489;  685.175;  194.825;    0.000
260.556;  670.175;  161.825;    0.000
260.624;  621.175;  179.825;    0.000
260.691;  704.175;  174.825;    0.000
260.759;  678.175;  164.825;    0.000
260.826;  643.175;  125.825;    0.000
260.894;  698.175;  164.825;    0.000
260.961;  683.175;  147.825;    0.000
261.029;  747.175;  167.825;    0.000
261.096;  716.175;  136.825;    0.000
261.164;  724.175;  146.825;    0.000
261.231;  770.175;  190.825;    0.000
261.299;  752.175;  171.825;    0.000
261.366;  742.175;  165.825;    0.000
261.434;  745.175;  160.825;    0.000
261.501;  721.175;  149.825;    0.000
261.568;  748.175;  155.825;    0.000
261.636;  751.175;  137.825;    0.000
261.703;  758.175;  186.825;    0.000
261.771;  721.175;  162.825;    0.000
261.838;  731.175;  190.825;    0.000
261.906;  721.175;  133.825;    0.000
261.973;  792.175;  202.825;    0.000
262.040;  820.175;  179.825;    0.000
262.108;  763.175;  161.825;    0.000
262.175;  776.175;  155.825;    0.000
262.243;  833.175;  158.825;    0.000
262.310;  763.175;  129.825;    0.000
262.377;  823.175;  157.825;    0.000
262.445;  836.175;  132.825;    0.000
262.512;  853.175;  161.825;    0.000
262.579;  831.175;  151.825;    0.000
262.647;  858.175;  174.825;    0.000
262.714;  860.175;  174.825;    0.000
262.781;  865.175;  164.825;    0.000
262.849;  843.175;  168.825;    0.000
262.916;  866.175;  153.825;    0.000
262.983;  832.175;  201.825;    0.000
263.051;  867.175;  117.825;    0.000
263.118;  891.175;  150.825;    0.000
263.185;  878.175;  172.825;    0.000
263.252;  864.175;  154.825;    0.000
263.320;  849.175;  152.825;    0.000
263.387;  846.175;  136.825;    0.000
263.454;  924.175;  167.825;    0.000
263.522;  870.175;  122.825;    0.000
263.589;  895.175;  147.825;    0.000
263.656;  937.175;  130.825;    0.000
263.723;  880.175;  182.825;    0.000
263.790;  917.175;  163.825;    0.000
263.858;  910.175;  161.825;    0.000
263.925;  892.175;  153.825;    0.000
263.992;  907.175;  139.825;    0.000
264.059;  925.175;  141.825;    0.000
264.126;  959.175;  153.825;    0.000
264.194;  928.175;  144.825;    0.000
264.261;  939.175;  188.825;    0.000
264.328;  928.175;  161.825;    0.000
264.395;  975.175;  184.825;    0.000
264.462;  960.175;  162.825;    0.000
264.529;  945.175;  178.825;    0.000
264.597;  984.175;  160.825;    0.000
264.664;  935.175;  158.825;    0.000
264.731;  966.175;  176.825;    0.000
264.798;  971.175;  137.825;    0.000
264.865;  985.175;  175.825;    0.000
264.932; 1005.175;  162.825;    0.000
264.999; 1026.175;  153.825;    0.000
265.066; 1008.175;  168.825;    0.000
265.133; 1044.175;  142.825;    0.000
265.201; 1047.175;  163.825;    0.000
265.268; 1031.175;  143.825;    0.000
265.335; 1006.175;  156.825;    0.000
265.402; 1025.175;  136.825;    0.000
265.469;  991.175;  127.825;    0.000
265.536; 1058.175;  159.825;    0.000
265.603; 1078.175;  191.825;    0.000
265.670; 1062.175;  136.825;    0.000
265.737; 1059.175;  186.825;    0.000
265.804; 1006.175;  147.825;    0.000
265.871; 1110.175;  147.825;    0.000
265.938; 1010.175;  153.825;    0.000
266.005; 1056.175;  172.825;    0.000
266.072; 1038.175;  151.825;    0.000
266.139; 1142.175;  175.825;    0.000
266.206; 1098.175;  165.825;    0.000
266.273; 1162.175;  162.825;    0.000
266.340; 1079.175;  150.825;    0.000
266.407; 1138.175;  169.825;    0.000
266.474; 1156.175;  151.825;    0.000
266.541; 1040.175;  164.825;    0.000
266.608; 1052.175;  111.825;    0.000
266.675; 1180.175;  173.825;    0.000
266.742; 1114.175;  148.825;    0.000
266.808; 1099.175;  185.825;    0.000
266.875; 1099.175;  188.825;    0.000
266.942; 1157.175;  131.825;    0.000
267.009; 1117.175;  184.825;    0.000
267.076; 1182.175;  200.825;    0.000
267.143; 1156.175;  216.825;    0.000
267.210; 1140.175;  138.825;    0.000
267.277; 1125.175;  143.825;    0.000
267.344; 1165.175;  172.825;    0.000
267.410; 1192.175;  172.825;    0.000
267.477; 1179.175;  160.825;    0.000
267.544; 1181.175;  175.825;    0.000
267.611; 1197.175;  189.825;    0.000
267.678; 1143.175;  162.825;    0.000
267.745; 1201.175;  206.825;    0.000
267.811; 1164.175;  146.825;    0.000
267.878; 1173.175;  147.825;    0.000
267.945; 1143.175;  170.825;    0.000
268.012; 1214.175;  153.825;    0.000
268.079; 1183.175;  185.825;    0.000
268.145; 1169.175;  197.825;    0.000
268.212; 1163.175;  167.825;    0.000
268.279; 1158.175;  145.825;    0.000
268.346; 1174.175;  182.825;    0.000
268.412; 1182.175;  144.825;    0.000
268.479; 1139.175;  186.825;    0.000
268.546; 1180.175;  147.825;    0.000
268.613; 1152.175;  188.825;    0.000
268.679; 1196.175;  173.825;    0.000
268.746; 1166.175;  204.825;    0.000
268.813; 1140.175;  199.825;    0.000
268.879; 1225.175;  157.825;    0.000
268.946; 1219.175;  192.825;    0.000
269.013; 1253.175;  136.825;    0.000
269.079; 1212.175;  166.825;    0.000
269.146; 1181.175;  129.825;    0.000
269.213; 1217.175;  178.825;    0.000
269.280; 1192.175;  148.825;    0.000
269.346; 1207.175;  194.825;    0.000
269.413; 1143.175;  135.825;    0.000
269.479; 1183.175;  180.825;    0.000
269.546; 1215.175;  169.825;    0.000
269.613; 1143.175;  160.825;    0.000
269.679; 1232.175;  161.825;    0.000
269.746; 1208.175;  143.825;    0.000
269.813; 1166.175;  172.825;    0.000
269.879; 1212.175;  152.825;    0.000
269.946; 1200.175;  156.825;    0.000
270.012; 1183.175;  190.825;    0.000
270.079; 1083.175;  143.825;    0.000
270.145; 1162.175;  148.825;    0.000
270.212; 1211.175;  176.825;    0.000
270.279; 1173.175;  168.825;    0.000
270.345; 1120.175;  143.825;    0.000
270.412; 1180.175;  155.825;    0.000
270.478; 1192.175;  176.825;    0.000
270.545; 1160.175;  112.825;    0.000
270.611; 1223.175;  186.825;    0.000
270.678; 1105.175;  141.825;    0.000
270.744; 1197.175;  145.825;    0.000
270.811; 1127.175;  120.825;    0.000
270.877; 1115.175;  118.825;    0.000
270.944; 1162.175;  135.825;    0.000
271.010; 1141.175;  128.825;    0.000
271.077; 1145.175;  176.825;    0.000
271.143; 1166.175;  162.825;    0.000
271.210; 1154.175;  133.825;    0.000
271.276; 1136.175;  107.825;    0.000
271.342; 1149.175;  202.825;    0.000
271.409; 1177.175;  160.825;    0.000
271.475; 1208.175;  165.825;    0.000
271.542; 1142.175;  152.825;    0.000
271.608; 1227.175;  163.825;    0.000
271.675; 1157.175;  149.825;    0.000
271.741; 1167.175;  164.825;    0.000
271.807; 1187.175;  128.825;    0.000
271.874; 1242.175;  148.825;    0.000
271.940; 1152.175;  179.825;    0.000
272.007; 1209.175;  148.825;    0.000
272.073; 1150.175;  146.825;    0.000
272.139; 1120.175;  166.825;    0.000
272.206; 1204.175;  198.825;    0.000
272.272; 1173.175;  201.825;    0.000
272.338; 1139.175;  208.825;    0.000
272.405; 1142.175;  181.825;    0.000
272.471; 1155.175;  167.825;    0.000
272.537; 1179.175;  189.825;    0.000
272.604; 1117.175;  162.825;    0.000
272.670; 1222.175;  194.825;    0.000
272.736; 1132.175;  176.825;    0.000
272.802; 1182.175;  163.825;    0.000
272.869; 1190.175;  170.825;    0.000
272.935; 1197.175;  145.825;    0.000
273.001; 1194.175;  149.825;    0.000
273.068; 1251.175;  172.825;    0.000
273.134; 1168.175;  155.825;    0.000
273.200; 1220.175;  183.825;    0.000
273.266; 1193.175;  160.825;    0.000
273.333; 1202.175;  190.825;    0.000
273.399; 1178.175;  132.825;    0.000
273.465; 1175.175;  179.825;    0.000
273.531; 1229.175;  161.825;    0.000
273.597; 1205.175;  194.825;    0.000
273.664; 1244.175;  193.825;    0.000
273.730; 1186.175;  180.825;    0.000
273.796; 1194.175;  145.825;    0.000
273.862; 1283.175;  176.825;    0.000
273.928; 1331.175;  169.825;    0.000
273.995; 1301.175;  202.825;    0.000
274.061; 1186.175;  176.825;    0.000
274.127; 1208.175;  178.825;    0.000
274.193; 1210.175;  106.825;    0.000
274.259; 1218.175;  186.825;    0.000
274.325; 1257.175;  163.825;    0.000
274.391; 1292.175;  162.825;    0.000
274.457; 1285.175;  145.825;    0.000
274.524; 1320.175;  189.825;    0.000
274.590; 1308.175;  161.825;    0.000
274.656; 1323.175;  157.825;    0.000
274.722; 1295.175;  143.825;    0.000
274.788; 1351.175;  166.825;    0.000
274.854; 1419.175;  200.825;    0.000
274.920; 1367.175;  132.825;    0.000
274.986; 1362.175;  184.825;    0.000
275.052; 1298.175;  169.825;    0.000
275.118; 1334.175;  153.825;    0.000
275.184; 1370.175;  182.825;    0.000
275.250; 1342.175;  124.825;    0.000
275.316; 1370.175;  154.825;    0.000
275.382; 1368.175;  150.825;    0.000
275.448; 1402.175;  180.825;    0.000
275.514; 1464.175;  143.825;    0.000
275.580; 1414.175;  120.825;    0.000
275.646; 1406.175;  127.825;    0.000
275.712; 1437.175;  109.825;    0.000
275.778; 1436.175;  126.825;    0.000
275.844; 1423.175;  155.825;    0.000
275.910; 1470.175;  164.825;    0.000
275.976; 1528.175;  161.825;    0.000
276.042; 1429.175;  152.825;    0.000
276.108; 1479.175;  159.825;    0.000
276.174; 1530.175;  149.825;    0.000
276.240; 1586.175;  112.825;    0.000
276.306; 1509.175;  142.825;    0.000
276.372; 1605.175;  136.825;    0.000
276.437; 1592.175;  141.825;    0.000
276.503; 1560.175;  150.825;    0.000
276.569; 1660.175;  178.825;    0.000
276.635; 1753.175;  117.825;    0.000
276.701; 1725.175;  174.825;    0.000
276.767; 1713.175;  136.825;    0.000
276.833; 1827.175;  119.825;    0.000
276.899; 1825.175;  171.825;    0.000
276.964; 1823.175;  146.825;    0.000
277.030; 1951.175;  157.825;    0.000
277.096; 1925.175;  124.825;    0.000
277.162; 1964.175;  185.825;    0.000
277.228; 2111.175;  125.825;    0.000
277.293; 2152.175;  159.825;    0.000
277.359; 2194.175;  186.825;    0.000
277.425; 2301.175;  176.825;    0.000
277.491; 2467.175;  140.825;    0.000
277.557; 2896.175;  172.825;    0.000
277.622; 3739.175;  187.825;    0.000
277.688; 3798.175;  203.825;    0.000
277.754; 3855.175;  170.825;    0.000
277.820; 4238.175;  142.825;    0.000
277.885; 5043.175;  182.825;    0.000
277.951; 6280.175;  171.825;    0.000
278.017; 5464.175;  173.825;    0.000
278.083; 4704.175;  151.825;    0.000
278.148; 4520.175;  159.825;    0.000
278.214; 4688.175;  173.825;    0.000
278.280; 5071.175;  137.825;    0.000
278.345; 4489.175;  190.825;    0.000
278.411; 4343.175;  149.825;    0.000
278.477; 4453.175;  157.825;    0.000
278.542; 4773.175;  136.825;    0.000
278.608; 5210.175;  144.825;    0.000
278.674; 5785.175;  215.825;    0.000
278.739; 6348.175;  148.825;    0.000
278.805; 7207.175;  152.825;    0.000
278.871; 8475.175;  170.825;    0.000
278.936;10754.175;  180.825;    0.000
279.002;15507.175;  177.825;    0.000
279.067;20115.176;  172.825;    0.000
279.133;20056.176;  160.825;    0.000
279.199;18438.176;  165.825;    0.000
279.264;19144.176;  130.825;    0.000
279.330;22292.176;  154.825;    0.000
279.395;28302.176;  170.825;    0.000
279.461;35723.176;  136.825;    0.000
279.527;39422.176;  174.825;    0.000
279.592;37505.176;  179.825;    0.000
279.658;32201.176;  187.825;    0.000
279.723;30870.176;  201.825;    0.000
279.789;32284.176;  194.825;    0.000
279.854;28850.176;  171.825;    0.000
279.920;24347.176;  183.825;    0.000
279.985;22325.176;  173.825;    0.000
280.051;22432.176;  194.825;    0.000
280.116;26041.176;  197.825;    0.000
280.182;33920.176;  171.825;    0.000
280.247;38192.176;  131.825;    0.000
280.313;33175.176;  166.825;    0.000
280.378;23975.176;  159.825;    0.000
280.444;18097.176;  190.825;    0.000
280.509;14469.175;  189.825;    0.000
280.574;11879.175;  171.825;    0.000
280.640;10140.175;  167.825;    0.000
280.705; 8954.175;  129.825;    0.000
280.771; 8293.175;  193.825;    0.000
280.836; 7497.175;  172.825;    0.000
280.902; 6934.175;  189.825;    0.000
280.967; 6383.175;  143.825;    0.000
281.032; 6038.175;  182.825;    0.000
281.098; 5671.175;  172.825;    0.000
281.163; 5241.175;  184.825;    0.000
281.229; 5028.175;  210.825;    0.000
281.294; 4738.175;  223.825;    0.000
281.359; 4500.175;  197.825;    0.000
281.425; 4432.175;  192.825;    0.000
281.490; 4195.175;  162.825;    0.000
281.555; 4035.175;  193.825;    0.000
281.621; 3928.175;  141.825;    0.000
281.686; 3737.175;  166.825;    0.000
281.751; 3723.175;  204.825;    0.000
281.816; 3526.175;  159.825;    0.000
281.882; 3308.175;  146.825;    0.000
281.947; 3339.175;  176.825;    0.000
282.012; 3189.175;  139.825;    0.000
282.078; 3120.175;  186.825;    0.000
282.143; 3050.175;  151.825;    0.000
282.208; 3111.175;  213.825;    0.000
282.273; 2872.175;  160.825;    0.000
282.339; 2833.175;  175.825;    0.000
282.404; 2839.175;  157.825;    0.000
282.469; 2802.175;  185.825;    0.000
282.534; 2720.175;  166.825;    0.000
282.600; 2703.175;  168.825;    0.000
282.665; 2603.175;  167.825;    0.000
282.730; 2600.175;  148.825;    0.000
282.795; 2604.175;  186.825;    0.000
282.860; 2545.175;  161.825;    0.000
282.926; 2588.175;  178.825;    0.000
282.991; 2486.175;  139.825;    0.000
283.056; 2341.175;  158.825;    0.000
283.121; 2507.175;  191.825;    0.000
283.186; 2309.175;  182.825;    0.000
283.251; 2319.175;  181.825;    0.000
283.316; 2372.175;  187.825;    0.000
283.382; 2341.175;  175.825;    0.000
283.447; 2262.175;  183.825;    0.000
283.512; 2281.175;  175.825;    0.000
283.577; 2244.175;  180.825;    0.000
283.642; 2223.175;  193.825;    0.000
283.707; 2229.175;  145.825;    0.000
283.772; 2178.175;  143.825;    0.000
283.837; 2233.175;  143.825;    0.000
283.902; 2115.175;  150.825;    0.000
283.967; 2084.175;  166.825;    0.000
284.032; 2149.175;  126.825;    0.000
284.097; 2228.175;  201.825;    0.000
284.163; 2141.175;  133.825;    0.000
284.228; 2294.175;  193.825;    0.000
284.293; 2155.175;  157.825;    0.000
284.358; 2209.175;  185.825;    0.000
284.423; 2155.175;  142.825;    0.000
284.488; 2241.175;  192.825;    0.000
284.553; 2274.175;  146.825;    0.000
284.618; 2338.175;  154.825;    0.000
284.683; 2331.175;  172.825;    0.000
284.748; 2358.175;  195.825;    0.000
284.812; 2489.175;  190.825;    0.000
284.877; 2748.175;  169.825;    0.000
284.942; 3076.175;  195.825;    0.000
285.007; 3764.175;  204.825;    0.000
285.072; 5244.175;  189.825;    0.000
285.137; 9301.175;  149.825;    0.000
285.202;12687.175;  164.825;    0.000
285.267;10487.175;  161.825;    0.000
285.332; 6647.175;  140.825;    0.000
285.397; 4731.175;  142.825;    0.000
285.462; 3789.175;  146.825;    0.000
285.527; 3290.175;  132.825;    0.000
285.591; 2976.175;  160.825;    0.000
285.656; 2762.175;  136.825;    0.000
285.721; 2586.175;  135.825;    0.000
285.786; 2541.175;  171.825;    0.000
285.851; 2352.175;  168.825;    0.000
285.916; 2287.175;  178.825;    0.000
285.981; 2174.175;  152.825;    0.000
286.045; 2228.175;  167.825;    0.000
286.110; 2167.175;  187.825;    0.000
286.175; 2113.175;  162.825;    0.000
286.240; 2134.175;  163.825;    0.000
286.305; 2094.175;  190.825;    0.000
286.369; 2075.175;  143.825;    0.000
286.434; 2080.175;  185.825;    0.000
286.499; 1961.175;  195.825;    0.000
286.564; 2000.175;  173.825;    0.000
286.628; 1830.175;  159.825;    0.000
286.693; 1938.175;  175.825;    0.000
286.758; 1959.175;  170.825;    0.000
286.823; 1901.175;  129.825;    0.000
286.887; 1831.175;  172.825;    0.000
286.952; 1956.175;  163.825;    0.000
287.017; 1994.175;  217.825;    0.000
287.082; 1850.175;  165.825;    0.000
287.146; 1917.175;  176.825;    0.000
287.211; 1856.175;  192.825;    0.000
287.276; 1891.175;  147.825;    0.000
287.340; 1876.175;  162.825;    0.000
287.405; 1794.175;  196.825;    0.000
287.470; 1813.175;  148.825;    0.000
287.534; 1909.175;  166.825;    0.000
287.599; 1862.175;  193.825;    0.000
287.663; 1855.175;  191.825;    0.000
287.728; 1828.175;  146.825;    0.000
287.793; 1899.175;  234.825;    0.000
287.857; 1839.175;  177.825;    0.000
287.922; 1910.175;  166.825;    0.000
287.987; 1866.175;  169.825;    0.000
288.051; 1859.175;  169.825;    0.000
288.116; 1882.175;  187.825;    0.000
288.180; 1890.175;  200.825;    0.000
288.245; 1834.175;  201.825;    0.000
288.309; 1792.175;  176.825;    0.000
288.374; 1926.175;  162.825;    0.000
288.439; 1766.175;  195.825;    0.000
288.503; 1860.175;  162.825;    0.000
288.568; 1860.175;  228.825;    0.000
288.632; 1819.175;  194.825;    0.000
288.697; 1888.175;  173.825;    0.000
288.761; 1720.175;  153.825;    0.000
288.826; 1731.175;  151.825;    0.000
288.890; 1787.175;  208.825;    0.000
288.955; 1760.175;  159.825;    0.000
289.019; 1801.175;  198.825;    0.000
289.084; 1815.175;  152.825;    0.000
289.148; 1688.175;  171.825;    0.000
289.212; 1832.175;  184.825;    0.000
289.277; 1705.175;  165.825;    0.000
289.341; 1787.175;  207.825;    0.000
289.406; 1772.175;  156.825;    0.000
289.470; 1721.175;  191.825;    0.000
289.535; 1813.175;  222.825;    0.000
289.599; 1765.175;  214.825;    0.000
289.663; 1728.175;  183.825;    0.000
289.728; 1743.175;  192.825;    0.000
289.792; 1741.175;  197.825;    0.000
289.857; 1801.175;  221.825;    0.000
289.921; 1761.175;  177.825;    0.000
289.985; 1715.175;  177.825;    0.000
290.050; 1736.175;  178.825;    0.000
290.114; 1709.175;  112.825;    0.000
290.178; 1781.175;  170.825;    0.000
290.243; 1685.175;  162.825;    0.000
290.307; 1710.175;  178.825;    0.000
290.371; 1709.175;  141.825;    0.000
290.436; 1819.175;  178.825;    0.000
290.500; 1697.175;  135.825;    0.000
290.564; 1745.175;  199.825;    0.000
290.629; 1760.175;  165.825;    0.000
290.693; 1731.175;  154.825;    0.000
290.757; 1790.175;  159.825;    0.000
290.821; 1801.175;  179.825;    0.000
290.886; 1753.175;  141.825;    0.000
290.950; 1735.175;  166.825;    0.000
291.014; 1808.175;  169.825;    0.000
291.078; 1716.175;  191.825;    0.000
291.143; 1787.175;  169.825;    0.000
291.207; 1793.175;  164.825;    0.000
291.271; 1808.175;  193.825;    0.000
291.335; 1903.175;  150.825;    0.000
291.399; 1883.175;  175.825;    0.000
291.464; 1984.175;  128.825;    0.000
291.528; 2097.175;  162.825;    0.000
291.592; 2015.175;  152.825;    0.000
291.656; 1896.175;  175.825;    0.000
291.720; 1938.175;  173.825;    0.000
291.784; 1885.175;  192.825;    0.000
291.849; 1935.175;  159.825;    0.000
291.913; 1870.175;  174.825;    0.000
291.977; 1897.175;  177.825;    0.000
292.041; 1918.175;  188.825;    0.000
292.105; 1927.175;  174.825;    0.000
292.169; 1966.175;  143.825;    0.000
292.233; 1968.175;  149.825;    0.000
292.297; 2063.175;  176.825;    0.000
292.361; 1988.175;  178.825;    0.000
292.425; 2120.175;  153.825;    0.000
292.490; 2152.175;  185.825;    0.000
292.554; 2205.175;  144.825;    0.000
292.618; 2316.175;  166.825;    0.000
292.682; 2573.175;  181.825;    0.000
292.746; 2949.175;  152.825;    0.000
292.810; 4007.175;  208.825;    0.000
292.874; 4905.175;  142.825;    0.000
292.938; 4979.175;  195.825;    0.000
293.002; 4409.175;  156.825;    0.000
293.066; 3973.175;  108.825;    0.000
293.130; 3566.175;  136.825;    0.000
293.194; 3451.175;  135.825;    0.000
293.258; 3462.175;  187.825;    0.000
293.322; 3353.175;  148.825;    0.000
293.386; 3469.175;  186.825;    0.000
293.450; 3668.175;  196.825;    0.000
293.514; 4052.175;  175.825;    0.000
293.577; 5402.175;  137.825;    0.000
293.641; 7247.175;  142.825;    0.000
293.705; 7973.175;  201.825;    0.000
293.769; 6947.175;  150.825;    0.000
293.833; 6013.175;  147.825;    0.000
293.897; 5322.175;  170.825;    0.000
293.961; 4764.175;  121.825;    0.000
294.025; 4341.175;  172.825;    0.000
294.089; 4108.175;  167.825;    0.000
294.152; 3637.175;  167.825;    0.000
294.216; 3334.175;  165.825;    0.000
294.280; 3217.175;  168.825;    0.000
294.344; 3015.175;  160.825;    0.000
294.408; 2875.175;  187.825;    0.000
294.472; 2817.175;  141.825;    0.000
294.536; 2672.175;  184.825;    0.000
294.599; 2563.175;  176.825;    0.000
294.663; 2498.175;  120.825;    0.000
294.727; 2438.175;  159.825;    0.000
294.791; 2427.175;  190.825;    0.000
294.855; 2307.175;  148.825;    0.000
294.918; 2260.175;  160.825;    0.000
294.982; 2254.175;  156.825;    0.000
295.046; 2182.175;  177.825;    0.000
295.110; 2136.175;  149.825;    0.000
295.173; 2060.175;  156.825;    0.000
295.237; 2155.175;  174.825;    0.000
295.301; 2030.175;  152.825;    0.000
295.364; 2126.175;  204.825;    0.000
295.428; 1981.175;  196.825;    0.000
295.492; 2023.175;  178.825;    0.000
295.556; 1936.175;  161.825;    0.000
295.619; 1954.175;  178.825;    0.000
295.683; 1876.175;  152.825;    0.000
295.747; 1903.175;  148.825;    0.000
295.810; 1880.175;  177.825;    0.000
295.874; 1897.175;  146.825;    0.000
295.938; 1846.175;  115.825;    0.000
296.001; 1805.175;  172.825;    0.000
296.065; 1814.175;  146.825;    0.000
296.128; 1775.175;  164.825;    0.000
296.192; 1797.175;  137.825;    0.000
296.256; 1760.175;  143.825;    0.000
296.319; 1711.175;  156.825;    0.000
296.383; 1704.175;  165.825;    0.000
296.447; 1760.175;  170.825;    0.000
296.510; 1773.175;  174.825;    0.000
296.574; 1719.175;  127.825;    0.000
296.637; 1780.175;  132.825;    0.000
296.701; 1695.175;  206.825;    0.000
296.764; 1703.175;  179.825;    0.000
296.828; 1699.175;  213.825;    0.000
296.891; 1632.175;  149.825;    0.000
296.955; 1775.175;  170.825;    0.000
297.018; 1726.175;  185.825;    0.000
297.082; 1742.175;  205.825;    0.000
297.145; 1626.175;  154.825;    0.000
297.209; 1643.175;  200.825;    0.000
297.272; 1696.175;  157.825;    0.000
297.336; 1676.175;  164.825;    0.000
297.399; 1652.175;  166.825;    0.000
297.463; 1618.175;  195.825;    0.000
297.526; 1652.175;  176.825;    0.000
297.590; 1661.175;  198.825;    0.000
297.653; 1651.175;  146.825;    0.000
297.717; 1665.175;  175.825;    0.000
297.780; 1612.175;  139.825;    0.000
297.843; 1633.175;  174.825;    0.000
297.907; 1591.175;  149.825;    0.000
297.970; 1622.175;  161.825;    0.000
298.034; 1669.175;  185.825;    0.000
298.097; 1627.175;  167.825;    0.000
298.160; 1641.175;  195.825;    0.000
298.224; 1626.175;  178.825;    0.000
298.287; 1594.175;  164.825;    0.000
298.350; 1569.175;  194.825;    0.000
298.414; 1660.175;  191.825;    0.000
298.477; 1583.175;  155.825;    0.000
298.540; 1592.175;  139.825;    0.000
298.604; 1592.175;  198.825;    0.000
298.667; 1523.175;  183.825;    0.000
298.730; 1539.175;  185.825;    0.000
298.794; 1574.175;  153.825;    0.000
298.857; 1571.175;  169.825;    0.000
298.920; 1561.175;  159.825;    0.000
298.984; 1556.175;  179.825;    0.000
299.047; 1528.175;  174.825;    0.000
299.110; 1496.175;  144.825;    0.000
299.173; 1440.175;  190.825;    0.000
299.237; 1527.175;  163.825;    0.000
299.300; 1523.175;  153.825;    0.000
299.363; 1563.175;  145.825;    0.000
299.426; 1461.175;  160.825;    0.000
299.489; 1449.175;  173.825;    0.000
299.553; 1518.175;  209.825;    0.000
299.616; 1462.175;  172.825;    0.000
299.679; 1488.175;  204.825;    0.000
299.742; 1569.175;  162.825;    0.000
299.805; 1551.175;  198.825;    0.000
299.868; 1488.175;  176.825;    0.000
299.932; 1548.175;  166.825;    0.000
299.995; 1485.175;  162.825;    0.000
300.058; 1489.175;  175.825;    0.000
300.121; 1490.175;  197.825;    0.000
300.184; 1451.175;  188.825;    0.000
300.247; 1473.175;  181.825;    0.000
300.310; 1463.175;  161.825;    0.000
300.374; 1455.175;  201.825;    0.000
300.437; 1454.175;  156.825;    0.000
300.500; 1500.175;  180.825;    0.000
300.563; 1433.175;  174.825;    0.000
300.626; 1486.175;  206.825;    0.000
300.689; 1478.175;  218.825;    0.000
300.752; 1434.175;  192.825;    0.000
300.815; 1423.175;  172.825;    0.000
300.878; 1455.175;  207.825;    0.000
300.941; 1396.175;  163.825;    0.000
301.004; 1486.175;  171.825;    0.000
301.067; 1384.175;  198.825;    0.000
301.130; 1470.175;  156.825;    0.000
301.193; 1528.175;  173.825;    0.000
301.256; 1417.175;  167.825;    0.000
301.319; 1452.175;  211.825;    0.000
301.382; 1439.175;  167.825;    0.000
301.445; 1492.175;  224.825;    0.000
301.508; 1411.175;  168.825;    0.000
301.571; 1447.175;  161.825;    0.000
301.634; 1469.175;  177.825;    0.000
301.697; 1428.175;  203.825;    0.000
301.760; 1401.175;  190.825;    0.000
301.823; 1466.175;  182.825;    0.000
301.885; 1410.175;  202.825;    0.000
301.948; 1439.175;  200.825;    0.000
302.011; 1485.175;  157.825;    0.000
302.074; 1439.175;  205.825;    0.000
302.137; 1418.175;  149.825;    0.000
302.200; 1428.175;  201.825;    0.000
302.263; 1488.175;  178.825;    0.000
302.326; 1483.175;  184.825;    0.000
302.388; 1424.175;  176.825;    0.000
302.451; 1370.175;  146.825;    0.000
302.514; 1475.175;  192.825;    0.000
302.577; 1355.175;  181.825;    0.000
302.640; 1420.175;  186.825;    0.000
302.703; 1423.175;  164.825;    0.000
302.765; 1362.175;  197.825;    0.000
302.828; 1452.175;  208.825;    0.000
302.891; 1490.175;  168.825;    0.000
302.954; 1357.175;  177.825;    0.000
303.016; 1400.175;  190.825;    0.000
303.079; 1442.175;  216.825;    0.000
303.142; 1443.175;  228.825;    0.000
303.205; 1382.175;  192.825;    0.000
303.267; 1435.175;  182.825;    0.000
303.330; 1371.175;  201.825;    0.000
303.393; 1474.175;  196.825;    0.000
303.456; 1444.175;  184.825;    0.000
303.518; 1352.175;  194.825;    0.000
303.581; 1384.175;  195.825;    0.000
303.644; 1378.175;  184.825;    0.000
303.706; 1424.175;  150.825;    0.000
303.769; 1421.175;  182.825;    0.000
303.832; 1379.175;  143.825;    0.000
303.894; 1437.175;  207.825;    0.000
303.957; 1370.175;  178.825;    0.000
304.020; 1367.175;  203.825;    0.000
304.082; 1469.175;  175.825;    0.000
304.145; 1400.175;  171.825;    0.000
304.207; 1393.175;  157.825;    0.000
304.270; 1372.175;  195.825;    0.000
304.333; 1402.175;  195.825;    0.000
304.395; 1413.175;  197.825;    0.000
304.458; 1413.175;  231.825;    0.000
304.520; 1439.175;  218.825;    0.000
304.583; 1467.175;  177.825;    0.000
304.646; 1460.175;  177.825;    0.000
304.708; 1397.175;  178.825;    0.000
304.771; 1417.175;  143.825;    0.000
304.833; 1458.175;  241.825;    0.000
304.896; 1422.175;  200.825;    0.000
304.958; 1383.175;  176.825;    0.000
305.021; 1375.175;  159.825;    0.000
305.083; 1429.175;  159.825;    0.000
305.146; 1448.175;  190.825;    0.000
305.208; 1380.175;  152.825;    0.000
305.271; 1396.175;  162.825;    0.000
305.333; 1494.175;  219.825;    0.000
305.396; 1481.175;  163.825;    0.000
305.458; 1417.175;  215.825;    0.000
305.520; 1403.175;  174.825;    0.000
305.583; 1363.175;  161.825;    0.000
305.645; 1428.175;  203.825;    0.000
305.708; 1415.175;  163.825;    0.000
305.770; 1449.175;  215.825;    0.000
305.833; 1388.175;  207.825;    0.000
305.895; 1380.175;  166.825;    0.000
305.957; 1395.175;  175.825;    0.000
306.020; 1400.175;  169.825;    0.000
306.082; 1427.175;  203.825;    0.000
306.144; 1423.175;  181.825;    0.000
306.207; 1415.175;  199.825;    0.000
306.269; 1438.175;  177.825;    0.000
306.331; 1363.175;  160.825;    0.000
306.394; 1448.175;  193.825;    0.000
306.456; 1414.175;  136.825;    0.000
306.518; 1362.175;  189.825;    0.000
306.581; 1414.175;  156.825;    0.000
306.643; 1432.175;  190.825;    0.000
306.705; 1387.175;  190.825;    0.000
306.768; 1356.175;  172.825;    0.000
306.830; 1452.175;  214.825;    0.000
306.892; 1468.175;  198.825;    0.000
306.954; 1499.175;  177.825;    0.000
307.017; 1396.175;  183.825;    0.000
307.079; 1517.175;  170.825;    0.000
307.141; 1455.175;  173.825;    0.000
307.203; 1493.175;  171.825;    0.000
307.266; 1462.175;  166.825;    0.000
307.328; 1455.175;  207.825;    0.000
307.390; 1501.175;  201.825;    0.000
307.452; 1406.175;  182.825;    0.000
307.514; 1449.175;  213.825;    0.000
307.577; 1470.175;  213.825;    0.000
307.639; 1444.175;  197.825;    0.000
307.701; 1409.175;  174.825;    0.000
307.763; 1514.175;  181.825;    0.000
307.825; 1425.175;  186.825;    0.000
307.887; 1460.175;  198.825;    0.000
307.949; 1511.175;  158.825;    0.000
308.012; 1463.175;  209.825;    0.000
308.074; 1496.175;  176.825;    0.000
308.136; 1515.175;  227.825;    0.000
308.198; 1489.175;  187.825;    0.000
308.260; 1538.175;  211.825;    0.000
308.322; 1546.175;  206.825;    0.000
308.384; 1569.175;  186.825;    0.000
308.446; 1500.175;  175.825;    0.000
308.508; 1517.175;  211.825;    0.000
308.570; 1552.175;  191.825;    0.000
308.632; 1510.175;  195.825;    0.000
308.694; 1589.175;  173.825;    0.000
308.756; 1609.175;  185.825;    0.000
308.818; 1545.175;  195.825;    0.000
308.880; 1595.175;  189.825;    0.000
308.942; 1574.175;  231.825;    0.000
309.004; 1615.175;  188.825;    0.000
309.066; 1573.175;  196.825;    0.000
309.128; 1645.175;  155.825;    0.000
309.190; 1660.175;  176.825;    0.000
309.252; 1712.175;  191.825;    0.000
309.314; 1756.175;  236.825;    0.000
309.376; 1699.175;  212.825;    0.000
309.438; 1737.175;  201.825;    0.000
309.500; 1725.175;  206.825;    0.000
309.562; 1707.175;  213.825;    0.000
309.624; 1847.175;  196.825;    0.000
309.686; 1920.175;  198.825;    0.000
309.747; 1769.175;  186.825;    0.000
309.809; 1743.175;  215.825;    0.000
309.871; 1646.175;  242.825;    0.000
309.933; 1696.175;  162.825;    0.000
309.995; 1699.175;  163.825;    0.000
310.057; 1637.175;  145.825;    0.000
310.119; 1644.175;  205.825;    0.000
310.180; 1602.175;  195.825;    0.000
310.242; 1635.175;  167.825;    0.000
310.304; 1594.175;  213.825;    0.000
310.366; 1607.175;  224.825;    0.000
310.428; 1551.175;  170.825;    0.000
310.489; 1606.175;  195.825;    0.000
310.551; 1578.175;  207.825;    0.000
310.613; 1624.175;  168.825;    0.000
310.675; 1612.175;  188.825;    0.000
310.737; 1666.175;  211.825;    0.000
310.798; 1640.175;  221.825;    0.000
310.860; 1612.175;  201.825;    0.000
310.922; 1577.175;  206.825;    0.000
310.983; 1679.175;  222.825;    0.000
311.045; 1596.175;  235.825;    0.000
311.107; 1647.175;  184.825;    0.000
311.169; 1545.175;  148.825;    0.000
311.230; 1503.175;  211.825;    0.000
311.292; 1592.175;  235.825;    0.000
311.354; 1601.175;  183.825;    0.000
311.415; 1598.175;  196.825;    0.000
311.477; 1577.175;  200.825;    0.000
311.539; 1540.175;  171.825;    0.000
311.600; 1619.175;  169.825;    0.000
311.662; 1615.175;  231.825;    0.000
311.724; 1612.175;  204.825;    0.000
311.785; 1577.175;  214.825;    0.000
311.847; 1633.175;  193.825;    0.000
311.908; 1552.175;  180.825;    0.000
311.970; 1582.175;  233.825;    0.000
312.032; 1647.175;  192.825;    0.000
312.093; 1665.175;  195.825;    0.000
312.155; 1581.175;  194.825;    0.000
312.216; 1493.175;  238.825;    0.000
312.278; 1598.175;  146.825;    0.000
312.339; 1606.175;  184.825;    0.000
312.401; 1613.175;  201.825;    0.000
312.462; 1555.175;  173.825;    0.000
312.524; 1595.175;  205.825;    0.000
312.585; 1550.175;  199.825;    0.000
312.647; 1546.175;  168.825;    0.000
312.708; 1557.175;  180.825;    0.000
312.770; 1560.175;  180.825;    0.000
312.831; 1552.175;  176.825;    0.000
312.893; 1548.175;  211.825;    0.000
312.954; 1596.175;  178.825;    0.000
313.016; 1551.175;  204.825;    0.000
313.077; 1617.175;  216.825;    0.000
313.139; 1587.175;  172.825;    0.000
313.200; 1567.175;  197.825;    0.000
313.261; 1621.175;  227.825;    0.000
313.323; 1606.175;  204.825;    0.000
313.384; 1547.175;  182.825;    0.000
313.446; 1640.175;  204.825;    0.000
313.507; 1566.175;  164.825;    0.000
313.568; 1599.175;  197.825;    0.000
313.630; 1622.175;  190.825;    0.000
313.691; 1678.175;  185.825;    0.000
313.752; 1593.175;  192.825;    0.000
313.814; 1580.175;  176.825;    0.000
313.875; 1680.175;  210.825;    0.000
313.936; 1610.175;  165.825;    0.000
313.998; 1640.175;  162.825;    0.000
314.059; 1587.175;  178.825;    0.000
314.120; 1571.175;  176.825;    0.000
314.182; 1647.175;  167.825;    0.000
314.243; 1620.175;  204.825;    0.000
314.304; 1673.175;  197.825;    0.000
314.365; 1682.175;  183.825;    0.000
314.427; 1648.175;  176.825;    0.000
314.488; 1642.175;  149.825;    0.000
314.549; 1629.175;  218.825;    0.000
314.610; 1621.175;  160.825;    0.000
314.672; 1604.175;  187.825;    0.000
314.733; 1601.175;  184.825;    0.000
314.794; 1576.175;  164.825;    0.000
314.855; 1577.175;  191.825;    0.000
314.917; 1593.175;  172.825;    0.000
314.978; 1539.175;  185.825;    0.000
315.039; 1553.175;  194.825;    0.000
315.100; 1575.175;  190.825;    0.000
315.161; 1607.175;  185.825;    0.000
315.222; 1611.175;  204.825;    0.000
315.283; 1614.175;  166.825;    0.000
315.345; 1597.175;  133.825;    0.000
315.406; 1646.175;  191.825;    0.000
315.467; 1592.175;  166.825;    0.000
315.528; 1614.175;  194.825;    0.000
315.589; 1598.175;  193.825;    0.000
315.650; 1587.175;  190.825;    0.000
315.711; 1604.175;  219.825;    0.000
315.772; 1577.175;  159.825;    0.000
315.833; 1606.175;  191.825;    0.000
315.894; 1642.175;  202.825;    0.000
315.955; 1608.175;  167.825;    0.000
316.016; 1579.175;  177.825;    0.000
316.078; 1601.175;  185.825;    0.000
316.139; 1648.175;  219.825;    0.000
316.200; 1564.175;  163.825;    0.000
316.261; 1589.175;  183.825;    0.000
316.322; 1550.175;  230.825;    0.000
316.383; 1645.175;  198.825;    0.000
316.444; 1683.175;  209.825;    0.000
316.504; 1565.175;  179.825;    0.000
316.565; 1575.175;  185.825;    0.000
316.626; 1540.175;  155.825;    0.000
316.687; 1615.175;  211.825;    0.000
316.748; 1692.175;  192.825;    0.000
316.809; 1619.175;  183.825;    0.000
316.870; 1538.175;  196.825;    0.000
316.931; 1577.175;  173.825;    0.000
316.992; 1654.175;  179.825;    0.000
317.053; 1575.175;  186.825;    0.000
317.114; 1598.175;  189.825;    0.000
317.175; 1668.175;  226.825;    0.000
317.235; 1599.175;  206.825;    0.000
317.296; 1580.175;  191.825;    0.000
317.357; 1576.175;  173.825;    0.000
317.418; 1594.175;  212.825;    0.000
317.479; 1597.175;  247.825;    0.000
317.540; 1614.175;  205.825;    0.000
317.601; 1581.175;  205.825;    0.000
317.661; 1567.175;  150.825;    0.000
317.722; 1644.175;  198.825;    0.000
317.783; 1631.175;  153.825;    0.000
317.844; 1630.175;  202.825;    0.000
317.904; 1623.175;  180.825;    0.000
317.965; 1486.175;  205.825;    0.000
318.026; 1695.175;  223.825;    0.000
318.087; 1574.175;  218.825;    0.000
318.148; 1598.175;  207.825;    0.000
318.208; 1620.175;  212.825;    0.000
318.269; 1548.175;  174.825;    0.000
318.330; 1616.175;  191.825;    0.000
318.390; 1576.175;  197.825;    0.000
318.451; 1638.175;  167.825;    0.000
318.512; 1595.175;  174.825;    0.000
318.572; 1581.175;  199.825;    0.000
318.633; 1663.175;  233.825;    0.000
318.694; 1605.175;  232.825;    0.000
318.754; 1580.175;  181.825;    0.000
318.815; 1584.175;  199.825;    0.000
318.876; 1679.175;  207.825;    0.000
318.936; 1678.175;  202.825;    0.000
318.997; 1543.175;  182.825;    0.000
319.058; 1591.175;  180.825;    0.000
319.118; 1591.175;  199.825;    0.000
319.179; 1620.175;  199.825;    0.000
319.239; 1602.175;  229.825;    0.000
319.300; 1608.175;  223.825;    0.000
319.361; 1572.175;  210.825;    0.000
319.421; 1552.175;  205.825;    0.000
319.482; 1609.175;  205.825;    0.000
319.542; 1586.175;  176.825;    0.000
319.603; 1583.175;  191.825;    0.000
319.663; 1579.175;  183.825;    0.000
319.724; 1593.175;  174.825;    0.000
319.784; 1639.175;  198.825;    0.000
319.845; 1562.175;  218.825;    0.000
319.905; 1568.175;  217.825;    0.000
319.966; 1564.175;  197.825;    0.000
320.026; 1599.175;  209.825;    0.000
320.087; 1616.175;  225.825;    0.000
320.147; 1542.175;  201.825;    0.000
320.208; 1599.175;  176.825;    0.000
320.268; 1563.175;  168.825;    0.000
320.329; 1550.175;  238.825;    0.000
320.389; 1581.175;  220.825;    0.000
320.449; 1640.175;  230.825;    0.000
320.510; 1594.175;  234.825;    0.000
320.570; 1596.175;  210.825;    0.000
320.631; 1594.175;  207.825;    0.000
320.691; 1585.175;  222.825;    0.000
320.751; 1587.175;  195.825;    0.000
320.812; 1556.175;  193.825;    0.000
320.872; 1679.175;  237.825;    0.000
320.932; 1582.175;  213.825;    0.000
320.993; 1491.175;  185.825;    0.000
321.053; 1602.175;  245.825;    0.000
321.113; 1561.175;  206.825;    0.000
321.174; 1564.175;  202.825;    0.000
321.234; 1572.175;  244.825;    0.000
321.294; 1558.175;  228.825;    0.000
321.355; 1600.175;  208.825;    0.000
321.415; 1601.175;  223.825;    0.000
321.475; 1695.175;  203.825;    0.000
321.535; 1549.175;  230.825;    0.000
321.596; 1610.175;  186.825;    0.000
321.656; 1577.175;  216.825;    0.000
321.716; 1619.175;  207.825;    0.000
321.776; 1594.175;  181.825;    0.000
321.837; 1541.175;  207.825;    0.000
321.897; 1624.175;  225.825;    0.000
321.957; 1579.175;  222.825;    0.000
322.017; 1598.175;  215.825;    0.000
322.077; 1642.175;  250.825;    0.000
322.138; 1679.175;  189.825;    0.000
322.198; 1679.175;  200.825;    0.000
322.258; 1540.175;  217.825;    0.000
322.318; 1578.175;  183.825;    0.000
322.378; 1528.175;  231.825;    0.000
322.438; 1562.175;  228.825;    0.000
322.499; 1642.175;  248.825;    0.000
322.559; 1595.175;  198.825;    0.000
322.619; 1502.175;  221.825;    0.000
322.679; 1529.175;  217.825;    0.000
322.739; 1640.175;  204.825;    0.000
322.799; 1608.175;  236.825;    0.000
322.859; 1548.175;  213.825;    0.000
322.919; 1626.175;  210.825;    0.000
322.979; 1647.175;  244.825;    0.000
323.039; 1607.175;  218.825;    0.000
323.099; 1617.175;  232.825;    0.000
323.159; 1597.175;  216.825;    0.000
323.219; 1546.175;  169.825;    0.000
323.279; 1540.175;  236.825;    0.000
323.339; 1626.175;  243.825;    0.000
323.399; 1615.175;  208.825;    0.000
323.459; 1561.175;  220.825;    0.000
323.519; 1648.175;  228.825;    0.000
323.579; 1615.175;  164.825;    0.000
323.639; 1656.175;  209.825;    0.000
323.699; 1662.175;  188.825;    0.000
323.759; 1619.175;  206.825;    0.000
323.819; 1537.175;  204.825;    0.000
323.879; 1666.175;  222.825;    0.000
323.939; 1533.175;  206.825;    0.000
323.999; 1606.175;  202.825;    0.000
324.059; 1558.175;  245.825;    0.000
324.119; 1635.175;  214.825;    0.000
324.178; 1584.175;  183.825;    0.000
324.238; 1571.175;  193.825;    0.000
324.298; 1582.175;  207.825;    0.000
324.358; 1566.175;  196.825;    0.000
324.418; 1562.175;  193.825;    0.000
324.478; 1491.175;  191.825;    0.000
324.538; 1536.175;  224.825;    0.000
324.597; 1672.175;  187.825;    0.000
324.657; 1534.175;  208.825;    0.000
324.717; 1568.175;  198.825;    0.000
324.777; 1580.175;  159.825;    0.000
324.837; 1571.175;  180.825;    0.000
324.896; 1569.175;  215.825;    0.000
324.956; 1656.175;  210.825;    0.000
325.016; 1683.175;  187.825;    0.000
325.076; 1625.175;  197.825;    0.000
325.135; 1600.175;  226.825;    0.000
325.195; 1573.175;  201.825;    0.000
325.255; 1575.175;  167.825;    0.000
325.315; 1558.175;  217.825;    0.000
325.374; 1657.175;  196.825;    0.000
325.434; 1575.175;  167.825;    0.000
325.494; 1607.175;  214.825;    0.000
325.553; 1528.175;  203.825;    0.000
325.613; 1556.175;  206.825;    0.000
325.673; 1591.175;  148.825;    0.000
325.732; 1596.175;  207.825;    0.000
325.792; 1608.175;  151.825;    0.000
325.852; 1555.175;  195.825;    0.000
325.911; 1603.175;  201.825;    0.000
325.971; 1524.175;  224.825;    0.000
326.031; 1577.175;  201.825;    0.000
326.090; 1517.175;  203.825;    0.000
326.150; 1612.175;  183.825;    0.000
326.209; 1620.175;  226.825;    0.000
326.269; 1617.175;  194.825;    0.000
326.328; 1653.175;  200.825;    0.000
326.388; 1597.175;  177.825;    0.000
326.448; 1605.175;  239.825;    0.000
326.507; 1559.175;  197.825;    0.000
326.567; 1507.175;  161.825;    0.000
326.626; 1579.175;  220.825;    0.000
326.686; 1537.175;  178.825;    0.000
326.745; 1553.175;  167.825;    0.000
326.805; 1508.175;  176.825;    0.000
326.864; 1536.175;  204.825;    0.000
326.924; 1566.175;  218.825;    0.000
326.983; 1589.175;  201.825;    0.000
327.043; 1545.175;  219.825;    0.000
327.102; 1513.175;  202.825;    0.000
327.161; 1561.175;  228.825;    0.000
327.221; 1522.175;  217.825;    0.000
327.280; 1565.175;  188.825;    0.000
327.340; 1495.175;  209.825;    0.000
327.399; 1571.175;  189.825;    0.000
327.459; 1609.175;  216.825;    0.000
327.518; 1540.175;  200.825;    0.000
327.577; 1569.175;  194.825;    0.000
327.637; 1584.175;  180.825;    0.000
327.696; 1528.175;  208.825;    0.000
327.755; 1581.175;  218.825;    0.000
327.815; 1587.175;  234.825;    0.000
327.874; 1659.175;  259.825;    0.000
327.933; 1519.175;  192.825;    0.000
327.993; 1527.175;  208.825;    0.000
328.052; 1491.175;  221.825;    0.000
328.111; 1538.175;  203.825;    0.000
328.171; 1560.175;  221.825;    0.000
328.230; 1550.175;  222.825;    0.000
328.289; 1552.175;  254.825;    0.000
328.349; 1496.175;  232.825;    0.000
328.408; 1518.175;  223.825;    0.000
328.467; 1541.175;  198.825;    0.000
328.526; 1534.175;  217.825;    0.000
328.586; 1485.175;  185.825;    0.000
328.645; 1467.175;  210.825;    0.000
328.704; 1488.175;  211.825;    0.000
328.763; 1577.175;  231.825;    0.000
328.822; 1578.175;  254.825;    0.000
328.882; 1535.175;  216.825;    0.000
328.941; 1532.175;  239.825;    0.000
329.000; 1577.175;  251.825;    0.000
329.059; 1537.175;  227.825;    0.000
329.118; 1526.175;  233.825;    0.000
329.177; 1474.175;  188.825;    0.000
329.237; 1527.175;  257.825;    0.000
329.296; 1497.175;  265.825;    0.000
329.355; 1537.175;  245.825;    0.000
329.414; 1564.175;  236.825;    0.000
329.473; 1518.175;  242.825;    0.000
329.532; 1636.175;  228.825;    0.000
329.591; 1559.175;  206.825;    0.000
329.650; 1521.175;  250.825;    0.000
329.709; 1573.175;  278.825;    0.000
329.768; 1620.175;  219.825;    0.000
329.827; 1691.175;  254.825;    0.000
329.886; 1570.175;  221.825;    0.000
329.945; 1563.175;  239.825;    0.000
330.004; 1611.175;  245.825;    0.000
330.063; 1553.175;  201.825;    0.000
330.122; 1520.175;  227.825;    0.000
330.181; 1594.175;  196.825;    0.000
330.240; 1500.175;  203.825;    0.000
330.299; 1618.175;  214.825;    0.000
330.358; 1587.175;  196.825;    0.000
330.417; 1559.175;  201.825;    0.000
330.476; 1486.175;  248.825;    0.000
330.535; 1527.175;  253.825;    0.000
330.594; 1538.175;  231.825;    0.000
330.653; 1462.175;  210.825;    0.000
330.712; 1534.175;  242.825;    0.000
330.771; 1478.175;  240.825;    0.000
330.830; 1552.175;  230.825;    0.000
330.889; 1506.175;  217.825;    0.000
330.948; 1522.175;  211.825;    0.000
331.006; 1476.175;  217.825;    0.000
331.065; 1526.175;  170.825;    0.000
331.124; 1495.175;  211.825;    0.000
331.183; 1502.175;  192.825;    0.000
331.242; 1542.175;  227.825;    0.000
331.301; 1485.175;  240.825;    0.000
331.359; 1586.175;  223.825;    0.000
331.418; 1526.175;  215.825;    0.000
331.477; 1500.175;  230.825;    0.000
331.536; 1432.175;  221.825;    0.000
331.595; 1495.175;  198.825;    0.000
331.653; 1496.175;  207.825;    0.000
331.712; 1510.175;  217.825;    0.000
331.771; 1489.175;  221.825;    0.000
331.830; 1505.175;  222.825;    0.000
331.888; 1496.175;  213.825;    0.000
331.947; 1529.175;  233.825;    0.000
332.006; 1444.175;  212.825;    0.000
332.065; 1513.175;  200.825;    0.000
332.123; 1515.175;  223.825;    0.000
332.182; 1541.175;  180.825;    0.000
332.241; 1541.175;  192.825;    0.000
332.299; 1461.175;  172.825;    0.000
332.358; 1521.175;  216.825;    0.000
332.417; 1548.175;  211.825;    0.000
332.475; 1475.175;  222.825;    0.000
332.534; 1433.175;  238.825;    0.000
332.592; 1479.175;  216.825;    0.000
332.651; 1497.175;  196.825;    0.000
332.710; 1525.175;  215.825;    0.000
332.768; 1496.175;  193.825;    0.000
332.827; 1479.175;  201.825;    0.000
332.885; 1544.175;  226.825;    0.000
332.944; 1513.175;  174.825;    0.000
333.003; 1567.175;  187.825;    0.000
333.061; 1551.175;  208.825;    0.000
333.120; 1604.175;  202.825;    0.000
333.178; 1663.175;  227.825;    0.000
333.237; 1617.175;  215.825;    0.000
333.295; 1648.175;  245.825;    0.000
333.354; 1624.175;  194.825;    0.000
333.412; 1567.175;  165.825;    0.000
333.471; 1592.175;  219.825;    0.000
333.529; 1645.175;  255.825;    0.000
333.588; 1695.175;  264.825;    0.000
333.646; 1721.175;  231.825;    0.000
333.705; 1724.175;  232.825;    0.000
333.763; 1691.175;  233.825;    0.000
333.822; 1629.175;  221.825;    0.000
333.880; 1586.175;  180.825;    0.000
333.938; 1615.175;  229.825;    0.000
333.997; 1665.175;  194.825;    0.000
334.055; 1646.175;  230.825;    0.000
334.114; 1587.175;  230.825;    0.000
334.172; 1588.175;  170.825;    0.000
334.230; 1560.175;  192.825;    0.000
334.289; 1605.175;  225.825;    0.000
334.347; 1598.175;  233.825;    0.000
334.405; 1676.175;  207.825;    0.000
334.464; 1573.175;  175.825;    0.000
334.522; 1643.175;  180.825;    0.000
334.580; 1589.175;  172.825;    0.000
334.639; 1518.175;  230.825;    0.000
334.697; 1527.175;  217.825;    0.000
334.755; 1589.175;  217.825;    0.000
334.814; 1572.175;  210.825;    0.000
334.872; 1553.175;  170.825;    0.000
334.930; 1592.175;  167.825;    0.000
334.988; 1536.175;  244.825;    0.000
335.047; 1557.175;  202.825;    0.000
335.105; 1561.175;  181.825;    0.000
335.163; 1583.175;  195.825;    0.000
335.221; 1605.175;  203.825;    0.000
335.280; 1557.175;  216.825;    0.000
335.338; 1629.175;  197.825;    0.000
335.396; 1625.175;  232.825;    0.000
335.454; 1580.175;  211.825;    0.000
335.512; 1663.175;  221.825;    0.000
335.570; 1591.175;  216.825;    0.000
335.629; 1623.175;  244.825;    0.000
335.687; 1677.175;  244.825;    0.000
335.745; 1673.175;  189.825;    0.000
335.803; 1656.175;  198.825;    0.000
335.861; 1664.175;  236.825;    0.000
335.919; 1634.175;  234.825;    0.000
335.977; 1665.175;  214.825;    0.000
336.035; 1545.175;  242.825;    0.000
336.094; 1551.175;  219.825;    0.000
336.152; 1571.175;  196.825;    0.000
336.210; 1640.175;  221.825;    0.000
336.268; 1657.175;  257.825;    0.000
336.326; 1649.175;  211.825;    0.000
336.384; 1640.175;  217.825;    0.000
336.442; 1598.175;  176.825;    0.000
336.500; 1593.175;  242.825;    0.000
336.558; 1601.175;  238.825;    0.000
336.616; 1643.175;  261.825;    0.000
336.674; 1501.175;  200.825;    0.000
336.732; 1652.175;  208.825;    0.000
336.790; 1623.175;  183.825;    0.000
336.848; 1619.175;  199.825;    0.000
336.906; 1590.175;  240.825;    0.000
336.964; 1643.175;  234.825;    0.000
337.022; 1591.175;  282.825;    0.000
337.080; 1622.175;  265.825;    0.000
337.138; 1644.175;  255.825;    0.000
337.195; 1606.175;  200.825;    0.000
337.253; 1600.175;  199.825;    0.000
337.311; 1588.175;  233.825;    0.000
337.369; 1592.175;  250.825;    0.000
337.427; 1571.175;  201.825;    0.000
337.485; 1496.175;  228.825;    0.000
337.543; 1551.175;  221.825;    0.000
337.601; 1571.175;  232.825;    0.000
337.658; 1525.175;  215.825;    0.000
337.716; 1594.175;  198.825;    0.000
337.774; 1561.175;  262.825;    0.000
337.832; 1500.175;  220.825;    0.000
337.890; 1540.175;  194.825;    0.000
337.947; 1533.175;  205.825;    0.000
338.005; 1508.175;  229.825;    0.000
338.063; 1549.175;  237.825;    0.000
338.121; 1555.175;  220.825;    0.000
338.178; 1587.175;  227.825;    0.000
338.236; 1517.175;  238.825;    0.000
338.294; 1573.175;  242.825;    0.000
338.352; 1585.175;  230.825;    0.000
338.409; 1606.175;  222.825;    0.000
338.467; 1560.175;  233.825;    0.000
338.525; 1579.175;  253.825;    0.000
338.583; 1481.175;  221.825;    0.000
338.640; 1399.175;  225.825;    0.000
338.698; 1542.175;  229.825;    0.000
338.756; 1529.175;  238.825;    0.000
338.813; 1522.175;  260.825;    0.000
338.871; 1545.175;  246.825;    0.000
338.928; 1564.175;  240.825;    0.000
338.986; 1500.175;  228.825;    0.000
339.044; 1555.175;  265.825;    0.000
339.101; 1536.175;  224.825;    0.000
339.159; 1495.175;  235.825;    0.000
339.216; 1525.175;  244.825;    0.000
339.274; 1513.175;  266.825;    0.000
339.332; 1560.175;  248.825;    0.000
339.389; 1587.175;  246.825;    0.000
339.447; 1534.175;  237.825;    0.000
339.504; 1517.175;  244.825;    0.000
339.562; 1567.175;  249.825;    0.000
339.619; 1551.175;  266.825;    0.000
339.677; 1550.175;  263.825;    0.000
339.734; 1516.175;  216.825;    0.000
339.792; 1555.175;  276.825;    0.000
339.849; 1586.175;  240.825;    0.000
339.907; 1606.175;  275.825;    0.000
339.964; 1532.175;  243.825;    0.000
340.022; 1633.175;  224.825;    0.000
340.079; 1564.175;  230.825;    0.000
340.137; 1518.175;  232.825;    0.000
340.194; 1580.175;  261.825;    0.000
340.252; 1523.175;  219.825;    0.000
340.309; 1539.175;  212.825;    0.000
340.366; 1521.175;  231.825;    0.000
340.424; 1554.175;  244.825;    0.000
340.481; 1491.175;  238.825;    0.000
340.538; 1504.175;  217.825;    0.000
340.596; 1490.175;  224.825;    0.000
340.653; 1579.175;  225.825;    0.000
340.711; 1558.175;  276.825;    0.000
340.768; 1612.175;  239.825;    0.000
340.825; 1545.175;  216.825;    0.000
340.883; 1508.175;  264.825;    0.000
340.940; 1534.175;  256.825;    0.000
340.997; 1514.175;  230.825;    0.000
341.054; 1513.175;  229.825;    0.000
341.112; 1469.175;  220.825;    0.000
341.169; 1635.175;  276.825;    0.000
341.226; 1590.175;  224.825;    0.000
341.284; 1566.175;  235.825;    0.000
341.341; 1603.175;  226.825;    0.000
341.398; 1503.175;  200.825;    0.000
341.455; 1576.175;  242.825;    0.000
341.512; 1610.175;  226.825;    0.000
341.570; 1580.175;  299.825;    0.000
341.627; 1572.175;  221.825;    0.000
341.684; 1544.175;  204.825;    0.000
341.741; 1613.175;  285.825;    0.000
341.798; 1600.175;  237.825;    0.000
341.856; 1601.175;  223.825;    0.000
341.913; 1577.175;  232.825;    0.000
341.970; 1555.175;  250.825;    0.000
342.027; 1611.175;  272.825;    0.000
342.084; 1607.175;  242.825;    0.000
342.141; 1551.175;  207.825;    0.000
342.198; 1567.175;  252.825;    0.000
342.255; 1554.175;  189.825;    0.000
342.313; 1620.175;  222.825;    0.000
342.370; 1506.175;  203.825;    0.000
342.427; 1580.175;  261.825;    0.000
342.484; 1562.175;  230.825;    0.000
342.541; 1618.175;  224.825;    0.000
342.598; 1545.175;  245.825;    0.000
342.655; 1548.175;  235.825;    0.000
342.712; 1535.175;  238.825;    0.000
342.769; 1548.175;  235.825;    0.000
342.826; 1586.175;  232.825;    0.000
342.883; 1549.175;  212.825;    0.000
342.940; 1531.175;  189.825;    0.000
342.997; 1516.175;  241.825;    0.000
343.054; 1541.175;  235.825;    0.000
343.111; 1524.175;  216.825;    0.000
343.168; 1613.175;  202.825;    0.000
343.225; 1562.175;  228.825;    0.000
343.282; 1631.175;  208.825;    0.000
343.339; 1599.175;  241.825;    0.000
343.395; 1581.175;  206.825;    0.000
343.452; 1589.175;  227.825;    0.000
343.509; 1532.175;  212.825;    0.000
343.566; 1662.175;  266.825;    0.000
343.623; 1652.175;  240.825;    0.000
343.680; 1655.175;  215.825;    0.000
343.737; 1647.175;  231.825;    0.000
343.794; 1617.175;  256.825;    0.000
343.850; 1588.175;  235.825;    0.000
343.907; 1627.175;  246.825;    0.000
343.964; 1664.175;  241.825;    0.000
344.021; 1660.175;  237.825;    0.000
344.078; 1703.175;  248.825;    0.000
344.134; 1711.175;  225.825;    0.000
344.191; 1674.175;  209.825;    0.000
344.248; 1699.175;  234.825;    0.000
344.305; 1645.175;  224.825;    0.000
344.361; 1666.175;  194.825;    0.000
344.418; 1636.175;  240.825;    0.000
344.475; 1638.175;  252.825;    0.000
344.532; 1610.175;  251.825;    0.000
344.588; 1591.175;  240.825;    0.000
344.645; 1718.175;  253.825;    0.000
344.702; 1639.175;  216.825;    0.000
344.758; 1730.175;  258.825;    0.000
344.815; 1730.175;  239.825;    0.000
344.872; 1580.175;  216.825;    0.000
344.928; 1614.175;  236.825;    0.000
344.985; 1616.175;  238.825;    0.000
345.042; 1732.175;  211.825;    0.000
345.098; 1522.175;  223.825;    0.000
345.155; 1673.175;  266.825;    0.000
345.212; 1700.175;  266.825;    0.000
345.268; 1629.175;  245.825;    0.000
345.325; 1565.175;  225.825;    0.000
345.381; 1662.175;  223.825;    0.000
345.438; 1587.175;  259.825;    0.000
345.495; 1697.175;  233.825;    0.000
345.551; 1675.175;  254.825;    0.000
345.608; 1549.175;  212.825;    0.000
345.664; 1570.175;  225.825;    0.000
345.721; 1610.175;  223.825;    0.000
345.777; 1657.175;  226.825;    0.000
345.834; 1534.175;  215.825;    0.000
345.890; 1497.175;  230.825;    0.000
345.947; 1632.175;  232.825;    0.000
346.003; 1616.175;  241.825;    0.000
346.060; 1633.175;  241.825;    0.000
346.116; 1690.175;  231.825;    0.000
346.173; 1709.175;  229.825;    0.000
346.229; 1611.175;  262.825;    0.000
346.285; 1637.175;  232.825;    0.000
346.342; 1601.175;  228.825;    0.000
346.398; 1608.175;  203.825;    0.000
346.455; 1689.175;  214.825;    0.000
346.511; 1670.175;  245.825;    0.000
346.567; 1665.175;  192.825;    0.000
346.624; 1707.175;  206.825;    0.000
346.680; 1715.175;  209.825;    0.000
346.737; 1593.175;  239.825;    0.000
346.793; 1680.175;  234.825;    0.000
346.849; 1663.175;  252.825;    0.000
346.906; 1722.175;  247.825;    0.000
346.962; 1720.175;  274.825;    0.000
347.018; 1705.175;  225.825;    0.000
347.074; 1617.175;  261.825;    0.000
347.131; 1570.175;  230.825;    0.000
347.187; 1688.175;  269.825;    0.000
347.243; 1691.175;  261.825;    0.000
347.300; 1661.175;  236.825;    0.000
347.356; 1671.175;  284.825;    0.000
347.412; 1732.175;  243.825;    0.000
347.468; 1727.175;  276.825;    0.000
347.524; 1662.175;  232.825;    0.000
347.581; 1665.175;  242.825;    0.000
347.637; 1670.175;  270.825;    0.000
347.693; 1653.175;  269.825;    0.000
347.749; 1686.175;  278.825;    0.000
347.805; 1584.175;  224.825;    0.000
347.862; 1663.175;  207.825;    0.000
347.918; 1664.175;  259.825;    0.000
347.974; 1729.175;  244.825;    0.000
348.030; 1694.175;  219.825;    0.000
348.086; 1653.175;  250.825;    0.000
348.142; 1638.175;  251.825;    0.000
348.198; 1613.175;  267.825;    0.000
348.254; 1723.175;  230.825;    0.000
348.311; 1706.175;  261.825;    0.000
348.367; 1643.175;  259.825;    0.000
348.423; 1588.175;  251.825;    0.000
348.479; 1591.175;  251.825;    0.000
348.535; 1666.175;  269.825;    0.000
348.591; 1606.175;  238.825;    0.000
348.647; 1658.175;  273.825;    0.000
348.703; 1659.175;  291.825;    0.000
348.759; 1688.175;  231.825;    0.000
348.815; 1636.175;  286.825;    0.000
348.871; 1704.175;  265.825;    0.000
348.927; 1602.175;  234.825;    0.000
348.983; 1690.175;  267.825;    0.000
349.039; 1615.175;  233.825;    0.000
349.095; 1639.175;  225.825;    0.000
349.151; 1615.175;  242.825;    0.000
349.207; 1604.175;  223.825;    0.000
349.263; 1608.175;  219.825;    0.000
349.319; 1604.175;  226.825;    0.000
349.374; 1598.175;  232.825;    0.000
349.430; 1694.175;  235.825;    0.000
349.486; 1615.175;  227.825;    0.000
349.542; 1717.175;  253.825;    0.000
349.598; 1727.175;  227.825;    0.000
349.654; 1686.175;  270.825;    0.000
349.710; 1668.175;  233.825;    0.000
349.766; 1712.175;  245.825;    0.000
349.821; 1667.175;  242.825;    0.000
349.877; 1716.175;  229.825;    0.000
349.933; 1644.175;  229.825;    0.000
349.989; 1651.175;  230.825;    0.000
350.045; 1631.175;  236.825;    0.000
350.100; 1626.175;  237.825;    0.000
350.156; 1683.175;  230.825;    0.000
350.212; 1707.175;  254.825;    0.000
350.268; 1634.175;  239.825;    0.000
350.323; 1652.175;  204.825;    0.000
350.379; 1696.175;  246.825;    0.000
350.435; 1722.175;  249.825;    0.000
350.491; 1590.175;  217.825;    0.000
350.546; 1650.175;  231.825;    0.000
350.602; 1663.175;  240.825;    0.000
350.658; 1643.175;  235.825;    0.000
350.713; 1666.175;  234.825;    0.000
350.769; 1610.175;  218.825;    0.000
350.825; 1572.175;  227.825;    0.000
350.880; 1632.175;  226.825;    0.000
350.936; 1724.175;  247.825;    0.000
350.992; 1666.175;  213.825;    0.000
351.047; 1680.175;  207.825;    0.000
351.103; 1633.175;  271.825;    0.000
351.158; 1661.175;  251.825;    0.000
351.214; 1677.175;  199.825;    0.000
351.270; 1582.175;  214.825;    0.000
351.325; 1619.175;  235.825;    0.000
351.381; 1653.175;  223.825;    0.000
351.436; 1637.175;  237.825;    0.000
351.492; 1741.175;  221.825;    0.000
351.547; 1702.175;  237.825;    0.000
351.603; 1698.175;  239.825;    0.000
351.658; 1729.175;  209.825;    0.000
351.714; 1671.175;  226.825;    0.000
351.769; 1727.175;  238.825;    0.000
351.825; 1760.175;  226.825;    0.000
351.880; 1700.175;  217.825;    0.000
351.936; 1685.175;  246.825;    0.000
351.991; 1696.175;  233.825;    0.000
352.047; 1698.175;  215.825;    0.000
352.102; 1627.175;  243.825;    0.000
352.158; 1659.175;  234.825;    0.000
352.213; 1719.175;  201.825;    0.000
352.268; 1689.175;  234.825;    0.000
352.324; 1600.175;  211.825;    0.000
352.379; 1710.175;  221.825;    0.000
352.434; 1660.175;  259.825;    0.000
352.490; 1710.175;  250.825;    0.000
352.545; 1735.175;  251.825;    0.000
352.601; 1653.175;  283.825;    0.000
352.656; 1690.175;  236.825;    0.000
352.711; 1699.175;  237.825;    0.000
352.767; 1670.175;  201.825;    0.000
352.822; 1694.175;  209.825;    0.000
352.877; 1725.175;  239.825;    0.000
352.932; 1632.175;  228.825;    0.000
352.988; 1680.175;  202.825;    0.000
353.043; 1592.175;  268.825;    0.000
353.098; 1674.175;  208.825;    0.000
353.153; 1731.175;  219.825;    0.000
353.209; 1685.175;  252.825;    0.000
353.264; 1695.175;  225.825;    0.000
353.319; 1627.175;  234.825;    0.000
353.374; 1722.175;  236.825;    0.000
353.430; 1692.175;  245.825;    0.000
353.485; 1659.175;  238.825;    0.000
353.540; 1726.175;  238.825;    0.000
353.595; 1660.175;  215.825;    0.000
353.650; 1668.175;  238.825;    0.000
353.705; 1663.175;  274.825;    0.000
353.761; 1584.175;  229.825;    0.000
353.816; 1652.175;  275.825;    0.000
353.871; 1673.175;  245.825;    0.000
353.926; 1717.175;  253.825;    0.000
353.981; 1682.175;  269.825;    0.000
354.036; 1665.175;  246.825;    0.000
354.091; 1615.175;  257.825;    0.000
354.146; 1679.175;  278.825;    0.000
354.201; 1715.175;  276.825;    0.000
354.256; 1632.175;  224.825;    0.000
354.311; 1663.175;  287.825;    0.000
354.367; 1638.175;  210.825;    0.000
354.422; 1664.175;  231.825;    0.000
354.477; 1680.175;  226.825;    0.000
354.532; 1629.175;  262.825;    0.000
354.587; 1618.175;  275.825;    0.000
354.642; 1630.175;  247.825;    0.000
354.697; 1669.175;  251.825;    0.000
354.751; 1701.175;  249.825;    0.000
354.806; 1609.175;  217.825;    0.000
354.861; 1682.175;  247.825;    0.000
354.916; 1648.175;  259.825;    0.000
354.971; 1657.175;  241.825;    0.000
355.026; 1773.175;  250.825;    0.000
355.081; 1671.175;  244.825;    0.000
355.136; 1692.175;  203.825;    0.000
355.191; 1647.175;  241.825;    0.000
355.246; 1665.175;  248.825;    0.000
355.301; 1691.175;  259.825;    0.000
355.355; 1716.175;  236.825;    0.000
355.410; 1655.175;  221.825;    0.000
355.465; 1682.175;  206.825;    0.000
355.520; 1689.175;  258.825;    0.000
355.575; 1732.175;  273.825;    0.000
355.630; 1701.175;  252.825;    0.000
355.684; 1634.175;  246.825;    0.000
355.739; 1670.175;  251.825;    0.000
355.794; 1707.175;  247.825;    0.000
355.849; 1707.175;  246.825;    0.000
355.904; 1693.175;  262.825;    0.000
355.958; 1642.175;  249.825;    0.000
356.013; 1642.175;  213.825;    0.000
356.068; 1698.175;  255.825;    0.000
356.123; 1660.175;  205.825;    0.000
356.177; 1765.175;  239.825;    0.000
356.232; 1714.175;  258.825;    0.000
356.287; 1750.175;  248.825;    0.000
356.341; 1736.175;  221.825;    0.000
356.396; 1659.175;  220.825;    0.000
356.451; 1703.175;  231.825;    0.000
356.505; 1690.175;  231.825;    0.000
356.560; 1718.175;  254.825;    0.000
356.615; 1691.175;  234.825;    0.000
356.669; 1644.175;  250.825;    0.000
356.724; 1732.175;  261.825;    0.000
356.778; 1726.175;  207.825;    0.000
356.833; 1570.175;  205.825;    0.000
356.888; 1698.175;  235.825;    0.000
356.942; 1715.175;  205.825;    0.000
356.997; 1727.175;  276.825;    0.000
357.051; 1760.175;  243.825;    0.000
357.106; 1690.175;  242.825;    0.000
357.160; 1624.175;  241.825;    0.000
357.215; 1684.175;  212.825;    0.000
357.269; 1630.175;  238.825;    0.000
357.324; 1695.175;  223.825;    0.000
357.378; 1658.175;  221.825;    0.000
357.433; 1737.175;  262.825;    0.000
357.487; 1731.175;  246.825;    0.000
357.542; 1656.175;  221.825;    0.000
357.596; 1692.175;  225.825;    0.000
357.651; 1712.175;  244.825;    0.000
357.705; 1679.175;  269.825;    0.000
357.760; 1680.175;  209.825;    0.000
357.814; 1709.175;  250.825;    0.000
357.868; 1691.175;  266.825;    0.000
357.923; 1695.175;  248.825;    0.000
357.977; 1656.175;  262.825;    0.000
358.032; 1659.175;  228.825;    0.000
358.086; 1659.175;  257.825;    0.000
358.140; 1636.175;  217.825;    0.000
358.195; 1716.175;  246.825;    0.000
358.249; 1683.175;  255.825;    0.000
358.303; 1660.175;  252.825;    0.000
358.358; 1658.175;  278.825;    0.000
358.412; 1717.175;  276.825;    0.000
358.466; 1657.175;  275.825;    0.000
358.521; 1634.175;  229.825;    0.000
358.575; 1675.175;  270.825;    0.000
358.629; 1594.175;  239.825;    0.000
358.683; 1661.175;  254.825;    0.000
358.738; 1603.175;  239.825;    0.000
358.792; 1564.175;  272.825;    0.000
358.846; 1722.175;  289.825;    0.000
358.900; 1642.175;  299.825;    0.000
358.954; 1649.175;  247.825;    0.000
359.009; 1628.175;  245.825;    0.000
359.063; 1677.175;  272.825;    0.000
359.117; 1638.175;  242.825;    0.000
359.171; 1688.175;  279.825;    0.000
359.225; 1621.175;  221.825;    0.000
359.280; 1777.175;  238.825;    0.000
359.334; 1633.175;  264.825;    0.000
359.388; 1650.175;  273.825;    0.000
359.442; 1605.175;  233.825;    0.000
359.496; 1585.175;  226.825;    0.000
359.550; 1631.175;  271.825;    0.000
359.604; 1663.175;  296.825;    0.000
359.658; 1696.175;  252.825;    0.000
359.712; 1693.175;  256.825;    0.000
359.766; 1567.175;  257.825;    0.000
359.820; 1546.175;  239.825;    0.000
359.875; 1706.175;  252.825;    0.000
359.929; 1633.175;  258.825;    0.000
359.983; 1599.175;  232.825;    0.000
360.037; 1666.175;  268.825;    0.000
360.091; 1684.175;  303.825;    0.000
360.145; 1592.175;  232.825;    0.000
360.199; 1567.175;  255.825;    0.000
360.253; 1686.175;  252.825;    0.000
360.306; 1606.175;  278.825;    0.000
360.360; 1633.175;  249.825;    0.000
360.414; 1613.175;  274.825;    0.000
360.468; 1706.175;  247.825;    0.000
360.522; 1572.175;  268.825;    0.000
360.576; 1610.175;  263.825;    0.000
360.630; 1713.175;  296.825;    0.000
360.684; 1749.175;  253.825;    0.000
360.738; 1708.175;  301.825;    0.000
360.792; 1731.175;  282.825;    0.000
360.846; 1624.175;  277.825;    0.000
360.899; 1743.175;  292.825;    0.000
360.953; 1693.175;  266.825;    0.000
361.007; 1695.175;  240.825;    0.000
361.061; 1626.175;  247.825;    0.000
361.115; 1575.175;  276.825;    0.000
361.168; 1648.175;  288.825;    0.000
361.222; 1589.175;  271.825;    0.000
361.276; 1664.175;  270.825;    0.000
361.330; 1682.175;  295.825;    0.000
361.384; 1620.175;  276.825;    0.000
361.437; 1599.175;  280.825;    0.000
361.491; 1583.175;  261.825;    0.000
361.545; 1647.175;  273.825;    0.000
361.599; 1630.175;  269.825;    0.000
361.652; 1669.175;  258.825;    0.000
361.706; 1704.175;  270.825;    0.000
361.760; 1658.175;  294.825;    0.000
361.813; 1614.175;  244.825;    0.000
361.867; 1672.175;  294.825;    0.000
361.921; 1615.175;  285.825;    0.000
361.974; 1639.175;  269.825;    0.000
362.028; 1668.175;  275.825;    0.000
362.082; 1614.175;  270.825;    0.000
362.135; 1615.175;  259.825;    0.000
362.189; 1674.175;  302.825;    0.000
362.242; 1584.175;  296.825;    0.000
362.296; 1583.175;  285.825;    0.000
362.350; 1590.175;  303.825;    0.000
362.403; 1662.175;  271.825;    0.000
362.457; 1618.175;  285.825;    0.000
362.510; 1619.175;  288.825;    0.000
362.564; 1640.175;  268.825;    0.000
362.617; 1598.175;  285.825;    0.000
362.671; 1568.175;  277.825;    0.000
362.724; 1630.175;  242.825;    0.000
362.778; 1628.175;  274.825;    0.000
362.831; 1563.175;  280.825;    0.000
362.885; 1554.175;  284.825;    0.000
362.938; 1525.175;  276.825;    0.000
362.992;  338.175;  289.825;    0.000
363.045;  301.175;  247.825;    0.000
363.099;  260.175;  260.825;    0.000
363.152;  300.175;  258.825;    0.000
363.205;  289.175;  286.825;    0.000
363.259;  256.175;  236.825;    0.000
363.312;  277.175;  297.825;    0.000
363.366;  291.175;  266.825;    0.000
363.419;  319.175;  309.825;    0.000
363.472;  281.175;  293.825;    0.000
363.526;  301.175;  270.825;    0.000
363.579;  299.175;  276.825;    0.000
363.632;  284.175;  279.825;    0.000
363.686;  296.175;  292.825;    0.000
363.739;  263.175;  248.825;    0.000
363.792;  285.175;  287.825;    0.000

