
Integration time [ms]:   1.000
Averaging Nr. [scans]: 1
Smoothing Nr. [pixels]: 0
Data measured with spectrometer [name]: UV2
Wave   ;Sample   ;Dark     ;Reference
[nm]   ;[counts] ;[counts] ;[counts] 

353.533;  222.350;  216.475;    0.000
353.597;  204.350;  244.475;    0.000
353.660;  219.350;  181.475;    0.000
353.723;  186.350;  203.475;    0.000
353.786;  212.350;  180.475;    0.000
353.850;  229.350;  213.475;    0.000
353.913;  184.350;  191.475;    0.000
353.976;  208.350;  195.475;    0.000
354.039;  209.350;  158.475;    0.000
354.102;  216.350;  199.475;    0.000
354.166;  229.350;  185.475;    0.000
354.229;  206.350;  188.475;    0.000
354.292;  200.350;  188.475;    0.000
354.355;  195.350;  226.475;    0.000
354.418;  170.350;  158.475;    0.000
354.481;  213.350;  185.475;    0.000
354.545;  635.350;  191.475;    0.000
354.608;  688.350;  247.475;    0.000
354.671;  642.350;  176.475;    0.000
354.734;  639.350;  198.475;    0.000
354.797;  695.350;  195.475;    0.000
354.860;  672.350;  212.475;    0.000
354.923;  696.350;  184.475;    0.000
354.986;  735.350;  169.475;    0.000
355.050;  720.350;  206.475;    0.000
355.113;  740.350;  210.475;    0.000
355.176;  808.350;  217.475;    0.000
355.239;  746.350;  201.475;    0.000
355.302;  746.350;  193.475;    0.000
355.365;  804.350;  234.475;    0.000
355.428;  764.350;  182.475;    0.000
355.491;  824.350;  233.475;    0.000
355.554;  805.350;  167.475;    0.000
355.617;  803.350;  195.475;    0.000
355.680;  828.350;  198.475;    0.000
355.743;  810.350;  186.475;    0.000
355.806;  784.350;  171.475;    0.000
355.869;  857.350;  244.475;    0.000
355.932;  804.350;  164.475;    0.000
355.995;  906.350;  220.475;    0.000
356.058;  871.350;  172.475;    0.000
356.121;  868.350;  228.475;    0.000
356.184;  907.350;  225.475;    0.000
356.247;  874.350;  161.475;    0.000
356.310;  859.350;  195.475;    0.000
356.373;  892.350;  191.475;    0.000
356.436;  896.350;  147.475;    0.000
356.498;  888.350;  183.475;    0.000
356.561;  883.350;  137.475;    0.000
356.624;  898.350;  186.475;    0.000
356.687;  862.350;  158.475;    0.000
356.750;  900.350;  194.475;    0.000
356.813;  954.350;  186.475;    0.000
356.876;  902.350;  161.475;    0.000
356.939;  917.350;  188.475;    0.000
357.001;  943.350;  200.475;    0.000
357.064;  912.350;  182.475;    0.000
357.127;  875.350;  168.475;    0.000
357.190;  903.350;  157.475;    0.000
357.253;  985.350;  199.475;    0.000
357.316; 1026.350;  187.475;    0.000
357.378;  882.350;  174.475;    0.000
357.441;  898.350;  165.475;    0.000
357.504;  920.350;  189.475;    0.000
357.567;  913.350;  116.475;    0.000
357.629;  905.350;  176.475;    0.000
357.692;  947.350;  134.475;    0.000
357.755;  975.350;  175.475;    0.000
357.818;  966.350;  159.475;    0.000
357.880;  971.350;  185.475;    0.000
357.943;  911.350;  159.475;    0.000
358.006;  966.350;  176.475;    0.000
358.069; 1030.350;  156.475;    0.000
358.131; 1019.350;  170.475;    0.000
358.194;  968.350;  125.475;    0.000
358.257;  928.350;  186.475;    0.000
358.319;  965.350;  139.475;    0.000
358.382;  949.350;  175.475;    0.000
358.445;  938.350;  170.475;    0.000
358.507;  970.350;  129.475;    0.000
358.570; 1040.350;  168.475;    0.000
358.633;  941.350;  152.475;    0.000
358.695;  889.350;  194.475;    0.000
358.758;  957.350;  154.475;    0.000
358.821;  987.350;  147.475;    0.000
358.883;  994.350;  163.475;    0.000
358.946;  975.350;  155.475;    0.000
359.008;  995.350;  208.475;    0.000
359.071; 1027.350;  182.475;    0.000
359.134; 1014.350;  126.475;    0.000
359.196; 1027.350;  142.475;    0.000
359.259;  984.350;  138.475;    0.000
359.321;  984.350;  153.475;    0.000
359.384; 1008.350;  186.475;    0.000
359.446;  993.350;  152.475;    0.000
359.509; 1020.350;  144.475;    0.000
359.571;  970.350;  164.475;    0.000
359.634; 1038.350;  171.475;    0.000
359.696;  990.350;  144.475;    0.000
359.759; 1045.350;  171.475;    0.000
359.821; 1030.350;  161.475;    0.000
359.884; 1015.350;  159.475;    0.000
359.946; 1061.350;  186.475;    0.000
360.009; 1055.350;  171.475;    0.000
360.071;  979.350;  166.475;    0.000
360.134; 1029.350;  215.475;    0.000
360.196; 1042.350;  138.475;    0.000
360.259; 1115.350;  196.475;    0.000
360.321; 1070.350;  148.475;    0.000
360.384; 1052.350;  150.475;    0.000
360.446; 1013.350;  148.475;    0.000
360.508; 1077.350;  172.475;    0.000
360.571; 1064.350;  155.475;    0.000
360.633; 1087.350;  153.475;    0.000
360.696; 1030.350;  142.475;    0.000
360.758; 1055.350;  165.475;    0.000
360.820; 1061.350;  155.475;    0.000
360.883; 1084.350;  156.475;    0.000
360.945; 1110.350;  171.475;    0.000
361.007; 1099.350;  138.475;    0.000
361.070; 1046.350;  129.475;    0.000
361.132; 1087.350;  166.475;    0.000
361.194; 1068.350;  143.475;    0.000
361.257; 1013.350;  154.475;    0.000
361.319; 1080.350;  176.475;    0.000
361.381; 1133.350;  143.475;    0.000
361.443; 1108.350;  136.475;    0.000
361.506; 1068.350;  160.475;    0.000
361.568; 1069.350;  140.475;    0.000
361.630; 1084.350;  159.475;    0.000
361.693; 1071.350;  162.475;    0.000
361.755; 1126.350;  185.475;    0.000
361.817; 1174.350;  209.475;    0.000
361.879; 1131.350;  161.475;    0.000
361.941; 1112.350;  152.475;    0.000
362.004; 1070.350;  132.475;    0.000
362.066; 1079.350;  159.475;    0.000
362.128; 1063.350;  143.475;    0.000
362.190; 1094.350;  131.475;    0.000
362.252; 1134.350;  131.475;    0.000
362.315; 1109.350;  175.475;    0.000
362.377; 1090.350;  140.475;    0.000
362.439; 1066.350;  140.475;    0.000
362.501; 1129.350;  140.475;    0.000
362.563; 1095.350;  152.475;    0.000
362.625; 1083.350;  174.475;    0.000
362.688; 1127.350;  195.475;    0.000
362.750; 1161.350;  221.475;    0.000
362.812; 1105.350;  171.475;    0.000
362.874; 1112.350;  117.475;    0.000
362.936; 1116.350;  162.475;    0.000
362.998; 1128.350;  142.475;    0.000
363.060; 1175.350;  143.475;    0.000
363.122; 1135.350;  148.475;    0.000
363.184; 1218.350;  179.475;    0.000
363.246; 1116.350;  186.475;    0.000
363.308; 1094.350;  180.475;    0.000
363.370; 1160.350;  200.475;    0.000
363.432; 1152.350;  139.475;    0.000
363.494; 1099.350;  138.475;    0.000
363.556; 1124.350;  114.475;    0.000
363.618; 1185.350;  153.475;    0.000
363.680; 1110.350;  153.475;    0.000
363.742; 1060.350;  178.475;    0.000
363.804; 1136.350;  214.475;    0.000
363.866; 1192.350;  170.475;    0.000
363.928; 1113.350;  145.475;    0.000
363.990; 1149.350;  215.475;    0.000
364.052; 1178.350;  166.475;    0.000
364.114; 1094.350;  168.475;    0.000
364.176; 1202.350;  176.475;    0.000
364.238; 1227.350;  203.475;    0.000
364.300; 1085.350;  158.475;    0.000
364.362; 1077.350;  152.475;    0.000
364.424; 1123.350;  119.475;    0.000
364.486; 1183.350;  187.475;    0.000
364.548; 1222.350;  180.475;    0.000
364.609; 1207.350;  212.475;    0.000
364.671; 1133.350;  165.475;    0.000
364.733; 1186.350;  190.475;    0.000
364.795; 1192.350;  148.475;    0.000
364.857; 1169.350;  159.475;    0.000
364.919; 1140.350;  159.475;    0.000
364.981; 1173.350;  191.475;    0.000
365.042; 1173.350;  170.475;    0.000
365.104; 1144.350;  145.475;    0.000
365.166; 1177.350;  134.475;    0.000
365.228; 1190.350;  150.475;    0.000
365.290; 1097.350;  158.475;    0.000
365.351; 1157.350;  168.475;    0.000
365.413; 1194.350;  173.475;    0.000
365.475; 1183.350;  172.475;    0.000
365.537; 1211.350;  126.475;    0.000
365.598; 1209.350;  160.475;    0.000
365.660; 1095.350;  127.475;    0.000
365.722; 1175.350;  189.475;    0.000
365.784; 1220.350;  161.475;    0.000
365.845; 1190.350;  152.475;    0.000
365.907; 1163.350;  117.475;    0.000
365.969; 1152.350;  146.475;    0.000
366.030; 1190.350;  171.475;    0.000
366.092; 1148.350;  155.475;    0.000
366.154; 1163.350;  137.475;    0.000
366.215; 1264.350;  147.475;    0.000
366.277; 1166.350;  148.475;    0.000
366.339; 1181.350;  158.475;    0.000
366.400; 1156.350;  140.475;    0.000
366.462; 1152.350;  159.475;    0.000
366.524; 1112.350;  160.475;    0.000
366.585; 1171.350;  157.475;    0.000
366.647; 1221.350;  170.475;    0.000
366.708; 1152.350;  123.475;    0.000
366.770; 1176.350;  194.475;    0.000
366.832; 1174.350;  191.475;    0.000
366.893; 1166.350;  155.475;    0.000
366.955; 1223.350;  132.475;    0.000
367.016; 1180.350;  126.475;    0.000
367.078; 1204.350;  202.475;    0.000
367.139; 1205.350;  116.475;    0.000
367.201; 1197.350;  134.475;    0.000
367.262; 1216.350;  157.475;    0.000
367.324; 1220.350;  202.475;    0.000
367.385; 1212.350;  118.475;    0.000
367.447; 1243.350;  155.475;    0.000
367.508; 1227.350;  134.475;    0.000
367.570; 1218.350;  165.475;    0.000
367.631; 1166.350;  118.475;    0.000
367.693; 1174.350;  170.475;    0.000
367.754; 1224.350;  154.475;    0.000
367.816; 1206.350;  146.475;    0.000
367.877; 1245.350;  175.475;    0.000
367.939; 1255.350;  200.475;    0.000
368.000; 1193.350;  168.475;    0.000
368.062; 1172.350;  138.475;    0.000
368.123; 1283.350;  170.475;    0.000
368.184; 1235.350;  188.475;    0.000
368.246; 1286.350;  145.475;    0.000
368.307; 1211.350;  163.475;    0.000
368.369; 1250.350;  144.475;    0.000
368.430; 1258.350;  140.475;    0.000
368.491; 1242.350;  133.475;    0.000
368.553; 1277.350;  145.475;    0.000
368.614; 1248.350;  158.475;    0.000
368.675; 1217.350;  147.475;    0.000
368.737; 1317.350;  157.475;    0.000
368.798; 1231.350;  163.475;    0.000
368.859; 1239.350;  173.475;    0.000
368.921; 1246.350;  122.475;    0.000
368.982; 1309.350;  184.475;    0.000
369.043; 1269.350;  169.475;    0.000
369.104; 1198.350;  142.475;    0.000
369.166; 1216.350;  169.475;    0.000
369.227; 1211.350;  156.475;    0.000
369.288; 1267.350;  151.475;    0.000
369.349; 1335.350;  191.475;    0.000
369.411; 1285.350;  168.475;    0.000
369.472; 1252.350;  155.475;    0.000
369.533; 1242.350;  149.475;    0.000
369.594; 1282.350;  174.475;    0.000
369.656; 1244.350;  188.475;    0.000
369.717; 1229.350;  113.475;    0.000
369.778; 1284.350;  184.475;    0.000
369.839; 1257.350;  151.475;    0.000
369.900; 1339.350;  180.475;    0.000
369.961; 1262.350;  171.475;    0.000
370.023; 1223.350;  143.475;    0.000
370.084; 1248.350;  137.475;    0.000
370.145; 1259.350;  152.475;    0.000
370.206; 1326.350;  151.475;    0.000
370.267; 1263.350;  134.475;    0.000
370.328; 1322.350;  178.475;    0.000
370.389; 1282.350;  181.475;    0.000
370.451; 1292.350;  169.475;    0.000
370.512; 1285.350;  172.475;    0.000
370.573; 1322.350;  148.475;    0.000
370.634; 1365.350;  156.475;    0.000
370.695; 1267.350;  151.475;    0.000
370.756; 1330.350;  185.475;    0.000
370.817; 1359.350;  185.475;    0.000
370.878; 1381.350;  191.475;    0.000
370.939; 1307.350;  147.475;    0.000
371.000; 1312.350;  162.475;    0.000
371.061; 1343.350;  145.475;    0.000
371.122; 1358.350;  179.475;    0.000
371.183; 1273.350;  114.475;    0.000
371.244; 1334.350;  180.475;    0.000
371.305; 1310.350;  138.475;    0.000
371.366; 1306.350;  157.475;    0.000
371.427; 1267.350;  148.475;    0.000
371.488; 1277.350;  138.475;    0.000
371.549; 1249.350;  193.475;    0.000
371.610; 1331.350;  158.475;    0.000
371.671; 1245.350;  119.475;    0.000
371.732; 1328.350;  159.475;    0.000
371.793; 1291.350;  178.475;    0.000
371.853; 1343.350;  155.475;    0.000
371.914; 1316.350;  148.475;    0.000
371.975; 1349.350;  124.475;    0.000
372.036; 1362.350;  158.475;    0.000
372.097; 1288.350;  136.475;    0.000
372.158; 1362.350;  116.475;    0.000
372.219; 1378.350;  157.475;    0.000
372.280; 1317.350;  151.475;    0.000
372.340; 1343.350;  190.475;    0.000
372.401; 1358.350;  151.475;    0.000
372.462; 1353.350;  129.475;    0.000
372.523; 1333.350;  121.475;    0.000
372.584; 1357.350;  152.475;    0.000
372.645; 1296.350;  132.475;    0.000
372.705; 1363.350;  190.475;    0.000
372.766; 1293.350;  153.475;    0.000
372.827; 1327.350;  133.475;    0.000
372.888; 1395.350;  161.475;    0.000
372.948; 1328.350;  159.475;    0.000
373.009; 1344.350;  164.475;    0.000
373.070; 1333.350;  139.475;    0.000
373.131; 1308.350;  137.475;    0.000
373.191; 1346.350;  181.475;    0.000
373.252; 1324.350;  154.475;    0.000
373.313; 1306.350;  179.475;    0.000
373.373; 1337.350;  136.475;    0.000
373.434; 1412.350;  169.475;    0.000
373.495; 1471.350;   97.475;    0.000
373.555; 1428.350;  142.475;    0.000
373.616; 1341.350;  178.475;    0.000
373.677; 1413.350;  167.475;    0.000
373.737; 1416.350;  139.475;    0.000
373.798; 1444.350;  155.475;    0.000
373.859; 1418.350;  162.475;    0.000
373.919; 1383.350;  174.475;    0.000
373.980; 1317.350;  172.475;    0.000
374.041; 1330.350;  166.475;    0.000
374.101; 1400.350;  172.475;    0.000
374.162; 1387.350;  188.475;    0.000
374.222; 1388.350;  186.475;    0.000
374.283; 1377.350;  195.475;    0.000
374.343; 1419.350;  204.475;    0.000
374.404; 1414.350;  187.475;    0.000
374.465; 1360.350;  183.475;    0.000
374.525; 1382.350;  136.475;    0.000
374.586; 1469.350;  140.475;    0.000
374.646; 1446.350;  191.475;    0.000
374.707; 1427.350;  208.475;    0.000
374.767; 1436.350;  178.475;    0.000
374.828; 1397.350;  159.475;    0.000
374.888; 1461.350;  143.475;    0.000
374.949; 1549.350;  202.475;    0.000
375.009; 1486.350;  151.475;    0.000
375.070; 1480.350;  160.475;    0.000
375.130; 1465.350;  160.475;    0.000
375.190; 1367.350;  164.475;    0.000
375.251; 1463.350;  196.475;    0.000
375.311; 1401.350;  154.475;    0.000
375.372; 1340.350;  197.475;    0.000
375.432; 1451.350;  159.475;    0.000
375.493; 1454.350;  197.475;    0.000
375.553; 1438.350;  165.475;    0.000
375.613; 1397.350;  174.475;    0.000
375.674; 1376.350;  165.475;    0.000
375.734; 1390.350;  128.475;    0.000
375.794; 1397.350;  169.475;    0.000
375.855; 1449.350;  193.475;    0.000
375.915; 1423.350;  162.475;    0.000
375.975; 1390.350;  181.475;    0.000
376.036; 1445.350;  161.475;    0.000
376.096; 1377.350;  131.475;    0.000
376.156; 1459.350;  165.475;    0.000
376.217; 1394.350;  182.475;    0.000
376.277; 1473.350;  185.475;    0.000
376.337; 1439.350;  177.475;    0.000
376.398; 1393.350;  162.475;    0.000
376.458; 1460.350;  179.475;    0.000
376.518; 1385.350;  150.475;    0.000
376.578; 1419.350;  165.475;    0.000
376.639; 1468.350;  159.475;    0.000
376.699; 1423.350;  180.475;    0.000
376.759; 1480.350;  206.475;    0.000
376.819; 1407.350;  146.475;    0.000
376.880; 1430.350;  177.475;    0.000
376.940; 1426.350;  160.475;    0.000
377.000; 1374.350;  149.475;    0.000
377.060; 1448.350;  180.475;    0.000
377.120; 1396.350;  146.475;    0.000
377.180; 1421.350;  137.475;    0.000
377.241; 1397.350;  163.475;    0.000
377.301; 1451.350;  169.475;    0.000
377.361; 1404.350;  137.475;    0.000
377.421; 1438.350;  184.475;    0.000
377.481; 1365.350;  185.475;    0.000
377.541; 1439.350;  146.475;    0.000
377.601; 1420.350;  179.475;    0.000
377.661; 1496.350;  181.475;    0.000
377.722; 1459.350;  185.475;    0.000
377.782; 1421.350;  147.475;    0.000
377.842; 1426.350;  190.475;    0.000
377.902; 1430.350;  166.475;    0.000
377.962; 1428.350;  153.475;    0.000
378.022; 1418.350;  163.475;    0.000
378.082; 1471.350;  146.475;    0.000
378.142; 1467.350;  152.475;    0.000
378.202; 1513.350;  164.475;    0.000
378.262; 1466.350;  195.475;    0.000
378.322; 1501.350;  190.475;    0.000
378.382; 1446.350;  152.475;    0.000
378.442; 1486.350;  175.475;    0.000
378.502; 1447.350;  153.475;    0.000
378.562; 1457.350;  142.475;    0.000
378.622; 1435.350;  166.475;    0.000
378.682; 1445.350;  173.475;    0.000
378.742; 1511.350;  182.475;    0.000
378.802; 1486.350;  145.475;    0.000
378.862; 1515.350;  210.475;    0.000
378.921; 1526.350;  182.475;    0.000
378.981; 1525.350;  185.475;    0.000
379.041; 1508.350;  130.475;    0.000
379.101; 1553.350;  177.475;    0.000
379.161; 1538.350;  166.475;    0.000
379.221; 1517.350;  162.475;    0.000
379.281; 1493.350;  167.475;    0.000
379.341; 1456.350;  136.475;    0.000
379.401; 1565.350;  145.475;    0.000
379.460; 1563.350;  176.475;    0.000
379.520; 1571.350;  162.475;    0.000
379.580; 1577.350;  144.475;    0.000
379.640; 1518.350;  163.475;    0.000
379.700; 1551.350;  157.475;    0.000
379.759; 1636.350;  165.475;    0.000
379.819; 1538.350;  190.475;    0.000
379.879; 1643.350;  143.475;    0.000
379.939; 1533.350;  188.475;    0.000
379.999; 1566.350;  141.475;    0.000
380.058; 1590.350;  169.475;    0.000
380.118; 1545.350;  158.475;    0.000
380.178; 1518.350;  114.475;    0.000
380.237; 1613.350;  157.475;    0.000
380.297; 1567.350;  177.475;    0.000
380.357; 1587.350;  189.475;    0.000
380.417; 1603.350;  182.475;    0.000
380.476; 1623.350;  178.475;    0.000
380.536; 1617.350;  189.475;    0.000
380.596; 1644.350;  183.475;    0.000
380.655; 1678.350;  195.475;    0.000
380.715; 1556.350;  170.475;    0.000
380.775; 1594.350;  170.475;    0.000
380.834; 1651.350;  179.475;    0.000
380.894; 1584.350;  188.475;    0.000
380.954; 1561.350;  142.475;    0.000
381.013; 1664.350;  178.475;    0.000
381.073; 1621.350;  164.475;    0.000
381.132; 1640.350;  192.475;    0.000
381.192; 1624.350;  187.475;    0.000
381.252; 1585.350;  176.475;    0.000
381.311; 1680.350;  206.475;    0.000
381.371; 1613.350;  167.475;    0.000
381.430; 1640.350;  131.475;    0.000
381.490; 1672.350;  150.475;    0.000
381.549; 1691.350;  129.475;    0.000
381.609; 1730.350;  178.475;    0.000
381.668; 1717.350;  194.475;    0.000
381.728; 1758.350;  210.475;    0.000
381.787; 1724.350;  190.475;    0.000
381.847; 1646.350;  181.475;    0.000
381.906; 1739.350;  156.475;    0.000
381.966; 1749.350;  176.475;    0.000
382.025; 1801.350;  186.475;    0.000
382.085; 1842.350;  192.475;    0.000
382.144; 1829.350;  173.475;    0.000
382.204; 1776.350;  207.475;    0.000
382.263; 1791.350;  193.475;    0.000
382.323; 1835.350;  164.475;    0.000
382.382; 1801.350;  161.475;    0.000
382.441; 1869.350;  199.475;    0.000
382.501; 1876.350;  208.475;    0.000
382.560; 1968.350;  173.475;    0.000
382.619; 2048.350;  179.475;    0.000
382.679; 2041.350;  177.475;    0.000
382.738; 2069.350;  190.475;    0.000
382.798; 2176.350;  213.475;    0.000
382.857; 2446.350;  195.475;    0.000
382.916; 2646.350;  184.475;    0.000
382.976; 2765.350;  169.475;    0.000
383.035; 2469.350;  194.475;    0.000
383.094; 2618.350;  185.475;    0.000
383.154; 3027.350;  198.475;    0.000
383.213; 3429.350;  147.475;    0.000
383.272; 3421.350;  175.475;    0.000
383.331; 2695.350;  122.475;    0.000
383.391; 2457.350;  185.475;    0.000
383.450; 2416.350;  160.475;    0.000
383.509; 2449.350;  168.475;    0.000
383.568; 2493.350;  196.475;    0.000
383.628; 2498.350;  156.475;    0.000
383.687; 2813.350;  171.475;    0.000
383.746; 3158.350;  155.475;    0.000
383.805; 4051.350;  201.475;    0.000
383.864; 4073.350;  125.475;    0.000
383.924; 2961.350;  213.475;    0.000
383.983; 2457.350;  188.475;    0.000
384.042; 2321.350;  162.475;    0.000
384.101; 2232.350;  183.475;    0.000
384.160; 2043.350;  155.475;    0.000
384.219; 1895.350;  155.475;    0.000
384.279; 2033.350;  189.475;    0.000
384.338; 1911.350;  156.475;    0.000
384.397; 1844.350;  148.475;    0.000
384.456; 1838.350;  154.475;    0.000
384.515; 1864.350;  160.475;    0.000
384.574; 1871.350;  223.475;    0.000
384.633; 1868.350;  133.475;    0.000
384.692; 1816.350;  163.475;    0.000
384.751; 1869.350;  186.475;    0.000
384.810; 1934.350;  187.475;    0.000
384.869; 1804.350;  172.475;    0.000
384.929; 1890.350;  153.475;    0.000
384.988; 1836.350;  174.475;    0.000
385.047; 1843.350;  154.475;    0.000
385.106; 1869.350;  164.475;    0.000
385.165; 1836.350;  151.475;    0.000
385.224; 1835.350;  147.475;    0.000
385.283; 1838.350;  176.475;    0.000
385.342; 1888.350;  142.475;    0.000
385.401; 1825.350;  175.475;    0.000
385.459; 1914.350;  150.475;    0.000
385.518; 1806.350;  124.475;    0.000
385.577; 1797.350;  115.475;    0.000
385.636; 1892.350;  174.475;    0.000
385.695; 1931.350;  158.475;    0.000
385.754; 1827.350;  150.475;    0.000
385.813; 1827.350;  129.475;    0.000
385.872; 1827.350;  146.475;    0.000
385.931; 1870.350;  194.475;    0.000
385.990; 1912.350;  174.475;    0.000
386.049; 1906.350;  176.475;    0.000
386.107; 1854.350;  151.475;    0.000
386.166; 1860.350;  178.475;    0.000
386.225; 1859.350;  162.475;    0.000
386.284; 1878.350;  180.475;    0.000
386.343; 1831.350;  171.475;    0.000
386.402; 1827.350;  176.475;    0.000
386.460; 1888.350;  144.475;    0.000
386.519; 1816.350;  140.475;    0.000
386.578; 1879.350;  145.475;    0.000
386.637; 1884.350;  164.475;    0.000
386.696; 1850.350;  189.475;    0.000
386.754; 1864.350;  135.475;    0.000
386.813; 1910.350;  139.475;    0.000
386.872; 1876.350;  121.475;    0.000
386.931; 1930.350;  153.475;    0.000
386.989; 1817.350;  211.475;    0.000
387.048; 1854.350;  156.475;    0.000
387.107; 1871.350;  210.475;    0.000
387.165; 1828.350;  129.475;    0.000
387.224; 1929.350;  205.475;    0.000
387.283; 1871.350;  130.475;    0.000
387.342; 1905.350;  171.475;    0.000
387.400; 1884.350;  156.475;    0.000
387.459; 1896.350;  141.475;    0.000
387.517; 1785.350;  219.475;    0.000
387.576; 1828.350;  166.475;    0.000
387.635; 1819.350;  136.475;    0.000
387.693; 1836.350;  191.475;    0.000
387.752; 1834.350;  165.475;    0.000
387.811; 1919.350;  158.475;    0.000
387.869; 1952.350;  204.475;    0.000
387.928; 1852.350;  149.475;    0.000
387.986; 1870.350;  156.475;    0.000
388.045; 1835.350;  123.475;    0.000
388.103; 1846.350;  150.475;    0.000
388.162; 1902.350;  173.475;    0.000
388.221; 1882.350;  143.475;    0.000
388.279; 1767.350;  129.475;    0.000
388.338; 1946.350;  212.475;    0.000
388.396; 1925.350;  150.475;    0.000
388.455; 1921.350;  167.475;    0.000
388.513; 1883.350;  116.475;    0.000
388.572; 1948.350;  181.475;    0.000
388.630; 1969.350;  187.475;    0.000
388.689; 1857.350;  180.475;    0.000
388.747; 1879.350;  154.475;    0.000
388.806; 1912.350;  161.475;    0.000
388.864; 1812.350;  167.475;    0.000
388.922; 1935.350;  184.475;    0.000
388.981; 1853.350;  169.475;    0.000
389.039; 1862.350;  102.475;    0.000
389.098; 1920.350;  183.475;    0.000
389.156; 1916.350;  182.475;    0.000
389.214; 1886.350;  173.475;    0.000
389.273; 1853.350;  167.475;    0.000
389.331; 1955.350;  170.475;    0.000
389.390; 1942.350;  150.475;    0.000
389.448; 1800.350;  156.475;    0.000
389.506; 1917.350;  149.475;    0.000
389.565; 1917.350;  162.475;    0.000
389.623; 1916.350;  188.475;    0.000
389.681; 1947.350;  204.475;    0.000
389.740; 1918.350;  187.475;    0.000
389.798; 1849.350;  153.475;    0.000
389.856; 1989.350;  214.475;    0.000
389.914; 1920.350;  177.475;    0.000
389.973; 1898.350;  189.475;    0.000
390.031; 1871.350;  178.475;    0.000
390.089; 1925.350;  163.475;    0.000
390.147; 1841.350;  170.475;    0.000
390.206; 1968.350;  183.475;    0.000
390.264; 1829.350;  161.475;    0.000
390.322; 1898.350;  148.475;    0.000
390.380; 1891.350;  138.475;    0.000
390.439; 1929.350;  194.475;    0.000
390.497; 2016.350;  170.475;    0.000
390.555; 2021.350;  165.475;    0.000
390.613; 1999.350;  177.475;    0.000
390.671; 1996.350;  170.475;    0.000
390.729; 1993.350;  158.475;    0.000
390.788; 2046.350;  162.475;    0.000
390.846; 1899.350;  161.475;    0.000
390.904; 2024.350;  197.475;    0.000
390.962; 2038.350;  212.475;    0.000
391.020; 1923.350;  224.475;    0.000
391.078; 2009.350;  184.475;    0.000
391.136; 1982.350;  191.475;    0.000
391.194; 2066.350;  187.475;    0.000
391.253; 2003.350;  197.475;    0.000
391.311; 1990.350;  185.475;    0.000
391.369; 2045.350;  207.475;    0.000
391.427; 2019.350;  222.475;    0.000
391.485; 2083.350;  184.475;    0.000
391.543; 2068.350;  203.475;    0.000
391.601; 2111.350;  151.475;    0.000
391.659; 2107.350;  176.475;    0.000
391.717; 2080.350;  190.475;    0.000
391.775; 2106.350;  159.475;    0.000
391.833; 2066.350;  186.475;    0.000
391.891; 2082.350;  154.475;    0.000
391.949; 2072.350;  181.475;    0.000
392.007; 2132.350;  190.475;    0.000
392.065; 2105.350;  182.475;    0.000
392.123; 2071.350;  158.475;    0.000
392.180; 2145.350;  198.475;    0.000
392.238; 2120.350;  191.475;    0.000
392.296; 2084.350;  164.475;    0.000
392.354; 2041.350;  172.475;    0.000
392.412; 2044.350;  194.475;    0.000
392.470; 2093.350;  154.475;    0.000
392.528; 2154.350;  172.475;    0.000
392.586; 2124.350;  179.475;    0.000
392.644; 2179.350;  173.475;    0.000
392.701; 2104.350;  202.475;    0.000
392.759; 2245.350;  180.475;    0.000
392.817; 2173.350;  181.475;    0.000
392.875; 2104.350;  168.475;    0.000
392.933; 2200.350;  161.475;    0.000
392.991; 2184.350;  216.475;    0.000
393.048; 2229.350;  197.475;    0.000
393.106; 2345.350;  199.475;    0.000
393.164; 2466.350;  173.475;    0.000
393.222; 2682.350;  179.475;    0.000
393.279; 3358.350;  209.475;    0.000
393.337; 4507.350;  185.475;    0.000
393.395; 4983.350;  174.475;    0.000
393.453; 3361.350;  181.475;    0.000
393.510; 2489.350;  188.475;    0.000
393.568; 2403.350;  191.475;    0.000
393.626; 2320.350;  151.475;    0.000
393.684; 2292.350;  208.475;    0.000
393.741; 2193.350;  179.475;    0.000
393.799; 2255.350;  149.475;    0.000
393.857; 2184.350;  136.475;    0.000
393.914; 2250.350;  190.475;    0.000
393.972; 2114.350;  155.475;    0.000
394.030; 2197.350;  170.475;    0.000
394.087; 2202.350;  213.475;    0.000
394.145; 2192.350;  191.475;    0.000
394.202; 2153.350;  188.475;    0.000
394.260; 2153.350;  168.475;    0.000
394.318; 2281.350;  176.475;    0.000
394.375; 2189.350;  159.475;    0.000
394.433; 2382.350;  168.475;    0.000
394.490; 2251.350;  163.475;    0.000
394.548; 2191.350;  163.475;    0.000
394.605; 2157.350;  181.475;    0.000
394.663; 2161.350;  180.475;    0.000
394.720; 2155.350;  193.475;    0.000
394.778; 2278.350;  168.475;    0.000
394.836; 2196.350;  128.475;    0.000
394.893; 2285.350;  151.475;    0.000
394.951; 2241.350;  173.475;    0.000
395.008; 2222.350;  201.475;    0.000
395.065; 2239.350;  139.475;    0.000
395.123; 2268.350;  173.475;    0.000
395.180; 2223.350;  144.475;    0.000
395.238; 2265.350;  135.475;    0.000
395.295; 2221.350;  167.475;    0.000
395.353; 2364.350;  150.475;    0.000
395.410; 2194.350;  165.475;    0.000
395.468; 2244.350;  223.475;    0.000
395.525; 2343.350;  156.475;    0.000
395.582; 2281.350;  178.475;    0.000
395.640; 2328.350;  178.475;    0.000
395.697; 2315.350;  173.475;    0.000
395.754; 2326.350;  154.475;    0.000
395.812; 2278.350;  169.475;    0.000
395.869; 2327.350;  196.475;    0.000
395.927; 2314.350;  190.475;    0.000
395.984; 2388.350;  195.475;    0.000
396.041; 2299.350;  160.475;    0.000
396.098; 2365.350;  161.475;    0.000
396.156; 2598.350;  187.475;    0.000
396.213; 2603.350;  200.475;    0.000
396.270; 2418.350;  160.475;    0.000
396.328; 2310.350;  113.475;    0.000
396.385; 2329.350;  165.475;    0.000
396.442; 2393.350;  168.475;    0.000
396.499; 2310.350;  117.475;    0.000
396.557; 2417.350;  203.475;    0.000
396.614; 2519.350;  155.475;    0.000
396.671; 2547.350;  187.475;    0.000
396.728; 2861.350;  169.475;    0.000
396.785; 3271.350;  167.475;    0.000
396.843; 4091.350;  154.475;    0.000
396.900; 3868.350;  172.475;    0.000
396.957; 2872.350;  176.475;    0.000
397.014; 2527.350;  193.475;    0.000
397.071; 2534.350;  170.475;    0.000
397.128; 2392.350;  172.475;    0.000
397.186; 2496.350;  205.475;    0.000
397.243; 2414.350;  163.475;    0.000
397.300; 2456.350;  193.475;    0.000
397.357; 2503.350;  166.475;    0.000
397.414; 2414.350;  149.475;    0.000
397.471; 2452.350;  157.475;    0.000
397.528; 2451.350;  180.475;    0.000
397.585; 2488.350;  203.475;    0.000
397.642; 2442.350;  156.475;    0.000
397.699; 2539.350;  229.475;    0.000
397.756; 2440.350;  185.475;    0.000
397.814; 2536.350;  191.475;    0.000
397.871; 2538.350;  170.475;    0.000
397.928; 2441.350;  191.475;    0.000
397.985; 2436.350;  183.475;    0.000
398.042; 2464.350;  161.475;    0.000
398.099; 2460.350;  192.475;    0.000
398.156; 2425.350;  176.475;    0.000
398.212; 2463.350;  170.475;    0.000
398.269; 2464.350;  158.475;    0.000
398.326; 2482.350;  175.475;    0.000
398.383; 2488.350;  177.475;    0.000
398.440; 2443.350;  169.475;    0.000
398.497; 2500.350;  184.475;    0.000
398.554; 2640.350;  196.475;    0.000
398.611; 2527.350;  198.475;    0.000
398.668; 2532.350;  135.475;    0.000
398.725; 2596.350;  181.475;    0.000
398.782; 2592.350;  195.475;    0.000
398.839; 2594.350;  179.475;    0.000
398.895; 2630.350;  188.475;    0.000
398.952; 2604.350;  176.475;    0.000
399.009; 2632.350;  183.475;    0.000
399.066; 2666.350;  190.475;    0.000
399.123; 2725.350;  174.475;    0.000
399.180; 2757.350;  191.475;    0.000
399.236; 2748.350;  217.475;    0.000
399.293; 2842.350;  154.475;    0.000
399.350; 2829.350;  210.475;    0.000
399.407; 2933.350;  202.475;    0.000
399.463; 3047.350;  162.475;    0.000
399.520; 2960.350;  207.475;    0.000
399.577; 2979.350;  174.475;    0.000
399.634; 3023.350;  170.475;    0.000
399.690; 3007.350;  186.475;    0.000
399.747; 3098.350;  218.475;    0.000
399.804; 2968.350;  200.475;    0.000
399.861; 2924.350;  190.475;    0.000
399.917; 2932.350;  218.475;    0.000
399.974; 2904.350;  200.475;    0.000
400.031; 2911.350;  200.475;    0.000
400.087; 2834.350;  153.475;    0.000
400.144; 2874.350;  188.475;    0.000
400.201; 2904.350;  198.475;    0.000
400.257; 2894.350;  205.475;    0.000
400.314; 2824.350;  183.475;    0.000
400.370; 2837.350;  227.475;    0.000
400.427; 2797.350;  177.475;    0.000
400.484; 2742.350;  202.475;    0.000
400.540; 2807.350;  173.475;    0.000
400.597; 2768.350;  212.475;    0.000
400.653; 2681.350;  182.475;    0.000
400.710; 2769.350;  201.475;    0.000
400.766; 2737.350;  188.475;    0.000
400.823; 2674.350;  205.475;    0.000
400.879; 2736.350;  165.475;    0.000
400.936; 2731.350;  180.475;    0.000
400.993; 2733.350;  181.475;    0.000
401.049; 2735.350;  147.475;    0.000
401.105; 2731.350;  205.475;    0.000
401.162; 2694.350;  197.475;    0.000
401.218; 2672.350;  177.475;    0.000
401.275; 2667.350;  183.475;    0.000
401.331; 2714.350;  198.475;    0.000
401.388; 2678.350;  209.475;    0.000
401.444; 2663.350;  211.475;    0.000
401.501; 2784.350;  185.475;    0.000
401.557; 2718.350;  190.475;    0.000
401.614; 2689.350;  172.475;    0.000
401.670; 2663.350;  185.475;    0.000
401.726; 2722.350;  196.475;    0.000
401.783; 2714.350;  187.475;    0.000
401.839; 2669.350;  192.475;    0.000
401.895; 2659.350;  173.475;    0.000
401.952; 2642.350;  145.475;    0.000
402.008; 2777.350;  197.475;    0.000
402.064; 2631.350;  146.475;    0.000
402.121; 2685.350;  197.475;    0.000
402.177; 2670.350;  173.475;    0.000
402.233; 2719.350;  185.475;    0.000
402.290; 2827.350;  175.475;    0.000
402.346; 2712.350;  164.475;    0.000
402.402; 2703.350;  173.475;    0.000
402.458; 2687.350;  183.475;    0.000
402.515; 2792.350;  147.475;    0.000
402.571; 2716.350;  210.475;    0.000
402.627; 2774.350;  181.475;    0.000
402.683; 2764.350;  177.475;    0.000
402.740; 2702.350;  162.475;    0.000
402.796; 2808.350;  178.475;    0.000
402.852; 2730.350;  138.475;    0.000
402.908; 2779.350;  181.475;    0.000
402.964; 2740.350;  151.475;    0.000
403.021; 2815.350;  170.475;    0.000
403.077; 2810.350;  204.475;    0.000
403.133; 2821.350;  144.475;    0.000
403.189; 2844.350;  207.475;    0.000
403.245; 2784.350;  184.475;    0.000
403.301; 2708.350;  170.475;    0.000
403.357; 2823.350;  201.475;    0.000
403.414; 2795.350;  205.475;    0.000
403.470; 2836.350;  170.475;    0.000
403.526; 2850.350;  135.475;    0.000
403.582; 2826.350;  180.475;    0.000
403.638; 2904.350;  185.475;    0.000
403.694; 2912.350;  169.475;    0.000
403.750; 2820.350;  210.475;    0.000
403.806; 2887.350;  210.475;    0.000
403.862; 2805.350;  219.475;    0.000
403.918; 2860.350;  191.475;    0.000
403.974; 2826.350;  193.475;    0.000
404.030; 2862.350;  154.475;    0.000
404.086; 2906.350;  170.475;    0.000
404.142; 2889.350;  194.475;    0.000
404.198; 2952.350;  224.475;    0.000
404.254; 2953.350;  177.475;    0.000
404.310; 2833.350;  204.475;    0.000
404.366; 2885.350;  170.475;    0.000
404.422; 2879.350;  172.475;    0.000
404.478; 2950.350;  153.475;    0.000
404.534; 3029.350;  159.475;    0.000
404.590; 2983.350;  203.475;    0.000
404.646; 3015.350;  164.475;    0.000
404.701; 2932.350;  141.475;    0.000
404.757; 2845.350;  195.475;    0.000
404.813; 2777.350;  152.475;    0.000
404.869; 2876.350;  174.475;    0.000
404.925; 2902.350;  167.475;    0.000
404.981; 2858.350;  175.475;    0.000
405.037; 2963.350;  170.475;    0.000
405.092; 2905.350;  155.475;    0.000
405.148; 2892.350;  160.475;    0.000
405.204; 2845.350;  158.475;    0.000
405.260; 2943.350;  128.475;    0.000
405.316; 2874.350;  168.475;    0.000
405.371; 3027.350;  162.475;    0.000
405.427; 2874.350;  187.475;    0.000
405.483; 3023.350;  214.475;    0.000
405.539; 2916.350;  163.475;    0.000
405.594; 2921.350;  191.475;    0.000
405.650; 2874.350;  124.475;    0.000
405.706; 2875.350;  188.475;    0.000
405.761; 3000.350;  204.475;    0.000
405.817; 2908.350;  150.475;    0.000
405.873; 2953.350;  152.475;    0.000
405.928; 2929.350;  135.475;    0.000
405.984; 2970.350;  209.475;    0.000
406.040; 2938.350;  165.475;    0.000
406.095; 2888.350;  146.475;    0.000
406.151; 2987.350;  169.475;    0.000
406.207; 2983.350;  174.475;    0.000
406.262; 2971.350;  189.475;    0.000
406.318; 2955.350;  141.475;    0.000
406.374; 3090.350;  178.475;    0.000
406.429; 3106.350;  197.475;    0.000
406.485; 3110.350;  194.475;    0.000
406.540; 3046.350;  149.475;    0.000
406.596; 3046.350;  173.475;    0.000
406.651; 3077.350;  154.475;    0.000
406.707; 3101.350;  183.475;    0.000
406.763; 3083.350;  156.475;    0.000
406.818; 3055.350;  181.475;    0.000
406.874; 3045.350;  135.475;    0.000
406.929; 3187.350;  194.475;    0.000
406.985; 3225.350;  166.475;    0.000
407.040; 3214.350;  207.475;    0.000
407.095; 3194.350;  213.475;    0.000
407.151; 3285.350;  198.475;    0.000
407.206; 3290.350;  186.475;    0.000
407.262; 3315.350;  148.475;    0.000
407.317; 3377.350;  212.475;    0.000
407.373; 3285.350;  209.475;    0.000
407.428; 3397.350;  218.475;    0.000
407.484; 3315.350;  158.475;    0.000
407.539; 3352.350;  165.475;    0.000
407.594; 3329.350;  197.475;    0.000
407.650; 3277.350;  177.475;    0.000
407.705; 3261.350;  154.475;    0.000
407.760; 3232.350;  198.475;    0.000
407.816; 3280.350;  181.475;    0.000
407.871; 3347.350;  185.475;    0.000
407.926; 3303.350;  167.475;    0.000
407.982; 3249.350;  172.475;    0.000
408.037; 3318.350;  202.475;    0.000
408.092; 3244.350;  201.475;    0.000
408.148; 3280.350;  199.475;    0.000
408.203; 3206.350;  174.475;    0.000
408.258; 3207.350;  157.475;    0.000
408.314; 3229.350;  194.475;    0.000
408.369; 3192.350;  189.475;    0.000
408.424; 3276.350;  204.475;    0.000
408.479; 3221.350;  192.475;    0.000
408.534; 3264.350;  215.475;    0.000
408.590; 3127.350;  190.475;    0.000
408.645; 3118.350;  159.475;    0.000
408.700; 3142.350;  191.475;    0.000
408.755; 3133.350;  217.475;    0.000
408.810; 3168.350;  158.475;    0.000
408.866; 3146.350;  166.475;    0.000
408.921; 3177.350;  214.475;    0.000
408.976; 3165.350;  158.475;    0.000
409.031; 3057.350;  185.475;    0.000
409.086; 3114.350;  158.475;    0.000
409.141; 3191.350;  180.475;    0.000
409.196; 3121.350;  188.475;    0.000
409.252; 3213.350;  186.475;    0.000
409.307; 3139.350;  135.475;    0.000
409.362; 3117.350;  162.475;    0.000
409.417; 3060.350;  149.475;    0.000
409.472; 3203.350;  205.475;    0.000
409.527; 3125.350;  184.475;    0.000
409.582; 3246.350;  174.475;    0.000
409.637; 3179.350;  188.475;    0.000
409.692; 3176.350;  211.475;    0.000
409.747; 3120.350;  159.475;    0.000
409.802; 3167.350;  199.475;    0.000
409.857; 3183.350;  118.475;    0.000
409.912; 3174.350;  177.475;    0.000
409.967; 3146.350;  182.475;    0.000
410.022; 3238.350;  188.475;    0.000
410.077; 3120.350;  204.475;    0.000
410.132; 3104.350;  174.475;    0.000
410.187; 3089.350;  169.475;    0.000
410.242; 3159.350;  178.475;    0.000
410.297; 3147.350;  185.475;    0.000
410.351; 3162.350;  203.475;    0.000
410.406; 3168.350;  180.475;    0.000
410.461; 3087.350;  213.475;    0.000
410.516; 3116.350;  198.475;    0.000
410.571; 3144.350;  171.475;    0.000
410.626; 3197.350;  186.475;    0.000
410.681; 3184.350;  187.475;    0.000
410.736; 3092.350;  147.475;    0.000
410.790; 3238.350;  186.475;    0.000
410.845; 3184.350;  152.475;    0.000
410.900; 3117.350;  202.475;    0.000
410.955; 3026.350;  196.475;    0.000
411.010; 3140.350;  150.475;    0.000
411.064; 3115.350;  200.475;    0.000
411.119; 3206.350;  203.475;    0.000
411.174; 3121.350;  176.475;    0.000
411.229; 3021.350;  203.475;    0.000
411.283; 3194.350;  176.475;    0.000
411.338; 3158.350;  153.475;    0.000
411.393; 3047.350;  168.475;    0.000
411.447; 3091.350;  223.475;    0.000
411.502; 3223.350;  238.475;    0.000
411.557; 3143.350;  179.475;    0.000
411.612; 3107.350;  159.475;    0.000
411.666; 3212.350;  189.475;    0.000
411.721; 3166.350;  212.475;    0.000
411.776; 3276.350;  242.475;    0.000
411.830; 3190.350;  194.475;    0.000
411.885; 3180.350;  188.475;    0.000
411.939; 3216.350;  245.475;    0.000
411.994; 3139.350;  177.475;    0.000
412.049; 3204.350;  170.475;    0.000
412.103; 3129.350;  196.475;    0.000
412.158; 3180.350;  215.475;    0.000
412.212; 3268.350;  199.475;    0.000
412.267; 3302.350;  191.475;    0.000
412.322; 3172.350;  238.475;    0.000
412.376; 3173.350;  243.475;    0.000
412.431; 3202.350;  214.475;    0.000
412.485; 3164.350;  210.475;    0.000
412.540; 3163.350;  200.475;    0.000
412.594; 3210.350;  174.475;    0.000
412.649; 3205.350;  246.475;    0.000
412.703; 3109.350;  182.475;    0.000
412.758; 3236.350;  222.475;    0.000
412.812; 3128.350;  201.475;    0.000
412.866; 3075.350;  162.475;    0.000
412.921; 3173.350;  202.475;    0.000
412.975; 3075.350;  212.475;    0.000
413.030; 3214.350;  238.475;    0.000
413.084; 3170.350;  201.475;    0.000
413.139; 3204.350;  210.475;    0.000
413.193; 3133.350;  218.475;    0.000
413.247; 3192.350;  203.475;    0.000
413.302; 3169.350;  176.475;    0.000
413.356; 3163.350;  215.475;    0.000
413.410; 3188.350;  204.475;    0.000
413.465; 3059.350;  186.475;    0.000
413.519; 3120.350;  196.475;    0.000
413.573; 3109.350;  181.475;    0.000
413.628; 3112.350;  200.475;    0.000
413.682; 3008.350;  157.475;    0.000
413.736; 3094.350;  194.475;    0.000
413.791; 3116.350;  193.475;    0.000
413.845; 3069.350;  225.475;    0.000
413.899; 3066.350;  195.475;    0.000
413.953; 2958.350;  173.475;    0.000
414.008; 3089.350;  186.475;    0.000
414.062; 3038.350;  217.475;    0.000
414.116; 3001.350;  169.475;    0.000
414.170; 3043.350;  228.475;    0.000
414.225; 3045.350;  177.475;    0.000
414.279; 3099.350;  210.475;    0.000
414.333; 3127.350;  207.475;    0.000
414.387; 3131.350;  217.475;    0.000
414.441; 3046.350;  187.475;    0.000
414.496; 3129.350;  215.475;    0.000
414.550; 3122.350;  204.475;    0.000
414.604; 3108.350;  206.475;    0.000
414.658; 3118.350;  139.475;    0.000
414.712; 3147.350;  198.475;    0.000
414.766; 3185.350;  208.475;    0.000
414.820; 3207.350;  199.475;    0.000
414.874; 3128.350;  216.475;    0.000
414.928; 3051.350;  186.475;    0.000
414.982; 3068.350;  176.475;    0.000
415.037; 3045.350;  181.475;    0.000
415.091; 3060.350;  208.475;    0.000
415.145; 3114.350;  209.475;    0.000
415.199; 3012.350;  186.475;    0.000
415.253; 3080.350;  203.475;    0.000
415.307; 3107.350;  197.475;    0.000
415.361; 3190.350;  223.475;    0.000
415.415; 3135.350;  213.475;    0.000
415.469; 3158.350;  226.475;    0.000
415.523; 3132.350;  222.475;    0.000
415.577; 3094.350;  205.475;    0.000
415.631; 3029.350;  224.475;    0.000
415.684; 3054.350;  193.475;    0.000
415.738; 2989.350;  224.475;    0.000
415.792; 3018.350;  204.475;    0.000
415.846; 3047.350;  189.475;    0.000
415.900; 3125.350;  223.475;    0.000
415.954; 3073.350;  187.475;    0.000
416.008; 3077.350;  237.475;    0.000
416.062; 2983.350;  195.475;    0.000
416.116; 3042.350;  223.475;    0.000
416.169; 3051.350;  210.475;    0.000
416.223; 3133.350;  232.475;    0.000
416.277; 3059.350;  227.475;    0.000
416.331; 2998.350;  216.475;    0.000
416.385; 2973.350;  186.475;    0.000
416.439; 3092.350;  226.475;    0.000
416.492; 3057.350;  229.475;    0.000
416.546; 3002.350;  216.475;    0.000
416.600; 3051.350;  211.475;    0.000
416.654; 3049.350;  226.475;    0.000
416.707; 3074.350;  248.475;    0.000
416.761; 3005.350;  217.475;    0.000
416.815; 3103.350;  207.475;    0.000
416.869; 3066.350;  226.475;    0.000
416.922; 3163.350;  192.475;    0.000
416.976; 2991.350;  205.475;    0.000
417.030; 2981.350;  233.475;    0.000
417.083; 3000.350;  226.475;    0.000
417.137; 3155.350;  222.475;    0.000
417.191; 3034.350;  217.475;    0.000
417.244; 3010.350;  221.475;    0.000
417.298; 2959.350;  201.475;    0.000
417.352; 2950.350;  170.475;    0.000
417.405; 3150.350;  234.475;    0.000
417.459; 3077.350;  241.475;    0.000
417.512; 3049.350;  247.475;    0.000
417.566; 3064.350;  219.475;    0.000
417.620; 3095.350;  228.475;    0.000
417.673; 3091.350;  192.475;    0.000
417.727; 2983.350;  203.475;    0.000
417.780; 3087.350;  204.475;    0.000
417.834; 2920.350;  234.475;    0.000
417.887; 3052.350;  245.475;    0.000
417.941; 3054.350;  211.475;    0.000
417.994; 3038.350;  244.475;    0.000
418.048; 3012.350;  203.475;    0.000
418.101; 3038.350;  212.475;    0.000
418.155; 2960.350;  251.475;    0.000
418.208; 3071.350;  286.475;    0.000
418.262; 3051.350;  243.475;    0.000
418.315; 3096.350;  214.475;    0.000
418.369; 3083.350;  269.475;    0.000
418.422; 3118.350;  222.475;    0.000
418.476; 3120.350;  226.475;    0.000
418.529; 3092.350;  238.475;    0.000
418.582; 3052.350;  210.475;    0.000
418.636; 3074.350;  221.475;    0.000
418.689; 2999.350;  224.475;    0.000
418.743; 3050.350;  228.475;    0.000
418.796; 3050.350;  192.475;    0.000
418.849; 2982.350;  230.475;    0.000
418.903; 3107.350;  257.475;    0.000
418.956; 3168.350;  241.475;    0.000
419.009; 3087.350;  247.475;    0.000
419.063; 3087.350;  235.475;    0.000
419.116; 3161.350;  218.475;    0.000
419.169; 3014.350;  219.475;    0.000
419.222; 3076.350;  215.475;    0.000
419.276; 3180.350;  202.475;    0.000
419.329; 3154.350;  210.475;    0.000
419.382; 3055.350;  188.475;    0.000
419.435; 3109.350;  222.475;    0.000
419.489; 3060.350;  232.475;    0.000
419.542; 3096.350;  250.475;    0.000
419.595; 3029.350;  240.475;    0.000
419.648; 2992.350;  261.475;    0.000
419.701; 3035.350;  222.475;    0.000
419.755; 2930.350;  233.475;    0.000
419.808; 3054.350;  178.475;    0.000
419.861; 2987.350;  207.475;    0.000
419.914; 3002.350;  223.475;    0.000
419.967; 3084.350;  216.475;    0.000
420.020; 2933.350;  211.475;    0.000
420.073; 3061.350;  200.475;    0.000
420.127; 3074.350;  248.475;    0.000
420.180; 3005.350;  220.475;    0.000
420.233; 3024.350;  215.475;    0.000
420.286; 2953.350;  222.475;    0.000
420.339; 3117.350;  229.475;    0.000
420.392; 2983.350;  245.475;    0.000
420.445; 2949.350;  221.475;    0.000
420.498; 3008.350;  224.475;    0.000
420.551; 2915.350;  170.475;    0.000
420.604; 3001.350;  237.475;    0.000
420.657; 2878.350;  235.475;    0.000
420.710; 2967.350;  223.475;    0.000
420.763; 3028.350;  219.475;    0.000
420.816; 2948.350;  200.475;    0.000
420.869; 2859.350;  197.475;    0.000
420.922; 2983.350;  212.475;    0.000
420.975; 2926.350;  274.475;    0.000
421.028; 2908.350;  228.475;    0.000
421.081; 2940.350;  243.475;    0.000
421.134; 2950.350;  227.475;    0.000
421.187; 2970.350;  245.475;    0.000
421.239; 2863.350;  210.475;    0.000
421.292; 2882.350;  193.475;    0.000
421.345; 2884.350;  226.475;    0.000
421.398; 2785.350;  226.475;    0.000
421.451; 2947.350;  259.475;    0.000
421.504; 2960.350;  204.475;    0.000
421.557; 2887.350;  215.475;    0.000
421.609; 2932.350;  194.475;    0.000
421.662; 2849.350;  216.475;    0.000
421.715; 3000.350;  226.475;    0.000
421.768; 2844.350;  177.475;    0.000
421.821; 2886.350;  210.475;    0.000
421.873; 2944.350;  208.475;    0.000
421.926; 2897.350;  223.475;    0.000
421.979; 2870.350;  230.475;    0.000
422.032; 2820.350;  227.475;    0.000
422.084; 2899.350;  234.475;    0.000
422.137; 2910.350;  207.475;    0.000
422.190; 2963.350;  228.475;    0.000
422.243; 2935.350;  206.475;    0.000
422.295; 2860.350;  236.475;    0.000
422.348; 2878.350;  232.475;    0.000
422.401; 2811.350;  228.475;    0.000
422.453; 2852.350;  239.475;    0.000
422.506; 2878.350;  226.475;    0.000
422.559; 2914.350;  205.475;    0.000
422.611; 3097.350;  235.475;    0.000
422.664; 3364.350;  231.475;    0.000
422.716; 3574.350;  228.475;    0.000
422.769; 3143.350;  204.475;    0.000
422.822; 2933.350;  205.475;    0.000
422.874; 2847.350;  228.475;    0.000
422.927; 2928.350;  266.475;    0.000
422.979; 2807.350;  223.475;    0.000
423.032; 2844.350;  207.475;    0.000
423.084; 2905.350;  211.475;    0.000
423.137; 2864.350;  205.475;    0.000
423.189; 2836.350;  254.475;    0.000
423.242; 2802.350;  208.475;    0.000
423.294; 2792.350;  240.475;    0.000
423.347; 2843.350;  218.475;    0.000
423.399; 2924.350;  237.475;    0.000
423.452; 2866.350;  242.475;    0.000
423.504; 2865.350;  225.475;    0.000
423.557; 2868.350;  195.475;    0.000
423.609; 2824.350;  206.475;    0.000
423.662; 2864.350;  211.475;    0.000
423.714; 2917.350;  252.475;    0.000
423.766; 2905.350;  181.475;    0.000
423.819; 2762.350;  216.475;    0.000
423.871; 2828.350;  216.475;    0.000
423.923; 2878.350;  222.475;    0.000
423.976; 2789.350;  223.475;    0.000
424.028; 2789.350;  229.475;    0.000
424.081; 2839.350;  267.475;    0.000
424.133; 2930.350;  251.475;    0.000
424.185; 2839.350;  238.475;    0.000
424.238; 2869.350;  220.475;    0.000
424.290; 2839.350;  259.475;    0.000
424.342; 2804.350;  248.475;    0.000
424.394; 2803.350;  234.475;    0.000
424.447; 2896.350;  248.475;    0.000
424.499; 2743.350;  233.475;    0.000
424.551; 2758.350;  236.475;    0.000
424.603; 2766.350;  207.475;    0.000
424.656; 2786.350;  210.475;    0.000
424.708; 2728.350;  251.475;    0.000
424.760; 2806.350;  221.475;    0.000
424.812; 2909.350;  275.475;    0.000
424.864; 2797.350;  206.475;    0.000
424.917; 2809.350;  198.475;    0.000
424.969; 2770.350;  246.475;    0.000
425.021; 2749.350;  209.475;    0.000
425.073; 2779.350;  242.475;    0.000
425.125; 2767.350;  254.475;    0.000
425.177; 2797.350;  224.475;    0.000
425.229; 2705.350;  256.475;    0.000
425.282; 2735.350;  265.475;    0.000
425.334; 2822.350;  266.475;    0.000
425.386; 2770.350;  242.475;    0.000
425.438; 2829.350;  205.475;    0.000
425.490; 2859.350;  227.475;    0.000
425.542; 2766.350;  235.475;    0.000
425.594; 2759.350;  210.475;    0.000
425.646; 2739.350;  232.475;    0.000
425.698; 2741.350;  243.475;    0.000
425.750; 2842.350;  230.475;    0.000
425.802; 2681.350;  218.475;    0.000
425.854; 2694.350;  222.475;    0.000
425.906; 2708.350;  235.475;    0.000
425.958; 2815.350;  220.475;    0.000
426.010; 2633.350;  236.475;    0.000
426.062; 2647.350;  230.475;    0.000
426.114; 2723.350;  216.475;    0.000
426.166; 2684.350;  230.475;    0.000
426.218; 2686.350;  237.475;    0.000
426.270; 2745.350;  217.475;    0.000
426.321; 2612.350;  224.475;    0.000
426.373; 2674.350;  207.475;    0.000
426.425; 2700.350;  278.475;    0.000
426.477; 2595.350;  243.475;    0.000
426.529; 2667.350;  247.475;    0.000
426.581; 2686.350;  229.475;    0.000
426.633; 2709.350;  212.475;    0.000
426.684; 2676.350;  244.475;    0.000
426.736; 2622.350;  250.475;    0.000
426.788; 2628.350;  210.475;    0.000
426.840; 2591.350;  201.475;    0.000
426.892; 2657.350;  225.475;    0.000
426.943; 2738.350;  215.475;    0.000
426.995; 2655.350;  216.475;    0.000
427.047; 2746.350;  216.475;    0.000
427.099; 2614.350;  203.475;    0.000
427.150; 2651.350;  195.475;    0.000
427.202; 2683.350;  212.475;    0.000
427.254; 2604.350;  233.475;    0.000
427.306; 2621.350;  211.475;    0.000
427.357; 2593.350;  210.475;    0.000
427.409; 2702.350;  244.475;    0.000
427.461; 2756.350;  187.475;    0.000
427.512; 2696.350;  227.475;    0.000
427.564; 2693.350;  210.475;    0.000
427.616; 2623.350;  202.475;    0.000
427.667; 2553.350;  185.475;    0.000
427.719; 2538.350;  222.475;    0.000
427.770; 2546.350;  230.475;    0.000
427.822; 2623.350;  254.475;    0.000
427.874; 2596.350;  222.475;    0.000
427.925; 2573.350;  199.475;    0.000
427.977; 2559.350;  228.475;    0.000
428.028; 2563.350;  226.475;    0.000
428.080; 2578.350;  236.475;    0.000
428.131; 2532.350;  220.475;    0.000
428.183; 2579.350;  256.475;    0.000
428.234; 2520.350;  217.475;    0.000
428.286; 2580.350;  234.475;    0.000
428.337; 2593.350;  209.475;    0.000
428.389; 2474.350;  219.475;    0.000
428.440; 2610.350;  249.475;    0.000
428.492; 2594.350;  255.475;    0.000
428.543; 2466.350;  224.475;    0.000
428.595; 2537.350;  225.475;    0.000
428.646; 2573.350;  240.475;    0.000
428.697; 2515.350;  211.475;    0.000
428.749; 2527.350;  200.475;    0.000
428.800; 2541.350;  235.475;    0.000
428.852; 2575.350;  265.475;    0.000
428.903; 2485.350;  201.475;    0.000
428.954; 2610.350;  242.475;    0.000
429.006; 2658.350;  245.475;    0.000
429.057; 2483.350;  252.475;    0.000
429.108; 2488.350;  211.475;    0.000
429.160; 2479.350;  217.475;    0.000
429.211; 2611.350;  234.475;    0.000
429.262; 2443.350;  205.475;    0.000
429.314; 2496.350;  211.475;    0.000
429.365; 2450.350;  240.475;    0.000
429.416; 2540.350;  263.475;    0.000
429.467; 2434.350;  244.475;    0.000
429.519; 2450.350;  223.475;    0.000
429.570; 2550.350;  214.475;    0.000
429.621; 2527.350;  235.475;    0.000
429.672; 2472.350;  202.475;    0.000
429.724; 2447.350;  189.475;    0.000
429.775; 2467.350;  214.475;    0.000
429.826; 2441.350;  178.475;    0.000
429.877; 2422.350;  224.475;    0.000
429.928; 2480.350;  230.475;    0.000
429.980; 2368.350;  199.475;    0.000
430.031; 2502.350;  208.475;    0.000
430.082; 2543.350;  224.475;    0.000
430.133; 2441.350;  193.475;    0.000
430.184; 2566.350;  220.475;    0.000
430.235; 2430.350;  184.475;    0.000
430.286; 2477.350;  197.475;    0.000
430.337; 2484.350;  199.475;    0.000
430.388; 2447.350;  207.475;    0.000
430.439; 2491.350;  227.475;    0.000
430.490; 2433.350;  215.475;    0.000
430.542; 2395.350;  211.475;    0.000
430.593; 2430.350;  230.475;    0.000
430.644; 2432.350;  186.475;    0.000
430.695; 2454.350;  232.475;    0.000
430.746; 2445.350;  214.475;    0.000
430.797; 2534.350;  260.475;    0.000
430.848; 2505.350;  214.475;    0.000
430.898; 2400.350;  204.475;    0.000
430.949; 2409.350;  189.475;    0.000
431.000; 2405.350;  240.475;    0.000
431.051; 2459.350;  201.475;    0.000
431.102; 2389.350;  188.475;    0.000
431.153; 2500.350;  209.475;    0.000
431.204; 2387.350;  187.475;    0.000
431.255; 2373.350;  171.475;    0.000
431.306; 2440.350;  181.475;    0.000
431.357; 2537.350;  221.475;    0.000
431.408; 2384.350;  217.475;    0.000
431.458; 2578.350;  206.475;    0.000
431.509; 2409.350;  194.475;    0.000
431.560; 2502.350;  235.475;    0.000
431.611; 2417.350;  213.475;    0.000
431.662; 2536.350;  237.475;    0.000
431.713; 2505.350;  220.475;    0.000
431.763; 2461.350;  212.475;    0.000
431.814; 2425.350;  238.475;    0.000
431.865; 2499.350;  213.475;    0.000
431.916; 2382.350;  191.475;    0.000
431.966; 2403.350;  171.475;    0.000
432.017; 2449.350;  263.475;    0.000
432.068; 2515.350;  240.475;    0.000
432.118; 2448.350;  235.475;    0.000
432.169; 2551.350;  212.475;    0.000
432.220; 2472.350;  188.475;    0.000
432.271; 2441.350;  216.475;    0.000
432.321; 2412.350;  223.475;    0.000
432.372; 2412.350;  254.475;    0.000
432.423; 2368.350;  193.475;    0.000
432.473; 2410.350;  219.475;    0.000
432.524; 2485.350;  215.475;    0.000
432.574; 2490.350;  234.475;    0.000
432.625; 2504.350;  226.475;    0.000
432.676; 2438.350;  219.475;    0.000
432.726; 2491.350;  254.475;    0.000
432.777; 2437.350;  210.475;    0.000
432.827; 2439.350;  234.475;    0.000
432.878; 2400.350;  212.475;    0.000
432.928; 2377.350;  238.475;    0.000
432.979; 2390.350;  252.475;    0.000
433.029; 2419.350;  222.475;    0.000
433.080; 2322.350;  188.475;    0.000
433.130; 2342.350;  223.475;    0.000
433.181; 2425.350;  254.475;    0.000
433.231; 2383.350;  237.475;    0.000
433.282; 2474.350;  242.475;    0.000
433.332; 2399.350;  261.475;    0.000
433.383; 2437.350;  266.475;    0.000
433.433; 2459.350;  286.475;    0.000
433.484; 2412.350;  231.475;    0.000
433.534; 2361.350;  256.475;    0.000
433.585; 2358.350;  253.475;    0.000
433.635; 2409.350;  228.475;    0.000
433.685; 2490.350;  226.475;    0.000
433.736; 2418.350;  276.475;    0.000
433.786; 2427.350;  253.475;    0.000
433.836; 2461.350;  289.475;    0.000
433.887; 2501.350;  241.475;    0.000
433.937; 2373.350;  252.475;    0.000
433.987; 2379.350;  223.475;    0.000
434.038; 2456.350;  241.475;    0.000
434.088; 2397.350;  231.475;    0.000
434.138; 2443.350;  259.475;    0.000
434.189; 2467.350;  263.475;    0.000
434.239; 2384.350;  194.475;    0.000
434.289; 2454.350;  273.475;    0.000
434.339; 2445.350;  212.475;    0.000
434.389; 2484.350;  248.475;    0.000
434.440; 2510.350;  250.475;    0.000
434.490; 2554.350;  278.475;    0.000
434.540; 2405.350;  241.475;    0.000
434.590; 2575.350;  251.475;    0.000
434.640; 2428.350;  207.475;    0.000
434.691; 2481.350;  242.475;    0.000
434.741; 2465.350;  218.475;    0.000
434.791; 2475.350;  267.475;    0.000
434.841; 2544.350;  272.475;    0.000
434.891; 2610.350;  260.475;    0.000
434.941; 2591.350;  258.475;    0.000
434.991; 2499.350;  264.475;    0.000
435.042; 2518.350;  264.475;    0.000
435.092; 2518.350;  271.475;    0.000
435.142; 2509.350;  229.475;    0.000
435.192; 2500.350;  226.475;    0.000
435.242; 2500.350;  253.475;    0.000
435.292; 2427.350;  215.475;    0.000
435.342; 2461.350;  240.475;    0.000
435.392; 2433.350;  235.475;    0.000
435.442; 2302.350;  230.475;    0.000
435.492; 2444.350;  235.475;    0.000
435.542; 2424.350;  230.475;    0.000
435.592; 2363.350;  239.475;    0.000
435.642; 2393.350;  244.475;    0.000
435.692; 2345.350;  236.475;    0.000
435.742; 2394.350;  236.475;    0.000
435.792; 2400.350;  230.475;    0.000
435.842; 2282.350;  248.475;    0.000
435.891; 2343.350;  233.475;    0.000
435.941; 2305.350;  243.475;    0.000
435.991; 2375.350;  279.475;    0.000
436.041; 2296.350;  204.475;    0.000
436.091; 2307.350;  217.475;    0.000
436.141; 2280.350;  205.475;    0.000
436.191; 2241.350;  220.475;    0.000
436.241; 2290.350;  248.475;    0.000
436.290; 2290.350;  255.475;    0.000
436.340; 2318.350;  235.475;    0.000
436.390; 2358.350;  207.475;    0.000
436.440; 2349.350;  207.475;    0.000
436.490; 2273.350;  251.475;    0.000
436.539; 2321.350;  240.475;    0.000
436.589; 2265.350;  198.475;    0.000
436.639; 2297.350;  240.475;    0.000
436.689; 2393.350;  216.475;    0.000
436.738; 2337.350;  246.475;    0.000
436.788; 2181.350;  203.475;    0.000
436.838; 2253.350;  230.475;    0.000
436.887; 2353.350;  235.475;    0.000
436.937; 2323.350;  249.475;    0.000
436.987; 2225.350;  208.475;    0.000
437.036; 2333.350;  232.475;    0.000
437.086; 2249.350;  238.475;    0.000
437.136; 2263.350;  228.475;    0.000
437.185; 2298.350;  219.475;    0.000
437.235; 2323.350;  227.475;    0.000
437.285; 2269.350;  241.475;    0.000
437.334; 2269.350;  216.475;    0.000
437.384; 2194.350;  243.475;    0.000
437.433; 2219.350;  214.475;    0.000
437.483; 2204.350;  246.475;    0.000
437.532; 2215.350;  261.475;    0.000
437.582; 2227.350;  205.475;    0.000
437.631; 2223.350;  218.475;    0.000
437.681; 2268.350;  240.475;    0.000
437.730; 2268.350;  258.475;    0.000
437.780; 2204.350;  237.475;    0.000
437.829; 2288.350;  209.475;    0.000
437.879; 2216.350;  214.475;    0.000
437.928; 2144.350;  223.475;    0.000
437.978; 2216.350;  220.475;    0.000
438.027; 2262.350;  239.475;    0.000
438.077; 2096.350;  231.475;    0.000
438.126; 2180.350;  266.475;    0.000
438.176; 2134.350;  234.475;    0.000
438.225; 2218.350;  237.475;    0.000
438.274; 2247.350;  234.475;    0.000
438.324; 2234.350;  244.475;    0.000
438.373; 2314.350;  232.475;    0.000
438.422; 2307.350;  218.475;    0.000
438.472; 2189.350;  221.475;    0.000
438.521; 2150.350;  190.475;    0.000
438.570; 2213.350;  243.475;    0.000
438.620; 2277.350;  255.475;    0.000
438.669; 2240.350;  210.475;    0.000
438.718; 2187.350;  237.475;    0.000
438.768; 2135.350;  220.475;    0.000
438.817; 2099.350;  218.475;    0.000
438.866; 2191.350;  198.475;    0.000
438.915; 2232.350;  256.475;    0.000
438.965; 2160.350;  221.475;    0.000
439.014; 2156.350;  255.475;    0.000
439.063; 2232.350;  276.475;    0.000
439.112; 2250.350;  220.475;    0.000
439.162; 2232.350;  253.475;    0.000
439.211; 2244.350;  247.475;    0.000
439.260; 2168.350;  220.475;    0.000
439.309; 2218.350;  235.475;    0.000
439.358; 2171.350;  205.475;    0.000
439.407; 2212.350;  207.475;    0.000
439.456; 2172.350;  216.475;    0.000
439.506; 2252.350;  245.475;    0.000
439.555; 2207.350;  264.475;    0.000
439.604; 2168.350;  227.475;    0.000
439.653; 2270.350;  220.475;    0.000
439.702; 2268.350;  223.475;    0.000
439.751; 2286.350;  197.475;    0.000
439.800; 2218.350;  207.475;    0.000
439.849; 2186.350;  238.475;    0.000
439.898; 2127.350;  209.475;    0.000
439.947; 2156.350;  170.475;    0.000
439.996; 2219.350;  233.475;    0.000
440.045; 2195.350;  222.475;    0.000
440.094; 2195.350;  240.475;    0.000
440.143; 2208.350;  249.475;    0.000
440.192; 2170.350;  252.475;    0.000
440.241; 2200.350;  239.475;    0.000
440.290; 2244.350;  234.475;    0.000
440.339; 2138.350;  241.475;    0.000
440.388; 2306.350;  239.475;    0.000
440.437; 2251.350;  231.475;    0.000
440.486; 2220.350;  254.475;    0.000
440.535; 2266.350;  266.475;    0.000
440.583; 2291.350;  205.475;    0.000
440.632; 2311.350;  234.475;    0.000
440.681; 2164.350;  218.475;    0.000
440.730; 2274.350;  248.475;    0.000
440.779; 2159.350;  246.475;    0.000
440.828; 2298.350;  235.475;    0.000
440.876; 2216.350;  218.475;    0.000
440.925; 2218.350;  228.475;    0.000
440.974; 2293.350;  249.475;    0.000
441.023; 2282.350;  192.475;    0.000
441.072; 2285.350;  226.475;    0.000
441.120; 2316.350;  238.475;    0.000
441.169; 2307.350;  255.475;    0.000
441.218; 2199.350;  233.475;    0.000
441.267; 2261.350;  231.475;    0.000
441.315; 2299.350;  214.475;    0.000
441.364; 2292.350;  250.475;    0.000
441.413; 2332.350;  228.475;    0.000
441.461; 2262.350;  209.475;    0.000
441.510; 2359.350;  260.475;    0.000
441.559; 2394.350;  230.475;    0.000
441.607; 2356.350;  220.475;    0.000
441.656; 2380.350;  251.475;    0.000
441.705; 2271.350;  237.475;    0.000
441.753; 2310.350;  257.475;    0.000
441.802; 2245.350;  256.475;    0.000
441.850; 2368.350;  253.475;    0.000
441.899; 2366.350;  212.475;    0.000
441.948; 2346.350;  251.475;    0.000
441.996; 2329.350;  239.475;    0.000
442.045; 2359.350;  223.475;    0.000
442.093; 2270.350;  211.475;    0.000
442.142; 2355.350;  235.475;    0.000
442.190; 2257.350;  254.475;    0.000
442.239; 2357.350;  226.475;    0.000
442.287; 2306.350;  242.475;    0.000
442.336; 2393.350;  256.475;    0.000
442.384; 2224.350;  252.475;    0.000
442.433; 2307.350;  262.475;    0.000
442.481; 2313.350;  246.475;    0.000
442.529; 2213.350;  290.475;    0.000
442.578; 2403.350;  247.475;    0.000
442.626; 2258.350;  247.475;    0.000
442.675; 2278.350;  272.475;    0.000
442.723; 2219.350;  230.475;    0.000
442.771; 2265.350;  234.475;    0.000
442.820; 2358.350;  224.475;    0.000
442.868; 2201.350;  246.475;    0.000
442.917; 2263.350;  249.475;    0.000
442.965; 2272.350;  260.475;    0.000
443.013; 2279.350;  258.475;    0.000
443.062; 2289.350;  259.475;    0.000
443.110; 2297.350;  226.475;    0.000
443.158; 2320.350;  213.475;    0.000
443.206; 2302.350;  201.475;    0.000
443.255; 2386.350;  280.475;    0.000
443.303; 2291.350;  292.475;    0.000
443.351; 2237.350;  256.475;    0.000
443.399; 2424.350;  215.475;    0.000
443.448; 2357.350;  243.475;    0.000
443.496; 2385.350;  249.475;    0.000
443.544; 2312.350;  231.475;    0.000
443.592; 2293.350;  243.475;    0.000
443.640; 2336.350;  252.475;    0.000
443.689; 2339.350;  220.475;    0.000
443.737; 2363.350;  231.475;    0.000
443.785; 2308.350;  256.475;    0.000
443.833; 2387.350;  268.475;    0.000
443.881; 2356.350;  181.475;    0.000
443.929; 2326.350;  245.475;    0.000
443.977; 2394.350;  278.475;    0.000
444.025; 2302.350;  245.475;    0.000
444.074; 2438.350;  233.475;    0.000
444.122; 2394.350;  267.475;    0.000
444.170; 2389.350;  247.475;    0.000
444.218; 2435.350;  246.475;    0.000
444.266; 2359.350;  275.475;    0.000
444.314; 2463.350;  263.475;    0.000
444.362; 2427.350;  240.475;    0.000
444.410; 2395.350;  220.475;    0.000
444.458; 2398.350;  258.475;    0.000
444.506; 2410.350;  258.475;    0.000
444.554; 2420.350;  224.475;    0.000
444.602; 2496.350;  245.475;    0.000
444.650; 2480.350;  261.475;    0.000
444.698; 2473.350;  232.475;    0.000
444.746; 2443.350;  206.475;    0.000
444.793; 2474.350;  249.475;    0.000
444.841; 2500.350;  261.475;    0.000
444.889; 2472.350;  221.475;    0.000
444.937; 2559.350;  215.475;    0.000
444.985; 2526.350;  244.475;    0.000
445.033; 2481.350;  211.475;    0.000
445.081; 2430.350;  225.475;    0.000
445.129; 2380.350;  217.475;    0.000
445.176; 2420.350;  196.475;    0.000
445.224; 2387.350;  211.475;    0.000
445.272; 2429.350;  242.475;    0.000
445.320; 2449.350;  225.475;    0.000
445.368; 2406.350;  249.475;    0.000
445.415; 2364.350;  243.475;    0.000
445.463; 2380.350;  242.475;    0.000
445.511; 2485.350;  248.475;    0.000
445.559; 2485.350;  219.475;    0.000
445.606; 2415.350;  221.475;    0.000
445.654; 2410.350;  202.475;    0.000
445.702; 2318.350;  210.475;    0.000
445.749; 2401.350;  249.475;    0.000
445.797; 2407.350;  206.475;    0.000
445.845; 2366.350;  213.475;    0.000
445.892; 2385.350;  224.475;    0.000
445.940; 2439.350;  214.475;    0.000
445.988; 2413.350;  247.475;    0.000
446.035; 2386.350;  204.475;    0.000
446.083; 2465.350;  235.475;    0.000
446.130; 2409.350;  195.475;    0.000
446.178; 2434.350;  236.475;    0.000
446.226; 2413.350;  218.475;    0.000
446.273; 2365.350;  215.475;    0.000
446.321; 2325.350;  222.475;    0.000
446.368; 2429.350;  228.475;    0.000
446.416; 2337.350;  223.475;    0.000
446.463; 2413.350;  220.475;    0.000
446.511; 2449.350;  198.475;    0.000
446.558; 2399.350;  208.475;    0.000
446.606; 2421.350;  253.475;    0.000
446.653; 2431.350;  198.475;    0.000
446.701; 2539.350;  231.475;    0.000
446.748; 2435.350;  224.475;    0.000
446.796; 2506.350;  201.475;    0.000
446.843; 2517.350;  257.475;    0.000
446.891; 2488.350;  218.475;    0.000
446.938; 2488.350;  232.475;    0.000
446.985; 2480.350;  229.475;    0.000
447.033; 2547.350;  251.475;    0.000
447.080; 2539.350;  257.475;    0.000
447.128; 2510.350;  232.475;    0.000
447.175; 2520.350;  269.475;    0.000
447.222; 2508.350;  185.475;    0.000
447.270; 2732.350;  264.475;    0.000
447.317; 2560.350;  225.475;    0.000
447.364; 2583.350;  243.475;    0.000
447.411; 2624.350;  263.475;    0.000
447.459; 2648.350;  257.475;    0.000
447.506; 2592.350;  175.475;    0.000
447.553; 2704.350;  203.475;    0.000
447.601; 2710.350;  238.475;    0.000
447.648; 2724.350;  244.475;    0.000
447.695; 2726.350;  249.475;    0.000
447.742; 2784.350;  234.475;    0.000
447.789; 2798.350;  228.475;    0.000
447.837; 2877.350;  258.475;    0.000
447.884; 2866.350;  243.475;    0.000
447.931; 2899.350;  235.475;    0.000
447.978; 2998.350;  224.475;    0.000
448.025; 3009.350;  245.475;    0.000
448.072; 3035.350;  212.475;    0.000
448.120; 3083.350;  256.475;    0.000
448.167; 3118.350;  240.475;    0.000
448.214; 2899.350;  247.475;    0.000
448.261; 2999.350;  245.475;    0.000
448.308; 2874.350;  273.475;    0.000
448.355; 2892.350;  257.475;    0.000
448.402; 2795.350;  259.475;    0.000
448.449; 2732.350;  238.475;    0.000
448.496; 2700.350;  245.475;    0.000
448.543; 2671.350;  217.475;    0.000
448.590; 2804.350;  269.475;    0.000
448.637; 2690.350;  250.475;    0.000
448.684; 2468.350;  250.475;    0.000
448.731; 2582.350;  235.475;    0.000
448.778; 2562.350;  265.475;    0.000
448.825; 2502.350;  257.475;    0.000
448.872; 2487.350;  234.475;    0.000
448.919; 2502.350;  216.475;    0.000
448.966; 2485.350;  274.475;    0.000
449.013; 2387.350;  263.475;    0.000
449.060; 2407.350;  247.475;    0.000
449.107; 2348.350;  218.475;    0.000
449.154; 2313.350;  225.475;    0.000
449.200; 2359.350;  212.475;    0.000
449.247; 2360.350;  242.475;    0.000
449.294; 2392.350;  228.475;    0.000
449.341; 2352.350;  232.475;    0.000
449.388; 2299.350;  247.475;    0.000
449.435; 2340.350;  227.475;    0.000
449.481; 2318.350;  270.475;    0.000
449.528; 2300.350;  265.475;    0.000
449.575; 2236.350;  255.475;    0.000
449.622; 2260.350;  210.475;    0.000
449.668; 2222.350;  234.475;    0.000
449.715; 2291.350;  262.475;    0.000
449.762; 2294.350;  247.475;    0.000
449.809; 2328.350;  286.475;    0.000
449.855; 2318.350;  246.475;    0.000
449.902; 2305.350;  224.475;    0.000
449.949; 2200.350;  244.475;    0.000
449.995; 2207.350;  274.475;    0.000
450.042; 2252.350;  272.475;    0.000
450.089; 2269.350;  274.475;    0.000
450.135; 2213.350;  285.475;    0.000
450.182; 2182.350;  251.475;    0.000
450.229; 2220.350;  242.475;    0.000
450.275; 2252.350;  277.475;    0.000
450.322; 2193.350;  260.475;    0.000
450.368; 2267.350;  257.475;    0.000
450.415; 2207.350;  276.475;    0.000
450.462; 2200.350;  298.475;    0.000
450.508; 2242.350;  255.475;    0.000
450.555; 2195.350;  271.475;    0.000
450.601; 2192.350;  281.475;    0.000
450.648; 2234.350;  249.475;    0.000
450.694; 2174.350;  270.475;    0.000
450.741; 2199.350;  256.475;    0.000
450.787; 2190.350;  292.475;    0.000
450.834; 2174.350;  221.475;    0.000
450.880; 2181.350;  265.475;    0.000
450.927; 2275.350;  242.475;    0.000
450.973; 2200.350;  259.475;    0.000
451.019; 2177.350;  221.475;    0.000
451.066; 2213.350;  257.475;    0.000
451.112; 2125.350;  251.475;    0.000
451.159; 2218.350;  278.475;    0.000
451.205; 2114.350;  274.475;    0.000
451.251; 2177.350;  281.475;    0.000
451.298; 2165.350;  273.475;    0.000
451.344; 2147.350;  246.475;    0.000
451.390; 2195.350;  286.475;    0.000
451.437; 2171.350;  268.475;    0.000
451.483; 2181.350;  315.475;    0.000
451.529; 2057.350;  251.475;    0.000
451.576; 2140.350;  306.475;    0.000
451.622; 2080.350;  234.475;    0.000
451.668; 2188.350;  243.475;    0.000
451.714; 2165.350;  256.475;    0.000
451.761; 2083.350;  264.475;    0.000
451.807; 2120.350;  284.475;    0.000
451.853; 2104.350;  282.475;    0.000
451.899; 2086.350;  240.475;    0.000
451.945; 2097.350;  263.475;    0.000
451.992; 2114.350;  255.475;    0.000
452.038; 2128.350;  273.475;    0.000
452.084; 2122.350;  274.475;    0.000
452.130; 2185.350;  261.475;    0.000
452.176; 2139.350;  246.475;    0.000
452.222; 2087.350;  238.475;    0.000
452.268; 2096.350;  267.475;    0.000
452.315; 2135.350;  274.475;    0.000
452.361; 2073.350;  241.475;    0.000
452.407; 2110.350;  274.475;    0.000
452.453; 1998.350;  260.475;    0.000
452.499; 2122.350;  232.475;    0.000
452.545; 2062.350;  252.475;    0.000
452.591; 2087.350;  263.475;    0.000
452.637; 2105.350;  208.475;    0.000
452.683; 2117.350;  237.475;    0.000
452.729; 2101.350;  263.475;    0.000
452.775; 2083.350;  291.475;    0.000
452.821; 2088.350;  238.475;    0.000
452.867; 2049.350;  223.475;    0.000
452.913; 2009.350;  257.475;    0.000
452.959; 2037.350;  238.475;    0.000
453.005; 2094.350;  252.475;    0.000
453.051; 2034.350;  260.475;    0.000
453.097; 2063.350;  268.475;    0.000
453.142; 2023.350;  231.475;    0.000
453.188; 2055.350;  266.475;    0.000
453.234; 2069.350;  233.475;    0.000
453.280; 2025.350;  219.475;    0.000
453.326; 2020.350;  265.475;    0.000
453.372; 2010.350;  238.475;    0.000
453.418; 2058.350;  240.475;    0.000
453.463; 2169.350;  219.475;    0.000
453.509; 2103.350;  264.475;    0.000
453.555; 2072.350;  247.475;    0.000
453.601; 2017.350;  230.475;    0.000
453.647; 2147.350;  285.475;    0.000
453.692; 1999.350;  240.475;    0.000
453.738; 2066.350;  233.475;    0.000
453.784; 2078.350;  230.475;    0.000
453.829; 2081.350;  246.475;    0.000
453.875; 2028.350;  261.475;    0.000
453.921; 2038.350;  203.475;    0.000
453.967; 2013.350;  241.475;    0.000
454.012; 2079.350;  250.475;    0.000
454.058; 2095.350;  252.475;    0.000
454.104; 2062.350;  239.475;    0.000
454.149; 1981.350;  250.475;    0.000
454.195; 2057.350;  243.475;    0.000
454.240; 1998.350;  252.475;    0.000
454.286; 2066.350;  245.475;    0.000
454.332; 2039.350;  286.475;    0.000
454.377; 2067.350;  254.475;    0.000
454.423; 2027.350;  246.475;    0.000
454.468; 1981.350;  235.475;    0.000
454.514; 1965.350;  231.475;    0.000
454.559; 2018.350;  246.475;    0.000
454.605; 2016.350;  204.475;    0.000
454.650; 2060.350;  272.475;    0.000
454.696; 1983.350;  222.475;    0.000
454.741; 2107.350;  290.475;    0.000
454.787; 1981.350;  262.475;    0.000
454.832; 2090.350;  227.475;    0.000
454.878; 2042.350;  241.475;    0.000
454.923; 2052.350;  272.475;    0.000
454.969; 2028.350;  290.475;    0.000
455.014; 1931.350;  278.475;    0.000
455.060; 2105.350;  246.475;    0.000
455.105; 2023.350;  231.475;    0.000
455.150; 2010.350;  265.475;    0.000
455.196; 2038.350;  266.475;    0.000
455.241; 2064.350;  258.475;    0.000
455.286; 2003.350;  266.475;    0.000
455.332; 2022.350;  252.475;    0.000
455.377; 1993.350;  219.475;    0.000
455.422; 2073.350;  262.475;    0.000
455.468; 1998.350;  260.475;    0.000
455.513; 2058.350;  212.475;    0.000
455.558; 1985.350;  197.475;    0.000
455.604; 2073.350;  262.475;    0.000
455.649; 1993.350;  238.475;    0.000
455.694; 2013.350;  221.475;    0.000
455.739; 2063.350;  251.475;    0.000
455.785; 2117.350;  287.475;    0.000
455.830; 1969.350;  284.475;    0.000
455.875; 2013.350;  234.475;    0.000
455.920; 1989.350;  215.475;    0.000
455.965; 2102.350;  256.475;    0.000
456.010; 2141.350;  266.475;    0.000
456.056; 2017.350;  263.475;    0.000
456.101; 1943.350;  240.475;    0.000
456.146; 2105.350;  258.475;    0.000
456.191; 2047.350;  241.475;    0.000
456.236; 1995.350;  252.475;    0.000
456.281; 2049.350;  218.475;    0.000
456.326; 1968.350;  251.475;    0.000
456.371; 1961.350;  256.475;    0.000
456.416; 2086.350;  301.475;    0.000
456.461; 1996.350;  233.475;    0.000
456.507; 2027.350;  218.475;    0.000
456.552; 2040.350;  278.475;    0.000
456.597; 2015.350;  223.475;    0.000
456.642; 1991.350;  203.475;    0.000
456.687; 2052.350;  245.475;    0.000
456.732; 2022.350;  256.475;    0.000
456.776; 1984.350;  244.475;    0.000
456.821; 1992.350;  276.475;    0.000
456.866; 2026.350;  232.475;    0.000
456.911; 2040.350;  225.475;    0.000
456.956; 2027.350;  237.475;    0.000
457.001; 2040.350;  261.475;    0.000
457.046; 2000.350;  205.475;    0.000
457.091; 2045.350;  241.475;    0.000
457.136; 2068.350;  217.475;    0.000
457.181; 2022.350;  251.475;    0.000
457.225; 2008.350;  241.475;    0.000
457.270; 2076.350;  237.475;    0.000
457.315; 2107.350;  279.475;    0.000
457.360; 1974.350;  245.475;    0.000
457.405; 2031.350;  202.475;    0.000
457.450; 2096.350;  247.475;    0.000
457.494; 2046.350;  243.475;    0.000
457.539; 2062.350;  222.475;    0.000
457.584; 2095.350;  239.475;    0.000
457.629; 1960.350;  236.475;    0.000
457.673; 2052.350;  234.475;    0.000
457.718; 2005.350;  202.475;    0.000
457.763; 2095.350;  274.475;    0.000
457.807; 2076.350;  236.475;    0.000
457.852; 2080.350;  265.475;    0.000
457.897; 2132.350;  252.475;    0.000
457.941; 2099.350;  264.475;    0.000
457.986; 2054.350;  280.475;    0.000
458.031; 2104.350;  217.475;    0.000
458.075; 2082.350;  249.475;    0.000
458.120; 2136.350;  257.475;    0.000
458.165; 2046.350;  183.475;    0.000
458.209; 2097.350;  245.475;    0.000
458.254; 2016.350;  245.475;    0.000
458.298; 2077.350;  265.475;    0.000
458.343; 2142.350;  241.475;    0.000
458.387; 2099.350;  262.475;    0.000
458.432; 2151.350;  245.475;    0.000
458.476; 2160.350;  255.475;    0.000
458.521; 2129.350;  269.475;    0.000
458.565; 2175.350;  265.475;    0.000
458.610; 2130.350;  222.475;    0.000
458.654; 2158.350;  257.475;    0.000
458.699; 2198.350;  296.475;    0.000
458.743; 2203.350;  203.475;    0.000
458.788; 2248.350;  267.475;    0.000
458.832; 2205.350;  274.475;    0.000
458.877; 2263.350;  251.475;    0.000
458.921; 2175.350;  237.475;    0.000
458.965; 2222.350;  264.475;    0.000
459.010; 2180.350;  256.475;    0.000
459.054; 2201.350;  280.475;    0.000
459.099; 2286.350;  240.475;    0.000
459.143; 2310.350;  287.475;    0.000
459.187; 2211.350;  257.475;    0.000
459.231; 2280.350;  273.475;    0.000
459.276; 2271.350;  231.475;    0.000
459.320; 2335.350;  261.475;    0.000
459.364; 2263.350;  278.475;    0.000
459.409; 2366.350;  249.475;    0.000
459.453; 2206.350;  235.475;    0.000
459.497; 2290.350;  262.475;    0.000
459.541; 2268.350;  269.475;    0.000
459.586; 2290.350;  240.475;    0.000
459.630; 2315.350;  261.475;    0.000
459.674; 2341.350;  276.475;    0.000
459.718; 2337.350;  236.475;    0.000
459.762; 2354.350;  263.475;    0.000
459.807; 2303.350;  263.475;    0.000
459.851; 2308.350;  225.475;    0.000
459.895; 2231.350;  247.475;    0.000
459.939; 2283.350;  231.475;    0.000
459.983; 2319.350;  242.475;    0.000
460.027; 2314.350;  248.475;    0.000
460.071; 2412.350;  273.475;    0.000
460.115; 2398.350;  282.475;    0.000
460.159; 2282.350;  264.475;    0.000
460.204; 2458.350;  288.475;    0.000
460.248; 2397.350;  293.475;    0.000
460.292; 2388.350;  277.475;    0.000
460.336; 2407.350;  250.475;    0.000
460.380; 2369.350;  275.475;    0.000
460.424; 2441.350;  243.475;    0.000
460.468; 2433.350;  277.475;    0.000
460.512; 2442.350;  261.475;    0.000
460.556; 2476.350;  266.475;    0.000
460.599; 2433.350;  246.475;    0.000
460.643; 2453.350;  256.475;    0.000
460.687; 2391.350;  257.475;    0.000
460.731; 2429.350;  235.475;    0.000
460.775; 2410.350;  278.475;    0.000
460.819; 2417.350;  268.475;    0.000
460.863; 2469.350;  257.475;    0.000
460.907; 2324.350;  213.475;    0.000
460.951; 2423.350;  274.475;    0.000
460.995; 2461.350;  258.475;    0.000
461.038; 2375.350;  219.475;    0.000
461.082; 2353.350;  253.475;    0.000
461.126; 2432.350;  281.475;    0.000
461.170; 2374.350;  244.475;    0.000
461.214; 2367.350;  262.475;    0.000
461.257; 2406.350;  284.475;    0.000
461.301; 2445.350;  275.475;    0.000
461.345; 2452.350;  267.475;    0.000
461.389; 2389.350;  255.475;    0.000
461.432; 2434.350;  282.475;    0.000
461.476; 2423.350;  263.475;    0.000
461.520; 2429.350;  260.475;    0.000
461.563; 2416.350;  278.475;    0.000
461.607; 2375.350;  236.475;    0.000
461.651; 2399.350;  262.475;    0.000
461.694; 2492.350;  236.475;    0.000
461.738; 2523.350;  295.475;    0.000
461.782; 2402.350;  252.475;    0.000
461.825; 2496.350;  271.475;    0.000
461.869; 2518.350;  278.475;    0.000
461.913; 2462.350;  255.475;    0.000
461.956; 2472.350;  254.475;    0.000
462.000; 2459.350;  299.475;    0.000
462.043; 2438.350;  282.475;    0.000
462.087; 2469.350;  274.475;    0.000
462.130; 2497.350;  270.475;    0.000
462.174; 2478.350;  274.475;    0.000
462.217; 2566.350;  272.475;    0.000
462.261; 2547.350;  286.475;    0.000
462.304; 2527.350;  236.475;    0.000
462.348; 2491.350;  262.475;    0.000
462.391; 2539.350;  244.475;    0.000
462.435; 2671.350;  321.475;    0.000
462.478; 2556.350;  230.475;    0.000
462.522; 2614.350;  245.475;    0.000
462.565; 2576.350;  278.475;    0.000
462.608; 2694.350;  303.475;    0.000
462.652; 2628.350;  275.475;    0.000
462.695; 2712.350;  314.475;    0.000
462.739; 2613.350;  307.475;    0.000
462.782; 2684.350;  286.475;    0.000
462.825; 2729.350;  312.475;    0.000
462.869; 2784.350;  338.475;    0.000
462.912; 2776.350;  304.475;    0.000
462.955; 2793.350;  288.475;    0.000
462.998; 2752.350;  292.475;    0.000
463.042; 2833.350;  309.475;    0.000
463.085; 2806.350;  292.475;    0.000
463.128; 2720.350;  317.475;    0.000
463.172; 2723.350;  287.475;    0.000
463.215;  354.350;  313.475;    0.000
463.258;  349.350;  295.475;    0.000
463.301;  313.350;  275.475;    0.000
463.344;  340.350;  311.475;    0.000
463.388;  324.350;  296.475;    0.000
463.431;  291.350;  277.475;    0.000
463.474;  337.350;  364.475;    0.000
463.517;  307.350;  306.475;    0.000
463.560;  330.350;  308.475;    0.000
463.603;  302.350;  343.475;    0.000
463.646;  336.350;  309.475;    0.000
463.690;  315.350;  309.475;    0.000
463.733;  324.350;  320.475;    0.000
463.776;  301.350;  299.475;    0.000
463.819;  341.350;  320.475;    0.000
463.862;  264.350;  283.475;    0.000

