
Integration time [ms]:   1.000
Averaging Nr. [scans]: 1
Smoothing Nr. [pixels]: 0
Data measured with spectrometer [name]: VIS
Wave   ;Sample   ;Dark     ;Reference
[nm]   ;[counts] ;[counts] ;[counts] 

450.961;  178.275;    0.000;    0.000
451.100;  192.275;    0.000;    0.000
451.239;  192.275;    0.000;    0.000
451.377;  208.275;    0.000;    0.000
451.516;  193.275;    0.000;    0.000
451.655;  258.275;    0.000;    0.000
451.794;  209.275;    0.000;    0.000
451.932;  217.275;    0.000;    0.000
452.071;  215.275;    0.000;    0.000
452.210;  221.275;    0.000;    0.000
452.348;  198.275;    0.000;    0.000
452.487;  219.275;    0.000;    0.000
452.626;  197.275;    0.000;    0.000
452.764;  182.275;    0.000;    0.000
452.903;  209.275;    0.000;    0.000
453.042;  320.275;    0.000;    0.000
453.180; 5414.275;    0.000;    0.000
453.319; 5611.275;    0.000;    0.000
453.458; 5508.275;    0.000;    0.000
453.596; 5451.275;    0.000;    0.000
453.735; 5549.275;    0.000;    0.000
453.873; 5702.275;    0.000;    0.000
454.012; 5600.275;    0.000;    0.000
454.150; 5707.275;    0.000;    0.000
454.289; 5804.275;    0.000;    0.000
454.427; 5767.275;    0.000;    0.000
454.566; 5724.275;    0.000;    0.000
454.704; 5907.275;    0.000;    0.000
454.843; 5996.275;    0.000;    0.000
454.981; 5933.275;    0.000;    0.000
455.120; 5952.275;    0.000;    0.000
455.258; 6225.275;    0.000;    0.000
455.397; 6134.275;    0.000;    0.000
455.535; 6185.275;    0.000;    0.000
455.674; 6181.275;    0.000;    0.000
455.812; 6285.275;    0.000;    0.000
455.951; 6371.275;    0.000;    0.000
456.089; 6456.275;    0.000;    0.000
456.227; 6429.275;    0.000;    0.000
456.366; 6599.275;    0.000;    0.000
456.504; 6517.275;    0.000;    0.000
456.642; 6856.275;    0.000;    0.000
456.781; 6643.275;    0.000;    0.000
456.919; 6491.275;    0.000;    0.000
457.057; 6426.275;    0.000;    0.000
457.196; 6527.275;    0.000;    0.000
457.334; 6551.275;    0.000;    0.000
457.472; 6782.275;    0.000;    0.000
457.610; 6582.275;    0.000;    0.000
457.749; 6690.275;    0.000;    0.000
457.887; 7058.275;    0.000;    0.000
458.025; 7220.275;    0.000;    0.000
458.163; 7250.275;    0.000;    0.000
458.301; 7428.275;    0.000;    0.000
458.440; 7278.275;    0.000;    0.000
458.578; 7664.275;    0.000;    0.000
458.716; 7745.275;    0.000;    0.000
458.854; 7794.275;    0.000;    0.000
458.992; 7783.275;    0.000;    0.000
459.130; 7864.275;    0.000;    0.000
459.269; 7873.275;    0.000;    0.000
459.407; 7953.275;    0.000;    0.000
459.545; 7932.275;    0.000;    0.000
459.683; 8132.275;    0.000;    0.000
459.821; 8193.275;    0.000;    0.000
459.959; 8219.275;    0.000;    0.000
460.097; 8371.275;    0.000;    0.000
460.235; 8261.275;    0.000;    0.000
460.373; 8449.275;    0.000;    0.000
460.511; 8565.275;    0.000;    0.000
460.649; 8604.275;    0.000;    0.000
460.787; 8500.275;    0.000;    0.000
460.925; 8461.275;    0.000;    0.000
461.063; 8547.275;    0.000;    0.000
461.201; 8793.275;    0.000;    0.000
461.339; 8735.275;    0.000;    0.000
461.477; 8843.275;    0.000;    0.000
461.615; 8795.275;    0.000;    0.000
461.753; 8988.275;    0.000;    0.000
461.891; 9073.275;    0.000;    0.000
462.029; 9210.275;    0.000;    0.000
462.166; 9240.275;    0.000;    0.000
462.304; 9282.275;    0.000;    0.000
462.442; 9579.275;    0.000;    0.000
462.580; 9561.275;    0.000;    0.000
462.718; 9656.275;    0.000;    0.000
462.856; 9661.275;    0.000;    0.000
462.993; 9594.275;    0.000;    0.000
463.131; 9562.275;    0.000;    0.000
463.269; 9701.275;    0.000;    0.000
463.407; 9631.275;    0.000;    0.000
463.545; 9623.275;    0.000;    0.000
463.682; 9744.275;    0.000;    0.000
463.820; 9656.275;    0.000;    0.000
463.958; 9913.275;    0.000;    0.000
464.095;10070.275;    0.000;    0.000
464.233;10148.275;    0.000;    0.000
464.371; 9823.275;    0.000;    0.000
464.509; 9969.275;    0.000;    0.000
464.646;10043.275;    0.000;    0.000
464.784; 9930.275;    0.000;    0.000
464.921; 9879.275;    0.000;    0.000
465.059; 9824.275;    0.000;    0.000
465.197; 9645.275;    0.000;    0.000
465.334; 9558.275;    0.000;    0.000
465.472; 9436.275;    0.000;    0.000
465.609; 9448.275;    0.000;    0.000
465.747; 9211.275;    0.000;    0.000
465.885; 9243.275;    0.000;    0.000
466.022; 9194.275;    0.000;    0.000
466.160; 9263.275;    0.000;    0.000
466.297; 9033.275;    0.000;    0.000
466.435; 9168.275;    0.000;    0.000
466.572; 9056.275;    0.000;    0.000
466.710; 9116.275;    0.000;    0.000
466.847; 9166.275;    0.000;    0.000
466.985; 9107.275;    0.000;    0.000
467.122; 9027.275;    0.000;    0.000
467.260; 9141.275;    0.000;    0.000
467.397; 9027.275;    0.000;    0.000
467.534; 9070.275;    0.000;    0.000
467.672; 9018.275;    0.000;    0.000
467.809; 9064.275;    0.000;    0.000
467.947; 9051.275;    0.000;    0.000
468.084; 9082.275;    0.000;    0.000
468.221; 9098.275;    0.000;    0.000
468.359; 9116.275;    0.000;    0.000
468.496; 9117.275;    0.000;    0.000
468.633; 9152.275;    0.000;    0.000
468.771; 8932.275;    0.000;    0.000
468.908; 9210.275;    0.000;    0.000
469.045; 9087.275;    0.000;    0.000
469.183; 9173.275;    0.000;    0.000
469.320; 9251.275;    0.000;    0.000
469.457; 9387.275;    0.000;    0.000
469.594; 9310.275;    0.000;    0.000
469.732; 9316.275;    0.000;    0.000
469.869; 9323.275;    0.000;    0.000
470.006; 9410.275;    0.000;    0.000
470.143; 9450.275;    0.000;    0.000
470.280; 9706.275;    0.000;    0.000
470.417; 9693.275;    0.000;    0.000
470.555; 9760.275;    0.000;    0.000
470.692; 9546.275;    0.000;    0.000
470.829; 9598.275;    0.000;    0.000
470.966; 9580.275;    0.000;    0.000
471.103; 9601.275;    0.000;    0.000
471.240; 9635.275;    0.000;    0.000
471.377; 9610.275;    0.000;    0.000
471.514; 9406.275;    0.000;    0.000
471.651; 9307.275;    0.000;    0.000
471.789; 9381.275;    0.000;    0.000
471.926; 9410.275;    0.000;    0.000
472.063; 9450.275;    0.000;    0.000
472.200; 9264.275;    0.000;    0.000
472.337; 9312.275;    0.000;    0.000
472.474; 9365.275;    0.000;    0.000
472.611; 9294.275;    0.000;    0.000
472.748; 9226.275;    0.000;    0.000
472.884; 9313.275;    0.000;    0.000
473.021; 9221.275;    0.000;    0.000
473.158; 9287.275;    0.000;    0.000
473.295; 9272.275;    0.000;    0.000
473.432; 9158.275;    0.000;    0.000
473.569; 9287.275;    0.000;    0.000
473.706; 9309.275;    0.000;    0.000
473.843; 9198.275;    0.000;    0.000
473.980; 9321.275;    0.000;    0.000
474.117; 9266.275;    0.000;    0.000
474.253; 9348.275;    0.000;    0.000
474.390; 9363.275;    0.000;    0.000
474.527; 9302.275;    0.000;    0.000
474.664; 9221.275;    0.000;    0.000
474.801; 9326.275;    0.000;    0.000
474.937; 9293.275;    0.000;    0.000
475.074; 9132.275;    0.000;    0.000
475.211; 9348.275;    0.000;    0.000
475.348; 9243.275;    0.000;    0.000
475.484; 9462.275;    0.000;    0.000
475.621; 9395.275;    0.000;    0.000
475.758; 9351.275;    0.000;    0.000
475.894; 9421.275;    0.000;    0.000
476.031; 9302.275;    0.000;    0.000
476.168; 9312.275;    0.000;    0.000
476.304; 9340.275;    0.000;    0.000
476.441; 9558.275;    0.000;    0.000
476.578; 9477.275;    0.000;    0.000
476.714; 9632.275;    0.000;    0.000
476.851; 9453.275;    0.000;    0.000
476.987; 9835.275;    0.000;    0.000
477.124; 9606.275;    0.000;    0.000
477.261; 9631.275;    0.000;    0.000
477.397; 9519.275;    0.000;    0.000
477.534; 9773.275;    0.000;    0.000
477.670; 9876.275;    0.000;    0.000
477.807; 9836.275;    0.000;    0.000
477.943; 9866.275;    0.000;    0.000
478.080; 9968.275;    0.000;    0.000
478.216; 9951.275;    0.000;    0.000
478.353;10055.275;    0.000;    0.000
478.489;10051.275;    0.000;    0.000
478.626;10074.275;    0.000;    0.000
478.762;10257.275;    0.000;    0.000
478.898;10334.275;    0.000;    0.000
479.035;10420.275;    0.000;    0.000
479.171;10334.275;    0.000;    0.000
479.308;10252.275;    0.000;    0.000
479.444;10305.275;    0.000;    0.000
479.580;10208.275;    0.000;    0.000
479.717;10405.275;    0.000;    0.000
479.853;10146.275;    0.000;    0.000
479.989;10379.275;    0.000;    0.000
480.126;10359.275;    0.000;    0.000
480.262;10351.275;    0.000;    0.000
480.398;10417.275;    0.000;    0.000
480.535;10298.275;    0.000;    0.000
480.671;10486.275;    0.000;    0.000
480.807;10282.275;    0.000;    0.000
480.943;10366.275;    0.000;    0.000
481.080;10089.275;    0.000;    0.000
481.216;10306.275;    0.000;    0.000
481.352;10328.275;    0.000;    0.000
481.488;10458.275;    0.000;    0.000
481.624;10312.275;    0.000;    0.000
481.760;10223.275;    0.000;    0.000
481.897;10252.275;    0.000;    0.000
482.033;10183.275;    0.000;    0.000
482.169;10250.275;    0.000;    0.000
482.305;10123.275;    0.000;    0.000
482.441;10176.275;    0.000;    0.000
482.577;10271.275;    0.000;    0.000
482.713;10144.275;    0.000;    0.000
482.849;10198.275;    0.000;    0.000
482.985;10262.275;    0.000;    0.000
483.121;10059.275;    0.000;    0.000
483.258;10252.275;    0.000;    0.000
483.394;10039.275;    0.000;    0.000
483.530;10224.275;    0.000;    0.000
483.665;10380.275;    0.000;    0.000
483.801;10138.275;    0.000;    0.000
483.937;10101.275;    0.000;    0.000
484.073;10246.275;    0.000;    0.000
484.209;10421.275;    0.000;    0.000
484.345;10319.275;    0.000;    0.000
484.481;10286.275;    0.000;    0.000
484.617;10403.275;    0.000;    0.000
484.753;10414.275;    0.000;    0.000
484.889;10423.275;    0.000;    0.000
485.025;10342.275;    0.000;    0.000
485.161;10328.275;    0.000;    0.000
485.296;10434.275;    0.000;    0.000
485.432;10346.275;    0.000;    0.000
485.568;10508.275;    0.000;    0.000
485.704;10338.275;    0.000;    0.000
485.840;10335.275;    0.000;    0.000
485.975;10384.275;    0.000;    0.000
486.111;10262.275;    0.000;    0.000
486.247;10455.275;    0.000;    0.000
486.383;10464.275;    0.000;    0.000
486.518;10398.275;    0.000;    0.000
486.654;10281.275;    0.000;    0.000
486.790;10372.275;    0.000;    0.000
486.926;10428.275;    0.000;    0.000
487.061;10391.275;    0.000;    0.000
487.197;10334.275;    0.000;    0.000
487.333;10399.275;    0.000;    0.000
487.468;10345.275;    0.000;    0.000
487.604;10439.275;    0.000;    0.000
487.740;10368.275;    0.000;    0.000
487.875;10368.275;    0.000;    0.000
488.011;10272.275;    0.000;    0.000
488.146;10315.275;    0.000;    0.000
488.282;10472.275;    0.000;    0.000
488.417;10285.275;    0.000;    0.000
488.553;10301.275;    0.000;    0.000
488.688;10417.275;    0.000;    0.000
488.824;10296.275;    0.000;    0.000
488.960;10329.275;    0.000;    0.000
489.095;10465.275;    0.000;    0.000
489.230;10517.275;    0.000;    0.000
489.366;10433.275;    0.000;    0.000
489.501;10417.275;    0.000;    0.000
489.637;10439.275;    0.000;    0.000
489.772;10473.275;    0.000;    0.000
489.908;10395.275;    0.000;    0.000
490.043;10447.275;    0.000;    0.000
490.178;10519.275;    0.000;    0.000
490.314;10482.275;    0.000;    0.000
490.449;10675.275;    0.000;    0.000
490.585;10584.275;    0.000;    0.000
490.720;10562.275;    0.000;    0.000
490.855;10424.275;    0.000;    0.000
490.991;10450.275;    0.000;    0.000
491.126;10674.275;    0.000;    0.000
491.261;10513.275;    0.000;    0.000
491.396;10464.275;    0.000;    0.000
491.532;10579.275;    0.000;    0.000
491.667;10396.275;    0.000;    0.000
491.802;10556.275;    0.000;    0.000
491.937;10549.275;    0.000;    0.000
492.073;10713.275;    0.000;    0.000
492.208;10560.275;    0.000;    0.000
492.343;10585.275;    0.000;    0.000
492.478;10801.275;    0.000;    0.000
492.613;10703.275;    0.000;    0.000
492.749;10549.275;    0.000;    0.000
492.884;10515.275;    0.000;    0.000
493.019;10661.275;    0.000;    0.000
493.154;10755.275;    0.000;    0.000
493.289;10556.275;    0.000;    0.000
493.424;10685.275;    0.000;    0.000
493.559;10658.275;    0.000;    0.000
493.694;10573.275;    0.000;    0.000
493.829;10602.275;    0.000;    0.000
493.964;10607.275;    0.000;    0.000
494.099;10745.275;    0.000;    0.000
494.234;10492.275;    0.000;    0.000
494.369;10679.275;    0.000;    0.000
494.504;10672.275;    0.000;    0.000
494.639;10748.275;    0.000;    0.000
494.774;10581.275;    0.000;    0.000
494.909;10599.275;    0.000;    0.000
495.044;10704.275;    0.000;    0.000
495.179;10681.275;    0.000;    0.000
495.314;10837.275;    0.000;    0.000
495.449;10497.275;    0.000;    0.000
495.584;10690.275;    0.000;    0.000
495.719;10733.275;    0.000;    0.000
495.854;10839.275;    0.000;    0.000
495.988;10771.275;    0.000;    0.000
496.123;10819.275;    0.000;    0.000
496.258;10818.275;    0.000;    0.000
496.393;10889.275;    0.000;    0.000
496.528;10924.275;    0.000;    0.000
496.663;10936.275;    0.000;    0.000
496.797;11098.275;    0.000;    0.000
496.932;11192.275;    0.000;    0.000
497.067;11249.275;    0.000;    0.000
497.202;11375.275;    0.000;    0.000
497.336;11545.275;    0.000;    0.000
497.471;11640.275;    0.000;    0.000
497.606;11769.275;    0.000;    0.000
497.740;11799.275;    0.000;    0.000
497.875;12102.275;    0.000;    0.000
498.010;12189.275;    0.000;    0.000
498.144;12349.275;    0.000;    0.000
498.279;12431.275;    0.000;    0.000
498.414;12668.275;    0.000;    0.000
498.548;12798.275;    0.000;    0.000
498.683;13233.275;    0.000;    0.000
498.817;12995.275;    0.000;    0.000
498.952;13340.275;    0.000;    0.000
499.087;13583.275;    0.000;    0.000
499.221;13916.275;    0.000;    0.000
499.356;14139.275;    0.000;    0.000
499.490;14202.275;    0.000;    0.000
499.625;14779.275;    0.000;    0.000
499.759;15114.275;    0.000;    0.000
499.894;15369.275;    0.000;    0.000
500.028;15612.275;    0.000;    0.000
500.162;15868.275;    0.000;    0.000
500.297;15900.275;    0.000;    0.000
500.431;15988.275;    0.000;    0.000
500.566;16035.275;    0.000;    0.000
500.700;15899.275;    0.000;    0.000
500.835;15767.275;    0.000;    0.000
500.969;15201.275;    0.000;    0.000
501.103;15315.275;    0.000;    0.000
501.238;14896.275;    0.000;    0.000
501.372;14536.275;    0.000;    0.000
501.506;14058.275;    0.000;    0.000
501.641;13719.275;    0.000;    0.000
501.775;13322.275;    0.000;    0.000
501.909;13187.275;    0.000;    0.000
502.043;12799.275;    0.000;    0.000
502.178;12666.275;    0.000;    0.000
502.312;12286.275;    0.000;    0.000
502.446;12404.275;    0.000;    0.000
502.580;12074.275;    0.000;    0.000
502.715;12072.275;    0.000;    0.000
502.849;11754.275;    0.000;    0.000
502.983;11798.275;    0.000;    0.000
503.117;11607.275;    0.000;    0.000
503.251;11368.275;    0.000;    0.000
503.385;11249.275;    0.000;    0.000
503.520;11262.275;    0.000;    0.000
503.654;10882.275;    0.000;    0.000
503.788;10890.275;    0.000;    0.000
503.922;10851.275;    0.000;    0.000
504.056;10765.275;    0.000;    0.000
504.190;10778.275;    0.000;    0.000
504.324;10560.275;    0.000;    0.000
504.458;10528.275;    0.000;    0.000
504.592;10314.275;    0.000;    0.000
504.726;10199.275;    0.000;    0.000
504.860;10240.275;    0.000;    0.000
504.994;10101.275;    0.000;    0.000
505.128;10041.275;    0.000;    0.000
505.262; 9848.275;    0.000;    0.000
505.396; 9742.275;    0.000;    0.000
505.530; 9593.275;    0.000;    0.000
505.664; 9631.275;    0.000;    0.000
505.798; 9407.275;    0.000;    0.000
505.932; 9381.275;    0.000;    0.000
506.066; 9354.275;    0.000;    0.000
506.199; 9251.275;    0.000;    0.000
506.333; 9198.275;    0.000;    0.000
506.467; 9100.275;    0.000;    0.000
506.601; 8915.275;    0.000;    0.000
506.735; 8982.275;    0.000;    0.000
506.869; 8936.275;    0.000;    0.000
507.002; 8790.275;    0.000;    0.000
507.136; 8761.275;    0.000;    0.000
507.270; 8770.275;    0.000;    0.000
507.404; 8660.275;    0.000;    0.000
507.537; 8705.275;    0.000;    0.000
507.671; 8586.275;    0.000;    0.000
507.805; 8569.275;    0.000;    0.000
507.939; 8582.275;    0.000;    0.000
508.072; 8619.275;    0.000;    0.000
508.206; 8553.275;    0.000;    0.000
508.340; 8474.275;    0.000;    0.000
508.473; 8381.275;    0.000;    0.000
508.607; 8430.275;    0.000;    0.000
508.740; 8460.275;    0.000;    0.000
508.874; 8361.275;    0.000;    0.000
509.008; 8516.275;    0.000;    0.000
509.141; 8341.275;    0.000;    0.000
509.275; 8318.275;    0.000;    0.000
509.408; 8235.275;    0.000;    0.000
509.542; 8225.275;    0.000;    0.000
509.675; 8277.275;    0.000;    0.000
509.809; 8109.275;    0.000;    0.000
509.942; 8196.275;    0.000;    0.000
510.076; 8190.275;    0.000;    0.000
510.209; 8135.275;    0.000;    0.000
510.343; 8199.275;    0.000;    0.000
510.476; 8261.275;    0.000;    0.000
510.610; 7937.275;    0.000;    0.000
510.743; 8060.275;    0.000;    0.000
510.877; 7794.275;    0.000;    0.000
511.010; 7948.275;    0.000;    0.000
511.143; 7917.275;    0.000;    0.000
511.277; 7977.275;    0.000;    0.000
511.410; 7887.275;    0.000;    0.000
511.543; 7994.275;    0.000;    0.000
511.677; 7979.275;    0.000;    0.000
511.810; 7861.275;    0.000;    0.000
511.943; 7935.275;    0.000;    0.000
512.077; 7904.275;    0.000;    0.000
512.210; 8042.275;    0.000;    0.000
512.343; 7906.275;    0.000;    0.000
512.476; 7985.275;    0.000;    0.000
512.610; 7966.275;    0.000;    0.000
512.743; 7903.275;    0.000;    0.000
512.876; 8012.275;    0.000;    0.000
513.009; 8042.275;    0.000;    0.000
513.142; 7931.275;    0.000;    0.000
513.276; 7798.275;    0.000;    0.000
513.409; 7798.275;    0.000;    0.000
513.542; 7703.275;    0.000;    0.000
513.675; 7858.275;    0.000;    0.000
513.808; 7774.275;    0.000;    0.000
513.941; 7956.275;    0.000;    0.000
514.074; 7924.275;    0.000;    0.000
514.207; 8006.275;    0.000;    0.000
514.340; 7902.275;    0.000;    0.000
514.474; 8018.275;    0.000;    0.000
514.607; 7871.275;    0.000;    0.000
514.740; 8059.275;    0.000;    0.000
514.873; 8056.275;    0.000;    0.000
515.006; 8166.275;    0.000;    0.000
515.139; 8002.275;    0.000;    0.000
515.272; 8192.275;    0.000;    0.000
515.404; 8352.275;    0.000;    0.000
515.537; 8413.275;    0.000;    0.000
515.670; 8344.275;    0.000;    0.000
515.803; 8232.275;    0.000;    0.000
515.936; 8509.275;    0.000;    0.000
516.069; 8477.275;    0.000;    0.000
516.202; 8743.275;    0.000;    0.000
516.335; 8853.275;    0.000;    0.000
516.468; 9205.275;    0.000;    0.000
516.600;10773.275;    0.000;    0.000
516.733;13141.275;    0.000;    0.000
516.866;13070.275;    0.000;    0.000
516.999;11919.275;    0.000;    0.000
517.132;15097.275;    0.000;    0.000
517.264;20071.275;    0.000;    0.000
517.397;19307.275;    0.000;    0.000
517.530;14672.275;    0.000;    0.000
517.663;12736.275;    0.000;    0.000
517.795;11735.275;    0.000;    0.000
517.928;11516.275;    0.000;    0.000
518.061;11704.275;    0.000;    0.000
518.193;15613.275;    0.000;    0.000
518.326;23383.275;    0.000;    0.000
518.459;24742.275;    0.000;    0.000
518.591;18381.275;    0.000;    0.000
518.724;14153.275;    0.000;    0.000
518.857;12613.275;    0.000;    0.000
518.989;11544.275;    0.000;    0.000
519.122;10894.275;    0.000;    0.000
519.254;10237.275;    0.000;    0.000
519.387; 9905.275;    0.000;    0.000
519.519; 9607.275;    0.000;    0.000
519.652; 9209.275;    0.000;    0.000
519.784; 9078.275;    0.000;    0.000
519.917; 9035.275;    0.000;    0.000
520.049; 8813.275;    0.000;    0.000
520.182; 8636.275;    0.000;    0.000
520.314; 8521.275;    0.000;    0.000
520.447; 8296.275;    0.000;    0.000
520.579; 8330.275;    0.000;    0.000
520.712; 8237.275;    0.000;    0.000
520.844; 8185.275;    0.000;    0.000
520.976; 7917.275;    0.000;    0.000
521.109; 7891.275;    0.000;    0.000
521.241; 7858.275;    0.000;    0.000
521.373; 7719.275;    0.000;    0.000
521.506; 7885.275;    0.000;    0.000
521.638; 7751.275;    0.000;    0.000
521.770; 7738.275;    0.000;    0.000
521.903; 7520.275;    0.000;    0.000
522.035; 7590.275;    0.000;    0.000
522.167; 7373.275;    0.000;    0.000
522.300; 7372.275;    0.000;    0.000
522.432; 7428.275;    0.000;    0.000
522.564; 7233.275;    0.000;    0.000
522.696; 7270.275;    0.000;    0.000
522.828; 7249.275;    0.000;    0.000
522.961; 7173.275;    0.000;    0.000
523.093; 7299.275;    0.000;    0.000
523.225; 7251.275;    0.000;    0.000
523.357; 7180.275;    0.000;    0.000
523.489; 7071.275;    0.000;    0.000
523.621; 7017.275;    0.000;    0.000
523.753; 7156.275;    0.000;    0.000
523.885; 6978.275;    0.000;    0.000
524.018; 6943.275;    0.000;    0.000
524.150; 7046.275;    0.000;    0.000
524.282; 7043.275;    0.000;    0.000
524.414; 7079.275;    0.000;    0.000
524.546; 6856.275;    0.000;    0.000
524.678; 6760.275;    0.000;    0.000
524.810; 6796.275;    0.000;    0.000
524.942; 6696.275;    0.000;    0.000
525.074; 6782.275;    0.000;    0.000
525.206; 6749.275;    0.000;    0.000
525.338; 6779.275;    0.000;    0.000
525.469; 6705.275;    0.000;    0.000
525.601; 6671.275;    0.000;    0.000
525.733; 6688.275;    0.000;    0.000
525.865; 6653.275;    0.000;    0.000
525.997; 6680.275;    0.000;    0.000
526.129; 6507.275;    0.000;    0.000
526.261; 6600.275;    0.000;    0.000
526.393; 6677.275;    0.000;    0.000
526.524; 6563.275;    0.000;    0.000
526.656; 6473.275;    0.000;    0.000
526.788; 6608.275;    0.000;    0.000
526.920; 6499.275;    0.000;    0.000
527.052; 6515.275;    0.000;    0.000
527.183; 6476.275;    0.000;    0.000
527.315; 6593.275;    0.000;    0.000
527.447; 6439.275;    0.000;    0.000
527.578; 6570.275;    0.000;    0.000
527.710; 6618.275;    0.000;    0.000
527.842; 6505.275;    0.000;    0.000
527.973; 6531.275;    0.000;    0.000
528.105; 6536.275;    0.000;    0.000
528.237; 6462.275;    0.000;    0.000
528.368; 6314.275;    0.000;    0.000
528.500; 6407.275;    0.000;    0.000
528.632; 6398.275;    0.000;    0.000
528.763; 6457.275;    0.000;    0.000
528.895; 6402.275;    0.000;    0.000
529.026; 6290.275;    0.000;    0.000
529.158; 6352.275;    0.000;    0.000
529.289; 6296.275;    0.000;    0.000
529.421; 6453.275;    0.000;    0.000
529.552; 6424.275;    0.000;    0.000
529.684; 6348.275;    0.000;    0.000
529.815; 6409.275;    0.000;    0.000
529.947; 6383.275;    0.000;    0.000
530.078; 6365.275;    0.000;    0.000
530.210; 6399.275;    0.000;    0.000
530.341; 6377.275;    0.000;    0.000
530.472; 6335.275;    0.000;    0.000
530.604; 6290.275;    0.000;    0.000
530.735; 6399.275;    0.000;    0.000
530.867; 6320.275;    0.000;    0.000
530.998; 6427.275;    0.000;    0.000
531.129; 6450.275;    0.000;    0.000
531.260; 6400.275;    0.000;    0.000
531.392; 6482.275;    0.000;    0.000
531.523; 6409.275;    0.000;    0.000
531.654; 6366.275;    0.000;    0.000
531.786; 6408.275;    0.000;    0.000
531.917; 6449.275;    0.000;    0.000
532.048; 6512.275;    0.000;    0.000
532.179; 6607.275;    0.000;    0.000
532.311; 6510.275;    0.000;    0.000
532.442; 6397.275;    0.000;    0.000
532.573; 6413.275;    0.000;    0.000
532.704; 6365.275;    0.000;    0.000
532.835; 6378.275;    0.000;    0.000
532.966; 6316.275;    0.000;    0.000
533.097; 6471.275;    0.000;    0.000
533.229; 6439.275;    0.000;    0.000
533.360; 6399.275;    0.000;    0.000
533.491; 6232.275;    0.000;    0.000
533.622; 6379.275;    0.000;    0.000
533.753; 6350.275;    0.000;    0.000
533.884; 6484.275;    0.000;    0.000
534.015; 6356.275;    0.000;    0.000
534.146; 6405.275;    0.000;    0.000
534.277; 6388.275;    0.000;    0.000
534.408; 6330.275;    0.000;    0.000
534.539; 6431.275;    0.000;    0.000
534.670; 6475.275;    0.000;    0.000
534.801; 6341.275;    0.000;    0.000
534.932; 6175.275;    0.000;    0.000
535.063; 6266.275;    0.000;    0.000
535.194; 6318.275;    0.000;    0.000
535.324; 6268.275;    0.000;    0.000
535.455; 6251.275;    0.000;    0.000
535.586; 6290.275;    0.000;    0.000
535.717; 6158.275;    0.000;    0.000
535.848; 6392.275;    0.000;    0.000
535.979; 6211.275;    0.000;    0.000
536.109; 6276.275;    0.000;    0.000
536.240; 6222.275;    0.000;    0.000
536.371; 6302.275;    0.000;    0.000
536.502; 6161.275;    0.000;    0.000
536.632; 6160.275;    0.000;    0.000
536.763; 6125.275;    0.000;    0.000
536.894; 6194.275;    0.000;    0.000
537.025; 6086.275;    0.000;    0.000
537.155; 6173.275;    0.000;    0.000
537.286; 6135.275;    0.000;    0.000
537.417; 6179.275;    0.000;    0.000
537.547; 5982.275;    0.000;    0.000
537.678; 6118.275;    0.000;    0.000
537.808; 6109.275;    0.000;    0.000
537.939; 6080.275;    0.000;    0.000
538.070; 6046.275;    0.000;    0.000
538.200; 6046.275;    0.000;    0.000
538.331; 6128.275;    0.000;    0.000
538.461; 5981.275;    0.000;    0.000
538.592; 6199.275;    0.000;    0.000
538.722; 6138.275;    0.000;    0.000
538.853; 6144.275;    0.000;    0.000
538.983; 6043.275;    0.000;    0.000
539.114; 6035.275;    0.000;    0.000
539.244; 6124.275;    0.000;    0.000
539.375; 6124.275;    0.000;    0.000
539.505; 6251.275;    0.000;    0.000
539.636; 6086.275;    0.000;    0.000
539.766; 6170.275;    0.000;    0.000
539.896; 6039.275;    0.000;    0.000
540.027; 6181.275;    0.000;    0.000
540.157; 5996.275;    0.000;    0.000
540.287; 6220.275;    0.000;    0.000
540.418; 6198.275;    0.000;    0.000
540.548; 6256.275;    0.000;    0.000
540.678; 6079.275;    0.000;    0.000
540.809; 6115.275;    0.000;    0.000
540.939; 6173.275;    0.000;    0.000
541.069; 6258.275;    0.000;    0.000
541.200; 6153.275;    0.000;    0.000
541.330; 6170.275;    0.000;    0.000
541.460; 6324.275;    0.000;    0.000
541.590; 6299.275;    0.000;    0.000
541.720; 6208.275;    0.000;    0.000
541.851; 6141.275;    0.000;    0.000
541.981; 6248.275;    0.000;    0.000
542.111; 6297.275;    0.000;    0.000
542.241; 6274.275;    0.000;    0.000
542.371; 6377.275;    0.000;    0.000
542.501; 6447.275;    0.000;    0.000
542.631; 6531.275;    0.000;    0.000
542.761; 6461.275;    0.000;    0.000
542.891; 6530.275;    0.000;    0.000
543.021; 6375.275;    0.000;    0.000
543.151; 6478.275;    0.000;    0.000
543.281; 6550.275;    0.000;    0.000
543.411; 6549.275;    0.000;    0.000
543.542; 6462.275;    0.000;    0.000
543.671; 6432.275;    0.000;    0.000
543.801; 6392.275;    0.000;    0.000
543.931; 6432.275;    0.000;    0.000
544.061; 6451.275;    0.000;    0.000
544.191; 6346.275;    0.000;    0.000
544.321; 6639.275;    0.000;    0.000
544.451; 6447.275;    0.000;    0.000
544.581; 6419.275;    0.000;    0.000
544.711; 6560.275;    0.000;    0.000
544.841; 6610.275;    0.000;    0.000
544.970; 6704.275;    0.000;    0.000
545.100; 6702.275;    0.000;    0.000
545.230; 6676.275;    0.000;    0.000
545.360; 6651.275;    0.000;    0.000
545.490; 6612.275;    0.000;    0.000
545.619; 6613.275;    0.000;    0.000
545.749; 6528.275;    0.000;    0.000
545.879; 6357.275;    0.000;    0.000
546.009; 6458.275;    0.000;    0.000
546.138; 6413.275;    0.000;    0.000
546.268; 6331.275;    0.000;    0.000
546.398; 6289.275;    0.000;    0.000
546.527; 6439.275;    0.000;    0.000
546.657; 6264.275;    0.000;    0.000
546.786; 6467.275;    0.000;    0.000
546.916; 6454.275;    0.000;    0.000
547.046; 6471.275;    0.000;    0.000
547.175; 6414.275;    0.000;    0.000
547.305; 6381.275;    0.000;    0.000
547.434; 6328.275;    0.000;    0.000
547.564; 6414.275;    0.000;    0.000
547.693; 6416.275;    0.000;    0.000
547.823; 6502.275;    0.000;    0.000
547.953; 6427.275;    0.000;    0.000
548.082; 6487.275;    0.000;    0.000
548.211; 6290.275;    0.000;    0.000
548.341; 6443.275;    0.000;    0.000
548.470; 6492.275;    0.000;    0.000
548.600; 6422.275;    0.000;    0.000
548.729; 6364.275;    0.000;    0.000
548.859; 6390.275;    0.000;    0.000
548.988; 6388.275;    0.000;    0.000
549.117; 6355.275;    0.000;    0.000
549.247; 6478.275;    0.000;    0.000
549.376; 6403.275;    0.000;    0.000
549.505; 6454.275;    0.000;    0.000
549.635; 6535.275;    0.000;    0.000
549.764; 6452.275;    0.000;    0.000
549.893; 6510.275;    0.000;    0.000
550.023; 6464.275;    0.000;    0.000
550.152; 6462.275;    0.000;    0.000
550.281; 6486.275;    0.000;    0.000
550.410; 6545.275;    0.000;    0.000
550.539; 6660.275;    0.000;    0.000
550.669; 6599.275;    0.000;    0.000
550.798; 6564.275;    0.000;    0.000
550.927; 6690.275;    0.000;    0.000
551.056; 6689.275;    0.000;    0.000
551.185; 6473.275;    0.000;    0.000
551.314; 6438.275;    0.000;    0.000
551.443; 6617.275;    0.000;    0.000
551.573; 6606.275;    0.000;    0.000
551.702; 6623.275;    0.000;    0.000
551.831; 6647.275;    0.000;    0.000
551.960; 6554.275;    0.000;    0.000
552.089; 6705.275;    0.000;    0.000
552.218; 6818.275;    0.000;    0.000
552.347; 6808.275;    0.000;    0.000
552.476; 6728.275;    0.000;    0.000
552.605; 6862.275;    0.000;    0.000
552.734; 6901.275;    0.000;    0.000
552.863; 7158.275;    0.000;    0.000
552.992; 7139.275;    0.000;    0.000
553.121; 7209.275;    0.000;    0.000
553.249; 6936.275;    0.000;    0.000
553.378; 6871.275;    0.000;    0.000
553.507; 6884.275;    0.000;    0.000
553.636; 6876.275;    0.000;    0.000
553.765; 6767.275;    0.000;    0.000
553.894; 6787.275;    0.000;    0.000
554.023; 6912.275;    0.000;    0.000
554.151; 6929.275;    0.000;    0.000
554.280; 6713.275;    0.000;    0.000
554.409; 6726.275;    0.000;    0.000
554.538; 6664.275;    0.000;    0.000
554.666; 6723.275;    0.000;    0.000
554.795; 6669.275;    0.000;    0.000
554.924; 6651.275;    0.000;    0.000
555.052; 6564.275;    0.000;    0.000
555.181; 6711.275;    0.000;    0.000
555.310; 6636.275;    0.000;    0.000
555.439; 6557.275;    0.000;    0.000
555.567; 6524.275;    0.000;    0.000
555.696; 6615.275;    0.000;    0.000
555.824; 6456.275;    0.000;    0.000
555.953; 6633.275;    0.000;    0.000
556.082; 6515.275;    0.000;    0.000
556.210; 6649.275;    0.000;    0.000
556.339; 6644.275;    0.000;    0.000
556.467; 6569.275;    0.000;    0.000
556.596; 6489.275;    0.000;    0.000
556.724; 6478.275;    0.000;    0.000
556.853; 6497.275;    0.000;    0.000
556.981; 6335.275;    0.000;    0.000
557.110; 6495.275;    0.000;    0.000
557.238; 6407.275;    0.000;    0.000
557.367; 6520.275;    0.000;    0.000
557.495; 6411.275;    0.000;    0.000
557.623; 6362.275;    0.000;    0.000
557.752; 6434.275;    0.000;    0.000
557.880; 6394.275;    0.000;    0.000
558.008; 6543.275;    0.000;    0.000
558.137; 6554.275;    0.000;    0.000
558.265; 6572.275;    0.000;    0.000
558.393; 6614.275;    0.000;    0.000
558.522; 6466.275;    0.000;    0.000
558.650; 6456.275;    0.000;    0.000
558.778; 6424.275;    0.000;    0.000
558.906; 6533.275;    0.000;    0.000
559.035; 6572.275;    0.000;    0.000
559.163; 6404.275;    0.000;    0.000
559.291; 6571.275;    0.000;    0.000
559.419; 6509.275;    0.000;    0.000
559.548; 6467.275;    0.000;    0.000
559.676; 6521.275;    0.000;    0.000
559.804; 6631.275;    0.000;    0.000
559.932; 6608.275;    0.000;    0.000
560.060; 6563.275;    0.000;    0.000
560.188; 6690.275;    0.000;    0.000
560.316; 6645.275;    0.000;    0.000
560.444; 6684.275;    0.000;    0.000
560.572; 6819.275;    0.000;    0.000
560.700; 6792.275;    0.000;    0.000
560.828; 6872.275;    0.000;    0.000
560.956; 6965.275;    0.000;    0.000
561.085; 6891.275;    0.000;    0.000
561.212; 6840.275;    0.000;    0.000
561.340; 6757.275;    0.000;    0.000
561.468; 6861.275;    0.000;    0.000
561.596; 6723.275;    0.000;    0.000
561.724; 6770.275;    0.000;    0.000
561.852; 6813.275;    0.000;    0.000
561.980; 7049.275;    0.000;    0.000
562.108; 7087.275;    0.000;    0.000
562.236; 6880.275;    0.000;    0.000
562.364; 6886.275;    0.000;    0.000
562.492; 7123.275;    0.000;    0.000
562.619; 6959.275;    0.000;    0.000
562.747; 6890.275;    0.000;    0.000
562.875; 7059.275;    0.000;    0.000
563.003; 7004.275;    0.000;    0.000
563.130; 7196.275;    0.000;    0.000
563.258; 7178.275;    0.000;    0.000
563.386; 7332.275;    0.000;    0.000
563.514; 7248.275;    0.000;    0.000
563.641; 7425.275;    0.000;    0.000
563.769; 7395.275;    0.000;    0.000
563.897; 7462.275;    0.000;    0.000
564.024; 7565.275;    0.000;    0.000
564.152; 7621.275;    0.000;    0.000
564.280; 7663.275;    0.000;    0.000
564.407; 7686.275;    0.000;    0.000
564.535; 7622.275;    0.000;    0.000
564.662; 7689.275;    0.000;    0.000
564.790; 7883.275;    0.000;    0.000
564.917; 7812.275;    0.000;    0.000
565.045; 7948.275;    0.000;    0.000
565.173; 7922.275;    0.000;    0.000
565.300; 8009.275;    0.000;    0.000
565.428; 8162.275;    0.000;    0.000
565.555; 8121.275;    0.000;    0.000
565.682; 8205.275;    0.000;    0.000
565.810; 8386.275;    0.000;    0.000
565.937; 8483.275;    0.000;    0.000
566.065; 8508.275;    0.000;    0.000
566.192; 8681.275;    0.000;    0.000
566.320; 8997.275;    0.000;    0.000
566.447; 9050.275;    0.000;    0.000
566.574; 8970.275;    0.000;    0.000
566.702; 9275.275;    0.000;    0.000
566.829; 9257.275;    0.000;    0.000
566.956; 9503.275;    0.000;    0.000
567.083; 9256.275;    0.000;    0.000
567.211; 9418.275;    0.000;    0.000
567.338; 9750.275;    0.000;    0.000
567.465; 9743.275;    0.000;    0.000
567.593; 9740.275;    0.000;    0.000
567.720; 9551.275;    0.000;    0.000
567.847; 9628.275;    0.000;    0.000
567.974; 9652.275;    0.000;    0.000
568.101; 9832.275;    0.000;    0.000
568.228;10395.275;    0.000;    0.000
568.356;10482.275;    0.000;    0.000
568.483;10229.275;    0.000;    0.000
568.610;10165.275;    0.000;    0.000
568.737;11011.275;    0.000;    0.000
568.864;11576.275;    0.000;    0.000
568.991;11158.275;    0.000;    0.000
569.118;10427.275;    0.000;    0.000
569.245; 9943.275;    0.000;    0.000
569.372; 9570.275;    0.000;    0.000
569.499; 9471.275;    0.000;    0.000
569.626; 9134.275;    0.000;    0.000
569.753; 8976.275;    0.000;    0.000
569.880; 9034.275;    0.000;    0.000
570.007; 8678.275;    0.000;    0.000
570.134; 8544.275;    0.000;    0.000
570.261; 8490.275;    0.000;    0.000
570.388; 8423.275;    0.000;    0.000
570.515; 8300.275;    0.000;    0.000
570.642; 8310.275;    0.000;    0.000
570.768; 8249.275;    0.000;    0.000
570.895; 8234.275;    0.000;    0.000
571.022; 8162.275;    0.000;    0.000
571.149; 8039.275;    0.000;    0.000
571.276; 8152.275;    0.000;    0.000
571.402; 7963.275;    0.000;    0.000
571.529; 7900.275;    0.000;    0.000
571.656; 7868.275;    0.000;    0.000
571.783; 7702.275;    0.000;    0.000
571.909; 7709.275;    0.000;    0.000
572.036; 7778.275;    0.000;    0.000
572.163; 7661.275;    0.000;    0.000
572.289; 7757.275;    0.000;    0.000
572.416; 7572.275;    0.000;    0.000
572.543; 7575.275;    0.000;    0.000
572.669; 7484.275;    0.000;    0.000
572.796; 7565.275;    0.000;    0.000
572.922; 7505.275;    0.000;    0.000
573.049; 7561.275;    0.000;    0.000
573.176; 7596.275;    0.000;    0.000
573.302; 7493.275;    0.000;    0.000
573.429; 7461.275;    0.000;    0.000
573.555; 7575.275;    0.000;    0.000
573.682; 7555.275;    0.000;    0.000
573.808; 7413.275;    0.000;    0.000
573.935; 7487.275;    0.000;    0.000
574.061; 7447.275;    0.000;    0.000
574.188; 7388.275;    0.000;    0.000
574.314; 7366.275;    0.000;    0.000
574.440; 7417.275;    0.000;    0.000
574.567; 7428.275;    0.000;    0.000
574.693; 7328.275;    0.000;    0.000
574.820; 7335.275;    0.000;    0.000
574.946; 7266.275;    0.000;    0.000
575.072; 7341.275;    0.000;    0.000
575.198; 7335.275;    0.000;    0.000
575.325; 7435.275;    0.000;    0.000
575.451; 7456.275;    0.000;    0.000
575.577; 7356.275;    0.000;    0.000
575.704; 7319.275;    0.000;    0.000
575.830; 7472.275;    0.000;    0.000
575.956; 7328.275;    0.000;    0.000
576.082; 7173.275;    0.000;    0.000
576.208; 7161.275;    0.000;    0.000
576.335; 7294.275;    0.000;    0.000
576.461; 7155.275;    0.000;    0.000
576.587; 7225.275;    0.000;    0.000
576.713; 7309.275;    0.000;    0.000
576.839; 7177.275;    0.000;    0.000
576.965; 7204.275;    0.000;    0.000
577.091; 7232.275;    0.000;    0.000
577.217; 7323.275;    0.000;    0.000
577.343; 7121.275;    0.000;    0.000
577.469; 7363.275;    0.000;    0.000
577.596; 7199.275;    0.000;    0.000
577.722; 7147.275;    0.000;    0.000
577.848; 7124.275;    0.000;    0.000
577.974; 7265.275;    0.000;    0.000
578.099; 7280.275;    0.000;    0.000
578.225; 7228.275;    0.000;    0.000
578.351; 7074.275;    0.000;    0.000
578.477; 7325.275;    0.000;    0.000
578.603; 7289.275;    0.000;    0.000
578.729; 7233.275;    0.000;    0.000
578.855; 7227.275;    0.000;    0.000
578.981; 7180.275;    0.000;    0.000
579.107; 7131.275;    0.000;    0.000
579.232; 7271.275;    0.000;    0.000
579.358; 7149.275;    0.000;    0.000
579.484; 7154.275;    0.000;    0.000
579.610; 7367.275;    0.000;    0.000
579.735; 7256.275;    0.000;    0.000
579.861; 7200.275;    0.000;    0.000
579.987; 7235.275;    0.000;    0.000
580.113; 7292.275;    0.000;    0.000
580.238; 7358.275;    0.000;    0.000
580.364; 7473.275;    0.000;    0.000
580.490; 7315.275;    0.000;    0.000
580.615; 7290.275;    0.000;    0.000
580.741; 7327.275;    0.000;    0.000
580.867; 7350.275;    0.000;    0.000
580.992; 7317.275;    0.000;    0.000
581.118; 7474.275;    0.000;    0.000
581.243; 7400.275;    0.000;    0.000
581.369; 7508.275;    0.000;    0.000
581.494; 7546.275;    0.000;    0.000
581.620; 7531.275;    0.000;    0.000
581.745; 7540.275;    0.000;    0.000
581.871; 7623.275;    0.000;    0.000
581.996; 7493.275;    0.000;    0.000
582.122; 7688.275;    0.000;    0.000
582.247; 7676.275;    0.000;    0.000
582.373; 7853.275;    0.000;    0.000
582.498; 7764.275;    0.000;    0.000
582.624; 7959.275;    0.000;    0.000
582.749; 7833.275;    0.000;    0.000
582.874; 7801.275;    0.000;    0.000
583.000; 7975.275;    0.000;    0.000
583.125; 7987.275;    0.000;    0.000
583.250; 7970.275;    0.000;    0.000
583.376; 8157.275;    0.000;    0.000
583.501; 8151.275;    0.000;    0.000
583.626; 8184.275;    0.000;    0.000
583.751; 8266.275;    0.000;    0.000
583.877; 8276.275;    0.000;    0.000
584.002; 8499.275;    0.000;    0.000
584.127; 8480.275;    0.000;    0.000
584.252; 8497.275;    0.000;    0.000
584.377; 8566.275;    0.000;    0.000
584.503; 8469.275;    0.000;    0.000
584.628; 8804.275;    0.000;    0.000
584.753; 8815.275;    0.000;    0.000
584.878; 8905.275;    0.000;    0.000
585.003; 9018.275;    0.000;    0.000
585.128; 9349.275;    0.000;    0.000
585.253; 9937.275;    0.000;    0.000
585.378; 9786.275;    0.000;    0.000
585.503; 9473.275;    0.000;    0.000
585.628; 9608.275;    0.000;    0.000
585.753; 9785.275;    0.000;    0.000
585.878; 9695.275;    0.000;    0.000
586.003; 9938.275;    0.000;    0.000
586.128;10447.275;    0.000;    0.000
586.253;10305.275;    0.000;    0.000
586.378;10491.275;    0.000;    0.000
586.503;10738.275;    0.000;    0.000
586.628;11338.275;    0.000;    0.000
586.753;11534.275;    0.000;    0.000
586.878;11691.275;    0.000;    0.000
587.003;12240.275;    0.000;    0.000
587.127;12528.275;    0.000;    0.000
587.252;13040.275;    0.000;    0.000
587.377;13912.275;    0.000;    0.000
587.502;14416.275;    0.000;    0.000
587.627;15277.275;    0.000;    0.000
587.751;16187.275;    0.000;    0.000
587.876;17323.275;    0.000;    0.000
588.001;18609.275;    0.000;    0.000
588.125;20225.275;    0.000;    0.000
588.250;22453.275;    0.000;    0.000
588.375;25472.275;    0.000;    0.000
588.499;29442.275;    0.000;    0.000
588.624;35327.273;    0.000;    0.000
588.749;44103.273;    0.000;    0.000
588.873;55055.273;    0.000;    0.000
588.998;64679.273;    0.000;    0.000
589.122;65269.273;    0.000;    0.000
589.247;60140.273;    0.000;    0.000
589.372;54234.273;    0.000;    0.000
589.496;56412.273;    0.000;    0.000
589.621;60172.273;    0.000;    0.000
589.745;57591.273;    0.000;    0.000
589.870;47323.273;    0.000;    0.000
589.994;37930.273;    0.000;    0.000
590.118;31761.275;    0.000;    0.000
590.243;27969.275;    0.000;    0.000
590.367;24520.275;    0.000;    0.000
590.492;22282.275;    0.000;    0.000
590.616;20530.275;    0.000;    0.000
590.740;19105.275;    0.000;    0.000
590.865;17971.275;    0.000;    0.000
590.989;16631.275;    0.000;    0.000
591.114;15924.275;    0.000;    0.000
591.238;15174.275;    0.000;    0.000
591.362;14559.275;    0.000;    0.000
591.486;14114.275;    0.000;    0.000
591.611;13504.275;    0.000;    0.000
591.735;13001.275;    0.000;    0.000
591.859;12730.275;    0.000;    0.000
591.983;12434.275;    0.000;    0.000
592.107;12124.275;    0.000;    0.000
592.232;11909.275;    0.000;    0.000
592.356;11649.275;    0.000;    0.000
592.480;11452.275;    0.000;    0.000
592.604;11234.275;    0.000;    0.000
592.728;11039.275;    0.000;    0.000
592.852;10935.275;    0.000;    0.000
592.976;10747.275;    0.000;    0.000
593.100;10515.275;    0.000;    0.000
593.224;10698.275;    0.000;    0.000
593.349;10626.275;    0.000;    0.000
593.473;10268.275;    0.000;    0.000
593.597;10216.275;    0.000;    0.000
593.721;10180.275;    0.000;    0.000
593.844; 9956.275;    0.000;    0.000
593.968; 9896.275;    0.000;    0.000
594.092; 9685.275;    0.000;    0.000
594.216; 9591.275;    0.000;    0.000
594.340; 9675.275;    0.000;    0.000
594.464; 9595.275;    0.000;    0.000
594.588; 9353.275;    0.000;    0.000
594.712; 9267.275;    0.000;    0.000
594.836; 9112.275;    0.000;    0.000
594.959; 9122.275;    0.000;    0.000
595.083; 9062.275;    0.000;    0.000
595.207; 8833.275;    0.000;    0.000
595.331; 8678.275;    0.000;    0.000
595.455; 8483.275;    0.000;    0.000
595.578; 8602.275;    0.000;    0.000
595.702; 8540.275;    0.000;    0.000
595.826; 8441.275;    0.000;    0.000
595.949; 8432.275;    0.000;    0.000
596.073; 8388.275;    0.000;    0.000
596.197; 8314.275;    0.000;    0.000
596.320; 8395.275;    0.000;    0.000
596.444; 8211.275;    0.000;    0.000
596.568; 8149.275;    0.000;    0.000
596.691; 8081.275;    0.000;    0.000
596.815; 8100.275;    0.000;    0.000
596.938; 7918.275;    0.000;    0.000
597.062; 7898.275;    0.000;    0.000
597.186; 7887.275;    0.000;    0.000
597.309; 7855.275;    0.000;    0.000
597.433; 7901.275;    0.000;    0.000
597.556; 7682.275;    0.000;    0.000
597.680; 7722.275;    0.000;    0.000
597.803; 7784.275;    0.000;    0.000
597.926; 7700.275;    0.000;    0.000
598.050; 7733.275;    0.000;    0.000
598.173; 7536.275;    0.000;    0.000
598.297; 7586.275;    0.000;    0.000
598.420; 7623.275;    0.000;    0.000
598.543; 7495.275;    0.000;    0.000
598.667; 7683.275;    0.000;    0.000
598.790; 7521.275;    0.000;    0.000
598.913; 7362.275;    0.000;    0.000
599.037; 7426.275;    0.000;    0.000
599.160; 7450.275;    0.000;    0.000
599.283; 7390.275;    0.000;    0.000
599.406; 7287.275;    0.000;    0.000
599.530; 7306.275;    0.000;    0.000
599.653; 7234.275;    0.000;    0.000
599.776; 7378.275;    0.000;    0.000
599.899; 7202.275;    0.000;    0.000
600.022; 7180.275;    0.000;    0.000
600.145; 7266.275;    0.000;    0.000
600.269; 7284.275;    0.000;    0.000
600.392; 7220.275;    0.000;    0.000
600.515; 7192.275;    0.000;    0.000
600.638; 7167.275;    0.000;    0.000
600.761; 7162.275;    0.000;    0.000
600.884; 7133.275;    0.000;    0.000
601.007; 7047.275;    0.000;    0.000
601.130; 7035.275;    0.000;    0.000
601.253; 7242.275;    0.000;    0.000
601.376; 6988.275;    0.000;    0.000
601.499; 6987.275;    0.000;    0.000
601.622; 7112.275;    0.000;    0.000
601.745; 6984.275;    0.000;    0.000
601.868; 7038.275;    0.000;    0.000
601.991; 6961.275;    0.000;    0.000
602.113; 6924.275;    0.000;    0.000
602.236; 6885.275;    0.000;    0.000
602.359; 6917.275;    0.000;    0.000
602.482; 6928.275;    0.000;    0.000
602.605; 6805.275;    0.000;    0.000
602.728; 6891.275;    0.000;    0.000
602.850; 6869.275;    0.000;    0.000
602.973; 6935.275;    0.000;    0.000
603.096; 6721.275;    0.000;    0.000
603.219; 6751.275;    0.000;    0.000
603.341; 6842.275;    0.000;    0.000
603.464; 6851.275;    0.000;    0.000
603.587; 6788.275;    0.000;    0.000
603.709; 6725.275;    0.000;    0.000
603.832; 6780.275;    0.000;    0.000
603.955; 6718.275;    0.000;    0.000
604.077; 6626.275;    0.000;    0.000
604.200; 6685.275;    0.000;    0.000
604.323; 6679.275;    0.000;    0.000
604.445; 6653.275;    0.000;    0.000
604.568; 6584.275;    0.000;    0.000
604.690; 6700.275;    0.000;    0.000
604.813; 6713.275;    0.000;    0.000
604.935; 6718.275;    0.000;    0.000
605.058; 6665.275;    0.000;    0.000
605.180; 6597.275;    0.000;    0.000
605.303; 6769.275;    0.000;    0.000
605.425; 6603.275;    0.000;    0.000
605.547; 6644.275;    0.000;    0.000
605.670; 6591.275;    0.000;    0.000
605.792; 6563.275;    0.000;    0.000
605.915; 6515.275;    0.000;    0.000
606.037; 6552.275;    0.000;    0.000
606.159; 6639.275;    0.000;    0.000
606.282; 6486.275;    0.000;    0.000
606.404; 6550.275;    0.000;    0.000
606.526; 6454.275;    0.000;    0.000
606.648; 6475.275;    0.000;    0.000
606.771; 6610.275;    0.000;    0.000
606.893; 6416.275;    0.000;    0.000
607.015; 6536.275;    0.000;    0.000
607.137; 6530.275;    0.000;    0.000
607.260; 6556.275;    0.000;    0.000
607.382; 6546.275;    0.000;    0.000
607.504; 6465.275;    0.000;    0.000
607.626; 6571.275;    0.000;    0.000
607.748; 6628.275;    0.000;    0.000
607.870; 6525.275;    0.000;    0.000
607.992; 6478.275;    0.000;    0.000
608.114; 6635.275;    0.000;    0.000
608.237; 6596.275;    0.000;    0.000
608.359; 6483.275;    0.000;    0.000
608.481; 6401.275;    0.000;    0.000
608.603; 6354.275;    0.000;    0.000
608.725; 6446.275;    0.000;    0.000
608.847; 6489.275;    0.000;    0.000
608.969; 6504.275;    0.000;    0.000
609.090; 6495.275;    0.000;    0.000
609.212; 6328.275;    0.000;    0.000
609.334; 6532.275;    0.000;    0.000
609.456; 6537.275;    0.000;    0.000
609.578; 6547.275;    0.000;    0.000
609.700; 6414.275;    0.000;    0.000
609.822; 6413.275;    0.000;    0.000
609.944; 6413.275;    0.000;    0.000
610.065; 6503.275;    0.000;    0.000
610.187; 6550.275;    0.000;    0.000
610.309; 6478.275;    0.000;    0.000
610.431; 6423.275;    0.000;    0.000
610.552; 6441.275;    0.000;    0.000
610.674; 6384.275;    0.000;    0.000
610.796; 6386.275;    0.000;    0.000
610.918; 6292.275;    0.000;    0.000
611.039; 6316.275;    0.000;    0.000
611.161; 6311.275;    0.000;    0.000
611.282; 6243.275;    0.000;    0.000
611.404; 6496.275;    0.000;    0.000
611.526; 6421.275;    0.000;    0.000
611.647; 6327.275;    0.000;    0.000
611.769; 6288.275;    0.000;    0.000
611.890; 6264.275;    0.000;    0.000
612.012; 6293.275;    0.000;    0.000
612.133; 6335.275;    0.000;    0.000
612.255; 6350.275;    0.000;    0.000
612.377; 6303.275;    0.000;    0.000
612.498; 6337.275;    0.000;    0.000
612.619; 6327.275;    0.000;    0.000
612.741; 6396.275;    0.000;    0.000
612.862; 6282.275;    0.000;    0.000
612.984; 6282.275;    0.000;    0.000
613.105; 6317.275;    0.000;    0.000
613.226; 6370.275;    0.000;    0.000
613.348; 6439.275;    0.000;    0.000
613.469; 6456.275;    0.000;    0.000
613.590; 6336.275;    0.000;    0.000
613.712; 6433.275;    0.000;    0.000
613.833; 6344.275;    0.000;    0.000
613.954; 6442.275;    0.000;    0.000
614.076; 6425.275;    0.000;    0.000
614.197; 6431.275;    0.000;    0.000
614.318; 6401.275;    0.000;    0.000
614.439; 6489.275;    0.000;    0.000
614.560; 6464.275;    0.000;    0.000
614.682; 6343.275;    0.000;    0.000
614.803; 6418.275;    0.000;    0.000
614.924; 6403.275;    0.000;    0.000
615.045; 6391.275;    0.000;    0.000
615.166; 6379.275;    0.000;    0.000
615.287; 6532.275;    0.000;    0.000
615.408; 6702.275;    0.000;    0.000
615.529; 6906.275;    0.000;    0.000
615.650; 6584.275;    0.000;    0.000
615.771; 6612.275;    0.000;    0.000
615.892; 6673.275;    0.000;    0.000
616.013; 7088.275;    0.000;    0.000
616.134; 7520.275;    0.000;    0.000
616.255; 7211.275;    0.000;    0.000
616.376; 6803.275;    0.000;    0.000
616.497; 6669.275;    0.000;    0.000
616.618; 6539.275;    0.000;    0.000
616.739; 6409.275;    0.000;    0.000
616.860; 6358.275;    0.000;    0.000
616.981; 6406.275;    0.000;    0.000
617.102; 6301.275;    0.000;    0.000
617.222; 6378.275;    0.000;    0.000
617.343; 6347.275;    0.000;    0.000
617.464; 6230.275;    0.000;    0.000
617.585; 6314.275;    0.000;    0.000
617.705; 6301.275;    0.000;    0.000
617.826; 6140.275;    0.000;    0.000
617.947; 6250.275;    0.000;    0.000
618.068; 6084.275;    0.000;    0.000
618.188; 6312.275;    0.000;    0.000
618.309; 6153.275;    0.000;    0.000
618.430; 6183.275;    0.000;    0.000
618.550; 6074.275;    0.000;    0.000
618.671; 6005.275;    0.000;    0.000
618.791; 6169.275;    0.000;    0.000
618.912; 6003.275;    0.000;    0.000
619.033; 6018.275;    0.000;    0.000
619.153; 6052.275;    0.000;    0.000
619.274; 6089.275;    0.000;    0.000
619.394; 6127.275;    0.000;    0.000
619.515; 6038.275;    0.000;    0.000
619.635; 6152.275;    0.000;    0.000
619.756; 6045.275;    0.000;    0.000
619.876; 6141.275;    0.000;    0.000
619.996; 6024.275;    0.000;    0.000
620.117; 6050.275;    0.000;    0.000
620.237; 5997.275;    0.000;    0.000
620.358; 6135.275;    0.000;    0.000
620.478; 5963.275;    0.000;    0.000
620.598; 6001.275;    0.000;    0.000
620.719; 6024.275;    0.000;    0.000
620.839; 6073.275;    0.000;    0.000
620.959; 6054.275;    0.000;    0.000
621.079; 6118.275;    0.000;    0.000
621.200; 5991.275;    0.000;    0.000
621.320; 6145.275;    0.000;    0.000
621.440; 6091.275;    0.000;    0.000
621.560; 5920.275;    0.000;    0.000
621.681; 6006.275;    0.000;    0.000
621.801; 6024.275;    0.000;    0.000
621.921; 6075.275;    0.000;    0.000
622.041; 6088.275;    0.000;    0.000
622.161; 6183.275;    0.000;    0.000
622.281; 6172.275;    0.000;    0.000
622.401; 6239.275;    0.000;    0.000
622.521; 6094.275;    0.000;    0.000
622.641; 6013.275;    0.000;    0.000
622.761; 5994.275;    0.000;    0.000
622.882; 6129.275;    0.000;    0.000
623.002; 6010.275;    0.000;    0.000
623.121; 5984.275;    0.000;    0.000
623.241; 5953.275;    0.000;    0.000
623.361; 5970.275;    0.000;    0.000
623.481; 5975.275;    0.000;    0.000
623.601; 5934.275;    0.000;    0.000
623.721; 6007.275;    0.000;    0.000
623.841; 5951.275;    0.000;    0.000
623.961; 5922.275;    0.000;    0.000
624.081; 5768.275;    0.000;    0.000
624.201; 5950.275;    0.000;    0.000
624.320; 6014.275;    0.000;    0.000
624.440; 6062.275;    0.000;    0.000
624.560; 5886.275;    0.000;    0.000
624.680; 6039.275;    0.000;    0.000
624.799; 5794.275;    0.000;    0.000
624.919; 5854.275;    0.000;    0.000
625.039; 5970.275;    0.000;    0.000
625.159; 5888.275;    0.000;    0.000
625.278; 5872.275;    0.000;    0.000
625.398; 5928.275;    0.000;    0.000
625.518; 5774.275;    0.000;    0.000
625.637; 5822.275;    0.000;    0.000
625.757; 5755.275;    0.000;    0.000
625.876; 5825.275;    0.000;    0.000
625.996; 5937.275;    0.000;    0.000
626.115; 5818.275;    0.000;    0.000
626.235; 5754.275;    0.000;    0.000
626.354; 5892.275;    0.000;    0.000
626.474; 5849.275;    0.000;    0.000
626.594; 5773.275;    0.000;    0.000
626.713; 5810.275;    0.000;    0.000
626.832; 5860.275;    0.000;    0.000
626.952; 5797.275;    0.000;    0.000
627.071; 5915.275;    0.000;    0.000
627.191; 5985.275;    0.000;    0.000
627.310; 5796.275;    0.000;    0.000
627.429; 5797.275;    0.000;    0.000
627.549; 5705.275;    0.000;    0.000
627.668; 5760.275;    0.000;    0.000
627.787; 5823.275;    0.000;    0.000
627.907; 5731.275;    0.000;    0.000
628.026; 5647.275;    0.000;    0.000
628.145; 5727.275;    0.000;    0.000
628.264; 5755.275;    0.000;    0.000
628.384; 5606.275;    0.000;    0.000
628.503; 5770.275;    0.000;    0.000
628.622; 5738.275;    0.000;    0.000
628.741; 5772.275;    0.000;    0.000
628.860; 5714.275;    0.000;    0.000
628.980; 5744.275;    0.000;    0.000
629.099; 5694.275;    0.000;    0.000
629.218; 5654.275;    0.000;    0.000
629.337; 5643.275;    0.000;    0.000
629.456; 5788.275;    0.000;    0.000
629.575; 5697.275;    0.000;    0.000
629.694; 5584.275;    0.000;    0.000
629.813; 5736.275;    0.000;    0.000
629.932; 5648.275;    0.000;    0.000
630.051; 5679.275;    0.000;    0.000
630.170; 5573.275;    0.000;    0.000
630.289; 5665.275;    0.000;    0.000
630.408; 5667.275;    0.000;    0.000
630.527; 5563.275;    0.000;    0.000
630.646; 5574.275;    0.000;    0.000
630.764; 5653.275;    0.000;    0.000
630.883; 5569.275;    0.000;    0.000
631.002; 5668.275;    0.000;    0.000
631.121; 5640.275;    0.000;    0.000
631.240; 5660.275;    0.000;    0.000
631.359; 5679.275;    0.000;    0.000
631.477; 5581.275;    0.000;    0.000
631.596; 5691.275;    0.000;    0.000
631.715; 5603.275;    0.000;    0.000
631.834; 5633.275;    0.000;    0.000
631.952; 5542.275;    0.000;    0.000
632.071; 5571.275;    0.000;    0.000
632.190; 5522.275;    0.000;    0.000
632.308; 5526.275;    0.000;    0.000
632.427; 5565.275;    0.000;    0.000
632.546; 5560.275;    0.000;    0.000
632.664; 5606.275;    0.000;    0.000
632.783; 5588.275;    0.000;    0.000
632.901; 5652.275;    0.000;    0.000
633.020; 5505.275;    0.000;    0.000
633.138; 5451.275;    0.000;    0.000
633.257; 5446.275;    0.000;    0.000
633.375; 5547.275;    0.000;    0.000
633.494; 5587.275;    0.000;    0.000
633.612; 5515.275;    0.000;    0.000
633.731; 5408.275;    0.000;    0.000
633.849; 5524.275;    0.000;    0.000
633.968; 5478.275;    0.000;    0.000
634.086; 5572.275;    0.000;    0.000
634.204; 5574.275;    0.000;    0.000
634.323; 5477.275;    0.000;    0.000
634.441; 5533.275;    0.000;    0.000
634.559; 5452.275;    0.000;    0.000
634.678; 5541.275;    0.000;    0.000
634.796; 5486.275;    0.000;    0.000
634.914; 5457.275;    0.000;    0.000
635.032; 5635.275;    0.000;    0.000
635.151; 5363.275;    0.000;    0.000
635.269; 5365.275;    0.000;    0.000
635.387; 5400.275;    0.000;    0.000
635.505; 5417.275;    0.000;    0.000
635.623; 5450.275;    0.000;    0.000
635.742; 5590.275;    0.000;    0.000
635.860; 5459.275;    0.000;    0.000
635.978; 5447.275;    0.000;    0.000
636.096; 5377.275;    0.000;    0.000
636.214; 5416.275;    0.000;    0.000
636.332; 5442.275;    0.000;    0.000
636.450; 5438.275;    0.000;    0.000
636.568; 5440.275;    0.000;    0.000
636.686; 5345.275;    0.000;    0.000
636.804; 5543.275;    0.000;    0.000
636.922; 5374.275;    0.000;    0.000
637.040; 5432.275;    0.000;    0.000
637.158; 5239.275;    0.000;    0.000
637.276; 5473.275;    0.000;    0.000
637.394; 5406.275;    0.000;    0.000
637.512; 5404.275;    0.000;    0.000
637.629; 5407.275;    0.000;    0.000
637.747; 5380.275;    0.000;    0.000
637.865; 5373.275;    0.000;    0.000
637.983; 5430.275;    0.000;    0.000
638.101; 5359.275;    0.000;    0.000
638.218; 5370.275;    0.000;    0.000
638.336; 5323.275;    0.000;    0.000
638.454; 5355.275;    0.000;    0.000
638.572; 5348.275;    0.000;    0.000
638.689; 5262.275;    0.000;    0.000
638.807; 5222.275;    0.000;    0.000
638.925; 5288.275;    0.000;    0.000
639.042; 5390.275;    0.000;    0.000
639.160; 5249.275;    0.000;    0.000
639.278; 5318.275;    0.000;    0.000
639.395; 5272.275;    0.000;    0.000
639.513; 5375.275;    0.000;    0.000
639.630; 5280.275;    0.000;    0.000
639.748; 5289.275;    0.000;    0.000
639.865; 5274.275;    0.000;    0.000
639.983; 5287.275;    0.000;    0.000
640.100; 5434.275;    0.000;    0.000
640.218; 5295.275;    0.000;    0.000
640.335; 5403.275;    0.000;    0.000
640.453; 5444.275;    0.000;    0.000
640.570; 5376.275;    0.000;    0.000
640.688; 5358.275;    0.000;    0.000
640.805; 5350.275;    0.000;    0.000
640.922; 5304.275;    0.000;    0.000
641.040; 5361.275;    0.000;    0.000
641.157; 5311.275;    0.000;    0.000
641.274; 5364.275;    0.000;    0.000
641.391; 5308.275;    0.000;    0.000
641.509; 5321.275;    0.000;    0.000
641.626; 5213.275;    0.000;    0.000
641.743; 5302.275;    0.000;    0.000
641.860; 5187.275;    0.000;    0.000
641.978; 5375.275;    0.000;    0.000
642.095; 5303.275;    0.000;    0.000
642.212; 5223.275;    0.000;    0.000
642.329; 5384.275;    0.000;    0.000
642.446; 5300.275;    0.000;    0.000
642.563; 5330.275;    0.000;    0.000
642.681; 5262.275;    0.000;    0.000
642.798; 5296.275;    0.000;    0.000
642.915; 5505.275;    0.000;    0.000
643.032; 5327.275;    0.000;    0.000
643.149; 5310.275;    0.000;    0.000
643.266; 5356.275;    0.000;    0.000
643.383; 5311.275;    0.000;    0.000
643.500; 5437.275;    0.000;    0.000
643.617; 5326.275;    0.000;    0.000
643.734; 5356.275;    0.000;    0.000
643.850; 5217.275;    0.000;    0.000
643.967; 5304.275;    0.000;    0.000
644.084; 5415.275;    0.000;    0.000
644.201; 5312.275;    0.000;    0.000
644.318; 5339.275;    0.000;    0.000
644.435; 5419.275;    0.000;    0.000
644.552; 5367.275;    0.000;    0.000
644.668; 5400.275;    0.000;    0.000
644.785; 5365.275;    0.000;    0.000
644.902; 5438.275;    0.000;    0.000
645.019; 5382.275;    0.000;    0.000
645.135; 5452.275;    0.000;    0.000
645.252; 5427.275;    0.000;    0.000
645.369; 5401.275;    0.000;    0.000
645.485; 5542.275;    0.000;    0.000
645.602; 5444.275;    0.000;    0.000
645.719; 5471.275;    0.000;    0.000
645.835; 5484.275;    0.000;    0.000
645.952; 5433.275;    0.000;    0.000
646.068; 5478.275;    0.000;    0.000
646.185; 5491.275;    0.000;    0.000
646.302; 5554.275;    0.000;    0.000
646.418; 5537.275;    0.000;    0.000
646.535; 5519.275;    0.000;    0.000
646.651; 5630.275;    0.000;    0.000
646.768; 5420.275;    0.000;    0.000
646.884; 5642.275;    0.000;    0.000
647.000; 5625.275;    0.000;    0.000
647.117; 5502.275;    0.000;    0.000
647.233; 5618.275;    0.000;    0.000
647.350; 5635.275;    0.000;    0.000
647.466; 5620.275;    0.000;    0.000
647.582; 5683.275;    0.000;    0.000
647.699; 5732.275;    0.000;    0.000
647.815; 5592.275;    0.000;    0.000
647.931; 5582.275;    0.000;    0.000
648.047; 5707.275;    0.000;    0.000
648.164; 5746.275;    0.000;    0.000
648.280; 5703.275;    0.000;    0.000
648.396; 5731.275;    0.000;    0.000
648.512; 5812.275;    0.000;    0.000
648.629; 5712.275;    0.000;    0.000
648.745; 5706.275;    0.000;    0.000
648.861; 5758.275;    0.000;    0.000
648.977; 5930.275;    0.000;    0.000
649.093; 5805.275;    0.000;    0.000
649.209; 5765.275;    0.000;    0.000
649.325; 5764.275;    0.000;    0.000
649.441; 5680.275;    0.000;    0.000
649.557; 5854.275;    0.000;    0.000
649.673; 5787.275;    0.000;    0.000
649.789; 5937.275;    0.000;    0.000
649.905; 5871.275;    0.000;    0.000
650.021; 5855.275;    0.000;    0.000
650.137; 5860.275;    0.000;    0.000
650.253; 5814.275;    0.000;    0.000
650.369; 5777.275;    0.000;    0.000
650.485; 5852.275;    0.000;    0.000
650.601; 5946.275;    0.000;    0.000
650.717; 5891.275;    0.000;    0.000
650.833; 5900.275;    0.000;    0.000
650.948; 5921.275;    0.000;    0.000
651.064; 5883.275;    0.000;    0.000
651.180; 5958.275;    0.000;    0.000
651.296; 6072.275;    0.000;    0.000
651.411; 6071.275;    0.000;    0.000
651.527; 6091.275;    0.000;    0.000
651.643; 6066.275;    0.000;    0.000
651.759; 6126.275;    0.000;    0.000
651.874; 6131.275;    0.000;    0.000
651.990; 6280.275;    0.000;    0.000
652.105; 6094.275;    0.000;    0.000
652.221; 6330.275;    0.000;    0.000
652.337; 6156.275;    0.000;    0.000
652.452; 6312.275;    0.000;    0.000
652.568; 6293.275;    0.000;    0.000
652.683; 6280.275;    0.000;    0.000
652.799; 6368.275;    0.000;    0.000
652.914; 6271.275;    0.000;    0.000
653.030; 6529.275;    0.000;    0.000
653.145; 6549.275;    0.000;    0.000
653.261; 6623.275;    0.000;    0.000
653.376; 6453.275;    0.000;    0.000
653.492; 6502.275;    0.000;    0.000
653.607; 6669.275;    0.000;    0.000
653.722; 6771.275;    0.000;    0.000
653.838; 6916.275;    0.000;    0.000
653.953; 6937.275;    0.000;    0.000
654.068; 7092.275;    0.000;    0.000
654.184; 7131.275;    0.000;    0.000
654.299; 7136.275;    0.000;    0.000
654.414; 7265.275;    0.000;    0.000
654.530; 7355.275;    0.000;    0.000
654.645; 7421.275;    0.000;    0.000
654.760; 7476.275;    0.000;    0.000
654.875; 7617.275;    0.000;    0.000
654.990; 7755.275;    0.000;    0.000
655.106; 7774.275;    0.000;    0.000
655.221; 8097.275;    0.000;    0.000
655.336; 8161.275;    0.000;    0.000
655.451; 8443.275;    0.000;    0.000
655.566; 8456.275;    0.000;    0.000
655.681; 8616.275;    0.000;    0.000
655.796; 8973.275;    0.000;    0.000
655.911; 9293.275;    0.000;    0.000
656.026; 9566.275;    0.000;    0.000
656.141; 9695.275;    0.000;    0.000
656.256; 9979.275;    0.000;    0.000
656.371; 9971.275;    0.000;    0.000
656.486;10097.275;    0.000;    0.000
656.601; 9894.275;    0.000;    0.000
656.716; 9890.275;    0.000;    0.000
656.831; 9756.275;    0.000;    0.000
656.946; 9500.275;    0.000;    0.000
657.060; 9301.275;    0.000;    0.000
657.175; 9148.275;    0.000;    0.000
657.290; 9008.275;    0.000;    0.000
657.405; 8819.275;    0.000;    0.000
657.520; 8735.275;    0.000;    0.000
657.634; 8579.275;    0.000;    0.000
657.749; 8513.275;    0.000;    0.000
657.864; 8363.275;    0.000;    0.000
657.979; 8232.275;    0.000;    0.000
658.093; 8208.275;    0.000;    0.000
658.208; 8152.275;    0.000;    0.000
658.323; 7923.275;    0.000;    0.000
658.437; 7756.275;    0.000;    0.000
658.552; 7679.275;    0.000;    0.000
658.666; 7691.275;    0.000;    0.000
658.781; 7567.275;    0.000;    0.000
658.895; 7484.275;    0.000;    0.000
659.010; 7455.275;    0.000;    0.000
659.125; 7344.275;    0.000;    0.000
659.239; 7160.275;    0.000;    0.000
659.353; 7072.275;    0.000;    0.000
659.468; 7179.275;    0.000;    0.000
659.582; 6938.275;    0.000;    0.000
659.697; 6961.275;    0.000;    0.000
659.811; 6881.275;    0.000;    0.000
659.926; 6775.275;    0.000;    0.000
660.040; 6814.275;    0.000;    0.000
660.154; 6698.275;    0.000;    0.000
660.269; 6511.275;    0.000;    0.000
660.383; 6557.275;    0.000;    0.000
660.497; 6698.275;    0.000;    0.000
660.612; 6660.275;    0.000;    0.000
660.726; 6530.275;    0.000;    0.000
660.840; 6426.275;    0.000;    0.000
660.954; 6309.275;    0.000;    0.000
661.068; 6378.275;    0.000;    0.000
661.183; 6365.275;    0.000;    0.000
661.297; 6286.275;    0.000;    0.000
661.411; 6250.275;    0.000;    0.000
661.525; 6165.275;    0.000;    0.000
661.639; 6138.275;    0.000;    0.000
661.753; 6169.275;    0.000;    0.000
661.867; 6058.275;    0.000;    0.000
661.981; 6122.275;    0.000;    0.000
662.095; 6163.275;    0.000;    0.000
662.209; 5904.275;    0.000;    0.000
662.323; 5923.275;    0.000;    0.000
662.437; 5708.275;    0.000;    0.000
662.551; 5938.275;    0.000;    0.000
662.665; 5870.275;    0.000;    0.000
662.779; 5885.275;    0.000;    0.000
662.893; 5794.275;    0.000;    0.000
663.007; 5777.275;    0.000;    0.000
663.121; 5694.275;    0.000;    0.000
663.235; 5650.275;    0.000;    0.000
663.349; 5705.275;    0.000;    0.000
663.462; 5592.275;    0.000;    0.000
663.576; 5509.275;    0.000;    0.000
663.690; 5618.275;    0.000;    0.000
663.804; 5490.275;    0.000;    0.000
663.917; 5445.275;    0.000;    0.000
664.031; 5357.275;    0.000;    0.000
664.145; 5373.275;    0.000;    0.000
664.258; 5406.275;    0.000;    0.000
664.372; 5418.275;    0.000;    0.000
664.486; 5277.275;    0.000;    0.000
664.599; 5383.275;    0.000;    0.000
664.713; 5451.275;    0.000;    0.000
664.827; 5436.275;    0.000;    0.000
664.940; 5350.275;    0.000;    0.000
665.054; 5295.275;    0.000;    0.000
665.167; 5260.275;    0.000;    0.000
665.281; 5348.275;    0.000;    0.000
665.394; 5233.275;    0.000;    0.000
665.508; 5218.275;    0.000;    0.000
665.621; 5174.275;    0.000;    0.000
665.735; 5237.275;    0.000;    0.000
665.848; 5257.275;    0.000;    0.000
665.961; 5191.275;    0.000;    0.000
666.075; 5206.275;    0.000;    0.000
666.188; 5222.275;    0.000;    0.000
666.301; 5139.275;    0.000;    0.000
666.415; 5045.275;    0.000;    0.000
666.528; 5170.275;    0.000;    0.000
666.641; 5102.275;    0.000;    0.000
666.755; 5006.275;    0.000;    0.000
666.868; 5170.275;    0.000;    0.000
666.981; 5145.275;    0.000;    0.000
667.094; 5084.275;    0.000;    0.000
667.207; 5096.275;    0.000;    0.000
667.321; 4972.275;    0.000;    0.000
667.434; 4996.275;    0.000;    0.000
667.547; 5041.275;    0.000;    0.000
667.660; 5033.275;    0.000;    0.000
667.773; 4943.275;    0.000;    0.000
667.886; 4815.275;    0.000;    0.000
667.999; 4859.275;    0.000;    0.000
668.112; 5007.275;    0.000;    0.000
668.225; 4789.275;    0.000;    0.000
668.338; 4886.275;    0.000;    0.000
668.451; 4848.275;    0.000;    0.000
668.564; 4870.275;    0.000;    0.000
668.677; 4902.275;    0.000;    0.000
668.790; 4713.275;    0.000;    0.000
668.903; 4790.275;    0.000;    0.000
669.016; 4733.275;    0.000;    0.000
669.129; 4776.275;    0.000;    0.000
669.242; 4718.275;    0.000;    0.000
669.354; 4741.275;    0.000;    0.000
669.467; 4726.275;    0.000;    0.000
669.580; 4719.275;    0.000;    0.000
669.693; 4711.275;    0.000;    0.000
669.806; 4740.275;    0.000;    0.000
669.918; 4629.275;    0.000;    0.000
670.031; 4752.275;    0.000;    0.000
670.144; 4692.275;    0.000;    0.000
670.256; 4642.275;    0.000;    0.000
670.369; 4655.275;    0.000;    0.000
670.482; 4659.275;    0.000;    0.000
670.594; 4709.275;    0.000;    0.000
670.707; 4779.275;    0.000;    0.000
670.820; 4652.275;    0.000;    0.000
670.932; 4586.275;    0.000;    0.000
671.045; 4634.275;    0.000;    0.000
671.157; 4593.275;    0.000;    0.000
671.270; 4576.275;    0.000;    0.000
671.382; 4553.275;    0.000;    0.000
671.495; 4654.275;    0.000;    0.000
671.607; 4580.275;    0.000;    0.000
671.720; 4465.275;    0.000;    0.000
671.832; 4645.275;    0.000;    0.000
671.944; 4655.275;    0.000;    0.000
672.057; 4508.275;    0.000;    0.000
672.169; 4515.275;    0.000;    0.000
672.281; 4603.275;    0.000;    0.000
672.394; 4563.275;    0.000;    0.000
672.506; 4526.275;    0.000;    0.000
672.618; 4529.275;    0.000;    0.000
672.731; 4650.275;    0.000;    0.000
672.843; 4506.275;    0.000;    0.000
672.955; 4618.275;    0.000;    0.000
673.067; 4466.275;    0.000;    0.000
673.180; 4629.275;    0.000;    0.000
673.292; 4458.275;    0.000;    0.000
673.404; 4486.275;    0.000;    0.000
673.516; 4528.275;    0.000;    0.000
673.628; 4548.275;    0.000;    0.000
673.740; 4539.275;    0.000;    0.000
673.852; 4530.275;    0.000;    0.000
673.964; 4498.275;    0.000;    0.000
674.076; 4405.275;    0.000;    0.000
674.188; 4449.275;    0.000;    0.000
674.300; 4510.275;    0.000;    0.000
674.412; 4514.275;    0.000;    0.000
674.524; 4396.275;    0.000;    0.000
674.636; 4439.275;    0.000;    0.000
674.748; 4417.275;    0.000;    0.000
674.860; 4430.275;    0.000;    0.000
674.972; 4324.275;    0.000;    0.000
675.084; 4367.275;    0.000;    0.000
675.196; 4380.275;    0.000;    0.000
675.307; 4361.275;    0.000;    0.000
675.419; 4270.275;    0.000;    0.000
675.531; 4397.275;    0.000;    0.000
675.643; 4402.275;    0.000;    0.000
675.755; 4477.275;    0.000;    0.000
675.866; 4365.275;    0.000;    0.000
675.978; 4420.275;    0.000;    0.000
676.090; 4355.275;    0.000;    0.000
676.201; 4360.275;    0.000;    0.000
676.313; 4279.275;    0.000;    0.000
676.425; 4367.275;    0.000;    0.000
676.536; 4291.275;    0.000;    0.000
676.648; 4262.275;    0.000;    0.000
676.759; 4269.275;    0.000;    0.000
676.871; 4314.275;    0.000;    0.000
676.983; 4316.275;    0.000;    0.000
677.094; 4280.275;    0.000;    0.000
677.206; 4358.275;    0.000;    0.000
677.317; 4243.275;    0.000;    0.000
677.429; 4270.275;    0.000;    0.000
677.540; 4223.275;    0.000;    0.000
677.651; 4167.275;    0.000;    0.000
677.763; 4296.275;    0.000;    0.000
677.874; 4296.275;    0.000;    0.000
677.986; 4204.275;    0.000;    0.000
678.097; 4258.275;    0.000;    0.000
678.208; 4302.275;    0.000;    0.000
678.320; 4257.275;    0.000;    0.000
678.431; 4211.275;    0.000;    0.000
678.542; 4175.275;    0.000;    0.000
678.653; 4168.275;    0.000;    0.000
678.765; 4254.275;    0.000;    0.000
678.876; 4233.275;    0.000;    0.000
678.987; 4154.275;    0.000;    0.000
679.098; 4136.275;    0.000;    0.000
679.209; 4223.275;    0.000;    0.000
679.320; 4264.275;    0.000;    0.000
679.432; 4207.275;    0.000;    0.000
679.543; 4172.275;    0.000;    0.000
679.654; 4237.275;    0.000;    0.000
679.765; 4122.275;    0.000;    0.000
679.876; 4231.275;    0.000;    0.000
679.987; 4120.275;    0.000;    0.000
680.098; 4141.275;    0.000;    0.000
680.209; 4135.275;    0.000;    0.000
680.320; 4130.275;    0.000;    0.000
680.431; 4130.275;    0.000;    0.000
680.542; 4119.275;    0.000;    0.000
680.653; 4259.275;    0.000;    0.000
680.763; 4112.275;    0.000;    0.000
680.874; 4096.275;    0.000;    0.000
680.985; 4012.275;    0.000;    0.000
681.096; 4220.275;    0.000;    0.000
681.207; 4176.275;    0.000;    0.000
681.318; 4115.275;    0.000;    0.000
681.428; 4131.275;    0.000;    0.000
681.539; 4015.275;    0.000;    0.000
681.650; 4043.275;    0.000;    0.000
681.760; 4095.275;    0.000;    0.000
681.871; 4070.275;    0.000;    0.000
681.982; 4086.275;    0.000;    0.000
682.093; 4128.275;    0.000;    0.000
682.203; 4168.275;    0.000;    0.000
682.314; 4062.275;    0.000;    0.000
682.424; 4180.275;    0.000;    0.000
682.535; 4090.275;    0.000;    0.000
682.646; 4125.275;    0.000;    0.000
682.756; 4135.275;    0.000;    0.000
682.867; 4158.275;    0.000;    0.000
682.977; 4093.275;    0.000;    0.000
683.088; 4180.275;    0.000;    0.000
683.198; 4147.275;    0.000;    0.000
683.308; 4046.275;    0.000;    0.000
683.419; 4102.275;    0.000;    0.000
683.529; 4077.275;    0.000;    0.000
683.640; 4037.275;    0.000;    0.000
683.750; 4078.275;    0.000;    0.000
683.860; 4090.275;    0.000;    0.000
683.971; 4070.275;    0.000;    0.000
684.081; 4117.275;    0.000;    0.000
684.191; 4145.275;    0.000;    0.000
684.301; 4036.275;    0.000;    0.000
684.412; 4180.275;    0.000;    0.000
684.522; 3986.275;    0.000;    0.000
684.632; 4131.275;    0.000;    0.000
684.742; 4149.275;    0.000;    0.000
684.852; 3989.275;    0.000;    0.000
684.963; 4047.275;    0.000;    0.000
685.073; 4058.275;    0.000;    0.000
685.183; 4046.275;    0.000;    0.000
685.293; 4077.275;    0.000;    0.000
685.403; 4057.275;    0.000;    0.000
685.513; 4158.275;    0.000;    0.000
685.623; 4092.275;    0.000;    0.000
685.733; 4118.275;    0.000;    0.000
685.843; 4087.275;    0.000;    0.000
685.953; 4131.275;    0.000;    0.000
686.063; 4106.275;    0.000;    0.000
686.173; 4053.275;    0.000;    0.000
686.283; 4026.275;    0.000;    0.000
686.393; 4026.275;    0.000;    0.000
686.503; 4026.275;    0.000;    0.000
686.612; 4106.275;    0.000;    0.000
686.722; 4107.275;    0.000;    0.000
686.832; 4212.275;    0.000;    0.000
686.942; 4102.275;    0.000;    0.000
687.052; 4050.275;    0.000;    0.000
687.161; 4088.275;    0.000;    0.000
687.271; 4038.275;    0.000;    0.000
687.381; 4173.275;    0.000;    0.000
687.491; 4038.275;    0.000;    0.000
687.600; 3978.275;    0.000;    0.000
687.710; 4143.275;    0.000;    0.000
687.820; 4034.275;    0.000;    0.000
687.929; 4093.275;    0.000;    0.000
688.039; 3916.275;    0.000;    0.000
688.148; 3962.275;    0.000;    0.000
688.258; 3964.275;    0.000;    0.000
688.367; 3942.275;    0.000;    0.000
688.477; 3941.275;    0.000;    0.000
688.586; 4035.275;    0.000;    0.000
688.696; 4036.275;    0.000;    0.000
688.805; 4073.275;    0.000;    0.000
688.915; 4006.275;    0.000;    0.000
689.024; 3885.275;    0.000;    0.000
689.134; 4032.275;    0.000;    0.000
689.243; 4055.275;    0.000;    0.000
689.352; 4077.275;    0.000;    0.000
689.462; 4060.275;    0.000;    0.000
689.571; 3941.275;    0.000;    0.000
689.680; 3965.275;    0.000;    0.000
689.790; 3906.275;    0.000;    0.000
689.899; 4007.275;    0.000;    0.000
690.008; 4037.275;    0.000;    0.000
690.117; 3911.275;    0.000;    0.000
690.227; 4037.275;    0.000;    0.000
690.336; 3906.275;    0.000;    0.000
690.445; 3922.275;    0.000;    0.000
690.554; 3941.275;    0.000;    0.000
690.663; 3940.275;    0.000;    0.000
690.772; 4043.275;    0.000;    0.000
690.881; 4038.275;    0.000;    0.000
690.990; 3950.275;    0.000;    0.000
691.099; 3955.275;    0.000;    0.000
691.209; 4009.275;    0.000;    0.000
691.318; 4024.275;    0.000;    0.000
691.427; 4024.275;    0.000;    0.000
691.536; 4060.275;    0.000;    0.000
691.644; 3896.275;    0.000;    0.000
691.753; 3993.275;    0.000;    0.000
691.862; 3945.275;    0.000;    0.000
691.971; 3923.275;    0.000;    0.000
692.080; 3929.275;    0.000;    0.000
692.189; 3875.275;    0.000;    0.000
692.298; 4067.275;    0.000;    0.000
692.406; 3941.275;    0.000;    0.000
692.515; 4048.275;    0.000;    0.000
692.624; 3983.275;    0.000;    0.000
692.733; 3982.275;    0.000;    0.000
692.842; 3988.275;    0.000;    0.000
692.950; 3965.275;    0.000;    0.000
693.059; 4007.275;    0.000;    0.000
693.168; 3988.275;    0.000;    0.000
693.276; 3990.275;    0.000;    0.000
693.385; 3975.275;    0.000;    0.000
693.494; 3997.275;    0.000;    0.000
693.602; 3902.275;    0.000;    0.000
693.711; 3823.275;    0.000;    0.000
693.819; 3910.275;    0.000;    0.000
693.928; 3980.275;    0.000;    0.000
694.036; 3929.275;    0.000;    0.000
694.145; 4016.275;    0.000;    0.000
694.253; 3960.275;    0.000;    0.000
694.362; 3954.275;    0.000;    0.000
694.470; 3945.275;    0.000;    0.000
694.579; 3979.275;    0.000;    0.000
694.687; 4001.275;    0.000;    0.000
694.795; 4001.275;    0.000;    0.000
694.904; 3882.275;    0.000;    0.000
695.012; 4025.275;    0.000;    0.000
695.120; 3982.275;    0.000;    0.000
695.229; 4085.275;    0.000;    0.000
695.337; 3987.275;    0.000;    0.000
695.445; 3984.275;    0.000;    0.000
695.553; 3961.275;    0.000;    0.000
695.662; 3998.275;    0.000;    0.000
695.770; 3969.275;    0.000;    0.000
695.878; 4048.275;    0.000;    0.000
695.986; 4093.275;    0.000;    0.000
696.094; 3937.275;    0.000;    0.000
696.202; 4010.275;    0.000;    0.000
696.310; 4135.275;    0.000;    0.000
696.419; 3967.275;    0.000;    0.000
696.527; 3967.275;    0.000;    0.000
696.635; 3993.275;    0.000;    0.000
696.743; 4046.275;    0.000;    0.000
696.851; 4052.275;    0.000;    0.000
696.959; 3946.275;    0.000;    0.000
697.067; 3914.275;    0.000;    0.000
697.174; 3941.275;    0.000;    0.000
697.282; 4104.275;    0.000;    0.000
697.390; 4037.275;    0.000;    0.000
697.498; 3966.275;    0.000;    0.000
697.606; 3922.275;    0.000;    0.000
697.714; 3887.275;    0.000;    0.000
697.822; 3883.275;    0.000;    0.000
697.929; 3989.275;    0.000;    0.000
698.037; 3912.275;    0.000;    0.000
698.145; 3912.275;    0.000;    0.000
698.253; 3884.275;    0.000;    0.000
698.360; 4014.275;    0.000;    0.000
698.468; 3933.275;    0.000;    0.000
698.576; 4063.275;    0.000;    0.000
698.683; 3999.275;    0.000;    0.000
698.791; 4039.275;    0.000;    0.000
698.899; 4008.275;    0.000;    0.000
699.006; 4003.275;    0.000;    0.000
699.114; 3936.275;    0.000;    0.000
699.221; 4046.275;    0.000;    0.000
699.329; 4054.275;    0.000;    0.000
699.436; 3957.275;    0.000;    0.000
699.544; 4056.275;    0.000;    0.000
699.651; 3959.275;    0.000;    0.000
699.759; 4090.275;    0.000;    0.000
699.866; 4082.275;    0.000;    0.000
699.974; 3983.275;    0.000;    0.000
700.081; 4011.275;    0.000;    0.000
700.188; 4120.275;    0.000;    0.000
700.296; 3846.275;    0.000;    0.000
700.403; 4014.275;    0.000;    0.000
700.510; 3918.275;    0.000;    0.000
700.618; 4052.275;    0.000;    0.000
700.725; 3987.275;    0.000;    0.000
700.832; 3932.275;    0.000;    0.000
700.940; 3950.275;    0.000;    0.000
701.047; 3860.275;    0.000;    0.000
701.154; 3807.275;    0.000;    0.000
701.261; 3854.275;    0.000;    0.000
701.368; 4061.275;    0.000;    0.000
701.475; 3878.275;    0.000;    0.000
701.582; 3987.275;    0.000;    0.000
701.690; 3984.275;    0.000;    0.000
701.797; 3924.275;    0.000;    0.000
701.904; 4047.275;    0.000;    0.000
702.011; 4040.275;    0.000;    0.000
702.118; 4154.275;    0.000;    0.000
702.225; 3999.275;    0.000;    0.000
702.332; 4025.275;    0.000;    0.000
702.439; 4000.275;    0.000;    0.000
702.546; 3955.275;    0.000;    0.000
702.652; 3916.275;    0.000;    0.000
702.759; 4020.275;    0.000;    0.000
702.866; 3919.275;    0.000;    0.000
702.973; 3995.275;    0.000;    0.000
703.080; 3936.275;    0.000;    0.000
703.187; 4007.275;    0.000;    0.000
703.294; 4011.275;    0.000;    0.000
703.400; 3710.275;    0.000;    0.000
703.507;  686.275;    0.000;    0.000
703.614;  325.275;    0.000;    0.000
703.720;  312.275;    0.000;    0.000
703.827;  364.275;    0.000;    0.000
703.934;  336.275;    0.000;    0.000
704.040;  288.275;    0.000;    0.000
704.147;  351.275;    0.000;    0.000
704.254;  341.275;    0.000;    0.000
704.360;  273.275;    0.000;    0.000
704.467;  343.275;    0.000;    0.000
704.573;  321.275;    0.000;    0.000
704.680;  332.275;    0.000;    0.000
704.786;  315.275;    0.000;    0.000
704.893;  329.275;    0.000;    0.000
704.999;  296.275;    0.000;    0.000
705.106;  325.275;    0.000;    0.000

