
Integration time [ms]:   1.000
Averaging Nr. [scans]: 1
Smoothing Nr. [pixels]: 0
Data measured with spectrometer [name]: NIR
Wave   ;Sample   ;Dark     ;Reference
[nm]   ;[counts] ;[counts] ;[counts] 

691.496;  110.825;    0.000;    0.000
691.696;  111.825;    0.000;    0.000
691.896;   78.825;    0.000;    0.000
692.096;  101.825;    0.000;    0.000
692.296;   51.825;    0.000;    0.000
692.496;   86.825;    0.000;    0.000
692.695;   72.825;    0.000;    0.000
692.895;  122.825;    0.000;    0.000
693.095;  107.825;    0.000;    0.000
693.295;  102.825;    0.000;    0.000
693.495;  138.825;    0.000;    0.000
693.695;   87.825;    0.000;    0.000
693.894;   90.825;    0.000;    0.000
694.094;   74.825;    0.000;    0.000
694.294;  106.825;    0.000;    0.000
694.494;  322.825;    0.000;    0.000
694.693; 2360.825;    0.000;    0.000
694.893; 2570.825;    0.000;    0.000
695.093; 2616.825;    0.000;    0.000
695.293; 2670.825;    0.000;    0.000
695.492; 2590.825;    0.000;    0.000
695.692; 2601.825;    0.000;    0.000
695.891; 2616.825;    0.000;    0.000
696.091; 2691.825;    0.000;    0.000
696.291; 2594.825;    0.000;    0.000
696.490; 2570.825;    0.000;    0.000
696.690; 2785.825;    0.000;    0.000
696.889; 2641.825;    0.000;    0.000
697.089; 2684.825;    0.000;    0.000
697.288; 2748.825;    0.000;    0.000
697.488; 2764.825;    0.000;    0.000
697.687; 2695.825;    0.000;    0.000
697.887; 2725.825;    0.000;    0.000
698.086; 2705.825;    0.000;    0.000
698.286; 2729.825;    0.000;    0.000
698.485; 2649.825;    0.000;    0.000
698.684; 2832.825;    0.000;    0.000
698.884; 2721.825;    0.000;    0.000
699.083; 2827.825;    0.000;    0.000
699.282; 2785.825;    0.000;    0.000
699.482; 2715.825;    0.000;    0.000
699.681; 2799.825;    0.000;    0.000
699.880; 2829.825;    0.000;    0.000
700.080; 2744.825;    0.000;    0.000
700.279; 2835.825;    0.000;    0.000
700.478; 2788.825;    0.000;    0.000
700.677; 2794.825;    0.000;    0.000
700.877; 2903.825;    0.000;    0.000
701.076; 2819.825;    0.000;    0.000
701.275; 2790.825;    0.000;    0.000
701.474; 2823.825;    0.000;    0.000
701.673; 2880.825;    0.000;    0.000
701.872; 2864.825;    0.000;    0.000
702.071; 2866.825;    0.000;    0.000
702.271; 2788.825;    0.000;    0.000
702.470; 2892.825;    0.000;    0.000
702.669; 2895.825;    0.000;    0.000
702.868; 2937.825;    0.000;    0.000
703.067; 2900.825;    0.000;    0.000
703.266; 2929.825;    0.000;    0.000
703.465; 2887.825;    0.000;    0.000
703.664; 2880.825;    0.000;    0.000
703.863; 2979.825;    0.000;    0.000
704.062; 2909.825;    0.000;    0.000
704.260; 2945.825;    0.000;    0.000
704.459; 3006.825;    0.000;    0.000
704.658; 2889.825;    0.000;    0.000
704.857; 2892.825;    0.000;    0.000
705.056; 2947.825;    0.000;    0.000
705.255; 2961.825;    0.000;    0.000
705.454; 2954.825;    0.000;    0.000
705.652; 3025.825;    0.000;    0.000
705.851; 2941.825;    0.000;    0.000
706.050; 3066.825;    0.000;    0.000
706.249; 2943.825;    0.000;    0.000
706.447; 3012.825;    0.000;    0.000
706.646; 3013.825;    0.000;    0.000
706.845; 3053.825;    0.000;    0.000
707.043; 3008.825;    0.000;    0.000
707.242; 3048.825;    0.000;    0.000
707.441; 3101.825;    0.000;    0.000
707.639; 3007.825;    0.000;    0.000
707.838; 3067.825;    0.000;    0.000
708.037; 3121.825;    0.000;    0.000
708.235; 3075.825;    0.000;    0.000
708.434; 3107.825;    0.000;    0.000
708.632; 3092.825;    0.000;    0.000
708.831; 3092.825;    0.000;    0.000
709.029; 3121.825;    0.000;    0.000
709.228; 3116.825;    0.000;    0.000
709.426; 3124.825;    0.000;    0.000
709.625; 3149.825;    0.000;    0.000
709.823; 3147.825;    0.000;    0.000
710.022; 3259.825;    0.000;    0.000
710.220; 3053.825;    0.000;    0.000
710.418; 3217.825;    0.000;    0.000
710.617; 3183.825;    0.000;    0.000
710.815; 3176.825;    0.000;    0.000
711.013; 3146.825;    0.000;    0.000
711.212; 3235.825;    0.000;    0.000
711.410; 3225.825;    0.000;    0.000
711.608; 3248.825;    0.000;    0.000
711.807; 3241.825;    0.000;    0.000
712.005; 3254.825;    0.000;    0.000
712.203; 3254.825;    0.000;    0.000
712.401; 3241.825;    0.000;    0.000
712.599; 3297.825;    0.000;    0.000
712.798; 3265.825;    0.000;    0.000
712.996; 3296.825;    0.000;    0.000
713.194; 3330.825;    0.000;    0.000
713.392; 3419.825;    0.000;    0.000
713.590; 3385.825;    0.000;    0.000
713.788; 3405.825;    0.000;    0.000
713.986; 3401.825;    0.000;    0.000
714.184; 3474.825;    0.000;    0.000
714.382; 3514.825;    0.000;    0.000
714.580; 3525.825;    0.000;    0.000
714.778; 3591.825;    0.000;    0.000
714.976; 3649.825;    0.000;    0.000
715.174; 3492.825;    0.000;    0.000
715.372; 3762.825;    0.000;    0.000
715.570; 3893.825;    0.000;    0.000
715.768; 4124.825;    0.000;    0.000
715.966; 4083.825;    0.000;    0.000
716.164; 4159.825;    0.000;    0.000
716.362; 4134.825;    0.000;    0.000
716.560; 3919.825;    0.000;    0.000
716.758; 3957.825;    0.000;    0.000
716.955; 3930.825;    0.000;    0.000
717.153; 3894.825;    0.000;    0.000
717.351; 3872.825;    0.000;    0.000
717.549; 3770.825;    0.000;    0.000
717.746; 3827.825;    0.000;    0.000
717.944; 3748.825;    0.000;    0.000
718.142; 3758.825;    0.000;    0.000
718.340; 3779.825;    0.000;    0.000
718.537; 3682.825;    0.000;    0.000
718.735; 3834.825;    0.000;    0.000
718.933; 3757.825;    0.000;    0.000
719.130; 3816.825;    0.000;    0.000
719.328; 3766.825;    0.000;    0.000
719.525; 3760.825;    0.000;    0.000
719.723; 3720.825;    0.000;    0.000
719.920; 3641.825;    0.000;    0.000
720.118; 3717.825;    0.000;    0.000
720.316; 3764.825;    0.000;    0.000
720.513; 3635.825;    0.000;    0.000
720.711; 3763.825;    0.000;    0.000
720.908; 3757.825;    0.000;    0.000
721.105; 3863.825;    0.000;    0.000
721.303; 3581.825;    0.000;    0.000
721.500; 3712.825;    0.000;    0.000
721.698; 3804.825;    0.000;    0.000
721.895; 3873.825;    0.000;    0.000
722.092; 3788.825;    0.000;    0.000
722.290; 3853.825;    0.000;    0.000
722.487; 3757.825;    0.000;    0.000
722.684; 3733.825;    0.000;    0.000
722.882; 3799.825;    0.000;    0.000
723.079; 3817.825;    0.000;    0.000
723.276; 3755.825;    0.000;    0.000
723.473; 3727.825;    0.000;    0.000
723.671; 3773.825;    0.000;    0.000
723.868; 3836.825;    0.000;    0.000
724.065; 3885.825;    0.000;    0.000
724.262; 3826.825;    0.000;    0.000
724.459; 3820.825;    0.000;    0.000
724.656; 3869.825;    0.000;    0.000
724.854; 3811.825;    0.000;    0.000
725.051; 3775.825;    0.000;    0.000
725.248; 3908.825;    0.000;    0.000
725.445; 3917.825;    0.000;    0.000
725.642; 3859.825;    0.000;    0.000
725.839; 3860.825;    0.000;    0.000
726.036; 3886.825;    0.000;    0.000
726.233; 3909.825;    0.000;    0.000
726.430; 4057.825;    0.000;    0.000
726.627; 4008.825;    0.000;    0.000
726.824; 3945.825;    0.000;    0.000
727.021; 3932.825;    0.000;    0.000
727.218; 3911.825;    0.000;    0.000
727.414; 3949.825;    0.000;    0.000
727.611; 3991.825;    0.000;    0.000
727.808; 4049.825;    0.000;    0.000
728.005; 3961.825;    0.000;    0.000
728.202; 3986.825;    0.000;    0.000
728.399; 3975.825;    0.000;    0.000
728.595; 3986.825;    0.000;    0.000
728.792; 3969.825;    0.000;    0.000
728.989; 4089.825;    0.000;    0.000
729.186; 3952.825;    0.000;    0.000
729.382; 4086.825;    0.000;    0.000
729.579; 4136.825;    0.000;    0.000
729.776; 4083.825;    0.000;    0.000
729.972; 4105.825;    0.000;    0.000
730.169; 4181.825;    0.000;    0.000
730.366; 4066.825;    0.000;    0.000
730.562; 4175.825;    0.000;    0.000
730.759; 4000.825;    0.000;    0.000
730.955; 4139.825;    0.000;    0.000
731.152; 3961.825;    0.000;    0.000
731.348; 4028.825;    0.000;    0.000
731.545; 4090.825;    0.000;    0.000
731.741; 4053.825;    0.000;    0.000
731.938; 4154.825;    0.000;    0.000
732.134; 4175.825;    0.000;    0.000
732.331; 4177.825;    0.000;    0.000
732.527; 4284.825;    0.000;    0.000
732.724; 4223.825;    0.000;    0.000
732.920; 4130.825;    0.000;    0.000
733.116; 4290.825;    0.000;    0.000
733.313; 4291.825;    0.000;    0.000
733.509; 4339.825;    0.000;    0.000
733.705; 4262.825;    0.000;    0.000
733.902; 4200.825;    0.000;    0.000
734.098; 4318.825;    0.000;    0.000
734.294; 4306.825;    0.000;    0.000
734.490; 4324.825;    0.000;    0.000
734.687; 4312.825;    0.000;    0.000
734.883; 4291.825;    0.000;    0.000
735.079; 4336.825;    0.000;    0.000
735.275; 4332.825;    0.000;    0.000
735.471; 4311.825;    0.000;    0.000
735.667; 4445.825;    0.000;    0.000
735.863; 4360.825;    0.000;    0.000
736.060; 4353.825;    0.000;    0.000
736.256; 4351.825;    0.000;    0.000
736.452; 4456.825;    0.000;    0.000
736.648; 4397.825;    0.000;    0.000
736.844; 4495.825;    0.000;    0.000
737.040; 4449.825;    0.000;    0.000
737.236; 4446.825;    0.000;    0.000
737.432; 4511.825;    0.000;    0.000
737.628; 4657.825;    0.000;    0.000
737.824; 4472.825;    0.000;    0.000
738.019; 4485.825;    0.000;    0.000
738.215; 4546.825;    0.000;    0.000
738.411; 4568.825;    0.000;    0.000
738.607; 4525.825;    0.000;    0.000
738.803; 4629.825;    0.000;    0.000
738.999; 4515.825;    0.000;    0.000
739.195; 4624.825;    0.000;    0.000
739.390; 4665.825;    0.000;    0.000
739.586; 4681.825;    0.000;    0.000
739.782; 4701.825;    0.000;    0.000
739.978; 4748.825;    0.000;    0.000
740.173; 4861.825;    0.000;    0.000
740.369; 4751.825;    0.000;    0.000
740.565; 4919.825;    0.000;    0.000
740.760; 4841.825;    0.000;    0.000
740.956; 4933.825;    0.000;    0.000
741.152; 5037.825;    0.000;    0.000
741.347; 4996.825;    0.000;    0.000
741.543; 5146.825;    0.000;    0.000
741.738; 5177.825;    0.000;    0.000
741.934; 5417.825;    0.000;    0.000
742.129; 5715.825;    0.000;    0.000
742.325; 6403.825;    0.000;    0.000
742.520; 6614.825;    0.000;    0.000
742.716; 6461.825;    0.000;    0.000
742.911; 6101.825;    0.000;    0.000
743.107; 6130.825;    0.000;    0.000
743.302; 6030.825;    0.000;    0.000
743.498; 6076.825;    0.000;    0.000
743.693; 6121.825;    0.000;    0.000
743.888; 6531.825;    0.000;    0.000
744.084; 7568.825;    0.000;    0.000
744.279; 8752.825;    0.000;    0.000
744.474; 8745.825;    0.000;    0.000
744.670; 8015.825;    0.000;    0.000
744.865; 7546.825;    0.000;    0.000
745.060; 7189.825;    0.000;    0.000
745.255; 6907.825;    0.000;    0.000
745.451; 6703.825;    0.000;    0.000
745.646; 6808.825;    0.000;    0.000
745.841; 6678.825;    0.000;    0.000
746.036; 6701.825;    0.000;    0.000
746.231; 6976.825;    0.000;    0.000
746.426; 7204.825;    0.000;    0.000
746.622; 8611.825;    0.000;    0.000
746.817;10646.825;    0.000;    0.000
747.012;11443.825;    0.000;    0.000
747.207;10455.825;    0.000;    0.000
747.402; 9449.825;    0.000;    0.000
747.597; 8694.825;    0.000;    0.000
747.792; 8408.825;    0.000;    0.000
747.987; 8042.825;    0.000;    0.000
748.182; 7744.825;    0.000;    0.000
748.377; 7433.825;    0.000;    0.000
748.572; 7376.825;    0.000;    0.000
748.767; 7055.825;    0.000;    0.000
748.961; 6758.825;    0.000;    0.000
749.156; 6751.825;    0.000;    0.000
749.351; 6577.825;    0.000;    0.000
749.546; 6385.825;    0.000;    0.000
749.741; 6268.825;    0.000;    0.000
749.936; 6296.825;    0.000;    0.000
750.130; 6160.825;    0.000;    0.000
750.325; 6055.825;    0.000;    0.000
750.520; 6161.825;    0.000;    0.000
750.715; 6207.825;    0.000;    0.000
750.909; 5963.825;    0.000;    0.000
751.104; 5911.825;    0.000;    0.000
751.299; 5994.825;    0.000;    0.000
751.493; 5993.825;    0.000;    0.000
751.688; 5962.825;    0.000;    0.000
751.882; 5716.825;    0.000;    0.000
752.077; 5830.825;    0.000;    0.000
752.272; 5714.825;    0.000;    0.000
752.466; 5871.825;    0.000;    0.000
752.661; 5804.825;    0.000;    0.000
752.855; 5755.825;    0.000;    0.000
753.050; 5698.825;    0.000;    0.000
753.244; 5678.825;    0.000;    0.000
753.439; 5662.825;    0.000;    0.000
753.633; 5599.825;    0.000;    0.000
753.828; 5702.825;    0.000;    0.000
754.022; 5578.825;    0.000;    0.000
754.216; 5592.825;    0.000;    0.000
754.411; 5668.825;    0.000;    0.000
754.605; 5654.825;    0.000;    0.000
754.799; 5532.825;    0.000;    0.000
754.994; 5558.825;    0.000;    0.000
755.188; 5661.825;    0.000;    0.000
755.382; 5567.825;    0.000;    0.000
755.576; 5552.825;    0.000;    0.000
755.771; 5507.825;    0.000;    0.000
755.965; 5652.825;    0.000;    0.000
756.159; 5563.825;    0.000;    0.000
756.353; 5538.825;    0.000;    0.000
756.547; 5557.825;    0.000;    0.000
756.742; 5586.825;    0.000;    0.000
756.936; 5463.825;    0.000;    0.000
757.130; 5576.825;    0.000;    0.000
757.324; 5508.825;    0.000;    0.000
757.518; 5547.825;    0.000;    0.000
757.712; 5596.825;    0.000;    0.000
757.906; 5636.825;    0.000;    0.000
758.100; 5649.825;    0.000;    0.000
758.294; 5645.825;    0.000;    0.000
758.488; 5598.825;    0.000;    0.000
758.682; 5747.825;    0.000;    0.000
758.876; 5565.825;    0.000;    0.000
759.070; 5589.825;    0.000;    0.000
759.264; 5743.825;    0.000;    0.000
759.458; 5614.825;    0.000;    0.000
759.651; 5634.825;    0.000;    0.000
759.845; 5587.825;    0.000;    0.000
760.039; 5727.825;    0.000;    0.000
760.233; 5658.825;    0.000;    0.000
760.427; 5706.825;    0.000;    0.000
760.620; 5700.825;    0.000;    0.000
760.814; 5572.825;    0.000;    0.000
761.008; 5640.825;    0.000;    0.000
761.202; 5672.825;    0.000;    0.000
761.395; 5668.825;    0.000;    0.000
761.589; 5679.825;    0.000;    0.000
761.783; 5785.825;    0.000;    0.000
761.976; 5673.825;    0.000;    0.000
762.170; 5813.825;    0.000;    0.000
762.363; 5739.825;    0.000;    0.000
762.557; 5796.825;    0.000;    0.000
762.750; 5839.825;    0.000;    0.000
762.944; 5791.825;    0.000;    0.000
763.138; 5857.825;    0.000;    0.000
763.331; 5782.825;    0.000;    0.000
763.524; 5793.825;    0.000;    0.000
763.718; 6046.825;    0.000;    0.000
763.911; 5982.825;    0.000;    0.000
764.105; 5929.825;    0.000;    0.000
764.298; 5984.825;    0.000;    0.000
764.492; 6081.825;    0.000;    0.000
764.685; 5960.825;    0.000;    0.000
764.878; 6018.825;    0.000;    0.000
765.072; 6023.825;    0.000;    0.000
765.265; 5947.825;    0.000;    0.000
765.458; 6069.825;    0.000;    0.000
765.651; 6197.825;    0.000;    0.000
765.845; 6334.825;    0.000;    0.000
766.038; 6732.825;    0.000;    0.000
766.231; 9748.825;    0.000;    0.000
766.424;14803.825;    0.000;    0.000
766.617;13323.825;    0.000;    0.000
766.811; 8132.825;    0.000;    0.000
767.004; 6851.825;    0.000;    0.000
767.197; 6349.825;    0.000;    0.000
767.390; 6344.825;    0.000;    0.000
767.583; 6140.825;    0.000;    0.000
767.776; 6259.825;    0.000;    0.000
767.969; 6214.825;    0.000;    0.000
768.162; 6281.825;    0.000;    0.000
768.355; 6385.825;    0.000;    0.000
768.548; 6411.825;    0.000;    0.000
768.741; 6430.825;    0.000;    0.000
768.934; 6372.825;    0.000;    0.000
769.127; 6519.825;    0.000;    0.000
769.320; 6475.825;    0.000;    0.000
769.513; 7246.825;    0.000;    0.000
769.706;10250.825;    0.000;    0.000
769.898;12899.825;    0.000;    0.000
770.091;10252.825;    0.000;    0.000
770.284; 7116.825;    0.000;    0.000
770.477; 6900.825;    0.000;    0.000
770.670; 6724.825;    0.000;    0.000
770.862; 6806.825;    0.000;    0.000
771.055; 6717.825;    0.000;    0.000
771.248; 6637.825;    0.000;    0.000
771.441; 6939.825;    0.000;    0.000
771.633; 6897.825;    0.000;    0.000
771.826; 7098.825;    0.000;    0.000
772.018; 7035.825;    0.000;    0.000
772.211; 7043.825;    0.000;    0.000
772.404; 7192.825;    0.000;    0.000
772.596; 7287.825;    0.000;    0.000
772.789; 7284.825;    0.000;    0.000
772.981; 7286.825;    0.000;    0.000
773.174; 7348.825;    0.000;    0.000
773.366; 7641.825;    0.000;    0.000
773.559; 7700.825;    0.000;    0.000
773.751; 7791.825;    0.000;    0.000
773.944; 7868.825;    0.000;    0.000
774.136; 8105.825;    0.000;    0.000
774.329; 8319.825;    0.000;    0.000
774.521; 8563.825;    0.000;    0.000
774.713; 8890.825;    0.000;    0.000
774.906; 9029.825;    0.000;    0.000
775.098; 9267.825;    0.000;    0.000
775.290;10004.825;    0.000;    0.000
775.483;10284.825;    0.000;    0.000
775.675;10788.825;    0.000;    0.000
775.867;11677.825;    0.000;    0.000
776.059;12674.825;    0.000;    0.000
776.251;14153.825;    0.000;    0.000
776.444;15975.825;    0.000;    0.000
776.636;18839.824;    0.000;    0.000
776.828;23893.824;    0.000;    0.000
777.020;34386.824;    0.000;    0.000
777.212;45867.824;    0.000;    0.000
777.404;50090.824;    0.000;    0.000
777.596;44156.824;    0.000;    0.000
777.788;33995.824;    0.000;    0.000
777.980;26366.824;    0.000;    0.000
778.172;21928.824;    0.000;    0.000
778.364;18800.824;    0.000;    0.000
778.556;16749.824;    0.000;    0.000
778.748;15142.825;    0.000;    0.000
778.940;13778.825;    0.000;    0.000
779.132;12799.825;    0.000;    0.000
779.324;11913.825;    0.000;    0.000
779.516;11343.825;    0.000;    0.000
779.708;10664.825;    0.000;    0.000
779.900;10230.825;    0.000;    0.000
780.091; 9888.825;    0.000;    0.000
780.283; 9391.825;    0.000;    0.000
780.475; 9176.825;    0.000;    0.000
780.667; 8883.825;    0.000;    0.000
780.859; 8592.825;    0.000;    0.000
781.050; 8389.825;    0.000;    0.000
781.242; 8004.825;    0.000;    0.000
781.434; 8049.825;    0.000;    0.000
781.625; 7802.825;    0.000;    0.000
781.817; 7727.825;    0.000;    0.000
782.008; 7605.825;    0.000;    0.000
782.200; 7557.825;    0.000;    0.000
782.392; 7237.825;    0.000;    0.000
782.583; 7222.825;    0.000;    0.000
782.775; 7166.825;    0.000;    0.000
782.966; 7067.825;    0.000;    0.000
783.158; 7039.825;    0.000;    0.000
783.349; 6835.825;    0.000;    0.000
783.541; 6922.825;    0.000;    0.000
783.732; 6864.825;    0.000;    0.000
783.924; 6734.825;    0.000;    0.000
784.115; 6730.825;    0.000;    0.000
784.306; 6654.825;    0.000;    0.000
784.498; 6686.825;    0.000;    0.000
784.689; 6715.825;    0.000;    0.000
784.880; 6390.825;    0.000;    0.000
785.072; 6618.825;    0.000;    0.000
785.263; 6484.825;    0.000;    0.000
785.454; 6470.825;    0.000;    0.000
785.645; 6440.825;    0.000;    0.000
785.837; 6346.825;    0.000;    0.000
786.028; 6386.825;    0.000;    0.000
786.219; 6369.825;    0.000;    0.000
786.410; 6462.825;    0.000;    0.000
786.601; 6355.825;    0.000;    0.000
786.792; 6302.825;    0.000;    0.000
786.984; 6350.825;    0.000;    0.000
787.175; 6159.825;    0.000;    0.000
787.366; 6408.825;    0.000;    0.000
787.557; 6292.825;    0.000;    0.000
787.748; 6276.825;    0.000;    0.000
787.939; 6354.825;    0.000;    0.000
788.130; 6364.825;    0.000;    0.000
788.321; 6305.825;    0.000;    0.000
788.512; 6403.825;    0.000;    0.000
788.703; 6393.825;    0.000;    0.000
788.894; 6432.825;    0.000;    0.000
789.084; 6225.825;    0.000;    0.000
789.275; 6537.825;    0.000;    0.000
789.466; 6594.825;    0.000;    0.000
789.657; 6461.825;    0.000;    0.000
789.848; 6639.825;    0.000;    0.000
790.039; 6455.825;    0.000;    0.000
790.229; 6577.825;    0.000;    0.000
790.420; 6548.825;    0.000;    0.000
790.611; 6545.825;    0.000;    0.000
790.801; 6436.825;    0.000;    0.000
790.992; 6590.825;    0.000;    0.000
791.183; 6489.825;    0.000;    0.000
791.373; 6441.825;    0.000;    0.000
791.564; 6403.825;    0.000;    0.000
791.755; 6411.825;    0.000;    0.000
791.945; 6374.825;    0.000;    0.000
792.136; 6495.825;    0.000;    0.000
792.326; 6453.825;    0.000;    0.000
792.517; 6556.825;    0.000;    0.000
792.707; 6592.825;    0.000;    0.000
792.898; 6608.825;    0.000;    0.000
793.088; 6532.825;    0.000;    0.000
793.279; 6691.825;    0.000;    0.000
793.469; 6657.825;    0.000;    0.000
793.660; 7055.825;    0.000;    0.000
793.850; 7093.825;    0.000;    0.000
794.040; 7339.825;    0.000;    0.000
794.231; 7688.825;    0.000;    0.000
794.421; 8293.825;    0.000;    0.000
794.611; 9182.825;    0.000;    0.000
794.802;10127.825;    0.000;    0.000
794.992;10872.825;    0.000;    0.000
795.182;10947.825;    0.000;    0.000
795.372;10149.825;    0.000;    0.000
795.563; 9316.825;    0.000;    0.000
795.753; 8500.825;    0.000;    0.000
795.943; 8095.825;    0.000;    0.000
796.133; 7782.825;    0.000;    0.000
796.323; 7413.825;    0.000;    0.000
796.513; 7219.825;    0.000;    0.000
796.703; 7091.825;    0.000;    0.000
796.893; 6902.825;    0.000;    0.000
797.083; 6748.825;    0.000;    0.000
797.273; 6693.825;    0.000;    0.000
797.463; 6650.825;    0.000;    0.000
797.653; 6524.825;    0.000;    0.000
797.843; 6462.825;    0.000;    0.000
798.033; 6359.825;    0.000;    0.000
798.223; 6215.825;    0.000;    0.000
798.413; 6142.825;    0.000;    0.000
798.603; 6025.825;    0.000;    0.000
798.793; 6016.825;    0.000;    0.000
798.983; 5878.825;    0.000;    0.000
799.172; 5920.825;    0.000;    0.000
799.362; 5836.825;    0.000;    0.000
799.552; 5707.825;    0.000;    0.000
799.742; 5797.825;    0.000;    0.000
799.932; 5742.825;    0.000;    0.000
800.121; 5783.825;    0.000;    0.000
800.311; 5595.825;    0.000;    0.000
800.501; 5524.825;    0.000;    0.000
800.690; 5697.825;    0.000;    0.000
800.880; 5620.825;    0.000;    0.000
801.070; 5538.825;    0.000;    0.000
801.259; 5526.825;    0.000;    0.000
801.449; 5559.825;    0.000;    0.000
801.638; 5569.825;    0.000;    0.000
801.828; 5513.825;    0.000;    0.000
802.017; 5426.825;    0.000;    0.000
802.207; 5392.825;    0.000;    0.000
802.396; 5386.825;    0.000;    0.000
802.586; 5433.825;    0.000;    0.000
802.775; 5475.825;    0.000;    0.000
802.965; 5394.825;    0.000;    0.000
803.154; 5337.825;    0.000;    0.000
803.343; 5260.825;    0.000;    0.000
803.533; 5349.825;    0.000;    0.000
803.722; 5296.825;    0.000;    0.000
803.911; 5392.825;    0.000;    0.000
804.101; 5191.825;    0.000;    0.000
804.290; 5229.825;    0.000;    0.000
804.479; 5383.825;    0.000;    0.000
804.668; 5347.825;    0.000;    0.000
804.857; 5235.825;    0.000;    0.000
805.047; 5142.825;    0.000;    0.000
805.236; 5319.825;    0.000;    0.000
805.425; 5274.825;    0.000;    0.000
805.614; 5158.825;    0.000;    0.000
805.803; 5158.825;    0.000;    0.000
805.992; 5366.825;    0.000;    0.000
806.181; 5244.825;    0.000;    0.000
806.370; 5212.825;    0.000;    0.000
806.559; 5254.825;    0.000;    0.000
806.748; 5286.825;    0.000;    0.000
806.937; 5194.825;    0.000;    0.000
807.126; 5253.825;    0.000;    0.000
807.315; 5145.825;    0.000;    0.000
807.504; 5230.825;    0.000;    0.000
807.693; 5270.825;    0.000;    0.000
807.882; 5272.825;    0.000;    0.000
808.071; 5313.825;    0.000;    0.000
808.260; 5259.825;    0.000;    0.000
808.448; 5204.825;    0.000;    0.000
808.637; 5262.825;    0.000;    0.000
808.826; 5157.825;    0.000;    0.000
809.015; 5179.825;    0.000;    0.000
809.203; 5316.825;    0.000;    0.000
809.392; 5229.825;    0.000;    0.000
809.581; 5228.825;    0.000;    0.000
809.770; 5265.825;    0.000;    0.000
809.958; 5352.825;    0.000;    0.000
810.147; 5285.825;    0.000;    0.000
810.335; 5307.825;    0.000;    0.000
810.524; 5427.825;    0.000;    0.000
810.713; 5361.825;    0.000;    0.000
810.901; 5355.825;    0.000;    0.000
811.090; 5495.825;    0.000;    0.000
811.278; 5586.825;    0.000;    0.000
811.467; 5550.825;    0.000;    0.000
811.655; 5741.825;    0.000;    0.000
811.844; 5638.825;    0.000;    0.000
812.032; 5680.825;    0.000;    0.000
812.220; 5726.825;    0.000;    0.000
812.409; 5624.825;    0.000;    0.000
812.597; 5617.825;    0.000;    0.000
812.785; 5826.825;    0.000;    0.000
812.974; 5599.825;    0.000;    0.000
813.162; 5682.825;    0.000;    0.000
813.350; 5819.825;    0.000;    0.000
813.539; 5689.825;    0.000;    0.000
813.727; 5874.825;    0.000;    0.000
813.915; 5764.825;    0.000;    0.000
814.103; 5888.825;    0.000;    0.000
814.291; 5784.825;    0.000;    0.000
814.479; 5867.825;    0.000;    0.000
814.668; 5962.825;    0.000;    0.000
814.856; 6205.825;    0.000;    0.000
815.044; 6201.825;    0.000;    0.000
815.232; 6301.825;    0.000;    0.000
815.420; 6398.825;    0.000;    0.000
815.608; 6424.825;    0.000;    0.000
815.796; 6527.825;    0.000;    0.000
815.984; 6833.825;    0.000;    0.000
816.172; 6823.825;    0.000;    0.000
816.360; 7078.825;    0.000;    0.000
816.548; 7267.825;    0.000;    0.000
816.736; 7628.825;    0.000;    0.000
816.924; 7877.825;    0.000;    0.000
817.111; 8278.825;    0.000;    0.000
817.299; 8726.825;    0.000;    0.000
817.487; 9436.825;    0.000;    0.000
817.675;10443.825;    0.000;    0.000
817.863;12233.825;    0.000;    0.000
818.050;17278.824;    0.000;    0.000
818.238;28128.824;    0.000;    0.000
818.426;31987.824;    0.000;    0.000
818.613;25850.824;    0.000;    0.000
818.801;22511.824;    0.000;    0.000
818.989;22016.824;    0.000;    0.000
819.176;24919.824;    0.000;    0.000
819.364;35826.824;    0.000;    0.000
819.552;39722.824;    0.000;    0.000
819.739;31276.824;    0.000;    0.000
819.927;24215.824;    0.000;    0.000
820.114;20786.824;    0.000;    0.000
820.302;18590.824;    0.000;    0.000
820.489;17000.824;    0.000;    0.000
820.677;16015.825;    0.000;    0.000
820.864;15626.825;    0.000;    0.000
821.052;15794.825;    0.000;    0.000
821.239;16212.825;    0.000;    0.000
821.426;17699.824;    0.000;    0.000
821.614;19980.824;    0.000;    0.000
821.801;20288.824;    0.000;    0.000
821.988;18266.824;    0.000;    0.000
822.176;17999.824;    0.000;    0.000
822.363;17622.824;    0.000;    0.000
822.550;16227.825;    0.000;    0.000
822.737;14645.825;    0.000;    0.000
822.924;13690.825;    0.000;    0.000
823.112;12862.825;    0.000;    0.000
823.299;12248.825;    0.000;    0.000
823.486;11724.825;    0.000;    0.000
823.673;10915.825;    0.000;    0.000
823.860;10798.825;    0.000;    0.000
824.047;11252.825;    0.000;    0.000
824.234;12141.825;    0.000;    0.000
824.421;11875.825;    0.000;    0.000
824.608;10926.825;    0.000;    0.000
824.795; 9820.825;    0.000;    0.000
824.982; 9277.825;    0.000;    0.000
825.169; 8695.825;    0.000;    0.000
825.356; 8350.825;    0.000;    0.000
825.543; 8048.825;    0.000;    0.000
825.730; 7859.825;    0.000;    0.000
825.917; 7345.825;    0.000;    0.000
826.104; 7264.825;    0.000;    0.000
826.290; 7078.825;    0.000;    0.000
826.477; 6867.825;    0.000;    0.000
826.664; 6724.825;    0.000;    0.000
826.851; 6507.825;    0.000;    0.000
827.038; 6425.825;    0.000;    0.000
827.224; 6288.825;    0.000;    0.000
827.411; 6196.825;    0.000;    0.000
827.598; 6023.825;    0.000;    0.000
827.784; 5872.825;    0.000;    0.000
827.971; 5799.825;    0.000;    0.000
828.157; 5661.825;    0.000;    0.000
828.344; 5671.825;    0.000;    0.000
828.531; 5664.825;    0.000;    0.000
828.717; 5499.825;    0.000;    0.000
828.904; 5492.825;    0.000;    0.000
829.090; 5483.825;    0.000;    0.000
829.277; 5380.825;    0.000;    0.000
829.463; 5383.825;    0.000;    0.000
829.650; 5400.825;    0.000;    0.000
829.836; 5261.825;    0.000;    0.000
830.022; 5194.825;    0.000;    0.000
830.209; 5037.825;    0.000;    0.000
830.395; 4964.825;    0.000;    0.000
830.581; 4903.825;    0.000;    0.000
830.768; 5045.825;    0.000;    0.000
830.954; 4880.825;    0.000;    0.000
831.140; 4975.825;    0.000;    0.000
831.327; 4965.825;    0.000;    0.000
831.513; 4798.825;    0.000;    0.000
831.699; 4795.825;    0.000;    0.000
831.885; 4701.825;    0.000;    0.000
832.071; 4658.825;    0.000;    0.000
832.257; 4675.825;    0.000;    0.000
832.444; 4682.825;    0.000;    0.000
832.630; 4626.825;    0.000;    0.000
832.816; 4539.825;    0.000;    0.000
833.002; 4598.825;    0.000;    0.000
833.188; 4658.825;    0.000;    0.000
833.374; 4558.825;    0.000;    0.000
833.560; 4574.825;    0.000;    0.000
833.746; 4522.825;    0.000;    0.000
833.932; 4472.825;    0.000;    0.000
834.118; 4408.825;    0.000;    0.000
834.303; 4440.825;    0.000;    0.000
834.489; 4440.825;    0.000;    0.000
834.675; 4360.825;    0.000;    0.000
834.861; 4265.825;    0.000;    0.000
835.047; 4401.825;    0.000;    0.000
835.233; 4281.825;    0.000;    0.000
835.418; 4361.825;    0.000;    0.000
835.604; 4275.825;    0.000;    0.000
835.790; 4253.825;    0.000;    0.000
835.976; 4361.825;    0.000;    0.000
836.161; 4313.825;    0.000;    0.000
836.347; 4133.825;    0.000;    0.000
836.533; 4146.825;    0.000;    0.000
836.718; 4325.825;    0.000;    0.000
836.904; 4129.825;    0.000;    0.000
837.089; 4193.825;    0.000;    0.000
837.275; 4289.825;    0.000;    0.000
837.460; 4160.825;    0.000;    0.000
837.646; 4145.825;    0.000;    0.000
837.831; 4109.825;    0.000;    0.000
838.017; 4163.825;    0.000;    0.000
838.202; 4123.825;    0.000;    0.000
838.388; 4259.825;    0.000;    0.000
838.573; 4237.825;    0.000;    0.000
838.759; 4193.825;    0.000;    0.000
838.944; 4140.825;    0.000;    0.000
839.129; 4108.825;    0.000;    0.000
839.315; 4160.825;    0.000;    0.000
839.500; 4193.825;    0.000;    0.000
839.685; 4175.825;    0.000;    0.000
839.870; 4181.825;    0.000;    0.000
840.056; 4157.825;    0.000;    0.000
840.241; 4191.825;    0.000;    0.000
840.426; 4357.825;    0.000;    0.000
840.611; 4334.825;    0.000;    0.000
840.796; 4301.825;    0.000;    0.000
840.981; 4369.825;    0.000;    0.000
841.166; 4382.825;    0.000;    0.000
841.352; 4441.825;    0.000;    0.000
841.537; 4372.825;    0.000;    0.000
841.722; 4505.825;    0.000;    0.000
841.907; 4553.825;    0.000;    0.000
842.092; 4514.825;    0.000;    0.000
842.277; 4519.825;    0.000;    0.000
842.461; 4783.825;    0.000;    0.000
842.646; 4803.825;    0.000;    0.000
842.831; 4903.825;    0.000;    0.000
843.016; 5002.825;    0.000;    0.000
843.201; 5184.825;    0.000;    0.000
843.386; 5400.825;    0.000;    0.000
843.571; 5564.825;    0.000;    0.000
843.755; 6002.825;    0.000;    0.000
843.940; 6440.825;    0.000;    0.000
844.125; 7389.825;    0.000;    0.000
844.310; 8953.825;    0.000;    0.000
844.494;11909.825;    0.000;    0.000
844.679;14334.825;    0.000;    0.000
844.864;13735.825;    0.000;    0.000
845.048;11357.825;    0.000;    0.000
845.233; 9665.825;    0.000;    0.000
845.418; 8441.825;    0.000;    0.000
845.602; 7660.825;    0.000;    0.000
845.787; 6938.825;    0.000;    0.000
845.971; 6549.825;    0.000;    0.000
846.156; 6035.825;    0.000;    0.000
846.340; 5799.825;    0.000;    0.000
846.525; 5479.825;    0.000;    0.000
846.709; 5292.825;    0.000;    0.000
846.893; 5149.825;    0.000;    0.000
847.078; 4960.825;    0.000;    0.000
847.262; 4786.825;    0.000;    0.000
847.447; 4590.825;    0.000;    0.000
847.631; 4731.825;    0.000;    0.000
847.815; 4447.825;    0.000;    0.000
848.000; 4409.825;    0.000;    0.000
848.184; 4360.825;    0.000;    0.000
848.368; 4306.825;    0.000;    0.000
848.552; 4136.825;    0.000;    0.000
848.736; 4126.825;    0.000;    0.000
848.921; 4103.825;    0.000;    0.000
849.105; 4073.825;    0.000;    0.000
849.289; 4038.825;    0.000;    0.000
849.473; 4015.825;    0.000;    0.000
849.657; 3972.825;    0.000;    0.000
849.841; 3922.825;    0.000;    0.000
850.025; 3893.825;    0.000;    0.000
850.209; 3918.825;    0.000;    0.000
850.393; 3820.825;    0.000;    0.000
850.577; 3847.825;    0.000;    0.000
850.761; 3778.825;    0.000;    0.000
850.945; 3763.825;    0.000;    0.000
851.129; 3834.825;    0.000;    0.000
851.313; 3679.825;    0.000;    0.000
851.497; 3642.825;    0.000;    0.000
851.680; 3758.825;    0.000;    0.000
851.864; 3720.825;    0.000;    0.000
852.048; 3706.825;    0.000;    0.000
852.232; 3606.825;    0.000;    0.000
852.416; 3716.825;    0.000;    0.000
852.599; 3576.825;    0.000;    0.000
852.783; 3655.825;    0.000;    0.000
852.967; 3692.825;    0.000;    0.000
853.150; 3612.825;    0.000;    0.000
853.334; 3557.825;    0.000;    0.000
853.518; 3689.825;    0.000;    0.000
853.701; 3620.825;    0.000;    0.000
853.885; 3641.825;    0.000;    0.000
854.068; 3611.825;    0.000;    0.000
854.252; 3695.825;    0.000;    0.000
854.435; 3599.825;    0.000;    0.000
854.619; 3519.825;    0.000;    0.000
854.802; 3549.825;    0.000;    0.000
854.986; 3546.825;    0.000;    0.000
855.169; 3472.825;    0.000;    0.000
855.353; 3564.825;    0.000;    0.000
855.536; 3652.825;    0.000;    0.000
855.719; 3637.825;    0.000;    0.000
855.903; 3658.825;    0.000;    0.000
856.086; 3697.825;    0.000;    0.000
856.269; 3645.825;    0.000;    0.000
856.452; 3725.825;    0.000;    0.000
856.636; 3963.825;    0.000;    0.000
856.819; 4136.825;    0.000;    0.000
857.002; 4157.825;    0.000;    0.000
857.185; 4053.825;    0.000;    0.000
857.368; 3963.825;    0.000;    0.000
857.552; 3908.825;    0.000;    0.000
857.735; 3869.825;    0.000;    0.000
857.918; 3873.825;    0.000;    0.000
858.101; 3679.825;    0.000;    0.000
858.284; 3770.825;    0.000;    0.000
858.467; 3939.825;    0.000;    0.000
858.650; 3933.825;    0.000;    0.000
858.833; 3959.825;    0.000;    0.000
859.016; 4120.825;    0.000;    0.000
859.199; 4358.825;    0.000;    0.000
859.382; 4624.825;    0.000;    0.000
859.564; 4943.825;    0.000;    0.000
859.747; 4664.825;    0.000;    0.000
859.930; 4519.825;    0.000;    0.000
860.113; 4500.825;    0.000;    0.000
860.296; 4461.825;    0.000;    0.000
860.478; 4290.825;    0.000;    0.000
860.661; 4251.825;    0.000;    0.000
860.844; 4236.825;    0.000;    0.000
861.027; 4173.825;    0.000;    0.000
861.209; 4063.825;    0.000;    0.000
861.392; 4202.825;    0.000;    0.000
861.575; 4308.825;    0.000;    0.000
861.757; 4333.825;    0.000;    0.000
861.940; 4391.825;    0.000;    0.000
862.122; 4386.825;    0.000;    0.000
862.305; 4478.825;    0.000;    0.000
862.487; 4795.825;    0.000;    0.000
862.670; 5259.825;    0.000;    0.000
862.852; 6016.825;    0.000;    0.000
863.035; 6818.825;    0.000;    0.000
863.217; 6658.825;    0.000;    0.000
863.400; 6050.825;    0.000;    0.000
863.582; 5718.825;    0.000;    0.000
863.764; 5479.825;    0.000;    0.000
863.947; 5330.825;    0.000;    0.000
864.129; 5126.825;    0.000;    0.000
864.311; 4896.825;    0.000;    0.000
864.493; 4908.825;    0.000;    0.000
864.676; 4914.825;    0.000;    0.000
864.858; 4732.825;    0.000;    0.000
865.040; 4818.825;    0.000;    0.000
865.222; 4913.825;    0.000;    0.000
865.404; 4947.825;    0.000;    0.000
865.587; 5300.825;    0.000;    0.000
865.769; 5419.825;    0.000;    0.000
865.951; 5264.825;    0.000;    0.000
866.133; 5419.825;    0.000;    0.000
866.315; 5374.825;    0.000;    0.000
866.497; 5425.825;    0.000;    0.000
866.679; 5528.825;    0.000;    0.000
866.861; 5779.825;    0.000;    0.000
867.043; 6080.825;    0.000;    0.000
867.225; 6364.825;    0.000;    0.000
867.407; 7047.825;    0.000;    0.000
867.589; 8109.825;    0.000;    0.000
867.770;10240.825;    0.000;    0.000
867.952;13941.825;    0.000;    0.000
868.134;16381.825;    0.000;    0.000
868.316;16502.824;    0.000;    0.000
868.498;15219.825;    0.000;    0.000
868.679;13061.825;    0.000;    0.000
868.861;11113.825;    0.000;    0.000
869.043; 9675.825;    0.000;    0.000
869.224; 8586.825;    0.000;    0.000
869.406; 7998.825;    0.000;    0.000
869.588; 7287.825;    0.000;    0.000
869.769; 6935.825;    0.000;    0.000
869.951; 7050.825;    0.000;    0.000
870.132; 7134.825;    0.000;    0.000
870.314; 7744.825;    0.000;    0.000
870.495; 7644.825;    0.000;    0.000
870.677; 7198.825;    0.000;    0.000
870.858; 7016.825;    0.000;    0.000
871.040; 7496.825;    0.000;    0.000
871.221; 7721.825;    0.000;    0.000
871.403; 7525.825;    0.000;    0.000
871.584; 7232.825;    0.000;    0.000
871.765; 7137.825;    0.000;    0.000
871.947; 7351.825;    0.000;    0.000
872.128; 6681.825;    0.000;    0.000
872.309; 5923.825;    0.000;    0.000
872.491; 5579.825;    0.000;    0.000
872.672; 5425.825;    0.000;    0.000
872.853; 5222.825;    0.000;    0.000
873.034; 5001.825;    0.000;    0.000
873.215; 4670.825;    0.000;    0.000
873.396; 4442.825;    0.000;    0.000
873.578; 4265.825;    0.000;    0.000
873.759; 4260.825;    0.000;    0.000
873.940; 4089.825;    0.000;    0.000
874.121; 3928.825;    0.000;    0.000
874.302; 3886.825;    0.000;    0.000
874.483; 3839.825;    0.000;    0.000
874.664; 3853.825;    0.000;    0.000
874.845; 3893.825;    0.000;    0.000
875.026; 3789.825;    0.000;    0.000
875.207; 3714.825;    0.000;    0.000
875.388; 3620.825;    0.000;    0.000
875.568; 3601.825;    0.000;    0.000
875.749; 3477.825;    0.000;    0.000
875.930; 3519.825;    0.000;    0.000
876.111; 3304.825;    0.000;    0.000
876.292; 3483.825;    0.000;    0.000
876.472; 3401.825;    0.000;    0.000
876.653; 3301.825;    0.000;    0.000
876.834; 3268.825;    0.000;    0.000
877.015; 3259.825;    0.000;    0.000
877.195; 3294.825;    0.000;    0.000
877.376; 3257.825;    0.000;    0.000
877.556; 3177.825;    0.000;    0.000
877.737; 3227.825;    0.000;    0.000
877.918; 3234.825;    0.000;    0.000
878.098; 3152.825;    0.000;    0.000
878.279; 3199.825;    0.000;    0.000
878.459; 3231.825;    0.000;    0.000
878.640; 3096.825;    0.000;    0.000
878.820; 3082.825;    0.000;    0.000
879.000; 3067.825;    0.000;    0.000
879.181; 3094.825;    0.000;    0.000
879.361; 3040.825;    0.000;    0.000
879.542; 3045.825;    0.000;    0.000
879.722; 3110.825;    0.000;    0.000
879.902; 3058.825;    0.000;    0.000
880.083; 3080.825;    0.000;    0.000
880.263; 3159.825;    0.000;    0.000
880.443; 3395.825;    0.000;    0.000
880.623; 3836.825;    0.000;    0.000
880.803; 4022.825;    0.000;    0.000
880.984; 3719.825;    0.000;    0.000
881.164; 3398.825;    0.000;    0.000
881.344; 3348.825;    0.000;    0.000
881.524; 3347.825;    0.000;    0.000
881.704; 3340.825;    0.000;    0.000
881.884; 3450.825;    0.000;    0.000
882.064; 3516.825;    0.000;    0.000
882.244; 3541.825;    0.000;    0.000
882.424; 3412.825;    0.000;    0.000
882.604; 3285.825;    0.000;    0.000
882.784; 3248.825;    0.000;    0.000
882.964; 3069.825;    0.000;    0.000
883.144; 3119.825;    0.000;    0.000
883.324; 3155.825;    0.000;    0.000
883.504; 3007.825;    0.000;    0.000
883.683; 2973.825;    0.000;    0.000
883.863; 2903.825;    0.000;    0.000
884.043; 2804.825;    0.000;    0.000
884.223; 2924.825;    0.000;    0.000
884.402; 2884.825;    0.000;    0.000
884.582; 2845.825;    0.000;    0.000
884.762; 2940.825;    0.000;    0.000
884.941; 2833.825;    0.000;    0.000
885.121; 2899.825;    0.000;    0.000
885.301; 2843.825;    0.000;    0.000
885.480; 2865.825;    0.000;    0.000
885.660; 2795.825;    0.000;    0.000
885.839; 2779.825;    0.000;    0.000
886.019; 2902.825;    0.000;    0.000
886.198; 2744.825;    0.000;    0.000
886.378; 2755.825;    0.000;    0.000
886.557; 2816.825;    0.000;    0.000
886.737; 2652.825;    0.000;    0.000
886.916; 2620.825;    0.000;    0.000
887.095; 2779.825;    0.000;    0.000
887.275; 2746.825;    0.000;    0.000
887.454; 2735.825;    0.000;    0.000
887.633; 2771.825;    0.000;    0.000
887.813; 2677.825;    0.000;    0.000
887.992; 2678.825;    0.000;    0.000
888.171; 2756.825;    0.000;    0.000
888.350; 2670.825;    0.000;    0.000
888.530; 2740.825;    0.000;    0.000
888.709; 2649.825;    0.000;    0.000
888.888; 2672.825;    0.000;    0.000
889.067; 2647.825;    0.000;    0.000
889.246; 2694.825;    0.000;    0.000
889.425; 2701.825;    0.000;    0.000
889.604; 2761.825;    0.000;    0.000
889.783; 2733.825;    0.000;    0.000
889.962; 2562.825;    0.000;    0.000
890.141; 2674.825;    0.000;    0.000
890.320; 2629.825;    0.000;    0.000
890.499; 2687.825;    0.000;    0.000
890.678; 2573.825;    0.000;    0.000
890.857; 2658.825;    0.000;    0.000
891.036; 2642.825;    0.000;    0.000
891.214; 2671.825;    0.000;    0.000
891.393; 2646.825;    0.000;    0.000
891.572; 2613.825;    0.000;    0.000
891.751; 2642.825;    0.000;    0.000
891.930; 2652.825;    0.000;    0.000
892.108; 2662.825;    0.000;    0.000
892.287; 2670.825;    0.000;    0.000
892.466; 2631.825;    0.000;    0.000
892.644; 2532.825;    0.000;    0.000
892.823; 2595.825;    0.000;    0.000
893.001; 2550.825;    0.000;    0.000
893.180; 2618.825;    0.000;    0.000
893.359; 2552.825;    0.000;    0.000
893.537; 2643.825;    0.000;    0.000
893.716; 2550.825;    0.000;    0.000
893.894; 2646.825;    0.000;    0.000
894.073; 2526.825;    0.000;    0.000
894.251; 2541.825;    0.000;    0.000
894.429; 2600.825;    0.000;    0.000
894.608; 2626.825;    0.000;    0.000
894.786; 2586.825;    0.000;    0.000
894.964; 2660.825;    0.000;    0.000
895.143; 2599.825;    0.000;    0.000
895.321; 2633.825;    0.000;    0.000
895.499; 2522.825;    0.000;    0.000
895.677; 2504.825;    0.000;    0.000
895.856; 2635.825;    0.000;    0.000
896.034; 2562.825;    0.000;    0.000
896.212; 2637.825;    0.000;    0.000
896.390; 2666.825;    0.000;    0.000
896.568; 2575.825;    0.000;    0.000
896.746; 2576.825;    0.000;    0.000
896.924; 2644.825;    0.000;    0.000
897.102; 2623.825;    0.000;    0.000
897.280; 2598.825;    0.000;    0.000
897.458; 2580.825;    0.000;    0.000
897.636; 2697.825;    0.000;    0.000
897.814; 2551.825;    0.000;    0.000
897.992; 2708.825;    0.000;    0.000
898.170; 2674.825;    0.000;    0.000
898.348; 2703.825;    0.000;    0.000
898.526; 2557.825;    0.000;    0.000
898.704; 2698.825;    0.000;    0.000
898.882; 2629.825;    0.000;    0.000
899.059; 2648.825;    0.000;    0.000
899.237; 2646.825;    0.000;    0.000
899.415; 2711.825;    0.000;    0.000
899.593; 2618.825;    0.000;    0.000
899.770; 2615.825;    0.000;    0.000
899.948; 2677.825;    0.000;    0.000
900.125; 2684.825;    0.000;    0.000
900.303; 2696.825;    0.000;    0.000
900.481; 2692.825;    0.000;    0.000
900.658; 2708.825;    0.000;    0.000
900.836; 2771.825;    0.000;    0.000
901.013; 2845.825;    0.000;    0.000
901.191; 2787.825;    0.000;    0.000
901.368; 2825.825;    0.000;    0.000
901.546; 2907.825;    0.000;    0.000
901.723; 2948.825;    0.000;    0.000
901.901; 3081.825;    0.000;    0.000
902.078; 3058.825;    0.000;    0.000
902.255; 3117.825;    0.000;    0.000
902.433; 3016.825;    0.000;    0.000
902.610; 3105.825;    0.000;    0.000
902.787; 3127.825;    0.000;    0.000
902.964; 3244.825;    0.000;    0.000
903.142; 3245.825;    0.000;    0.000
903.319; 3371.825;    0.000;    0.000
903.496; 3311.825;    0.000;    0.000
903.673; 3344.825;    0.000;    0.000
903.850; 3515.825;    0.000;    0.000
904.027; 3627.825;    0.000;    0.000
904.204; 3854.825;    0.000;    0.000
904.381; 4140.825;    0.000;    0.000
904.558; 4733.825;    0.000;    0.000
904.735; 5222.825;    0.000;    0.000
904.912; 5232.825;    0.000;    0.000
905.089; 4982.825;    0.000;    0.000
905.266; 4623.825;    0.000;    0.000
905.443; 4423.825;    0.000;    0.000
905.620; 4146.825;    0.000;    0.000
905.797; 3985.825;    0.000;    0.000
905.974; 3992.825;    0.000;    0.000
906.151; 3772.825;    0.000;    0.000
906.327; 3852.825;    0.000;    0.000
906.504; 3742.825;    0.000;    0.000
906.681; 3595.825;    0.000;    0.000
906.858; 3649.825;    0.000;    0.000
907.034; 3425.825;    0.000;    0.000
907.211; 3433.825;    0.000;    0.000
907.388; 3302.825;    0.000;    0.000
907.564; 3320.825;    0.000;    0.000
907.741; 3325.825;    0.000;    0.000
907.917; 3209.825;    0.000;    0.000
908.094; 3287.825;    0.000;    0.000
908.271; 3102.825;    0.000;    0.000
908.447; 3135.825;    0.000;    0.000
908.623; 2997.825;    0.000;    0.000
908.800; 3081.825;    0.000;    0.000
908.976; 3078.825;    0.000;    0.000
909.153; 3020.825;    0.000;    0.000
909.329; 3010.825;    0.000;    0.000
909.505; 3005.825;    0.000;    0.000
909.682; 2999.825;    0.000;    0.000
909.858; 2886.825;    0.000;    0.000
910.034; 2995.825;    0.000;    0.000
910.211; 2936.825;    0.000;    0.000
910.387; 2959.825;    0.000;    0.000
910.563; 2778.825;    0.000;    0.000
910.739; 2888.825;    0.000;    0.000
910.915; 2842.825;    0.000;    0.000
911.091; 2875.825;    0.000;    0.000
911.268; 2894.825;    0.000;    0.000
911.444; 2812.825;    0.000;    0.000
911.620; 2777.825;    0.000;    0.000
911.796; 2910.825;    0.000;    0.000
911.972; 2846.825;    0.000;    0.000
912.148; 2810.825;    0.000;    0.000
912.324; 2787.825;    0.000;    0.000
912.500; 2827.825;    0.000;    0.000
912.676; 2818.825;    0.000;    0.000
912.851; 2800.825;    0.000;    0.000
913.027; 2760.825;    0.000;    0.000
913.203; 2710.825;    0.000;    0.000
913.379; 2774.825;    0.000;    0.000
913.555; 2730.825;    0.000;    0.000
913.730; 2833.825;    0.000;    0.000
913.906; 2827.825;    0.000;    0.000
914.082; 2694.825;    0.000;    0.000
914.258; 2684.825;    0.000;    0.000
914.433; 2728.825;    0.000;    0.000
914.609; 2681.825;    0.000;    0.000
914.784; 2748.825;    0.000;    0.000
914.960; 2736.825;    0.000;    0.000
915.136; 2703.825;    0.000;    0.000
915.311; 2751.825;    0.000;    0.000
915.487; 2879.825;    0.000;    0.000
915.662; 2749.825;    0.000;    0.000
915.838; 2787.825;    0.000;    0.000
916.013; 2746.825;    0.000;    0.000
916.189; 2728.825;    0.000;    0.000
916.364; 2748.825;    0.000;    0.000
916.539; 2757.825;    0.000;    0.000
916.715; 2786.825;    0.000;    0.000
916.890; 2750.825;    0.000;    0.000
917.065; 2721.825;    0.000;    0.000
917.240; 2735.825;    0.000;    0.000
917.416; 2731.825;    0.000;    0.000
917.591; 2722.825;    0.000;    0.000
917.766; 2768.825;    0.000;    0.000
917.941; 2765.825;    0.000;    0.000
918.116; 2712.825;    0.000;    0.000
918.292; 2674.825;    0.000;    0.000
918.467; 2734.825;    0.000;    0.000
918.642; 2777.825;    0.000;    0.000
918.817; 2653.825;    0.000;    0.000
918.992; 2763.825;    0.000;    0.000
919.167; 2750.825;    0.000;    0.000
919.342; 2854.825;    0.000;    0.000
919.517; 2807.825;    0.000;    0.000
919.692; 2873.825;    0.000;    0.000
919.867; 2836.825;    0.000;    0.000
920.041; 2876.825;    0.000;    0.000
920.216; 2894.825;    0.000;    0.000
920.391; 2986.825;    0.000;    0.000
920.566; 3055.825;    0.000;    0.000
920.741; 3127.825;    0.000;    0.000
920.915; 3321.825;    0.000;    0.000
921.090; 3496.825;    0.000;    0.000
921.265; 4040.825;    0.000;    0.000
921.439; 4286.825;    0.000;    0.000
921.614; 3878.825;    0.000;    0.000
921.789; 3623.825;    0.000;    0.000
921.963; 3483.825;    0.000;    0.000
922.138; 3391.825;    0.000;    0.000
922.312; 3422.825;    0.000;    0.000
922.487; 3364.825;    0.000;    0.000
922.661; 3614.825;    0.000;    0.000
922.836; 3896.825;    0.000;    0.000
923.010; 3810.825;    0.000;    0.000
923.185; 3542.825;    0.000;    0.000
923.359; 3421.825;    0.000;    0.000
923.534; 3458.825;    0.000;    0.000
923.708; 3643.825;    0.000;    0.000
923.882; 3646.825;    0.000;    0.000
924.057; 3510.825;    0.000;    0.000
924.231; 3459.825;    0.000;    0.000
924.405; 3330.825;    0.000;    0.000
924.579; 3340.825;    0.000;    0.000
924.753; 3306.825;    0.000;    0.000
924.928; 3302.825;    0.000;    0.000
925.102; 3282.825;    0.000;    0.000
925.276; 3298.825;    0.000;    0.000
925.450; 3371.825;    0.000;    0.000
925.624; 3470.825;    0.000;    0.000
925.798; 3460.825;    0.000;    0.000
925.972; 3640.825;    0.000;    0.000
926.146; 3888.825;    0.000;    0.000
926.320; 4130.825;    0.000;    0.000
926.494; 4428.825;    0.000;    0.000
926.668; 4535.825;    0.000;    0.000
926.842; 4647.825;    0.000;    0.000
927.016; 4713.825;    0.000;    0.000
927.190; 4640.825;    0.000;    0.000
927.363; 4481.825;    0.000;    0.000
927.537; 4364.825;    0.000;    0.000
927.711; 4226.825;    0.000;    0.000
927.885; 4181.825;    0.000;    0.000
928.058; 4005.825;    0.000;    0.000
928.232; 3933.825;    0.000;    0.000
928.406; 3855.825;    0.000;    0.000
928.579; 3800.825;    0.000;    0.000
928.753; 3721.825;    0.000;    0.000
928.927; 3743.825;    0.000;    0.000
929.100; 3661.825;    0.000;    0.000
929.274; 3468.825;    0.000;    0.000
929.447; 3457.825;    0.000;    0.000
929.621; 3523.825;    0.000;    0.000
929.794; 3358.825;    0.000;    0.000
929.968; 3275.825;    0.000;    0.000
930.141; 3303.825;    0.000;    0.000
930.315; 3213.825;    0.000;    0.000
930.488; 3166.825;    0.000;    0.000
930.661; 3216.825;    0.000;    0.000
930.835; 3164.825;    0.000;    0.000
931.008; 3066.825;    0.000;    0.000
931.181; 2979.825;    0.000;    0.000
931.354; 3040.825;    0.000;    0.000
931.528; 2987.825;    0.000;    0.000
931.701; 2953.825;    0.000;    0.000
931.874; 2972.825;    0.000;    0.000
932.047; 2870.825;    0.000;    0.000
932.220; 2883.825;    0.000;    0.000
932.393; 2772.825;    0.000;    0.000
932.566; 2829.825;    0.000;    0.000
932.739; 2797.825;    0.000;    0.000
932.912; 2764.825;    0.000;    0.000
933.085; 2768.825;    0.000;    0.000
933.258; 2739.825;    0.000;    0.000
933.431; 2791.825;    0.000;    0.000
933.604; 2743.825;    0.000;    0.000
933.777; 2743.825;    0.000;    0.000
933.950; 2637.825;    0.000;    0.000
934.123; 2578.825;    0.000;    0.000
934.296; 2624.825;    0.000;    0.000
934.468; 2610.825;    0.000;    0.000
934.641; 2548.825;    0.000;    0.000
934.814; 2605.825;    0.000;    0.000
934.987; 2646.825;    0.000;    0.000
935.159; 2657.825;    0.000;    0.000
935.332; 2564.825;    0.000;    0.000
935.505; 2531.825;    0.000;    0.000
935.677; 2505.825;    0.000;    0.000
935.850; 2524.825;    0.000;    0.000
936.022; 2559.825;    0.000;    0.000
936.195; 2581.825;    0.000;    0.000
936.367; 2530.825;    0.000;    0.000
936.540; 2591.825;    0.000;    0.000
936.712; 2645.825;    0.000;    0.000
936.885; 2616.825;    0.000;    0.000
937.057; 2595.825;    0.000;    0.000
937.229; 2546.825;    0.000;    0.000
937.402; 2618.825;    0.000;    0.000
937.574; 2689.825;    0.000;    0.000
937.746; 2747.825;    0.000;    0.000
937.919; 2868.825;    0.000;    0.000
938.091; 2866.825;    0.000;    0.000
938.263; 3054.825;    0.000;    0.000
938.435; 3295.825;    0.000;    0.000
938.608; 3840.825;    0.000;    0.000
938.780; 4045.825;    0.000;    0.000
938.952; 4180.825;    0.000;    0.000
939.124; 4488.825;    0.000;    0.000
939.296; 4812.825;    0.000;    0.000
939.468; 4681.825;    0.000;    0.000
939.640; 4185.825;    0.000;    0.000
939.812; 3873.825;    0.000;    0.000
939.984; 3521.825;    0.000;    0.000
940.156; 3411.825;    0.000;    0.000
940.328; 3101.825;    0.000;    0.000
940.500; 3021.825;    0.000;    0.000
940.672; 2899.825;    0.000;    0.000
940.843; 2793.825;    0.000;    0.000
941.015; 2726.825;    0.000;    0.000
941.187; 2639.825;    0.000;    0.000
941.359; 2691.825;    0.000;    0.000
941.531; 2624.825;    0.000;    0.000
941.702; 2647.825;    0.000;    0.000
941.874; 2546.825;    0.000;    0.000
942.046; 2576.825;    0.000;    0.000
942.217; 2414.825;    0.000;    0.000
942.389; 2475.825;    0.000;    0.000
942.560; 2354.825;    0.000;    0.000
942.732; 2430.825;    0.000;    0.000
942.904; 2321.825;    0.000;    0.000
943.075; 2292.825;    0.000;    0.000
943.247; 2296.825;    0.000;    0.000
943.418; 2196.825;    0.000;    0.000
943.589; 2172.825;    0.000;    0.000
943.761; 2293.825;    0.000;    0.000
943.932; 2207.825;    0.000;    0.000
944.104; 2145.825;    0.000;    0.000
944.275; 2133.825;    0.000;    0.000
944.446; 2173.825;    0.000;    0.000
944.617; 2105.825;    0.000;    0.000
944.789; 2114.825;    0.000;    0.000
944.960; 2133.825;    0.000;    0.000
945.131; 2091.825;    0.000;    0.000
945.302; 2203.825;    0.000;    0.000
945.473; 2149.825;    0.000;    0.000
945.645; 2176.825;    0.000;    0.000
945.816; 2225.825;    0.000;    0.000
945.987; 2284.825;    0.000;    0.000
946.158; 2284.825;    0.000;    0.000
946.329; 2251.825;    0.000;    0.000
946.500; 2265.825;    0.000;    0.000
946.671; 2167.825;    0.000;    0.000
946.842; 2219.825;    0.000;    0.000
947.013; 2163.825;    0.000;    0.000
947.183; 2100.825;    0.000;    0.000
947.354; 2017.825;    0.000;    0.000
947.525; 2116.825;    0.000;    0.000
947.696; 2150.825;    0.000;    0.000
947.867; 2112.825;    0.000;    0.000
948.037; 2089.825;    0.000;    0.000
948.208; 2079.825;    0.000;    0.000
948.379; 2121.825;    0.000;    0.000
948.550; 2102.825;    0.000;    0.000
948.720; 2061.825;    0.000;    0.000
948.891; 2127.825;    0.000;    0.000
949.061; 2112.825;    0.000;    0.000
949.232; 2001.825;    0.000;    0.000
949.403; 2086.825;    0.000;    0.000
949.573; 2047.825;    0.000;    0.000
949.744; 2108.825;    0.000;    0.000
949.914; 2069.825;    0.000;    0.000
950.085; 2011.825;    0.000;    0.000
950.255; 2060.825;    0.000;    0.000
950.425; 2050.825;    0.000;    0.000
950.596; 2065.825;    0.000;    0.000
950.766; 2071.825;    0.000;    0.000
950.936; 2066.825;    0.000;    0.000
951.107; 2023.825;    0.000;    0.000
951.277; 2078.825;    0.000;    0.000
951.447; 2051.825;    0.000;    0.000
951.617; 2096.825;    0.000;    0.000
951.788; 2132.825;    0.000;    0.000
951.958; 2108.825;    0.000;    0.000
952.128; 2016.825;    0.000;    0.000
952.298; 2034.825;    0.000;    0.000
952.468; 2007.825;    0.000;    0.000
952.638; 2015.825;    0.000;    0.000
952.808; 1967.825;    0.000;    0.000
952.978; 2045.825;    0.000;    0.000
953.148; 1976.825;    0.000;    0.000
953.318; 2010.825;    0.000;    0.000
953.488; 1940.825;    0.000;    0.000
953.658; 1986.825;    0.000;    0.000
953.828; 1973.825;    0.000;    0.000
953.998; 2013.825;    0.000;    0.000
954.167; 1934.825;    0.000;    0.000
954.337; 1995.825;    0.000;    0.000
954.507; 2078.825;    0.000;    0.000
954.677; 1965.825;    0.000;    0.000
954.846; 2003.825;    0.000;    0.000
955.016; 1996.825;    0.000;    0.000
955.186; 2068.825;    0.000;    0.000
955.355; 2066.825;    0.000;    0.000
955.525; 1963.825;    0.000;    0.000
955.695; 2046.825;    0.000;    0.000
955.864; 1917.825;    0.000;    0.000
956.034; 1887.825;    0.000;    0.000
956.203; 2098.825;    0.000;    0.000
956.373; 1906.825;    0.000;    0.000
956.542; 1988.825;    0.000;    0.000
956.711; 1911.825;    0.000;    0.000
956.881; 1890.825;    0.000;    0.000
957.050; 2004.825;    0.000;    0.000
957.220; 1956.825;    0.000;    0.000
957.389; 1931.825;    0.000;    0.000
957.558; 1966.825;    0.000;    0.000
957.727; 1936.825;    0.000;    0.000
957.897; 1961.825;    0.000;    0.000
958.066; 1931.825;    0.000;    0.000
958.235; 1906.825;    0.000;    0.000
958.404; 1974.825;    0.000;    0.000
958.573; 1945.825;    0.000;    0.000
958.743; 1899.825;    0.000;    0.000
958.912; 1912.825;    0.000;    0.000
959.081; 1864.825;    0.000;    0.000
959.250; 1886.825;    0.000;    0.000
959.419; 1955.825;    0.000;    0.000
959.588; 1938.825;    0.000;    0.000
959.757; 1893.825;    0.000;    0.000
959.926; 1913.825;    0.000;    0.000
960.094; 1890.825;    0.000;    0.000
960.263; 1910.825;    0.000;    0.000
960.432; 1876.825;    0.000;    0.000
960.601; 1889.825;    0.000;    0.000
960.770; 1861.825;    0.000;    0.000
960.939; 1866.825;    0.000;    0.000
961.107; 1884.825;    0.000;    0.000
961.276; 1887.825;    0.000;    0.000
961.445; 1861.825;    0.000;    0.000
961.613; 1875.825;    0.000;    0.000
961.782; 1936.825;    0.000;    0.000
961.951; 2007.825;    0.000;    0.000
962.119; 1906.825;    0.000;    0.000
962.288; 1843.825;    0.000;    0.000
962.456; 1856.825;    0.000;    0.000
962.625; 1823.825;    0.000;    0.000
962.793; 1924.825;    0.000;    0.000
962.962; 1876.825;    0.000;    0.000
963.130; 1774.825;    0.000;    0.000
963.298; 1855.825;    0.000;    0.000
963.467; 1878.825;    0.000;    0.000
963.635; 1855.825;    0.000;    0.000
963.803; 1829.825;    0.000;    0.000
963.972; 1894.825;    0.000;    0.000
964.140; 1872.825;    0.000;    0.000
964.308; 1914.825;    0.000;    0.000
964.477; 1858.825;    0.000;    0.000
964.645; 1847.825;    0.000;    0.000
964.813; 1976.825;    0.000;    0.000
964.981; 1931.825;    0.000;    0.000
965.149; 1898.825;    0.000;    0.000
965.317; 1946.825;    0.000;    0.000
965.485; 1870.825;    0.000;    0.000
965.653; 1971.825;    0.000;    0.000
965.821; 1988.825;    0.000;    0.000
965.989; 1890.825;    0.000;    0.000
966.157; 1850.825;    0.000;    0.000
966.325; 1856.825;    0.000;    0.000
966.493; 1926.825;    0.000;    0.000
966.661; 1829.825;    0.000;    0.000
966.829; 1864.825;    0.000;    0.000
966.996; 1886.825;    0.000;    0.000
967.164; 1879.825;    0.000;    0.000
967.332; 1872.825;    0.000;    0.000
967.500; 1903.825;    0.000;    0.000
967.667; 1829.825;    0.000;    0.000
967.835; 1862.825;    0.000;    0.000
968.003; 1866.825;    0.000;    0.000
968.170; 1849.825;    0.000;    0.000
968.338; 1814.825;    0.000;    0.000
968.505; 1887.825;    0.000;    0.000
968.673; 1924.825;    0.000;    0.000
968.841; 1848.825;    0.000;    0.000
969.008; 1819.825;    0.000;    0.000
969.175; 1772.825;    0.000;    0.000
969.343; 1824.825;    0.000;    0.000
969.510; 1839.825;    0.000;    0.000
969.678; 1909.825;    0.000;    0.000
969.845; 1820.825;    0.000;    0.000
970.012; 1873.825;    0.000;    0.000
970.180; 1893.825;    0.000;    0.000
970.347; 1846.825;    0.000;    0.000
970.514; 1825.825;    0.000;    0.000
970.681; 1813.825;    0.000;    0.000
970.849; 1851.825;    0.000;    0.000
971.016; 1865.825;    0.000;    0.000
971.183; 1840.825;    0.000;    0.000
971.350; 1835.825;    0.000;    0.000
971.517; 1883.825;    0.000;    0.000
971.684; 1896.825;    0.000;    0.000
971.851; 1805.825;    0.000;    0.000
972.018; 1865.825;    0.000;    0.000
972.185; 1864.825;    0.000;    0.000
972.352; 1896.825;    0.000;    0.000
972.519; 1871.825;    0.000;    0.000
972.686; 1789.825;    0.000;    0.000
972.853; 1845.825;    0.000;    0.000
973.020; 1821.825;    0.000;    0.000
973.186; 1897.825;    0.000;    0.000
973.353; 1876.825;    0.000;    0.000
973.520; 1821.825;    0.000;    0.000
973.687; 1827.825;    0.000;    0.000
973.853; 1793.825;    0.000;    0.000
974.020; 1847.825;    0.000;    0.000
974.187; 1793.825;    0.000;    0.000
974.353; 1841.825;    0.000;    0.000
974.520; 1824.825;    0.000;    0.000
974.687; 1765.825;    0.000;    0.000
974.853; 1924.825;    0.000;    0.000
975.020; 1825.825;    0.000;    0.000
975.186; 1807.825;    0.000;    0.000
975.353; 1817.825;    0.000;    0.000
975.519; 1839.825;    0.000;    0.000
975.685; 1811.825;    0.000;    0.000
975.852; 1869.825;    0.000;    0.000
976.018; 1792.825;    0.000;    0.000
976.184; 1827.825;    0.000;    0.000
976.351; 1836.825;    0.000;    0.000
976.517; 1816.825;    0.000;    0.000
976.683; 1823.825;    0.000;    0.000
976.849; 1809.825;    0.000;    0.000
977.016; 1748.825;    0.000;    0.000
977.182; 1821.825;    0.000;    0.000
977.348; 1707.825;    0.000;    0.000
977.514; 1784.825;    0.000;    0.000
977.680; 1827.825;    0.000;    0.000
977.846; 1811.825;    0.000;    0.000
978.012; 1853.825;    0.000;    0.000
978.178; 1854.825;    0.000;    0.000
978.344; 1821.825;    0.000;    0.000
978.510; 1756.825;    0.000;    0.000
978.676; 1844.825;    0.000;    0.000
978.842; 1787.825;    0.000;    0.000
979.008; 1756.825;    0.000;    0.000
979.174; 1847.825;    0.000;    0.000
979.340; 1837.825;    0.000;    0.000
979.505; 1793.825;    0.000;    0.000
979.671; 1774.825;    0.000;    0.000
979.837; 1749.825;    0.000;    0.000
980.003; 1796.825;    0.000;    0.000
980.168; 1849.825;    0.000;    0.000
980.334; 1805.825;    0.000;    0.000
980.499; 1852.825;    0.000;    0.000
980.665; 1789.825;    0.000;    0.000
980.831; 1867.825;    0.000;    0.000
980.996; 1859.825;    0.000;    0.000
981.162; 1845.825;    0.000;    0.000
981.327; 1931.825;    0.000;    0.000
981.493; 1897.825;    0.000;    0.000
981.658; 1800.825;    0.000;    0.000
981.823; 1868.825;    0.000;    0.000
981.989; 1879.825;    0.000;    0.000
982.154; 1904.825;    0.000;    0.000
982.319; 1823.825;    0.000;    0.000
982.485; 1895.825;    0.000;    0.000
982.650; 1885.825;    0.000;    0.000
982.815; 1842.825;    0.000;    0.000
982.980; 1871.825;    0.000;    0.000
983.146; 1864.825;    0.000;    0.000
983.311; 1800.825;    0.000;    0.000
983.476; 1917.825;    0.000;    0.000
983.641; 1864.825;    0.000;    0.000
983.806; 1814.825;    0.000;    0.000
983.971; 1869.825;    0.000;    0.000
984.136; 1809.825;    0.000;    0.000
984.301; 1817.825;    0.000;    0.000
984.466; 1791.825;    0.000;    0.000
984.631; 1898.825;    0.000;    0.000
984.796; 1809.825;    0.000;    0.000
984.961; 1793.825;    0.000;    0.000
985.126; 1851.825;    0.000;    0.000
985.291; 1820.825;    0.000;    0.000
985.455; 1806.825;    0.000;    0.000
985.620; 1799.825;    0.000;    0.000
985.785; 1817.825;    0.000;    0.000
985.950; 1818.825;    0.000;    0.000
986.114; 1837.825;    0.000;    0.000
986.279; 1888.825;    0.000;    0.000
986.444; 1880.825;    0.000;    0.000
986.608; 1881.825;    0.000;    0.000
986.773; 1868.825;    0.000;    0.000
986.937; 1923.825;    0.000;    0.000
987.102; 1907.825;    0.000;    0.000
987.266; 1881.825;    0.000;    0.000
987.431; 1931.825;    0.000;    0.000
987.595; 1861.825;    0.000;    0.000
987.760; 1976.825;    0.000;    0.000
987.924; 1926.825;    0.000;    0.000
988.088; 1839.825;    0.000;    0.000
988.253; 1906.825;    0.000;    0.000
988.417; 1853.825;    0.000;    0.000
988.581; 1843.825;    0.000;    0.000
988.746; 1844.825;    0.000;    0.000
988.910; 1884.825;    0.000;    0.000
989.074; 1886.825;    0.000;    0.000
989.238; 1797.825;    0.000;    0.000
989.402; 1852.825;    0.000;    0.000
989.566; 1741.825;    0.000;    0.000
989.731; 1839.825;    0.000;    0.000
989.895; 1888.825;    0.000;    0.000
990.059; 1755.825;    0.000;    0.000
990.223; 1813.825;    0.000;    0.000
990.387; 1793.825;    0.000;    0.000
990.551; 1822.825;    0.000;    0.000
990.714; 1823.825;    0.000;    0.000
990.878; 1816.825;    0.000;    0.000
991.042; 1705.825;    0.000;    0.000
991.206; 1763.825;    0.000;    0.000
991.370; 1800.825;    0.000;    0.000
991.534; 1744.825;    0.000;    0.000
991.697; 1807.825;    0.000;    0.000
991.861; 1719.825;    0.000;    0.000
992.025; 1730.825;    0.000;    0.000
992.188; 1801.825;    0.000;    0.000
992.352; 1787.825;    0.000;    0.000
992.516; 1724.825;    0.000;    0.000
992.679; 1788.825;    0.000;    0.000
992.843; 1740.825;    0.000;    0.000
993.006; 1809.825;    0.000;    0.000
993.170; 1778.825;    0.000;    0.000
993.333; 1707.825;    0.000;    0.000
993.497; 1741.825;    0.000;    0.000
993.660; 1715.825;    0.000;    0.000
993.824; 1719.825;    0.000;    0.000
993.987; 1772.825;    0.000;    0.000
994.150; 1668.825;    0.000;    0.000
994.314; 1799.825;    0.000;    0.000
994.477; 1772.825;    0.000;    0.000
994.640; 1778.825;    0.000;    0.000
994.803; 1721.825;    0.000;    0.000
994.967; 1737.825;    0.000;    0.000
995.130; 1712.825;    0.000;    0.000
995.293; 1721.825;    0.000;    0.000
995.456; 1726.825;    0.000;    0.000
995.619; 1703.825;    0.000;    0.000
995.782; 1707.825;    0.000;    0.000
995.945; 1749.825;    0.000;    0.000
996.108; 1751.825;    0.000;    0.000
996.271; 1780.825;    0.000;    0.000
996.434; 1730.825;    0.000;    0.000
996.597; 1720.825;    0.000;    0.000
996.760; 1667.825;    0.000;    0.000
996.923; 1718.825;    0.000;    0.000
997.086; 1793.825;    0.000;    0.000
997.248; 1804.825;    0.000;    0.000
997.411; 1749.825;    0.000;    0.000
997.574; 1748.825;    0.000;    0.000
997.737; 1798.825;    0.000;    0.000
997.899; 1717.825;    0.000;    0.000
998.062; 1733.825;    0.000;    0.000
998.225; 1695.825;    0.000;    0.000
998.387; 1775.825;    0.000;    0.000
998.550; 1736.825;    0.000;    0.000
998.712; 1755.825;    0.000;    0.000
998.875; 1761.825;    0.000;    0.000
999.037; 1782.825;    0.000;    0.000
999.200; 1710.825;    0.000;    0.000
999.362; 1735.825;    0.000;    0.000
999.525; 1710.825;    0.000;    0.000
999.687; 1613.825;    0.000;    0.000
999.849; 1710.825;    0.000;    0.000
1000.012; 1778.825;    0.000;    0.000
1000.174; 1746.825;    0.000;    0.000
1000.336; 1754.825;    0.000;    0.000
1000.499; 1821.825;    0.000;    0.000
1000.661; 1740.825;    0.000;    0.000
1000.823; 1742.825;    0.000;    0.000
1000.985; 1750.825;    0.000;    0.000
1001.147; 1748.825;    0.000;    0.000
1001.309; 1795.825;    0.000;    0.000
1001.471; 1797.825;    0.000;    0.000
1001.633; 1824.825;    0.000;    0.000
1001.796; 1772.825;    0.000;    0.000
1001.958; 1815.825;    0.000;    0.000
1002.119; 1856.825;    0.000;    0.000
1002.281; 1801.825;    0.000;    0.000
1002.443; 1855.825;    0.000;    0.000
1002.605; 1843.825;    0.000;    0.000
1002.767; 1976.825;    0.000;    0.000
1002.929; 1935.825;    0.000;    0.000
1003.091; 1993.825;    0.000;    0.000
1003.252; 1970.825;    0.000;    0.000
1003.414; 2108.825;    0.000;    0.000
1003.576; 1977.825;    0.000;    0.000
1003.738; 2058.825;    0.000;    0.000
1003.899; 2185.825;    0.000;    0.000
1004.061; 2154.825;    0.000;    0.000
1004.222; 2171.825;    0.000;    0.000
1004.384; 2305.825;    0.000;    0.000
1004.546; 2218.825;    0.000;    0.000
1004.707; 2313.825;    0.000;    0.000
1004.869; 2316.825;    0.000;    0.000
1005.030; 2322.825;    0.000;    0.000
1005.191; 2261.825;    0.000;    0.000
1005.353; 2254.825;    0.000;    0.000
1005.514; 2219.825;    0.000;    0.000
1005.675; 2153.825;    0.000;    0.000
1005.837; 2064.825;    0.000;    0.000
1005.998; 2089.825;    0.000;    0.000
1006.159; 2082.825;    0.000;    0.000
1006.321; 2132.825;    0.000;    0.000
1006.482; 2121.825;    0.000;    0.000
1006.643; 2127.825;    0.000;    0.000
1006.804; 2187.825;    0.000;    0.000
1006.965; 2246.825;    0.000;    0.000
1007.126; 2257.825;    0.000;    0.000
1007.287; 2333.825;    0.000;    0.000
1007.448; 2304.825;    0.000;    0.000
1007.609; 2302.825;    0.000;    0.000
1007.770; 2260.825;    0.000;    0.000
1007.931; 2161.825;    0.000;    0.000
1008.092; 2161.825;    0.000;    0.000
1008.253; 2447.825;    0.000;    0.000
1008.414; 2292.825;    0.000;    0.000
1008.575; 2385.825;    0.000;    0.000
1008.736; 2437.825;    0.000;    0.000
1008.896; 2423.825;    0.000;    0.000
1009.057; 2416.825;    0.000;    0.000
1009.218; 2353.825;    0.000;    0.000
1009.379; 2355.825;    0.000;    0.000
1009.539; 2463.825;    0.000;    0.000
1009.700; 2426.825;    0.000;    0.000
1009.860; 2581.825;    0.000;    0.000
1010.021; 2429.825;    0.000;    0.000
1010.182; 2484.825;    0.000;    0.000
1010.342; 2502.825;    0.000;    0.000
1010.503; 2614.825;    0.000;    0.000
1010.663; 2607.825;    0.000;    0.000
1010.823; 2711.825;    0.000;    0.000
1010.984; 2887.825;    0.000;    0.000
1011.144; 2870.825;    0.000;    0.000
1011.305; 2996.825;    0.000;    0.000
1011.465; 3092.825;    0.000;    0.000
1011.625; 3114.825;    0.000;    0.000
1011.785; 3158.825;    0.000;    0.000
1011.946; 3072.825;    0.000;    0.000
1012.106; 3101.825;    0.000;    0.000
1012.266; 2991.825;    0.000;    0.000
1012.426; 2970.825;    0.000;    0.000
1012.586; 2912.825;    0.000;    0.000
1012.746; 2861.825;    0.000;    0.000
1012.906; 2993.825;    0.000;    0.000
1013.066; 2914.825;    0.000;    0.000
1013.226; 2950.825;    0.000;    0.000
1013.386; 2835.825;    0.000;    0.000
1013.546; 2799.825;    0.000;    0.000
1013.706; 2787.825;    0.000;    0.000
1013.866; 2822.825;    0.000;    0.000
1014.026; 2778.825;    0.000;    0.000
1014.186; 2770.825;    0.000;    0.000
1014.346; 2748.825;    0.000;    0.000
1014.505; 2732.825;    0.000;    0.000
1014.665; 2744.825;    0.000;    0.000
1014.825; 2686.825;    0.000;    0.000
1014.985; 2766.825;    0.000;    0.000
1015.144; 2821.825;    0.000;    0.000
1015.304; 2835.825;    0.000;    0.000
1015.464; 2897.825;    0.000;    0.000
1015.623; 2686.825;    0.000;    0.000
1015.783; 2852.825;    0.000;    0.000
1015.942; 2951.825;    0.000;    0.000
1016.102; 3024.825;    0.000;    0.000
1016.261; 2939.825;    0.000;    0.000
1016.420; 2850.825;    0.000;    0.000
1016.580; 3179.825;    0.000;    0.000
1016.739; 3074.825;    0.000;    0.000
1016.899; 3147.825;    0.000;    0.000
1017.058; 3076.825;    0.000;    0.000
1017.217; 3284.825;    0.000;    0.000
1017.376; 3120.825;    0.000;    0.000
1017.536; 2916.825;    0.000;    0.000
1017.695; 2928.825;    0.000;    0.000
1017.854; 2943.825;    0.000;    0.000
1018.013; 2903.825;    0.000;    0.000
1018.172; 2815.825;    0.000;    0.000
1018.331; 2827.825;    0.000;    0.000
1018.490; 2863.825;    0.000;    0.000
1018.649; 2980.825;    0.000;    0.000
1018.808; 3100.825;    0.000;    0.000
1018.967; 2854.825;    0.000;    0.000
1019.126; 3066.825;    0.000;    0.000
1019.285; 2982.825;    0.000;    0.000
1019.444; 2959.825;    0.000;    0.000
1019.603; 3103.825;    0.000;    0.000
1019.762; 2934.825;    0.000;    0.000
1019.921; 2796.825;    0.000;    0.000
1020.079; 2966.825;    0.000;    0.000
1020.238; 3164.825;    0.000;    0.000
1020.397; 3152.825;    0.000;    0.000
1020.555; 2966.825;    0.000;    0.000
1020.714; 2935.825;    0.000;    0.000
1020.873; 3050.825;    0.000;    0.000
1021.031; 3213.825;    0.000;    0.000
1021.190; 2997.825;    0.000;    0.000
1021.348; 2906.825;    0.000;    0.000
1021.507; 3102.825;    0.000;    0.000
1021.665; 3230.825;    0.000;    0.000
1021.824; 3253.825;    0.000;    0.000
1021.982; 3061.825;    0.000;    0.000
1022.141; 2906.825;    0.000;    0.000
1022.299; 3290.825;    0.000;    0.000
1022.457; 3440.825;    0.000;    0.000
1022.616; 3267.825;    0.000;    0.000
1022.774; 3031.825;    0.000;    0.000
1022.932; 2924.825;    0.000;    0.000
1023.090; 3472.825;    0.000;    0.000
1023.249; 3509.825;    0.000;    0.000
1023.407; 3198.825;    0.000;    0.000
1023.565; 2832.825;    0.000;    0.000
1023.723; 3131.825;    0.000;    0.000
1023.881; 3261.825;    0.000;    0.000
1024.039; 3421.825;    0.000;    0.000
1024.197; 3182.825;    0.000;    0.000
1024.355; 2975.825;    0.000;    0.000
1024.513; 2922.825;    0.000;    0.000
1024.671; 3263.825;    0.000;    0.000
1024.829; 3425.825;    0.000;    0.000
1024.987; 3302.825;    0.000;    0.000
1025.145; 3030.825;    0.000;    0.000
1025.302; 3026.825;    0.000;    0.000
1025.460; 3126.825;    0.000;    0.000
1025.618; 3441.825;    0.000;    0.000
1025.776; 3422.825;    0.000;    0.000
1025.933; 3068.825;    0.000;    0.000
1026.091; 3008.825;    0.000;    0.000
1026.249; 3184.825;    0.000;    0.000
1026.406; 3557.825;    0.000;    0.000
1026.564; 3458.825;    0.000;    0.000
1026.721; 3347.825;    0.000;    0.000
1026.879; 3083.825;    0.000;    0.000
1027.036; 3177.825;    0.000;    0.000
1027.194; 3519.825;    0.000;    0.000
1027.351; 3526.825;    0.000;    0.000
1027.509; 3444.825;    0.000;    0.000
1027.666; 3192.825;    0.000;    0.000
1027.823; 3151.825;    0.000;    0.000
1027.981; 3494.825;    0.000;    0.000
1028.138; 3536.825;    0.000;    0.000
1028.295; 3435.825;    0.000;    0.000
1028.452; 3405.825;    0.000;    0.000
1028.609; 3216.825;    0.000;    0.000
1028.767; 3258.825;    0.000;    0.000
1028.924; 3429.825;    0.000;    0.000
1029.081; 3502.825;    0.000;    0.000
1029.238; 3517.825;    0.000;    0.000
1029.395; 3327.825;    0.000;    0.000
1029.552; 3308.825;    0.000;    0.000
1029.709; 3463.825;    0.000;    0.000
1029.866; 3612.825;    0.000;    0.000
1030.023; 3607.825;    0.000;    0.000
1030.180; 3414.825;    0.000;    0.000
1030.337; 3391.825;    0.000;    0.000
1030.494; 3390.825;    0.000;    0.000
1030.650; 3609.825;    0.000;    0.000
1030.807; 3656.825;    0.000;    0.000
1030.964; 3444.825;    0.000;    0.000
1031.121; 3410.825;    0.000;    0.000
1031.277; 3368.825;    0.000;    0.000
1031.434; 3439.825;    0.000;    0.000
1031.591; 3797.825;    0.000;    0.000
1031.747; 3725.825;    0.000;    0.000
1031.904; 3718.825;    0.000;    0.000
1032.060; 3549.825;    0.000;    0.000
1032.217; 3340.825;    0.000;    0.000
1032.373; 3821.825;    0.000;    0.000
1032.530; 3811.825;    0.000;    0.000
1032.686; 3934.825;    0.000;    0.000
1032.843; 4047.825;    0.000;    0.000
1032.999; 3827.825;    0.000;    0.000
1033.155; 3887.825;    0.000;    0.000
1033.312; 3922.825;    0.000;    0.000
1033.468; 4146.825;    0.000;    0.000
1033.624; 4848.825;    0.000;    0.000
1033.780; 4426.825;    0.000;    0.000
1033.937; 4872.825;    0.000;    0.000
1034.093; 4298.825;    0.000;    0.000
1034.249; 4250.825;    0.000;    0.000
1034.405; 4487.825;    0.000;    0.000
1034.561; 4558.825;    0.000;    0.000
1034.717; 4857.825;    0.000;    0.000
1034.873; 4842.825;    0.000;    0.000
1035.029; 5010.825;    0.000;    0.000
1035.185; 4704.825;    0.000;    0.000
1035.341; 4576.825;    0.000;    0.000
1035.497; 4729.825;    0.000;    0.000
1035.653; 4980.825;    0.000;    0.000
1035.809; 5222.825;    0.000;    0.000
1035.964; 5703.825;    0.000;    0.000
1036.120; 5519.825;    0.000;    0.000
1036.276; 5275.825;    0.000;    0.000
1036.432; 5441.825;    0.000;    0.000
1036.587; 4892.825;    0.000;    0.000
1036.743; 4836.825;    0.000;    0.000
1036.899; 5460.825;    0.000;    0.000
1037.054; 5490.825;    0.000;    0.000
1037.210; 6017.825;    0.000;    0.000
1037.365; 6483.825;    0.000;    0.000
1037.521; 5923.825;    0.000;    0.000
1037.676; 5665.825;    0.000;    0.000
1037.832; 5454.825;    0.000;    0.000
1037.987; 5165.825;    0.000;    0.000
1038.143; 5238.825;    0.000;    0.000
1038.298; 6200.825;    0.000;    0.000
1038.453; 6145.825;    0.000;    0.000
1038.609; 6240.825;    0.000;    0.000
1038.764; 7003.825;    0.000;    0.000
1038.919; 6322.825;    0.000;    0.000
1039.074; 6001.825;    0.000;    0.000
1039.229; 5995.825;    0.000;    0.000
1039.385; 5571.825;    0.000;    0.000
1039.540; 5770.825;    0.000;    0.000
1039.695; 6080.825;    0.000;    0.000
1039.850; 6615.825;    0.000;    0.000
1040.005; 6922.825;    0.000;    0.000
1040.160; 7210.825;    0.000;    0.000
1040.315; 7300.825;    0.000;    0.000
1040.470; 6527.825;    0.000;    0.000
1040.625; 6632.825;    0.000;    0.000
1040.780; 6474.825;    0.000;    0.000
1040.935; 6176.825;    0.000;    0.000
1041.089; 6521.825;    0.000;    0.000
1041.244; 7000.825;    0.000;    0.000
1041.399; 7543.825;    0.000;    0.000
1041.554; 7706.825;    0.000;    0.000
1041.708; 8655.825;    0.000;    0.000
1041.863; 9077.825;    0.000;    0.000
1042.018; 7991.825;    0.000;    0.000
1042.172; 7914.825;    0.000;    0.000
1042.327; 8046.825;    0.000;    0.000
1042.481; 7416.825;    0.000;    0.000
1042.636; 7649.825;    0.000;    0.000
1042.791; 7436.825;    0.000;    0.000
1042.945; 8070.825;    0.000;    0.000
1043.099; 9802.825;    0.000;    0.000
1043.254; 9581.825;    0.000;    0.000
1043.408; 9317.825;    0.000;    0.000
1043.563;10743.825;    0.000;    0.000
1043.717;10610.825;    0.000;    0.000
1043.871; 9308.825;    0.000;    0.000
1044.025; 9319.825;    0.000;    0.000
1044.180; 8955.825;    0.000;    0.000
1044.334; 8786.825;    0.000;    0.000
1044.488; 9348.825;    0.000;    0.000
1044.642; 9587.825;    0.000;    0.000
1044.796; 9738.825;    0.000;    0.000
1044.950;11966.825;    0.000;    0.000
1045.104;12922.825;    0.000;    0.000
1045.258;13011.825;    0.000;    0.000
1045.412;12984.825;    0.000;    0.000
1045.566;12552.825;    0.000;    0.000
1045.720;11966.825;    0.000;    0.000
1045.874;11590.825;    0.000;    0.000
1046.028;10922.825;    0.000;    0.000
1046.182;10555.825;    0.000;    0.000
1046.336;10519.825;    0.000;    0.000
1046.489;10830.825;    0.000;    0.000
1046.643;11232.825;    0.000;    0.000
1046.797;11326.825;    0.000;    0.000
1046.951;12888.825;    0.000;    0.000
1047.104;13502.825;    0.000;    0.000
1047.258;14072.825;    0.000;    0.000
1047.411;14293.825;    0.000;    0.000
1047.565;14956.825;    0.000;    0.000
1047.719;15071.825;    0.000;    0.000
1047.872;14326.825;    0.000;    0.000
1048.026;13373.825;    0.000;    0.000
1048.179;13169.825;    0.000;    0.000
1048.332;13023.825;    0.000;    0.000
1048.486;12804.825;    0.000;    0.000
1048.639;13172.825;    0.000;    0.000
1048.792;13235.825;    0.000;    0.000
1048.946;14071.825;    0.000;    0.000
1049.099;14876.825;    0.000;    0.000
1049.252;15587.825;    0.000;    0.000
1049.406;14651.825;    0.000;    0.000
1049.559;15524.825;    0.000;    0.000
1049.712;17780.824;    0.000;    0.000
1049.865;18653.824;    0.000;    0.000
1050.018;18342.824;    0.000;    0.000
1050.171;16844.824;    0.000;    0.000
1050.324;15739.825;    0.000;    0.000
1050.477;16663.824;    0.000;    0.000
1050.630;18247.824;    0.000;    0.000
1050.783;19100.824;    0.000;    0.000
1050.936;17947.824;    0.000;    0.000
1051.089;15986.825;    0.000;    0.000
1051.242;16022.825;    0.000;    0.000
1051.394;17744.824;    0.000;    0.000
1051.547;20315.824;    0.000;    0.000
1051.700;20360.824;    0.000;    0.000
1051.853;18740.824;    0.000;    0.000
1052.005;18448.824;    0.000;    0.000
1052.158;19909.824;    0.000;    0.000
1052.311;22066.824;    0.000;    0.000
1052.463;23017.824;    0.000;    0.000
1052.616;21685.824;    0.000;    0.000
1052.768;20333.824;    0.000;    0.000
1052.921;18133.824;    0.000;    0.000
1053.073;18482.824;    0.000;    0.000
1053.226;20699.824;    0.000;    0.000
1053.378;24359.824;    0.000;    0.000
1053.531;26857.824;    0.000;    0.000
1053.683;26439.824;    0.000;    0.000
1053.835;23464.824;    0.000;    0.000
1053.988;18014.824;    0.000;    0.000
1054.140; 3162.825;    0.000;    0.000
1054.292;  877.825;    0.000;    0.000
1054.444;  644.825;    0.000;    0.000
1054.596;  671.825;    0.000;    0.000
1054.749;  590.825;    0.000;    0.000
1054.901;  572.825;    0.000;    0.000
1055.053;  551.825;    0.000;    0.000
1055.205;  533.825;    0.000;    0.000
1055.357;  514.825;    0.000;    0.000
1055.509;  500.825;    0.000;    0.000
1055.661;  503.825;    0.000;    0.000
1055.813;  496.825;    0.000;    0.000
1055.965;  493.825;    0.000;    0.000
1056.116;  450.825;    0.000;    0.000
1056.268;  469.825;    0.000;    0.000
1056.420;  478.825;    0.000;    0.000

