
Integration time [ms]:   1.000
Averaging Nr. [scans]: 1
Smoothing Nr. [pixels]: 0
Data measured with spectrometer [name]: UV1
Wave   ;Sample   ;Dark     ;Reference
[nm]   ;[counts] ;[counts] ;[counts] 

236.381;  146.875;    0.000;    0.000
236.451;  169.875;    0.000;    0.000
236.520;  130.875;    0.000;    0.000
236.590;  193.875;    0.000;    0.000
236.660;  166.875;    0.000;    0.000
236.730;  188.875;    0.000;    0.000
236.799;  170.875;    0.000;    0.000
236.869;  174.875;    0.000;    0.000
236.939;  162.875;    0.000;    0.000
237.009;  198.875;    0.000;    0.000
237.078;  193.875;    0.000;    0.000
237.148;  154.875;    0.000;    0.000
237.218;  190.875;    0.000;    0.000
237.287;  176.875;    0.000;    0.000
237.357;  156.875;    0.000;    0.000
237.427;  142.875;    0.000;    0.000
237.496;  390.875;    0.000;    0.000
237.566;  374.875;    0.000;    0.000
237.636;  345.875;    0.000;    0.000
237.705;  385.875;    0.000;    0.000
237.775;  356.875;    0.000;    0.000
237.845;  388.875;    0.000;    0.000
237.914;  354.875;    0.000;    0.000
237.984;  372.875;    0.000;    0.000
238.054;  346.875;    0.000;    0.000
238.123;  429.875;    0.000;    0.000
238.193;  345.875;    0.000;    0.000
238.263;  380.875;    0.000;    0.000
238.332;  373.875;    0.000;    0.000
238.402;  390.875;    0.000;    0.000
238.471;  364.875;    0.000;    0.000
238.541;  358.875;    0.000;    0.000
238.611;  369.875;    0.000;    0.000
238.680;  374.875;    0.000;    0.000
238.750;  350.875;    0.000;    0.000
238.819;  383.875;    0.000;    0.000
238.889;  372.875;    0.000;    0.000
238.958;  374.875;    0.000;    0.000
239.028;  356.875;    0.000;    0.000
239.097;  352.875;    0.000;    0.000
239.167;  409.875;    0.000;    0.000
239.237;  377.875;    0.000;    0.000
239.306;  356.875;    0.000;    0.000
239.376;  403.875;    0.000;    0.000
239.445;  429.875;    0.000;    0.000
239.515;  430.875;    0.000;    0.000
239.584;  376.875;    0.000;    0.000
239.654;  397.875;    0.000;    0.000
239.723;  379.875;    0.000;    0.000
239.793;  368.875;    0.000;    0.000
239.862;  350.875;    0.000;    0.000
239.932;  357.875;    0.000;    0.000
240.001;  354.875;    0.000;    0.000
240.070;  385.875;    0.000;    0.000
240.140;  369.875;    0.000;    0.000
240.209;  352.875;    0.000;    0.000
240.279;  406.875;    0.000;    0.000
240.348;  372.875;    0.000;    0.000
240.418;  352.875;    0.000;    0.000
240.487;  394.875;    0.000;    0.000
240.556;  369.875;    0.000;    0.000
240.626;  334.875;    0.000;    0.000
240.695;  373.875;    0.000;    0.000
240.765;  407.875;    0.000;    0.000
240.834;  322.875;    0.000;    0.000
240.903;  400.875;    0.000;    0.000
240.973;  406.875;    0.000;    0.000
241.042;  376.875;    0.000;    0.000
241.112;  341.875;    0.000;    0.000
241.181;  398.875;    0.000;    0.000
241.250;  303.875;    0.000;    0.000
241.320;  426.875;    0.000;    0.000
241.389;  385.875;    0.000;    0.000
241.458;  428.875;    0.000;    0.000
241.528;  364.875;    0.000;    0.000
241.597;  369.875;    0.000;    0.000
241.666;  354.875;    0.000;    0.000
241.736;  372.875;    0.000;    0.000
241.805;  389.875;    0.000;    0.000
241.874;  415.875;    0.000;    0.000
241.943;  374.875;    0.000;    0.000
242.013;  382.875;    0.000;    0.000
242.082;  363.875;    0.000;    0.000
242.151;  372.875;    0.000;    0.000
242.221;  321.875;    0.000;    0.000
242.290;  352.875;    0.000;    0.000
242.359;  350.875;    0.000;    0.000
242.428;  427.875;    0.000;    0.000
242.498;  315.875;    0.000;    0.000
242.567;  384.875;    0.000;    0.000
242.636;  351.875;    0.000;    0.000
242.705;  402.875;    0.000;    0.000
242.774;  397.875;    0.000;    0.000
242.844;  365.875;    0.000;    0.000
242.913;  369.875;    0.000;    0.000
242.982;  381.875;    0.000;    0.000
243.051;  364.875;    0.000;    0.000
243.120;  322.875;    0.000;    0.000
243.190;  356.875;    0.000;    0.000
243.259;  354.875;    0.000;    0.000
243.328;  346.875;    0.000;    0.000
243.397;  367.875;    0.000;    0.000
243.466;  404.875;    0.000;    0.000
243.535;  389.875;    0.000;    0.000
243.605;  358.875;    0.000;    0.000
243.674;  380.875;    0.000;    0.000
243.743;  417.875;    0.000;    0.000
243.812;  361.875;    0.000;    0.000
243.881;  416.875;    0.000;    0.000
243.950;  352.875;    0.000;    0.000
244.019;  361.875;    0.000;    0.000
244.088;  384.875;    0.000;    0.000
244.158;  390.875;    0.000;    0.000
244.227;  355.875;    0.000;    0.000
244.296;  335.875;    0.000;    0.000
244.365;  420.875;    0.000;    0.000
244.434;  313.875;    0.000;    0.000
244.503;  366.875;    0.000;    0.000
244.572;  383.875;    0.000;    0.000
244.641;  365.875;    0.000;    0.000
244.710;  379.875;    0.000;    0.000
244.779;  372.875;    0.000;    0.000
244.848;  338.875;    0.000;    0.000
244.917;  401.875;    0.000;    0.000
244.986;  340.875;    0.000;    0.000
245.055;  385.875;    0.000;    0.000
245.124;  371.875;    0.000;    0.000
245.193;  374.875;    0.000;    0.000
245.262;  322.875;    0.000;    0.000
245.331;  369.875;    0.000;    0.000
245.400;  346.875;    0.000;    0.000
245.469;  395.875;    0.000;    0.000
245.538;  390.875;    0.000;    0.000
245.607;  402.875;    0.000;    0.000
245.676;  360.875;    0.000;    0.000
245.745;  388.875;    0.000;    0.000
245.814;  353.875;    0.000;    0.000
245.883;  416.875;    0.000;    0.000
245.952;  352.875;    0.000;    0.000
246.021;  387.875;    0.000;    0.000
246.090;  373.875;    0.000;    0.000
246.159;  358.875;    0.000;    0.000
246.227;  363.875;    0.000;    0.000
246.296;  421.875;    0.000;    0.000
246.365;  361.875;    0.000;    0.000
246.434;  432.875;    0.000;    0.000
246.503;  386.875;    0.000;    0.000
246.572;  453.875;    0.000;    0.000
246.641;  364.875;    0.000;    0.000
246.710;  460.875;    0.000;    0.000
246.779;  409.875;    0.000;    0.000
246.847;  412.875;    0.000;    0.000
246.916;  350.875;    0.000;    0.000
246.985;  415.875;    0.000;    0.000
247.054;  377.875;    0.000;    0.000
247.123;  370.875;    0.000;    0.000
247.192;  373.875;    0.000;    0.000
247.260;  424.875;    0.000;    0.000
247.329;  393.875;    0.000;    0.000
247.398;  402.875;    0.000;    0.000
247.467;  402.875;    0.000;    0.000
247.536;  420.875;    0.000;    0.000
247.604;  419.875;    0.000;    0.000
247.673;  368.875;    0.000;    0.000
247.742;  414.875;    0.000;    0.000
247.811;  418.875;    0.000;    0.000
247.879;  365.875;    0.000;    0.000
247.948;  385.875;    0.000;    0.000
248.017;  397.875;    0.000;    0.000
248.086;  398.875;    0.000;    0.000
248.154;  398.875;    0.000;    0.000
248.223;  380.875;    0.000;    0.000
248.292;  370.875;    0.000;    0.000
248.361;  410.875;    0.000;    0.000
248.429;  356.875;    0.000;    0.000
248.498;  376.875;    0.000;    0.000
248.567;  375.875;    0.000;    0.000
248.635;  430.875;    0.000;    0.000
248.704;  396.875;    0.000;    0.000
248.773;  387.875;    0.000;    0.000
248.841;  397.875;    0.000;    0.000
248.910;  417.875;    0.000;    0.000
248.979;  400.875;    0.000;    0.000
249.047;  395.875;    0.000;    0.000
249.116;  367.875;    0.000;    0.000
249.185;  368.875;    0.000;    0.000
249.253;  348.875;    0.000;    0.000
249.322;  411.875;    0.000;    0.000
249.390;  363.875;    0.000;    0.000
249.459;  393.875;    0.000;    0.000
249.528;  353.875;    0.000;    0.000
249.596;  381.875;    0.000;    0.000
249.665;  325.875;    0.000;    0.000
249.733;  363.875;    0.000;    0.000
249.802;  378.875;    0.000;    0.000
249.871;  354.875;    0.000;    0.000
249.939;  330.875;    0.000;    0.000
250.008;  332.875;    0.000;    0.000
250.076;  343.875;    0.000;    0.000
250.145;  388.875;    0.000;    0.000
250.213;  326.875;    0.000;    0.000
250.282;  338.875;    0.000;    0.000
250.350;  337.875;    0.000;    0.000
250.419;  363.875;    0.000;    0.000
250.487;  369.875;    0.000;    0.000
250.556;  336.875;    0.000;    0.000
250.624;  348.875;    0.000;    0.000
250.693;  318.875;    0.000;    0.000
250.761;  341.875;    0.000;    0.000
250.830;  378.875;    0.000;    0.000
250.898;  325.875;    0.000;    0.000
250.967;  331.875;    0.000;    0.000
251.035;  308.875;    0.000;    0.000
251.104;  332.875;    0.000;    0.000
251.172;  310.875;    0.000;    0.000
251.241;  324.875;    0.000;    0.000
251.309;  301.875;    0.000;    0.000
251.378;  325.875;    0.000;    0.000
251.446;  319.875;    0.000;    0.000
251.514;  380.875;    0.000;    0.000
251.583;  327.875;    0.000;    0.000
251.651;  308.875;    0.000;    0.000
251.720;  292.875;    0.000;    0.000
251.788;  359.875;    0.000;    0.000
251.856;  271.875;    0.000;    0.000
251.925;  279.875;    0.000;    0.000
251.993;  341.875;    0.000;    0.000
252.062;  347.875;    0.000;    0.000
252.130;  325.875;    0.000;    0.000
252.198;  313.875;    0.000;    0.000
252.267;  335.875;    0.000;    0.000
252.335;  280.875;    0.000;    0.000
252.403;  317.875;    0.000;    0.000
252.472;  308.875;    0.000;    0.000
252.540;  312.875;    0.000;    0.000
252.608;  311.875;    0.000;    0.000
252.677;  311.875;    0.000;    0.000
252.745;  326.875;    0.000;    0.000
252.813;  291.875;    0.000;    0.000
252.881;  277.875;    0.000;    0.000
252.950;  305.875;    0.000;    0.000
253.018;  311.875;    0.000;    0.000
253.086;  300.875;    0.000;    0.000
253.155;  301.875;    0.000;    0.000
253.223;  294.875;    0.000;    0.000
253.291;  290.875;    0.000;    0.000
253.359;  349.875;    0.000;    0.000
253.428;  345.875;    0.000;    0.000
253.496;  320.875;    0.000;    0.000
253.564;  302.875;    0.000;    0.000
253.632;  292.875;    0.000;    0.000
253.700;  266.875;    0.000;    0.000
253.769;  310.875;    0.000;    0.000
253.837;  275.875;    0.000;    0.000
253.905;  334.875;    0.000;    0.000
253.973;  333.875;    0.000;    0.000
254.041;  282.875;    0.000;    0.000
254.110;  276.875;    0.000;    0.000
254.178;  273.875;    0.000;    0.000
254.246;  264.875;    0.000;    0.000
254.314;  294.875;    0.000;    0.000
254.382;  280.875;    0.000;    0.000
254.450;  301.875;    0.000;    0.000
254.518;  302.875;    0.000;    0.000
254.587;  299.875;    0.000;    0.000
254.655;  306.875;    0.000;    0.000
254.723;  263.875;    0.000;    0.000
254.791;  288.875;    0.000;    0.000
254.859;  302.875;    0.000;    0.000
254.927;  309.875;    0.000;    0.000
254.995;  256.875;    0.000;    0.000
255.063;  273.875;    0.000;    0.000
255.131;  279.875;    0.000;    0.000
255.199;  332.875;    0.000;    0.000
255.267;  254.875;    0.000;    0.000
255.336;  325.875;    0.000;    0.000
255.404;  282.875;    0.000;    0.000
255.472;  321.875;    0.000;    0.000
255.540;  291.875;    0.000;    0.000
255.608;  360.875;    0.000;    0.000
255.676;  286.875;    0.000;    0.000
255.744;  304.875;    0.000;    0.000
255.812;  296.875;    0.000;    0.000
255.880;  323.875;    0.000;    0.000
255.948;  295.875;    0.000;    0.000
256.016;  270.875;    0.000;    0.000
256.084;  349.875;    0.000;    0.000
256.152;  297.875;    0.000;    0.000
256.220;  271.875;    0.000;    0.000
256.288;  305.875;    0.000;    0.000
256.356;  282.875;    0.000;    0.000
256.424;  256.875;    0.000;    0.000
256.491;  262.875;    0.000;    0.000
256.559;  305.875;    0.000;    0.000
256.627;  296.875;    0.000;    0.000
256.695;  298.875;    0.000;    0.000
256.763;  317.875;    0.000;    0.000
256.831;  276.875;    0.000;    0.000
256.899;  276.875;    0.000;    0.000
256.967;  301.875;    0.000;    0.000
257.035;  292.875;    0.000;    0.000
257.103;  348.875;    0.000;    0.000
257.171;  257.875;    0.000;    0.000
257.238;  233.875;    0.000;    0.000
257.306;  286.875;    0.000;    0.000
257.374;  303.875;    0.000;    0.000
257.442;  273.875;    0.000;    0.000
257.510;  284.875;    0.000;    0.000
257.578;  304.875;    0.000;    0.000
257.646;  308.875;    0.000;    0.000
257.713;  307.875;    0.000;    0.000
257.781;  274.875;    0.000;    0.000
257.849;  325.875;    0.000;    0.000
257.917;  321.875;    0.000;    0.000
257.985;  293.875;    0.000;    0.000
258.052;  281.875;    0.000;    0.000
258.120;  342.875;    0.000;    0.000
258.188;  314.875;    0.000;    0.000
258.256;  278.875;    0.000;    0.000
258.324;  314.875;    0.000;    0.000
258.391;  296.875;    0.000;    0.000
258.459;  318.875;    0.000;    0.000
258.527;  314.875;    0.000;    0.000
258.595;  294.875;    0.000;    0.000
258.662;  254.875;    0.000;    0.000
258.730;  295.875;    0.000;    0.000
258.798;  268.875;    0.000;    0.000
258.865;  292.875;    0.000;    0.000
258.933;  314.875;    0.000;    0.000
259.001;  304.875;    0.000;    0.000
259.069;  289.875;    0.000;    0.000
259.136;  299.875;    0.000;    0.000
259.204;  325.875;    0.000;    0.000
259.272;  352.875;    0.000;    0.000
259.339;  307.875;    0.000;    0.000
259.407;  364.875;    0.000;    0.000
259.475;  325.875;    0.000;    0.000
259.542;  298.875;    0.000;    0.000
259.610;  321.875;    0.000;    0.000
259.677;  345.875;    0.000;    0.000
259.745;  285.875;    0.000;    0.000
259.813;  330.875;    0.000;    0.000
259.880;  344.875;    0.000;    0.000
259.948;  338.875;    0.000;    0.000
260.016;  330.875;    0.000;    0.000
260.083;  380.875;    0.000;    0.000
260.151;  354.875;    0.000;    0.000
260.218;  343.875;    0.000;    0.000
260.286;  356.875;    0.000;    0.000
260.353;  400.875;    0.000;    0.000
260.421;  307.875;    0.000;    0.000
260.489;  342.875;    0.000;    0.000
260.556;  395.875;    0.000;    0.000
260.624;  399.875;    0.000;    0.000
260.691;  347.875;    0.000;    0.000
260.759;  407.875;    0.000;    0.000
260.826;  330.875;    0.000;    0.000
260.894;  343.875;    0.000;    0.000
260.961;  387.875;    0.000;    0.000
261.029;  383.875;    0.000;    0.000
261.096;  415.875;    0.000;    0.000
261.164;  386.875;    0.000;    0.000
261.231;  389.875;    0.000;    0.000
261.299;  389.875;    0.000;    0.000
261.366;  403.875;    0.000;    0.000
261.434;  393.875;    0.000;    0.000
261.501;  350.875;    0.000;    0.000
261.568;  390.875;    0.000;    0.000
261.636;  374.875;    0.000;    0.000
261.703;  399.875;    0.000;    0.000
261.771;  406.875;    0.000;    0.000
261.838;  416.875;    0.000;    0.000
261.906;  402.875;    0.000;    0.000
261.973;  428.875;    0.000;    0.000
262.040;  421.875;    0.000;    0.000
262.108;  362.875;    0.000;    0.000
262.175;  375.875;    0.000;    0.000
262.243;  390.875;    0.000;    0.000
262.310;  479.875;    0.000;    0.000
262.377;  370.875;    0.000;    0.000
262.445;  430.875;    0.000;    0.000
262.512;  423.875;    0.000;    0.000
262.579;  422.875;    0.000;    0.000
262.647;  427.875;    0.000;    0.000
262.714;  452.875;    0.000;    0.000
262.781;  424.875;    0.000;    0.000
262.849;  467.875;    0.000;    0.000
262.916;  470.875;    0.000;    0.000
262.983;  461.875;    0.000;    0.000
263.051;  491.875;    0.000;    0.000
263.118;  409.875;    0.000;    0.000
263.185;  487.875;    0.000;    0.000
263.252;  490.875;    0.000;    0.000
263.320;  480.875;    0.000;    0.000
263.387;  435.875;    0.000;    0.000
263.454;  440.875;    0.000;    0.000
263.522;  455.875;    0.000;    0.000
263.589;  426.875;    0.000;    0.000
263.656;  417.875;    0.000;    0.000
263.723;  437.875;    0.000;    0.000
263.790;  455.875;    0.000;    0.000
263.858;  491.875;    0.000;    0.000
263.925;  490.875;    0.000;    0.000
263.992;  466.875;    0.000;    0.000
264.059;  506.875;    0.000;    0.000
264.126;  471.875;    0.000;    0.000
264.194;  505.875;    0.000;    0.000
264.261;  492.875;    0.000;    0.000
264.328;  498.875;    0.000;    0.000
264.395;  476.875;    0.000;    0.000
264.462;  563.875;    0.000;    0.000
264.529;  514.875;    0.000;    0.000
264.597;  461.875;    0.000;    0.000
264.664;  512.875;    0.000;    0.000
264.731;  539.875;    0.000;    0.000
264.798;  491.875;    0.000;    0.000
264.865;  510.875;    0.000;    0.000
264.932;  480.875;    0.000;    0.000
264.999;  505.875;    0.000;    0.000
265.066;  555.875;    0.000;    0.000
265.133;  535.875;    0.000;    0.000
265.201;  520.875;    0.000;    0.000
265.268;  551.875;    0.000;    0.000
265.335;  556.875;    0.000;    0.000
265.402;  557.875;    0.000;    0.000
265.469;  523.875;    0.000;    0.000
265.536;  559.875;    0.000;    0.000
265.603;  567.875;    0.000;    0.000
265.670;  613.875;    0.000;    0.000
265.737;  516.875;    0.000;    0.000
265.804;  535.875;    0.000;    0.000
265.871;  547.875;    0.000;    0.000
265.938;  565.875;    0.000;    0.000
266.005;  566.875;    0.000;    0.000
266.072;  579.875;    0.000;    0.000
266.139;  553.875;    0.000;    0.000
266.206;  519.875;    0.000;    0.000
266.273;  612.875;    0.000;    0.000
266.340;  544.875;    0.000;    0.000
266.407;  573.875;    0.000;    0.000
266.474;  552.875;    0.000;    0.000
266.541;  547.875;    0.000;    0.000
266.608;  537.875;    0.000;    0.000
266.675;  563.875;    0.000;    0.000
266.742;  570.875;    0.000;    0.000
266.808;  565.875;    0.000;    0.000
266.875;  555.875;    0.000;    0.000
266.942;  578.875;    0.000;    0.000
267.009;  577.875;    0.000;    0.000
267.076;  608.875;    0.000;    0.000
267.143;  584.875;    0.000;    0.000
267.210;  537.875;    0.000;    0.000
267.277;  586.875;    0.000;    0.000
267.344;  564.875;    0.000;    0.000
267.410;  611.875;    0.000;    0.000
267.477;  619.875;    0.000;    0.000
267.544;  618.875;    0.000;    0.000
267.611;  602.875;    0.000;    0.000
267.678;  571.875;    0.000;    0.000
267.745;  637.875;    0.000;    0.000
267.811;  579.875;    0.000;    0.000
267.878;  612.875;    0.000;    0.000
267.945;  562.875;    0.000;    0.000
268.012;  633.875;    0.000;    0.000
268.079;  610.875;    0.000;    0.000
268.145;  581.875;    0.000;    0.000
268.212;  619.875;    0.000;    0.000
268.279;  594.875;    0.000;    0.000
268.346;  606.875;    0.000;    0.000
268.412;  614.875;    0.000;    0.000
268.479;  558.875;    0.000;    0.000
268.546;  569.875;    0.000;    0.000
268.613;  620.875;    0.000;    0.000
268.679;  594.875;    0.000;    0.000
268.746;  648.875;    0.000;    0.000
268.813;  590.875;    0.000;    0.000
268.879;  608.875;    0.000;    0.000
268.946;  579.875;    0.000;    0.000
269.013;  588.875;    0.000;    0.000
269.079;  583.875;    0.000;    0.000
269.146;  598.875;    0.000;    0.000
269.213;  589.875;    0.000;    0.000
269.280;  619.875;    0.000;    0.000
269.346;  633.875;    0.000;    0.000
269.413;  553.875;    0.000;    0.000
269.479;  648.875;    0.000;    0.000
269.546;  624.875;    0.000;    0.000
269.613;  597.875;    0.000;    0.000
269.679;  616.875;    0.000;    0.000
269.746;  610.875;    0.000;    0.000
269.813;  605.875;    0.000;    0.000
269.879;  659.875;    0.000;    0.000
269.946;  622.875;    0.000;    0.000
270.012;  629.875;    0.000;    0.000
270.079;  648.875;    0.000;    0.000
270.145;  610.875;    0.000;    0.000
270.212;  599.875;    0.000;    0.000
270.279;  616.875;    0.000;    0.000
270.345;  592.875;    0.000;    0.000
270.412;  585.875;    0.000;    0.000
270.478;  580.875;    0.000;    0.000
270.545;  657.875;    0.000;    0.000
270.611;  675.875;    0.000;    0.000
270.678;  643.875;    0.000;    0.000
270.744;  606.875;    0.000;    0.000
270.811;  597.875;    0.000;    0.000
270.877;  554.875;    0.000;    0.000
270.944;  569.875;    0.000;    0.000
271.010;  591.875;    0.000;    0.000
271.077;  602.875;    0.000;    0.000
271.143;  622.875;    0.000;    0.000
271.210;  600.875;    0.000;    0.000
271.276;  618.875;    0.000;    0.000
271.342;  597.875;    0.000;    0.000
271.409;  654.875;    0.000;    0.000
271.475;  602.875;    0.000;    0.000
271.542;  633.875;    0.000;    0.000
271.608;  578.875;    0.000;    0.000
271.675;  516.875;    0.000;    0.000
271.741;  638.875;    0.000;    0.000
271.807;  620.875;    0.000;    0.000
271.874;  608.875;    0.000;    0.000
271.940;  606.875;    0.000;    0.000
272.007;  587.875;    0.000;    0.000
272.073;  596.875;    0.000;    0.000
272.139;  581.875;    0.000;    0.000
272.206;  597.875;    0.000;    0.000
272.272;  684.875;    0.000;    0.000
272.338;  631.875;    0.000;    0.000
272.405;  629.875;    0.000;    0.000
272.471;  576.875;    0.000;    0.000
272.537;  574.875;    0.000;    0.000
272.604;  593.875;    0.000;    0.000
272.670;  661.875;    0.000;    0.000
272.736;  578.875;    0.000;    0.000
272.802;  641.875;    0.000;    0.000
272.869;  612.875;    0.000;    0.000
272.935;  574.875;    0.000;    0.000
273.001;  614.875;    0.000;    0.000
273.068;  574.875;    0.000;    0.000
273.134;  648.875;    0.000;    0.000
273.200;  629.875;    0.000;    0.000
273.266;  620.875;    0.000;    0.000
273.333;  590.875;    0.000;    0.000
273.399;  602.875;    0.000;    0.000
273.465;  609.875;    0.000;    0.000
273.531;  634.875;    0.000;    0.000
273.597;  665.875;    0.000;    0.000
273.664;  656.875;    0.000;    0.000
273.730;  622.875;    0.000;    0.000
273.796;  624.875;    0.000;    0.000
273.862;  646.875;    0.000;    0.000
273.928;  650.875;    0.000;    0.000
273.995;  667.875;    0.000;    0.000
274.061;  686.875;    0.000;    0.000
274.127;  631.875;    0.000;    0.000
274.193;  570.875;    0.000;    0.000
274.259;  674.875;    0.000;    0.000
274.325;  699.875;    0.000;    0.000
274.391;  706.875;    0.000;    0.000
274.457;  617.875;    0.000;    0.000
274.524;  684.875;    0.000;    0.000
274.590;  624.875;    0.000;    0.000
274.656;  697.875;    0.000;    0.000
274.722;  644.875;    0.000;    0.000
274.788;  688.875;    0.000;    0.000
274.854;  681.875;    0.000;    0.000
274.920;  643.875;    0.000;    0.000
274.986;  682.875;    0.000;    0.000
275.052;  717.875;    0.000;    0.000
275.118;  619.875;    0.000;    0.000
275.184;  658.875;    0.000;    0.000
275.250;  699.875;    0.000;    0.000
275.316;  752.875;    0.000;    0.000
275.382;  706.875;    0.000;    0.000
275.448;  677.875;    0.000;    0.000
275.514;  682.875;    0.000;    0.000
275.580;  695.875;    0.000;    0.000
275.646;  711.875;    0.000;    0.000
275.712;  710.875;    0.000;    0.000
275.778;  702.875;    0.000;    0.000
275.844;  674.875;    0.000;    0.000
275.910;  717.875;    0.000;    0.000
275.976;  725.875;    0.000;    0.000
276.042;  740.875;    0.000;    0.000
276.108;  766.875;    0.000;    0.000
276.174;  778.875;    0.000;    0.000
276.240;  750.875;    0.000;    0.000
276.306;  738.875;    0.000;    0.000
276.372;  793.875;    0.000;    0.000
276.437;  820.875;    0.000;    0.000
276.503;  786.875;    0.000;    0.000
276.569;  794.875;    0.000;    0.000
276.635;  810.875;    0.000;    0.000
276.701;  864.875;    0.000;    0.000
276.767;  825.875;    0.000;    0.000
276.833;  822.875;    0.000;    0.000
276.899;  832.875;    0.000;    0.000
276.964;  892.875;    0.000;    0.000
277.030;  959.875;    0.000;    0.000
277.096;  868.875;    0.000;    0.000
277.162;  910.875;    0.000;    0.000
277.228;  919.875;    0.000;    0.000
277.293;  995.875;    0.000;    0.000
277.359; 1057.875;    0.000;    0.000
277.425; 1093.875;    0.000;    0.000
277.491; 1100.875;    0.000;    0.000
277.557; 1213.875;    0.000;    0.000
277.622; 1613.875;    0.000;    0.000
277.688; 1776.875;    0.000;    0.000
277.754; 1610.875;    0.000;    0.000
277.820; 1865.875;    0.000;    0.000
277.885; 1976.875;    0.000;    0.000
277.951; 2506.875;    0.000;    0.000
278.017; 2597.875;    0.000;    0.000
278.083; 1980.875;    0.000;    0.000
278.148; 2040.875;    0.000;    0.000
278.214; 1901.875;    0.000;    0.000
278.280; 2086.875;    0.000;    0.000
278.345; 1978.875;    0.000;    0.000
278.411; 1787.875;    0.000;    0.000
278.477; 1899.875;    0.000;    0.000
278.542; 2014.875;    0.000;    0.000
278.608; 2092.875;    0.000;    0.000
278.674; 2282.875;    0.000;    0.000
278.739; 2525.875;    0.000;    0.000
278.805; 2781.875;    0.000;    0.000
278.871; 3176.875;    0.000;    0.000
278.936; 3913.875;    0.000;    0.000
279.002; 5394.875;    0.000;    0.000
279.067; 7590.875;    0.000;    0.000
279.133; 8246.875;    0.000;    0.000
279.199; 7181.875;    0.000;    0.000
279.264; 7238.875;    0.000;    0.000
279.330; 8210.875;    0.000;    0.000
279.395;10098.875;    0.000;    0.000
279.461;13142.875;    0.000;    0.000
279.527;15138.875;    0.000;    0.000
279.592;15124.875;    0.000;    0.000
279.658;13102.875;    0.000;    0.000
279.723;11840.875;    0.000;    0.000
279.789;12360.875;    0.000;    0.000
279.854;11692.875;    0.000;    0.000
279.920; 9879.875;    0.000;    0.000
279.985; 8742.875;    0.000;    0.000
280.051; 8469.875;    0.000;    0.000
280.116; 9531.875;    0.000;    0.000
280.182;12081.875;    0.000;    0.000
280.247;14563.875;    0.000;    0.000
280.313;13920.875;    0.000;    0.000
280.378;10294.875;    0.000;    0.000
280.444; 7405.875;    0.000;    0.000
280.509; 5916.875;    0.000;    0.000
280.574; 4725.875;    0.000;    0.000
280.640; 4165.875;    0.000;    0.000
280.705; 3810.875;    0.000;    0.000
280.771; 3302.875;    0.000;    0.000
280.836; 2909.875;    0.000;    0.000
280.902; 2798.875;    0.000;    0.000
280.967; 2662.875;    0.000;    0.000
281.032; 2500.875;    0.000;    0.000
281.098; 2310.875;    0.000;    0.000
281.163; 2192.875;    0.000;    0.000
281.229; 2166.875;    0.000;    0.000
281.294; 2032.875;    0.000;    0.000
281.359; 1849.875;    0.000;    0.000
281.425; 1864.875;    0.000;    0.000
281.490; 1799.875;    0.000;    0.000
281.555; 1662.875;    0.000;    0.000
281.621; 1617.875;    0.000;    0.000
281.686; 1552.875;    0.000;    0.000
281.751; 1521.875;    0.000;    0.000
281.816; 1493.875;    0.000;    0.000
281.882; 1444.875;    0.000;    0.000
281.947; 1510.875;    0.000;    0.000
282.012; 1389.875;    0.000;    0.000
282.078; 1438.875;    0.000;    0.000
282.143; 1324.875;    0.000;    0.000
282.208; 1345.875;    0.000;    0.000
282.273; 1338.875;    0.000;    0.000
282.339; 1338.875;    0.000;    0.000
282.404; 1238.875;    0.000;    0.000
282.469; 1247.875;    0.000;    0.000
282.534; 1274.875;    0.000;    0.000
282.600; 1164.875;    0.000;    0.000
282.665; 1124.875;    0.000;    0.000
282.730; 1128.875;    0.000;    0.000
282.795; 1131.875;    0.000;    0.000
282.860; 1144.875;    0.000;    0.000
282.926; 1193.875;    0.000;    0.000
282.991; 1089.875;    0.000;    0.000
283.056; 1079.875;    0.000;    0.000
283.121; 1105.875;    0.000;    0.000
283.186; 1101.875;    0.000;    0.000
283.251; 1130.875;    0.000;    0.000
283.316; 1042.875;    0.000;    0.000
283.382; 1129.875;    0.000;    0.000
283.447; 1098.875;    0.000;    0.000
283.512; 1080.875;    0.000;    0.000
283.577; 1148.875;    0.000;    0.000
283.642; 1102.875;    0.000;    0.000
283.707; 1050.875;    0.000;    0.000
283.772; 1116.875;    0.000;    0.000
283.837; 1093.875;    0.000;    0.000
283.902; 1003.875;    0.000;    0.000
283.967; 1018.875;    0.000;    0.000
284.032; 1044.875;    0.000;    0.000
284.097; 1081.875;    0.000;    0.000
284.163; 1044.875;    0.000;    0.000
284.228; 1045.875;    0.000;    0.000
284.293; 1070.875;    0.000;    0.000
284.358; 1063.875;    0.000;    0.000
284.423; 1160.875;    0.000;    0.000
284.488; 1045.875;    0.000;    0.000
284.553; 1126.875;    0.000;    0.000
284.618; 1150.875;    0.000;    0.000
284.683; 1195.875;    0.000;    0.000
284.748; 1237.875;    0.000;    0.000
284.812; 1230.875;    0.000;    0.000
284.877; 1382.875;    0.000;    0.000
284.942; 1572.875;    0.000;    0.000
285.007; 1799.875;    0.000;    0.000
285.072; 2206.875;    0.000;    0.000
285.137; 3440.875;    0.000;    0.000
285.202; 5050.875;    0.000;    0.000
285.267; 5121.875;    0.000;    0.000
285.332; 3503.875;    0.000;    0.000
285.397; 2500.875;    0.000;    0.000
285.462; 1907.875;    0.000;    0.000
285.527; 1680.875;    0.000;    0.000
285.591; 1576.875;    0.000;    0.000
285.656; 1443.875;    0.000;    0.000
285.721; 1313.875;    0.000;    0.000
285.786; 1297.875;    0.000;    0.000
285.851; 1215.875;    0.000;    0.000
285.916; 1129.875;    0.000;    0.000
285.981; 1151.875;    0.000;    0.000
286.045; 1140.875;    0.000;    0.000
286.110; 1112.875;    0.000;    0.000
286.175; 1069.875;    0.000;    0.000
286.240; 1038.875;    0.000;    0.000
286.305; 1091.875;    0.000;    0.000
286.369; 1063.875;    0.000;    0.000
286.434; 1087.875;    0.000;    0.000
286.499; 1026.875;    0.000;    0.000
286.564; 1118.875;    0.000;    0.000
286.628; 1047.875;    0.000;    0.000
286.693;  961.875;    0.000;    0.000
286.758; 1085.875;    0.000;    0.000
286.823;  944.875;    0.000;    0.000
286.887;  988.875;    0.000;    0.000
286.952;  965.875;    0.000;    0.000
287.017; 1038.875;    0.000;    0.000
287.082; 1014.875;    0.000;    0.000
287.146; 1043.875;    0.000;    0.000
287.211;  951.875;    0.000;    0.000
287.276;  982.875;    0.000;    0.000
287.340;  990.875;    0.000;    0.000
287.405;  960.875;    0.000;    0.000
287.470;  885.875;    0.000;    0.000
287.534;  951.875;    0.000;    0.000
287.599;  960.875;    0.000;    0.000
287.663; 1032.875;    0.000;    0.000
287.728;  965.875;    0.000;    0.000
287.793;  996.875;    0.000;    0.000
287.857; 1011.875;    0.000;    0.000
287.922;  963.875;    0.000;    0.000
287.987;  931.875;    0.000;    0.000
288.051;  946.875;    0.000;    0.000
288.116;  977.875;    0.000;    0.000
288.180;  945.875;    0.000;    0.000
288.245;  949.875;    0.000;    0.000
288.309;  979.875;    0.000;    0.000
288.374;  930.875;    0.000;    0.000
288.439;  972.875;    0.000;    0.000
288.503;  892.875;    0.000;    0.000
288.568; 1036.875;    0.000;    0.000
288.632;  955.875;    0.000;    0.000
288.697;  954.875;    0.000;    0.000
288.761;  951.875;    0.000;    0.000
288.826;  881.875;    0.000;    0.000
288.890;  965.875;    0.000;    0.000
288.955;  903.875;    0.000;    0.000
289.019;  950.875;    0.000;    0.000
289.084;  959.875;    0.000;    0.000
289.148;  892.875;    0.000;    0.000
289.212;  950.875;    0.000;    0.000
289.277;  937.875;    0.000;    0.000
289.341;  916.875;    0.000;    0.000
289.406;  957.875;    0.000;    0.000
289.470;  975.875;    0.000;    0.000
289.535;  936.875;    0.000;    0.000
289.599;  916.875;    0.000;    0.000
289.663;  921.875;    0.000;    0.000
289.728;  876.875;    0.000;    0.000
289.792;  917.875;    0.000;    0.000
289.857;  983.875;    0.000;    0.000
289.921;  925.875;    0.000;    0.000
289.985;  932.875;    0.000;    0.000
290.050;  989.875;    0.000;    0.000
290.114;  936.875;    0.000;    0.000
290.178;  921.875;    0.000;    0.000
290.243;  908.875;    0.000;    0.000
290.307;  993.875;    0.000;    0.000
290.371;  946.875;    0.000;    0.000
290.436; 1005.875;    0.000;    0.000
290.500;  948.875;    0.000;    0.000
290.564; 1029.875;    0.000;    0.000
290.629;  966.875;    0.000;    0.000
290.693;  936.875;    0.000;    0.000
290.757;  942.875;    0.000;    0.000
290.821;  997.875;    0.000;    0.000
290.886;  916.875;    0.000;    0.000
290.950; 1010.875;    0.000;    0.000
291.014;  991.875;    0.000;    0.000
291.078;  944.875;    0.000;    0.000
291.143;  990.875;    0.000;    0.000
291.207; 1051.875;    0.000;    0.000
291.271;  996.875;    0.000;    0.000
291.335; 1099.875;    0.000;    0.000
291.399; 1007.875;    0.000;    0.000
291.464; 1060.875;    0.000;    0.000
291.528; 1159.875;    0.000;    0.000
291.592; 1071.875;    0.000;    0.000
291.656; 1075.875;    0.000;    0.000
291.720; 1147.875;    0.000;    0.000
291.784; 1073.875;    0.000;    0.000
291.849; 1087.875;    0.000;    0.000
291.913; 1107.875;    0.000;    0.000
291.977; 1093.875;    0.000;    0.000
292.041; 1125.875;    0.000;    0.000
292.105; 1106.875;    0.000;    0.000
292.169; 1005.875;    0.000;    0.000
292.233; 1161.875;    0.000;    0.000
292.297; 1134.875;    0.000;    0.000
292.361; 1154.875;    0.000;    0.000
292.425; 1140.875;    0.000;    0.000
292.490; 1166.875;    0.000;    0.000
292.554; 1270.875;    0.000;    0.000
292.618; 1302.875;    0.000;    0.000
292.682; 1430.875;    0.000;    0.000
292.746; 1487.875;    0.000;    0.000
292.810; 1906.875;    0.000;    0.000
292.874; 2474.875;    0.000;    0.000
292.938; 2726.875;    0.000;    0.000
293.002; 2514.875;    0.000;    0.000
293.066; 2293.875;    0.000;    0.000
293.130; 2034.875;    0.000;    0.000
293.194; 1976.875;    0.000;    0.000
293.258; 1998.875;    0.000;    0.000
293.322; 1810.875;    0.000;    0.000
293.386; 1918.875;    0.000;    0.000
293.450; 1972.875;    0.000;    0.000
293.514; 2219.875;    0.000;    0.000
293.577; 2722.875;    0.000;    0.000
293.641; 3654.875;    0.000;    0.000
293.705; 4382.875;    0.000;    0.000
293.769; 3877.875;    0.000;    0.000
293.833; 3523.875;    0.000;    0.000
293.897; 3034.875;    0.000;    0.000
293.961; 2774.875;    0.000;    0.000
294.025; 2496.875;    0.000;    0.000
294.089; 2306.875;    0.000;    0.000
294.152; 2159.875;    0.000;    0.000
294.216; 2070.875;    0.000;    0.000
294.280; 1942.875;    0.000;    0.000
294.344; 1775.875;    0.000;    0.000
294.408; 1762.875;    0.000;    0.000
294.472; 1713.875;    0.000;    0.000
294.536; 1578.875;    0.000;    0.000
294.599; 1596.875;    0.000;    0.000
294.663; 1553.875;    0.000;    0.000
294.727; 1490.875;    0.000;    0.000
294.791; 1472.875;    0.000;    0.000
294.855; 1408.875;    0.000;    0.000
294.918; 1351.875;    0.000;    0.000
294.982; 1406.875;    0.000;    0.000
295.046; 1332.875;    0.000;    0.000
295.110; 1395.875;    0.000;    0.000
295.173; 1269.875;    0.000;    0.000
295.237; 1351.875;    0.000;    0.000
295.301; 1270.875;    0.000;    0.000
295.364; 1233.875;    0.000;    0.000
295.428; 1221.875;    0.000;    0.000
295.492; 1182.875;    0.000;    0.000
295.556; 1311.875;    0.000;    0.000
295.619; 1312.875;    0.000;    0.000
295.683; 1258.875;    0.000;    0.000
295.747; 1130.875;    0.000;    0.000
295.810; 1198.875;    0.000;    0.000
295.874; 1217.875;    0.000;    0.000
295.938; 1163.875;    0.000;    0.000
296.001; 1212.875;    0.000;    0.000
296.065; 1190.875;    0.000;    0.000
296.128; 1142.875;    0.000;    0.000
296.192; 1194.875;    0.000;    0.000
296.256; 1179.875;    0.000;    0.000
296.319; 1127.875;    0.000;    0.000
296.383; 1144.875;    0.000;    0.000
296.447; 1138.875;    0.000;    0.000
296.510; 1154.875;    0.000;    0.000
296.574; 1165.875;    0.000;    0.000
296.637; 1157.875;    0.000;    0.000
296.701; 1175.875;    0.000;    0.000
296.764; 1154.875;    0.000;    0.000
296.828; 1188.875;    0.000;    0.000
296.891; 1066.875;    0.000;    0.000
296.955; 1204.875;    0.000;    0.000
297.018; 1135.875;    0.000;    0.000
297.082; 1174.875;    0.000;    0.000
297.145; 1143.875;    0.000;    0.000
297.209; 1116.875;    0.000;    0.000
297.272; 1185.875;    0.000;    0.000
297.336; 1135.875;    0.000;    0.000
297.399; 1160.875;    0.000;    0.000
297.463; 1141.875;    0.000;    0.000
297.526; 1155.875;    0.000;    0.000
297.590; 1124.875;    0.000;    0.000
297.653; 1155.875;    0.000;    0.000
297.717; 1215.875;    0.000;    0.000
297.780; 1104.875;    0.000;    0.000
297.843; 1103.875;    0.000;    0.000
297.907; 1107.875;    0.000;    0.000
297.970; 1131.875;    0.000;    0.000
298.034; 1049.875;    0.000;    0.000
298.097; 1207.875;    0.000;    0.000
298.160; 1121.875;    0.000;    0.000
298.224; 1111.875;    0.000;    0.000
298.287; 1215.875;    0.000;    0.000
298.350; 1100.875;    0.000;    0.000
298.414; 1121.875;    0.000;    0.000
298.477; 1102.875;    0.000;    0.000
298.540; 1145.875;    0.000;    0.000
298.604; 1169.875;    0.000;    0.000
298.667; 1169.875;    0.000;    0.000
298.730; 1078.875;    0.000;    0.000
298.794; 1074.875;    0.000;    0.000
298.857; 1166.875;    0.000;    0.000
298.920; 1050.875;    0.000;    0.000
298.984; 1130.875;    0.000;    0.000
299.047; 1132.875;    0.000;    0.000
299.110; 1098.875;    0.000;    0.000
299.173; 1094.875;    0.000;    0.000
299.237; 1138.875;    0.000;    0.000
299.300; 1086.875;    0.000;    0.000
299.363; 1109.875;    0.000;    0.000
299.426; 1108.875;    0.000;    0.000
299.489; 1070.875;    0.000;    0.000
299.553; 1120.875;    0.000;    0.000
299.616; 1192.875;    0.000;    0.000
299.679; 1074.875;    0.000;    0.000
299.742; 1079.875;    0.000;    0.000
299.805; 1136.875;    0.000;    0.000
299.868; 1123.875;    0.000;    0.000
299.932; 1043.875;    0.000;    0.000
299.995; 1106.875;    0.000;    0.000
300.058; 1093.875;    0.000;    0.000
300.121; 1101.875;    0.000;    0.000
300.184; 1113.875;    0.000;    0.000
300.247; 1093.875;    0.000;    0.000
300.310; 1018.875;    0.000;    0.000
300.374; 1126.875;    0.000;    0.000
300.437; 1108.875;    0.000;    0.000
300.500; 1110.875;    0.000;    0.000
300.563; 1086.875;    0.000;    0.000
300.626; 1108.875;    0.000;    0.000
300.689; 1106.875;    0.000;    0.000
300.752; 1037.875;    0.000;    0.000
300.815; 1084.875;    0.000;    0.000
300.878; 1118.875;    0.000;    0.000
300.941; 1087.875;    0.000;    0.000
301.004; 1054.875;    0.000;    0.000
301.067; 1014.875;    0.000;    0.000
301.130; 1093.875;    0.000;    0.000
301.193; 1086.875;    0.000;    0.000
301.256; 1151.875;    0.000;    0.000
301.319; 1126.875;    0.000;    0.000
301.382; 1120.875;    0.000;    0.000
301.445; 1144.875;    0.000;    0.000
301.508; 1068.875;    0.000;    0.000
301.571; 1081.875;    0.000;    0.000
301.634; 1102.875;    0.000;    0.000
301.697; 1085.875;    0.000;    0.000
301.760; 1153.875;    0.000;    0.000
301.823; 1091.875;    0.000;    0.000
301.885; 1066.875;    0.000;    0.000
301.948; 1074.875;    0.000;    0.000
302.011; 1042.875;    0.000;    0.000
302.074; 1206.875;    0.000;    0.000
302.137; 1097.875;    0.000;    0.000
302.200; 1138.875;    0.000;    0.000
302.263; 1138.875;    0.000;    0.000
302.326; 1076.875;    0.000;    0.000
302.388; 1084.875;    0.000;    0.000
302.451; 1166.875;    0.000;    0.000
302.514; 1108.875;    0.000;    0.000
302.577; 1118.875;    0.000;    0.000
302.640; 1111.875;    0.000;    0.000
302.703; 1105.875;    0.000;    0.000
302.765; 1184.875;    0.000;    0.000
302.828; 1145.875;    0.000;    0.000
302.891; 1116.875;    0.000;    0.000
302.954; 1155.875;    0.000;    0.000
303.016; 1208.875;    0.000;    0.000
303.079; 1159.875;    0.000;    0.000
303.142; 1122.875;    0.000;    0.000
303.205; 1179.875;    0.000;    0.000
303.267; 1213.875;    0.000;    0.000
303.330; 1161.875;    0.000;    0.000
303.393; 1163.875;    0.000;    0.000
303.456; 1106.875;    0.000;    0.000
303.518; 1121.875;    0.000;    0.000
303.581; 1146.875;    0.000;    0.000
303.644; 1122.875;    0.000;    0.000
303.706; 1155.875;    0.000;    0.000
303.769; 1156.875;    0.000;    0.000
303.832; 1106.875;    0.000;    0.000
303.894; 1162.875;    0.000;    0.000
303.957; 1160.875;    0.000;    0.000
304.020; 1207.875;    0.000;    0.000
304.082; 1203.875;    0.000;    0.000
304.145; 1248.875;    0.000;    0.000
304.207; 1196.875;    0.000;    0.000
304.270; 1215.875;    0.000;    0.000
304.333; 1237.875;    0.000;    0.000
304.395; 1231.875;    0.000;    0.000
304.458; 1217.875;    0.000;    0.000
304.520; 1247.875;    0.000;    0.000
304.583; 1205.875;    0.000;    0.000
304.646; 1248.875;    0.000;    0.000
304.708; 1201.875;    0.000;    0.000
304.771; 1242.875;    0.000;    0.000
304.833; 1333.875;    0.000;    0.000
304.896; 1258.875;    0.000;    0.000
304.958; 1267.875;    0.000;    0.000
305.021; 1262.875;    0.000;    0.000
305.083; 1212.875;    0.000;    0.000
305.146; 1236.875;    0.000;    0.000
305.208; 1190.875;    0.000;    0.000
305.271; 1235.875;    0.000;    0.000
305.333; 1318.875;    0.000;    0.000
305.396; 1243.875;    0.000;    0.000
305.458; 1307.875;    0.000;    0.000
305.520; 1302.875;    0.000;    0.000
305.583; 1313.875;    0.000;    0.000
305.645; 1286.875;    0.000;    0.000
305.708; 1303.875;    0.000;    0.000
305.770; 1281.875;    0.000;    0.000
305.833; 1288.875;    0.000;    0.000
305.895; 1312.875;    0.000;    0.000
305.957; 1292.875;    0.000;    0.000
306.020; 1307.875;    0.000;    0.000
306.082; 1336.875;    0.000;    0.000
306.144; 1309.875;    0.000;    0.000
306.207; 1303.875;    0.000;    0.000
306.269; 1301.875;    0.000;    0.000
306.331; 1271.875;    0.000;    0.000
306.394; 1285.875;    0.000;    0.000
306.456; 1252.875;    0.000;    0.000
306.518; 1349.875;    0.000;    0.000
306.581; 1282.875;    0.000;    0.000
306.643; 1345.875;    0.000;    0.000
306.705; 1344.875;    0.000;    0.000
306.768; 1355.875;    0.000;    0.000
306.830; 1402.875;    0.000;    0.000
306.892; 1430.875;    0.000;    0.000
306.954; 1412.875;    0.000;    0.000
307.017; 1375.875;    0.000;    0.000
307.079; 1407.875;    0.000;    0.000
307.141; 1418.875;    0.000;    0.000
307.203; 1420.875;    0.000;    0.000
307.266; 1397.875;    0.000;    0.000
307.328; 1415.875;    0.000;    0.000
307.390; 1401.875;    0.000;    0.000
307.452; 1418.875;    0.000;    0.000
307.514; 1411.875;    0.000;    0.000
307.577; 1366.875;    0.000;    0.000
307.639; 1455.875;    0.000;    0.000
307.701; 1408.875;    0.000;    0.000
307.763; 1436.875;    0.000;    0.000
307.825; 1455.875;    0.000;    0.000
307.887; 1456.875;    0.000;    0.000
307.949; 1497.875;    0.000;    0.000
308.012; 1507.875;    0.000;    0.000
308.074; 1471.875;    0.000;    0.000
308.136; 1455.875;    0.000;    0.000
308.198; 1425.875;    0.000;    0.000
308.260; 1524.875;    0.000;    0.000
308.322; 1497.875;    0.000;    0.000
308.384; 1447.875;    0.000;    0.000
308.446; 1463.875;    0.000;    0.000
308.508; 1580.875;    0.000;    0.000
308.570; 1505.875;    0.000;    0.000
308.632; 1556.875;    0.000;    0.000
308.694; 1583.875;    0.000;    0.000
308.756; 1499.875;    0.000;    0.000
308.818; 1553.875;    0.000;    0.000
308.880; 1550.875;    0.000;    0.000
308.942; 1521.875;    0.000;    0.000
309.004; 1647.875;    0.000;    0.000
309.066; 1645.875;    0.000;    0.000
309.128; 1580.875;    0.000;    0.000
309.190; 1586.875;    0.000;    0.000
309.252; 1626.875;    0.000;    0.000
309.314; 1683.875;    0.000;    0.000
309.376; 1702.875;    0.000;    0.000
309.438; 1653.875;    0.000;    0.000
309.500; 1676.875;    0.000;    0.000
309.562; 1672.875;    0.000;    0.000
309.624; 1717.875;    0.000;    0.000
309.686; 1812.875;    0.000;    0.000
309.747; 1696.875;    0.000;    0.000
309.809; 1761.875;    0.000;    0.000
309.871; 1751.875;    0.000;    0.000
309.933; 1664.875;    0.000;    0.000
309.995; 1681.875;    0.000;    0.000
310.057; 1673.875;    0.000;    0.000
310.119; 1724.875;    0.000;    0.000
310.180; 1639.875;    0.000;    0.000
310.242; 1563.875;    0.000;    0.000
310.304; 1612.875;    0.000;    0.000
310.366; 1564.875;    0.000;    0.000
310.428; 1577.875;    0.000;    0.000
310.489; 1551.875;    0.000;    0.000
310.551; 1559.875;    0.000;    0.000
310.613; 1589.875;    0.000;    0.000
310.675; 1649.875;    0.000;    0.000
310.737; 1526.875;    0.000;    0.000
310.798; 1569.875;    0.000;    0.000
310.860; 1609.875;    0.000;    0.000
310.922; 1512.875;    0.000;    0.000
310.983; 1594.875;    0.000;    0.000
311.045; 1578.875;    0.000;    0.000
311.107; 1562.875;    0.000;    0.000
311.169; 1486.875;    0.000;    0.000
311.230; 1633.875;    0.000;    0.000
311.292; 1554.875;    0.000;    0.000
311.354; 1542.875;    0.000;    0.000
311.415; 1568.875;    0.000;    0.000
311.477; 1578.875;    0.000;    0.000
311.539; 1528.875;    0.000;    0.000
311.600; 1648.875;    0.000;    0.000
311.662; 1602.875;    0.000;    0.000
311.724; 1581.875;    0.000;    0.000
311.785; 1600.875;    0.000;    0.000
311.847; 1605.875;    0.000;    0.000
311.908; 1565.875;    0.000;    0.000
311.970; 1518.875;    0.000;    0.000
312.032; 1572.875;    0.000;    0.000
312.093; 1619.875;    0.000;    0.000
312.155; 1602.875;    0.000;    0.000
312.216; 1606.875;    0.000;    0.000
312.278; 1636.875;    0.000;    0.000
312.339; 1585.875;    0.000;    0.000
312.401; 1589.875;    0.000;    0.000
312.462; 1616.875;    0.000;    0.000
312.524; 1550.875;    0.000;    0.000
312.585; 1569.875;    0.000;    0.000
312.647; 1562.875;    0.000;    0.000
312.708; 1590.875;    0.000;    0.000
312.770; 1651.875;    0.000;    0.000
312.831; 1622.875;    0.000;    0.000
312.893; 1664.875;    0.000;    0.000
312.954; 1642.875;    0.000;    0.000
313.016; 1638.875;    0.000;    0.000
313.077; 1543.875;    0.000;    0.000
313.139; 1534.875;    0.000;    0.000
313.200; 1589.875;    0.000;    0.000
313.261; 1642.875;    0.000;    0.000
313.323; 1700.875;    0.000;    0.000
313.384; 1603.875;    0.000;    0.000
313.446; 1700.875;    0.000;    0.000
313.507; 1602.875;    0.000;    0.000
313.568; 1616.875;    0.000;    0.000
313.630; 1657.875;    0.000;    0.000
313.691; 1625.875;    0.000;    0.000
313.752; 1593.875;    0.000;    0.000
313.814; 1622.875;    0.000;    0.000
313.875; 1597.875;    0.000;    0.000
313.936; 1650.875;    0.000;    0.000
313.998; 1640.875;    0.000;    0.000
314.059; 1666.875;    0.000;    0.000
314.120; 1648.875;    0.000;    0.000
314.182; 1722.875;    0.000;    0.000
314.243; 1664.875;    0.000;    0.000
314.304; 1671.875;    0.000;    0.000
314.365; 1666.875;    0.000;    0.000
314.427; 1597.875;    0.000;    0.000
314.488; 1602.875;    0.000;    0.000
314.549; 1681.875;    0.000;    0.000
314.610; 1643.875;    0.000;    0.000
314.672; 1628.875;    0.000;    0.000
314.733; 1616.875;    0.000;    0.000
314.794; 1600.875;    0.000;    0.000
314.855; 1656.875;    0.000;    0.000
314.917; 1601.875;    0.000;    0.000
314.978; 1671.875;    0.000;    0.000
315.039; 1589.875;    0.000;    0.000
315.100; 1639.875;    0.000;    0.000
315.161; 1669.875;    0.000;    0.000
315.222; 1702.875;    0.000;    0.000
315.283; 1681.875;    0.000;    0.000
315.345; 1692.875;    0.000;    0.000
315.406; 1681.875;    0.000;    0.000
315.467; 1700.875;    0.000;    0.000
315.528; 1696.875;    0.000;    0.000
315.589; 1644.875;    0.000;    0.000
315.650; 1649.875;    0.000;    0.000
315.711; 1614.875;    0.000;    0.000
315.772; 1655.875;    0.000;    0.000
315.833; 1675.875;    0.000;    0.000
315.894; 1733.875;    0.000;    0.000
315.955; 1688.875;    0.000;    0.000
316.016; 1636.875;    0.000;    0.000
316.078; 1699.875;    0.000;    0.000
316.139; 1701.875;    0.000;    0.000
316.200; 1570.875;    0.000;    0.000
316.261; 1779.875;    0.000;    0.000
316.322; 1701.875;    0.000;    0.000
316.383; 1719.875;    0.000;    0.000
316.444; 1728.875;    0.000;    0.000
316.504; 1696.875;    0.000;    0.000
316.565; 1697.875;    0.000;    0.000
316.626; 1744.875;    0.000;    0.000
316.687; 1767.875;    0.000;    0.000
316.748; 1673.875;    0.000;    0.000
316.809; 1719.875;    0.000;    0.000
316.870; 1786.875;    0.000;    0.000
316.931; 1703.875;    0.000;    0.000
316.992; 1751.875;    0.000;    0.000
317.053; 1704.875;    0.000;    0.000
317.114; 1753.875;    0.000;    0.000
317.175; 1820.875;    0.000;    0.000
317.235; 1733.875;    0.000;    0.000
317.296; 1729.875;    0.000;    0.000
317.357; 1717.875;    0.000;    0.000
317.418; 1772.875;    0.000;    0.000
317.479; 1799.875;    0.000;    0.000
317.540; 1740.875;    0.000;    0.000
317.601; 1702.875;    0.000;    0.000
317.661; 1726.875;    0.000;    0.000
317.722; 1683.875;    0.000;    0.000
317.783; 1681.875;    0.000;    0.000
317.844; 1715.875;    0.000;    0.000
317.904; 1708.875;    0.000;    0.000
317.965; 1738.875;    0.000;    0.000
318.026; 1705.875;    0.000;    0.000
318.087; 1690.875;    0.000;    0.000
318.148; 1733.875;    0.000;    0.000
318.208; 1723.875;    0.000;    0.000
318.269; 1792.875;    0.000;    0.000
318.330; 1814.875;    0.000;    0.000
318.390; 1768.875;    0.000;    0.000
318.451; 1852.875;    0.000;    0.000
318.512; 1849.875;    0.000;    0.000
318.572; 1851.875;    0.000;    0.000
318.633; 1866.875;    0.000;    0.000
318.694; 1771.875;    0.000;    0.000
318.754; 1803.875;    0.000;    0.000
318.815; 1800.875;    0.000;    0.000
318.876; 1759.875;    0.000;    0.000
318.936; 1672.875;    0.000;    0.000
318.997; 1727.875;    0.000;    0.000
319.058; 1801.875;    0.000;    0.000
319.118; 1805.875;    0.000;    0.000
319.179; 1743.875;    0.000;    0.000
319.239; 1685.875;    0.000;    0.000
319.300; 1709.875;    0.000;    0.000
319.361; 1736.875;    0.000;    0.000
319.421; 1648.875;    0.000;    0.000
319.482; 1681.875;    0.000;    0.000
319.542; 1620.875;    0.000;    0.000
319.603; 1716.875;    0.000;    0.000
319.663; 1709.875;    0.000;    0.000
319.724; 1697.875;    0.000;    0.000
319.784; 1774.875;    0.000;    0.000
319.845; 1733.875;    0.000;    0.000
319.905; 1769.875;    0.000;    0.000
319.966; 1756.875;    0.000;    0.000
320.026; 1724.875;    0.000;    0.000
320.087; 1762.875;    0.000;    0.000
320.147; 1780.875;    0.000;    0.000
320.208; 1826.875;    0.000;    0.000
320.268; 1737.875;    0.000;    0.000
320.329; 1785.875;    0.000;    0.000
320.389; 1792.875;    0.000;    0.000
320.449; 1847.875;    0.000;    0.000
320.510; 1822.875;    0.000;    0.000
320.570; 1830.875;    0.000;    0.000
320.631; 1830.875;    0.000;    0.000
320.691; 1781.875;    0.000;    0.000
320.751; 1807.875;    0.000;    0.000
320.812; 1722.875;    0.000;    0.000
320.872; 1794.875;    0.000;    0.000
320.932; 1782.875;    0.000;    0.000
320.993; 1814.875;    0.000;    0.000
321.053; 1783.875;    0.000;    0.000
321.113; 1840.875;    0.000;    0.000
321.174; 1842.875;    0.000;    0.000
321.234; 1878.875;    0.000;    0.000
321.294; 1720.875;    0.000;    0.000
321.355; 1727.875;    0.000;    0.000
321.415; 1805.875;    0.000;    0.000
321.475; 1794.875;    0.000;    0.000
321.535; 1832.875;    0.000;    0.000
321.596; 1809.875;    0.000;    0.000
321.656; 1859.875;    0.000;    0.000
321.716; 1828.875;    0.000;    0.000
321.776; 1840.875;    0.000;    0.000
321.837; 1833.875;    0.000;    0.000
321.897; 1840.875;    0.000;    0.000
321.957; 1823.875;    0.000;    0.000
322.017; 1853.875;    0.000;    0.000
322.077; 1911.875;    0.000;    0.000
322.138; 1846.875;    0.000;    0.000
322.198; 1789.875;    0.000;    0.000
322.258; 1947.875;    0.000;    0.000
322.318; 1910.875;    0.000;    0.000
322.378; 1943.875;    0.000;    0.000
322.438; 1880.875;    0.000;    0.000
322.499; 1910.875;    0.000;    0.000
322.559; 1935.875;    0.000;    0.000
322.619; 1842.875;    0.000;    0.000
322.679; 1867.875;    0.000;    0.000
322.739; 1869.875;    0.000;    0.000
322.799; 1948.875;    0.000;    0.000
322.859; 1933.875;    0.000;    0.000
322.919; 1838.875;    0.000;    0.000
322.979; 1871.875;    0.000;    0.000
323.039; 1814.875;    0.000;    0.000
323.099; 1855.875;    0.000;    0.000
323.159; 1900.875;    0.000;    0.000
323.219; 1778.875;    0.000;    0.000
323.279; 1841.875;    0.000;    0.000
323.339; 1810.875;    0.000;    0.000
323.399; 1893.875;    0.000;    0.000
323.459; 1907.875;    0.000;    0.000
323.519; 1930.875;    0.000;    0.000
323.579; 1902.875;    0.000;    0.000
323.639; 1974.875;    0.000;    0.000
323.699; 2016.875;    0.000;    0.000
323.759; 2001.875;    0.000;    0.000
323.819; 2070.875;    0.000;    0.000
323.879; 2026.875;    0.000;    0.000
323.939; 2012.875;    0.000;    0.000
323.999; 1983.875;    0.000;    0.000
324.059; 1952.875;    0.000;    0.000
324.119; 2028.875;    0.000;    0.000
324.178; 1868.875;    0.000;    0.000
324.238; 1921.875;    0.000;    0.000
324.298; 1897.875;    0.000;    0.000
324.358; 1913.875;    0.000;    0.000
324.418; 1887.875;    0.000;    0.000
324.478; 1901.875;    0.000;    0.000
324.538; 1886.875;    0.000;    0.000
324.597; 1912.875;    0.000;    0.000
324.657; 1884.875;    0.000;    0.000
324.717; 1961.875;    0.000;    0.000
324.777; 1904.875;    0.000;    0.000
324.837; 1826.875;    0.000;    0.000
324.896; 1901.875;    0.000;    0.000
324.956; 1931.875;    0.000;    0.000
325.016; 1904.875;    0.000;    0.000
325.076; 1921.875;    0.000;    0.000
325.135; 1878.875;    0.000;    0.000
325.195; 1928.875;    0.000;    0.000
325.255; 1895.875;    0.000;    0.000
325.315; 1879.875;    0.000;    0.000
325.374; 1900.875;    0.000;    0.000
325.434; 1938.875;    0.000;    0.000
325.494; 1881.875;    0.000;    0.000
325.553; 1935.875;    0.000;    0.000
325.613; 1983.875;    0.000;    0.000
325.673; 1975.875;    0.000;    0.000
325.732; 1908.875;    0.000;    0.000
325.792; 1790.875;    0.000;    0.000
325.852; 1841.875;    0.000;    0.000
325.911; 1837.875;    0.000;    0.000
325.971; 1803.875;    0.000;    0.000
326.031; 1789.875;    0.000;    0.000
326.090; 1894.875;    0.000;    0.000
326.150; 1804.875;    0.000;    0.000
326.209; 1886.875;    0.000;    0.000
326.269; 1853.875;    0.000;    0.000
326.328; 1964.875;    0.000;    0.000
326.388; 1910.875;    0.000;    0.000
326.448; 1951.875;    0.000;    0.000
326.507; 1882.875;    0.000;    0.000
326.567; 1872.875;    0.000;    0.000
326.626; 1947.875;    0.000;    0.000
326.686; 1806.875;    0.000;    0.000
326.745; 1879.875;    0.000;    0.000
326.805; 1884.875;    0.000;    0.000
326.864; 1925.875;    0.000;    0.000
326.924; 1991.875;    0.000;    0.000
326.983; 1900.875;    0.000;    0.000
327.043; 1873.875;    0.000;    0.000
327.102; 1951.875;    0.000;    0.000
327.161; 1896.875;    0.000;    0.000
327.221; 1939.875;    0.000;    0.000
327.280; 1955.875;    0.000;    0.000
327.340; 1946.875;    0.000;    0.000
327.399; 2057.875;    0.000;    0.000
327.459; 2001.875;    0.000;    0.000
327.518; 1981.875;    0.000;    0.000
327.577; 1965.875;    0.000;    0.000
327.637; 1870.875;    0.000;    0.000
327.696; 1938.875;    0.000;    0.000
327.755; 1896.875;    0.000;    0.000
327.815; 1844.875;    0.000;    0.000
327.874; 1908.875;    0.000;    0.000
327.933; 1966.875;    0.000;    0.000
327.993; 1890.875;    0.000;    0.000
328.052; 1937.875;    0.000;    0.000
328.111; 1925.875;    0.000;    0.000
328.171; 1953.875;    0.000;    0.000
328.230; 1918.875;    0.000;    0.000
328.289; 1946.875;    0.000;    0.000
328.349; 1910.875;    0.000;    0.000
328.408; 1898.875;    0.000;    0.000
328.467; 2014.875;    0.000;    0.000
328.526; 2016.875;    0.000;    0.000
328.586; 1986.875;    0.000;    0.000
328.645; 2004.875;    0.000;    0.000
328.704; 2012.875;    0.000;    0.000
328.763; 2068.875;    0.000;    0.000
328.822; 1953.875;    0.000;    0.000
328.882; 2018.875;    0.000;    0.000
328.941; 1985.875;    0.000;    0.000
329.000; 2053.875;    0.000;    0.000
329.059; 1987.875;    0.000;    0.000
329.118; 2100.875;    0.000;    0.000
329.177; 2040.875;    0.000;    0.000
329.237; 2080.875;    0.000;    0.000
329.296; 2056.875;    0.000;    0.000
329.355; 2071.875;    0.000;    0.000
329.414; 2133.875;    0.000;    0.000
329.473; 2025.875;    0.000;    0.000
329.532; 2029.875;    0.000;    0.000
329.591; 2037.875;    0.000;    0.000
329.650; 2013.875;    0.000;    0.000
329.709; 2070.875;    0.000;    0.000
329.768; 2178.875;    0.000;    0.000
329.827; 2276.875;    0.000;    0.000
329.886; 2254.875;    0.000;    0.000
329.945; 2376.875;    0.000;    0.000
330.004; 2346.875;    0.000;    0.000
330.063; 2280.875;    0.000;    0.000
330.122; 2311.875;    0.000;    0.000
330.181; 2456.875;    0.000;    0.000
330.240; 2475.875;    0.000;    0.000
330.299; 2346.875;    0.000;    0.000
330.358; 2187.875;    0.000;    0.000
330.417; 2251.875;    0.000;    0.000
330.476; 2259.875;    0.000;    0.000
330.535; 2205.875;    0.000;    0.000
330.594; 2054.875;    0.000;    0.000
330.653; 2061.875;    0.000;    0.000
330.712; 2031.875;    0.000;    0.000
330.771; 2091.875;    0.000;    0.000
330.830; 2128.875;    0.000;    0.000
330.889; 2062.875;    0.000;    0.000
330.948; 2046.875;    0.000;    0.000
331.006; 2025.875;    0.000;    0.000
331.065; 2021.875;    0.000;    0.000
331.124; 2131.875;    0.000;    0.000
331.183; 1998.875;    0.000;    0.000
331.242; 1952.875;    0.000;    0.000
331.301; 2032.875;    0.000;    0.000
331.359; 2040.875;    0.000;    0.000
331.418; 1933.875;    0.000;    0.000
331.477; 1996.875;    0.000;    0.000
331.536; 1957.875;    0.000;    0.000
331.595; 1987.875;    0.000;    0.000
331.653; 1941.875;    0.000;    0.000
331.712; 1906.875;    0.000;    0.000
331.771; 1927.875;    0.000;    0.000
331.830; 1996.875;    0.000;    0.000
331.888; 1991.875;    0.000;    0.000
331.947; 1920.875;    0.000;    0.000
332.006; 1980.875;    0.000;    0.000
332.065; 2019.875;    0.000;    0.000
332.123; 1983.875;    0.000;    0.000
332.182; 2003.875;    0.000;    0.000
332.241; 1999.875;    0.000;    0.000
332.299; 1999.875;    0.000;    0.000
332.358; 2029.875;    0.000;    0.000
332.417; 2063.875;    0.000;    0.000
332.475; 2117.875;    0.000;    0.000
332.534; 1971.875;    0.000;    0.000
332.592; 2045.875;    0.000;    0.000
332.651; 1972.875;    0.000;    0.000
332.710; 2015.875;    0.000;    0.000
332.768; 2018.875;    0.000;    0.000
332.827; 2007.875;    0.000;    0.000
332.885; 2032.875;    0.000;    0.000
332.944; 2019.875;    0.000;    0.000
333.003; 1933.875;    0.000;    0.000
333.061; 2054.875;    0.000;    0.000
333.120; 2091.875;    0.000;    0.000
333.178; 2143.875;    0.000;    0.000
333.237; 2197.875;    0.000;    0.000
333.295; 2178.875;    0.000;    0.000
333.354; 2214.875;    0.000;    0.000
333.412; 2165.875;    0.000;    0.000
333.471; 2221.875;    0.000;    0.000
333.529; 2178.875;    0.000;    0.000
333.588; 2358.875;    0.000;    0.000
333.646; 2348.875;    0.000;    0.000
333.705; 2346.875;    0.000;    0.000
333.763; 2416.875;    0.000;    0.000
333.822; 2276.875;    0.000;    0.000
333.880; 2344.875;    0.000;    0.000
333.938; 2271.875;    0.000;    0.000
333.997; 2290.875;    0.000;    0.000
334.055; 2317.875;    0.000;    0.000
334.114; 2285.875;    0.000;    0.000
334.172; 2221.875;    0.000;    0.000
334.230; 2227.875;    0.000;    0.000
334.289; 2188.875;    0.000;    0.000
334.347; 2212.875;    0.000;    0.000
334.405; 2230.875;    0.000;    0.000
334.464; 2176.875;    0.000;    0.000
334.522; 2261.875;    0.000;    0.000
334.580; 2195.875;    0.000;    0.000
334.639; 2251.875;    0.000;    0.000
334.697; 2206.875;    0.000;    0.000
334.755; 2141.875;    0.000;    0.000
334.814; 2190.875;    0.000;    0.000
334.872; 2161.875;    0.000;    0.000
334.930; 2103.875;    0.000;    0.000
334.988; 2086.875;    0.000;    0.000
335.047; 2152.875;    0.000;    0.000
335.105; 2194.875;    0.000;    0.000
335.163; 2260.875;    0.000;    0.000
335.221; 2253.875;    0.000;    0.000
335.280; 2236.875;    0.000;    0.000
335.338; 2231.875;    0.000;    0.000
335.396; 2236.875;    0.000;    0.000
335.454; 2057.875;    0.000;    0.000
335.512; 2144.875;    0.000;    0.000
335.570; 2127.875;    0.000;    0.000
335.629; 2319.875;    0.000;    0.000
335.687; 2279.875;    0.000;    0.000
335.745; 2382.875;    0.000;    0.000
335.803; 2527.875;    0.000;    0.000
335.861; 2367.875;    0.000;    0.000
335.919; 2405.875;    0.000;    0.000
335.977; 2333.875;    0.000;    0.000
336.035; 2344.875;    0.000;    0.000
336.094; 2279.875;    0.000;    0.000
336.152; 2357.875;    0.000;    0.000
336.210; 2424.875;    0.000;    0.000
336.268; 2458.875;    0.000;    0.000
336.326; 2431.875;    0.000;    0.000
336.384; 2395.875;    0.000;    0.000
336.442; 2348.875;    0.000;    0.000
336.500; 2319.875;    0.000;    0.000
336.558; 2272.875;    0.000;    0.000
336.616; 2341.875;    0.000;    0.000
336.674; 2363.875;    0.000;    0.000
336.732; 2319.875;    0.000;    0.000
336.790; 2333.875;    0.000;    0.000
336.848; 2389.875;    0.000;    0.000
336.906; 2236.875;    0.000;    0.000
336.964; 2317.875;    0.000;    0.000
337.022; 2399.875;    0.000;    0.000
337.080; 2454.875;    0.000;    0.000
337.138; 2402.875;    0.000;    0.000
337.195; 2425.875;    0.000;    0.000
337.253; 2452.875;    0.000;    0.000
337.311; 2361.875;    0.000;    0.000
337.369; 2308.875;    0.000;    0.000
337.427; 2262.875;    0.000;    0.000
337.485; 2282.875;    0.000;    0.000
337.543; 2259.875;    0.000;    0.000
337.601; 2380.875;    0.000;    0.000
337.658; 2325.875;    0.000;    0.000
337.716; 2308.875;    0.000;    0.000
337.774; 2274.875;    0.000;    0.000
337.832; 2177.875;    0.000;    0.000
337.890; 2143.875;    0.000;    0.000
337.947; 2150.875;    0.000;    0.000
338.005; 2165.875;    0.000;    0.000
338.063; 2174.875;    0.000;    0.000
338.121; 2244.875;    0.000;    0.000
338.178; 2257.875;    0.000;    0.000
338.236; 2254.875;    0.000;    0.000
338.294; 2292.875;    0.000;    0.000
338.352; 2268.875;    0.000;    0.000
338.409; 2325.875;    0.000;    0.000
338.467; 2244.875;    0.000;    0.000
338.525; 2244.875;    0.000;    0.000
338.583; 2213.875;    0.000;    0.000
338.640; 2263.875;    0.000;    0.000
338.698; 2152.875;    0.000;    0.000
338.756; 2305.875;    0.000;    0.000
338.813; 2329.875;    0.000;    0.000
338.871; 2348.875;    0.000;    0.000
338.928; 2469.875;    0.000;    0.000
338.986; 2449.875;    0.000;    0.000
339.044; 2428.875;    0.000;    0.000
339.101; 2390.875;    0.000;    0.000
339.159; 2297.875;    0.000;    0.000
339.216; 2286.875;    0.000;    0.000
339.274; 2366.875;    0.000;    0.000
339.332; 2287.875;    0.000;    0.000
339.389; 2300.875;    0.000;    0.000
339.447; 2250.875;    0.000;    0.000
339.504; 2270.875;    0.000;    0.000
339.562; 2338.875;    0.000;    0.000
339.619; 2255.875;    0.000;    0.000
339.677; 2209.875;    0.000;    0.000
339.734; 2242.875;    0.000;    0.000
339.792; 2386.875;    0.000;    0.000
339.849; 2266.875;    0.000;    0.000
339.907; 2377.875;    0.000;    0.000
339.964; 2282.875;    0.000;    0.000
340.022; 2370.875;    0.000;    0.000
340.079; 2368.875;    0.000;    0.000
340.137; 2382.875;    0.000;    0.000
340.194; 2402.875;    0.000;    0.000
340.252; 2294.875;    0.000;    0.000
340.309; 2346.875;    0.000;    0.000
340.366; 2317.875;    0.000;    0.000
340.424; 2270.875;    0.000;    0.000
340.481; 2396.875;    0.000;    0.000
340.538; 2358.875;    0.000;    0.000
340.596; 2288.875;    0.000;    0.000
340.653; 2452.875;    0.000;    0.000
340.711; 2430.875;    0.000;    0.000
340.768; 2399.875;    0.000;    0.000
340.825; 2368.875;    0.000;    0.000
340.883; 2399.875;    0.000;    0.000
340.940; 2373.875;    0.000;    0.000
340.997; 2358.875;    0.000;    0.000
341.054; 2323.875;    0.000;    0.000
341.112; 2421.875;    0.000;    0.000
341.169; 2545.875;    0.000;    0.000
341.226; 2470.875;    0.000;    0.000
341.284; 2438.875;    0.000;    0.000
341.341; 2487.875;    0.000;    0.000
341.398; 2434.875;    0.000;    0.000
341.455; 2494.875;    0.000;    0.000
341.512; 2472.875;    0.000;    0.000
341.570; 2454.875;    0.000;    0.000
341.627; 2377.875;    0.000;    0.000
341.684; 2414.875;    0.000;    0.000
341.741; 2468.875;    0.000;    0.000
341.798; 2429.875;    0.000;    0.000
341.856; 2520.875;    0.000;    0.000
341.913; 2494.875;    0.000;    0.000
341.970; 2446.875;    0.000;    0.000
342.027; 2521.875;    0.000;    0.000
342.084; 2606.875;    0.000;    0.000
342.141; 2611.875;    0.000;    0.000
342.198; 2676.875;    0.000;    0.000
342.255; 2632.875;    0.000;    0.000
342.313; 2614.875;    0.000;    0.000
342.370; 2482.875;    0.000;    0.000
342.427; 2465.875;    0.000;    0.000
342.484; 2387.875;    0.000;    0.000
342.541; 2277.875;    0.000;    0.000
342.598; 2256.875;    0.000;    0.000
342.655; 2342.875;    0.000;    0.000
342.712; 2326.875;    0.000;    0.000
342.769; 2253.875;    0.000;    0.000
342.826; 2186.875;    0.000;    0.000
342.883; 2341.875;    0.000;    0.000
342.940; 2268.875;    0.000;    0.000
342.997; 2400.875;    0.000;    0.000
343.054; 2270.875;    0.000;    0.000
343.111; 2336.875;    0.000;    0.000
343.168; 2308.875;    0.000;    0.000
343.225; 2333.875;    0.000;    0.000
343.282; 2371.875;    0.000;    0.000
343.339; 2390.875;    0.000;    0.000
343.395; 2367.875;    0.000;    0.000
343.452; 2315.875;    0.000;    0.000
343.509; 2404.875;    0.000;    0.000
343.566; 2423.875;    0.000;    0.000
343.623; 2352.875;    0.000;    0.000
343.680; 2439.875;    0.000;    0.000
343.737; 2347.875;    0.000;    0.000
343.794; 2337.875;    0.000;    0.000
343.850; 2275.875;    0.000;    0.000
343.907; 2367.875;    0.000;    0.000
343.964; 2321.875;    0.000;    0.000
344.021; 2323.875;    0.000;    0.000
344.078; 2410.875;    0.000;    0.000
344.134; 2405.875;    0.000;    0.000
344.191; 2407.875;    0.000;    0.000
344.248; 2436.875;    0.000;    0.000
344.305; 2449.875;    0.000;    0.000
344.361; 2382.875;    0.000;    0.000
344.418; 2410.875;    0.000;    0.000
344.475; 2389.875;    0.000;    0.000
344.532; 2389.875;    0.000;    0.000
344.588; 2416.875;    0.000;    0.000
344.645; 2536.875;    0.000;    0.000
344.702; 2418.875;    0.000;    0.000
344.758; 2352.875;    0.000;    0.000
344.815; 2374.875;    0.000;    0.000
344.872; 2269.875;    0.000;    0.000
344.928; 2449.875;    0.000;    0.000
344.985; 2426.875;    0.000;    0.000
345.042; 2443.875;    0.000;    0.000
345.098; 2478.875;    0.000;    0.000
345.155; 2374.875;    0.000;    0.000
345.212; 2338.875;    0.000;    0.000
345.268; 2326.875;    0.000;    0.000
345.325; 2351.875;    0.000;    0.000
345.381; 2406.875;    0.000;    0.000
345.438; 2486.875;    0.000;    0.000
345.495; 2596.875;    0.000;    0.000
345.551; 2514.875;    0.000;    0.000
345.608; 2435.875;    0.000;    0.000
345.664; 2376.875;    0.000;    0.000
345.721; 2398.875;    0.000;    0.000
345.777; 2289.875;    0.000;    0.000
345.834; 2268.875;    0.000;    0.000
345.890; 2375.875;    0.000;    0.000
345.947; 2457.875;    0.000;    0.000
346.003; 2394.875;    0.000;    0.000
346.060; 2332.875;    0.000;    0.000
346.116; 2313.875;    0.000;    0.000
346.173; 2363.875;    0.000;    0.000
346.229; 2230.875;    0.000;    0.000
346.285; 2308.875;    0.000;    0.000
346.342; 2341.875;    0.000;    0.000
346.398; 2378.875;    0.000;    0.000
346.455; 2463.875;    0.000;    0.000
346.511; 2566.875;    0.000;    0.000
346.567; 2495.875;    0.000;    0.000
346.624; 2474.875;    0.000;    0.000
346.680; 2526.875;    0.000;    0.000
346.737; 2469.875;    0.000;    0.000
346.793; 2466.875;    0.000;    0.000
346.849; 2459.875;    0.000;    0.000
346.906; 2590.875;    0.000;    0.000
346.962; 2574.875;    0.000;    0.000
347.018; 2580.875;    0.000;    0.000
347.074; 2550.875;    0.000;    0.000
347.131; 2659.875;    0.000;    0.000
347.187; 2558.875;    0.000;    0.000
347.243; 2576.875;    0.000;    0.000
347.300; 2505.875;    0.000;    0.000
347.356; 2530.875;    0.000;    0.000
347.412; 2515.875;    0.000;    0.000
347.468; 2444.875;    0.000;    0.000
347.524; 2407.875;    0.000;    0.000
347.581; 2352.875;    0.000;    0.000
347.637; 2378.875;    0.000;    0.000
347.693; 2425.875;    0.000;    0.000
347.749; 2433.875;    0.000;    0.000
347.805; 2423.875;    0.000;    0.000
347.862; 2339.875;    0.000;    0.000
347.918; 2518.875;    0.000;    0.000
347.974; 2420.875;    0.000;    0.000
348.030; 2454.875;    0.000;    0.000
348.086; 2419.875;    0.000;    0.000
348.142; 2493.875;    0.000;    0.000
348.198; 2494.875;    0.000;    0.000
348.254; 2453.875;    0.000;    0.000
348.311; 2494.875;    0.000;    0.000
348.367; 2391.875;    0.000;    0.000
348.423; 2452.875;    0.000;    0.000
348.479; 2312.875;    0.000;    0.000
348.535; 2364.875;    0.000;    0.000
348.591; 2410.875;    0.000;    0.000
348.647; 2421.875;    0.000;    0.000
348.703; 2479.875;    0.000;    0.000
348.759; 2391.875;    0.000;    0.000
348.815; 2393.875;    0.000;    0.000
348.871; 2508.875;    0.000;    0.000
348.927; 2376.875;    0.000;    0.000
348.983; 2467.875;    0.000;    0.000
349.039; 2523.875;    0.000;    0.000
349.095; 2436.875;    0.000;    0.000
349.151; 2389.875;    0.000;    0.000
349.207; 2381.875;    0.000;    0.000
349.263; 2335.875;    0.000;    0.000
349.319; 2403.875;    0.000;    0.000
349.374; 2391.875;    0.000;    0.000
349.430; 2434.875;    0.000;    0.000
349.486; 2480.875;    0.000;    0.000
349.542; 2549.875;    0.000;    0.000
349.598; 2427.875;    0.000;    0.000
349.654; 2503.875;    0.000;    0.000
349.710; 2388.875;    0.000;    0.000
349.766; 2465.875;    0.000;    0.000
349.821; 2512.875;    0.000;    0.000
349.877; 2427.875;    0.000;    0.000
349.933; 2433.875;    0.000;    0.000
349.989; 2439.875;    0.000;    0.000
350.045; 2422.875;    0.000;    0.000
350.100; 2493.875;    0.000;    0.000
350.156; 2421.875;    0.000;    0.000
350.212; 2392.875;    0.000;    0.000
350.268; 2465.875;    0.000;    0.000
350.323; 2386.875;    0.000;    0.000
350.379; 2400.875;    0.000;    0.000
350.435; 2448.875;    0.000;    0.000
350.491; 2385.875;    0.000;    0.000
350.546; 2380.875;    0.000;    0.000
350.602; 2392.875;    0.000;    0.000
350.658; 2455.875;    0.000;    0.000
350.713; 2381.875;    0.000;    0.000
350.769; 2332.875;    0.000;    0.000
350.825; 2411.875;    0.000;    0.000
350.880; 2301.875;    0.000;    0.000
350.936; 2351.875;    0.000;    0.000
350.992; 2368.875;    0.000;    0.000
351.047; 2321.875;    0.000;    0.000
351.103; 2413.875;    0.000;    0.000
351.158; 2426.875;    0.000;    0.000
351.214; 2333.875;    0.000;    0.000
351.270; 2283.875;    0.000;    0.000
351.325; 2318.875;    0.000;    0.000
351.381; 2420.875;    0.000;    0.000
351.436; 2420.875;    0.000;    0.000
351.492; 2586.875;    0.000;    0.000
351.547; 2513.875;    0.000;    0.000
351.603; 2498.875;    0.000;    0.000
351.658; 2575.875;    0.000;    0.000
351.714; 2469.875;    0.000;    0.000
351.769; 2522.875;    0.000;    0.000
351.825; 2534.875;    0.000;    0.000
351.880; 2540.875;    0.000;    0.000
351.936; 2567.875;    0.000;    0.000
351.991; 2570.875;    0.000;    0.000
352.047; 2482.875;    0.000;    0.000
352.102; 2514.875;    0.000;    0.000
352.158; 2489.875;    0.000;    0.000
352.213; 2257.875;    0.000;    0.000
352.268; 2498.875;    0.000;    0.000
352.324; 2360.875;    0.000;    0.000
352.379; 2512.875;    0.000;    0.000
352.434; 2526.875;    0.000;    0.000
352.490; 2472.875;    0.000;    0.000
352.545; 2578.875;    0.000;    0.000
352.601; 2463.875;    0.000;    0.000
352.656; 2405.875;    0.000;    0.000
352.711; 2358.875;    0.000;    0.000
352.767; 2351.875;    0.000;    0.000
352.822; 2384.875;    0.000;    0.000
352.877; 2331.875;    0.000;    0.000
352.932; 2402.875;    0.000;    0.000
352.988; 2402.875;    0.000;    0.000
353.043; 2399.875;    0.000;    0.000
353.098; 2531.875;    0.000;    0.000
353.153; 2415.875;    0.000;    0.000
353.209; 2374.875;    0.000;    0.000
353.264; 2292.875;    0.000;    0.000
353.319; 2359.875;    0.000;    0.000
353.374; 2317.875;    0.000;    0.000
353.430; 2465.875;    0.000;    0.000
353.485; 2358.875;    0.000;    0.000
353.540; 2407.875;    0.000;    0.000
353.595; 2419.875;    0.000;    0.000
353.650; 2330.875;    0.000;    0.000
353.705; 2394.875;    0.000;    0.000
353.761; 2308.875;    0.000;    0.000
353.816; 2319.875;    0.000;    0.000
353.871; 2359.875;    0.000;    0.000
353.926; 2318.875;    0.000;    0.000
353.981; 2354.875;    0.000;    0.000
354.036; 2339.875;    0.000;    0.000
354.091; 2199.875;    0.000;    0.000
354.146; 2259.875;    0.000;    0.000
354.201; 2372.875;    0.000;    0.000
354.256; 2278.875;    0.000;    0.000
354.311; 2351.875;    0.000;    0.000
354.367; 2371.875;    0.000;    0.000
354.422; 2355.875;    0.000;    0.000
354.477; 2393.875;    0.000;    0.000
354.532; 2370.875;    0.000;    0.000
354.587; 2429.875;    0.000;    0.000
354.642; 2371.875;    0.000;    0.000
354.697; 2479.875;    0.000;    0.000
354.751; 2484.875;    0.000;    0.000
354.806; 2476.875;    0.000;    0.000
354.861; 2534.875;    0.000;    0.000
354.916; 2463.875;    0.000;    0.000
354.971; 2369.875;    0.000;    0.000
355.026; 2315.875;    0.000;    0.000
355.081; 2343.875;    0.000;    0.000
355.136; 2300.875;    0.000;    0.000
355.191; 2331.875;    0.000;    0.000
355.246; 2346.875;    0.000;    0.000
355.301; 2395.875;    0.000;    0.000
355.355; 2315.875;    0.000;    0.000
355.410; 2381.875;    0.000;    0.000
355.465; 2391.875;    0.000;    0.000
355.520; 2310.875;    0.000;    0.000
355.575; 2341.875;    0.000;    0.000
355.630; 2215.875;    0.000;    0.000
355.684; 2248.875;    0.000;    0.000
355.739; 2295.875;    0.000;    0.000
355.794; 2212.875;    0.000;    0.000
355.849; 2308.875;    0.000;    0.000
355.904; 2339.875;    0.000;    0.000
355.958; 2215.875;    0.000;    0.000
356.013; 2233.875;    0.000;    0.000
356.068; 2383.875;    0.000;    0.000
356.123; 2349.875;    0.000;    0.000
356.177; 2283.875;    0.000;    0.000
356.232; 2351.875;    0.000;    0.000
356.287; 2426.875;    0.000;    0.000
356.341; 2367.875;    0.000;    0.000
356.396; 2290.875;    0.000;    0.000
356.451; 2363.875;    0.000;    0.000
356.505; 2265.875;    0.000;    0.000
356.560; 2310.875;    0.000;    0.000
356.615; 2277.875;    0.000;    0.000
356.669; 2282.875;    0.000;    0.000
356.724; 2415.875;    0.000;    0.000
356.778; 2366.875;    0.000;    0.000
356.833; 2350.875;    0.000;    0.000
356.888; 2336.875;    0.000;    0.000
356.942; 2204.875;    0.000;    0.000
356.997; 2381.875;    0.000;    0.000
357.051; 2234.875;    0.000;    0.000
357.106; 2266.875;    0.000;    0.000
357.160; 2201.875;    0.000;    0.000
357.215; 2231.875;    0.000;    0.000
357.269; 2218.875;    0.000;    0.000
357.324; 2184.875;    0.000;    0.000
357.378; 2272.875;    0.000;    0.000
357.433; 2198.875;    0.000;    0.000
357.487; 2309.875;    0.000;    0.000
357.542; 2182.875;    0.000;    0.000
357.596; 2175.875;    0.000;    0.000
357.651; 2227.875;    0.000;    0.000
357.705; 2300.875;    0.000;    0.000
357.760; 2214.875;    0.000;    0.000
357.814; 2172.875;    0.000;    0.000
357.868; 2129.875;    0.000;    0.000
357.923; 2175.875;    0.000;    0.000
357.977; 2177.875;    0.000;    0.000
358.032; 2190.875;    0.000;    0.000
358.086; 2297.875;    0.000;    0.000
358.140; 2312.875;    0.000;    0.000
358.195; 2265.875;    0.000;    0.000
358.249; 2280.875;    0.000;    0.000
358.303; 2232.875;    0.000;    0.000
358.358; 2230.875;    0.000;    0.000
358.412; 2183.875;    0.000;    0.000
358.466; 2250.875;    0.000;    0.000
358.521; 2251.875;    0.000;    0.000
358.575; 2225.875;    0.000;    0.000
358.629; 2234.875;    0.000;    0.000
358.683; 2155.875;    0.000;    0.000
358.738; 2208.875;    0.000;    0.000
358.792; 2199.875;    0.000;    0.000
358.846; 2196.875;    0.000;    0.000
358.900; 2236.875;    0.000;    0.000
358.954; 2287.875;    0.000;    0.000
359.009; 2277.875;    0.000;    0.000
359.063; 2175.875;    0.000;    0.000
359.117; 2195.875;    0.000;    0.000
359.171; 2207.875;    0.000;    0.000
359.225; 2161.875;    0.000;    0.000
359.280; 2164.875;    0.000;    0.000
359.334; 2215.875;    0.000;    0.000
359.388; 2225.875;    0.000;    0.000
359.442; 2191.875;    0.000;    0.000
359.496; 2122.875;    0.000;    0.000
359.550; 2237.875;    0.000;    0.000
359.604; 2145.875;    0.000;    0.000
359.658; 2132.875;    0.000;    0.000
359.712; 2175.875;    0.000;    0.000
359.766; 2128.875;    0.000;    0.000
359.820; 2150.875;    0.000;    0.000
359.875; 2158.875;    0.000;    0.000
359.929; 2155.875;    0.000;    0.000
359.983; 2179.875;    0.000;    0.000
360.037; 2161.875;    0.000;    0.000
360.091; 2146.875;    0.000;    0.000
360.145; 2130.875;    0.000;    0.000
360.199; 2183.875;    0.000;    0.000
360.253; 2085.875;    0.000;    0.000
360.306; 2074.875;    0.000;    0.000
360.360; 2120.875;    0.000;    0.000
360.414; 2092.875;    0.000;    0.000
360.468; 2137.875;    0.000;    0.000
360.522; 2130.875;    0.000;    0.000
360.576; 2166.875;    0.000;    0.000
360.630; 2137.875;    0.000;    0.000
360.684; 2123.875;    0.000;    0.000
360.738; 2106.875;    0.000;    0.000
360.792; 2212.875;    0.000;    0.000
360.846; 2128.875;    0.000;    0.000
360.899; 2192.875;    0.000;    0.000
360.953; 2123.875;    0.000;    0.000
361.007; 2156.875;    0.000;    0.000
361.061; 2239.875;    0.000;    0.000
361.115; 2101.875;    0.000;    0.000
361.168; 2163.875;    0.000;    0.000
361.222; 2081.875;    0.000;    0.000
361.276; 2175.875;    0.000;    0.000
361.330; 2159.875;    0.000;    0.000
361.384; 2136.875;    0.000;    0.000
361.437; 2181.875;    0.000;    0.000
361.491; 2154.875;    0.000;    0.000
361.545; 2145.875;    0.000;    0.000
361.599; 2131.875;    0.000;    0.000
361.652; 2177.875;    0.000;    0.000
361.706; 2136.875;    0.000;    0.000
361.760; 2112.875;    0.000;    0.000
361.813; 2114.875;    0.000;    0.000
361.867; 2219.875;    0.000;    0.000
361.921; 2106.875;    0.000;    0.000
361.974; 2043.875;    0.000;    0.000
362.028; 2009.875;    0.000;    0.000
362.082; 2148.875;    0.000;    0.000
362.135; 2061.875;    0.000;    0.000
362.189; 2126.875;    0.000;    0.000
362.242; 2041.875;    0.000;    0.000
362.296; 1996.875;    0.000;    0.000
362.350; 2041.875;    0.000;    0.000
362.403; 2076.875;    0.000;    0.000
362.457; 1984.875;    0.000;    0.000
362.510; 2018.875;    0.000;    0.000
362.564; 1991.875;    0.000;    0.000
362.617; 2052.875;    0.000;    0.000
362.671; 2135.875;    0.000;    0.000
362.724; 1983.875;    0.000;    0.000
362.778; 2124.875;    0.000;    0.000
362.831; 1961.875;    0.000;    0.000
362.885; 1975.875;    0.000;    0.000
362.938; 1941.875;    0.000;    0.000
362.992;  481.875;    0.000;    0.000
363.045;  333.875;    0.000;    0.000
363.099;  300.875;    0.000;    0.000
363.152;  311.875;    0.000;    0.000
363.205;  304.875;    0.000;    0.000
363.259;  272.875;    0.000;    0.000
363.312;  352.875;    0.000;    0.000
363.366;  305.875;    0.000;    0.000
363.419;  299.875;    0.000;    0.000
363.472;  343.875;    0.000;    0.000
363.526;  305.875;    0.000;    0.000
363.579;  319.875;    0.000;    0.000
363.632;  322.875;    0.000;    0.000
363.686;  277.875;    0.000;    0.000
363.739;  285.875;    0.000;    0.000
363.792;  282.875;    0.000;    0.000

