
Integration time [ms]:   0.300
Averaging Nr. [scans]: 1
Smoothing Nr. [pixels]: 0
Data measured with spectrometer [name]: UV1
Wave   ;Sample   ;Dark     ;Reference
[nm]   ;[counts] ;[counts] ;[counts] 

236.381;  146.475;  149.925;    0.000
236.451;  182.475;  206.925;    0.000
236.520;  169.475;  212.925;    0.000
236.590;  200.475;  189.925;    0.000
236.660;  227.475;  184.925;    0.000
236.730;  166.475;  186.925;    0.000
236.799;  184.475;  191.925;    0.000
236.869;  202.475;  184.925;    0.000
236.939;  185.475;  176.925;    0.000
237.009;  177.475;  184.925;    0.000
237.078;  166.475;  189.925;    0.000
237.148;  165.475;  217.925;    0.000
237.218;  196.475;  192.925;    0.000
237.287;  172.475;  182.925;    0.000
237.357;  178.475;  196.925;    0.000
237.427;  172.475;  144.925;    0.000
237.496;  648.475;  224.925;    0.000
237.566;  631.475;  210.925;    0.000
237.636;  647.475;  165.925;    0.000
237.705;  654.475;  214.925;    0.000
237.775;  601.475;  194.925;    0.000
237.845;  607.475;  214.925;    0.000
237.914;  615.475;  191.925;    0.000
237.984;  601.475;  218.925;    0.000
238.054;  632.475;  187.925;    0.000
238.123;  644.475;  179.925;    0.000
238.193;  663.475;  177.925;    0.000
238.263;  665.475;  225.925;    0.000
238.332;  630.475;  197.925;    0.000
238.402;  639.475;  183.925;    0.000
238.471;  589.475;  181.925;    0.000
238.541;  611.475;  200.925;    0.000
238.611;  646.475;  170.925;    0.000
238.680;  590.475;  170.925;    0.000
238.750;  607.475;  175.925;    0.000
238.819;  620.475;  180.925;    0.000
238.889;  613.475;  190.925;    0.000
238.958;  614.475;  207.925;    0.000
239.028;  654.475;  201.925;    0.000
239.097;  631.475;  181.925;    0.000
239.167;  653.475;  222.925;    0.000
239.237;  656.475;  221.925;    0.000
239.306;  628.475;  147.925;    0.000
239.376;  650.475;  188.925;    0.000
239.445;  615.475;  198.925;    0.000
239.515;  622.475;  191.925;    0.000
239.584;  585.475;  178.925;    0.000
239.654;  589.475;  147.925;    0.000
239.723;  584.475;  212.925;    0.000
239.793;  607.475;  185.925;    0.000
239.862;  608.475;  157.925;    0.000
239.932;  590.475;  181.925;    0.000
240.001;  598.475;  163.925;    0.000
240.070;  631.475;  194.925;    0.000
240.140;  655.475;  202.925;    0.000
240.209;  597.475;  180.925;    0.000
240.279;  622.475;  188.925;    0.000
240.348;  628.475;  189.925;    0.000
240.418;  605.475;  143.925;    0.000
240.487;  623.475;  195.925;    0.000
240.556;  608.475;  170.925;    0.000
240.626;  596.475;  172.925;    0.000
240.695;  637.475;  202.925;    0.000
240.765;  624.475;  191.925;    0.000
240.834;  597.475;  177.925;    0.000
240.903;  593.475;  189.925;    0.000
240.973;  581.475;  196.925;    0.000
241.042;  556.475;  183.925;    0.000
241.112;  609.475;  189.925;    0.000
241.181;  612.475;  186.925;    0.000
241.250;  556.475;  168.925;    0.000
241.320;  600.475;  200.925;    0.000
241.389;  587.475;  185.925;    0.000
241.458;  592.475;  194.925;    0.000
241.528;  595.475;  165.925;    0.000
241.597;  593.475;  200.925;    0.000
241.666;  547.475;  184.925;    0.000
241.736;  645.475;  176.925;    0.000
241.805;  599.475;  165.925;    0.000
241.874;  633.475;  200.925;    0.000
241.943;  626.475;  184.925;    0.000
242.013;  591.475;  212.925;    0.000
242.082;  598.475;  200.925;    0.000
242.151;  635.475;  196.925;    0.000
242.221;  572.475;  182.925;    0.000
242.290;  590.475;  222.925;    0.000
242.359;  571.475;  142.925;    0.000
242.428;  574.475;  180.925;    0.000
242.498;  567.475;  180.925;    0.000
242.567;  627.475;  181.925;    0.000
242.636;  578.475;  203.925;    0.000
242.705;  615.475;  209.925;    0.000
242.774;  618.475;  172.925;    0.000
242.844;  619.475;  218.925;    0.000
242.913;  625.475;  188.925;    0.000
242.982;  618.475;  193.925;    0.000
243.051;  605.475;  202.925;    0.000
243.120;  620.475;  174.925;    0.000
243.190;  553.475;  165.925;    0.000
243.259;  596.475;  206.925;    0.000
243.328;  568.475;  166.925;    0.000
243.397;  596.475;  167.925;    0.000
243.466;  585.475;  163.925;    0.000
243.535;  598.475;  162.925;    0.000
243.605;  557.475;  159.925;    0.000
243.674;  595.475;  171.925;    0.000
243.743;  589.475;  189.925;    0.000
243.812;  530.475;  169.925;    0.000
243.881;  590.475;  145.925;    0.000
243.950;  580.475;  197.925;    0.000
244.019;  579.475;  189.925;    0.000
244.088;  570.475;  200.925;    0.000
244.158;  606.475;  208.925;    0.000
244.227;  594.475;  154.925;    0.000
244.296;  527.475;  142.925;    0.000
244.365;  603.475;  198.925;    0.000
244.434;  540.475;  162.925;    0.000
244.503;  594.475;  186.925;    0.000
244.572;  556.475;  143.925;    0.000
244.641;  535.475;  145.925;    0.000
244.710;  589.475;  159.925;    0.000
244.779;  583.475;  175.925;    0.000
244.848;  490.475;  163.925;    0.000
244.917;  587.475;  157.925;    0.000
244.986;  551.475;  166.925;    0.000
245.055;  584.475;  211.925;    0.000
245.124;  559.475;  155.925;    0.000
245.193;  608.475;  187.925;    0.000
245.262;  557.475;  152.925;    0.000
245.331;  573.475;  177.925;    0.000
245.400;  483.475;  157.925;    0.000
245.469;  555.475;  195.925;    0.000
245.538;  543.475;  199.925;    0.000
245.607;  546.475;  194.925;    0.000
245.676;  572.475;  170.925;    0.000
245.745;  559.475;  208.925;    0.000
245.814;  571.475;  185.925;    0.000
245.883;  547.475;  165.925;    0.000
245.952;  600.475;  151.925;    0.000
246.021;  543.475;  171.925;    0.000
246.090;  537.475;  174.925;    0.000
246.159;  489.475;  192.925;    0.000
246.227;  505.475;  178.925;    0.000
246.296;  549.475;  159.925;    0.000
246.365;  503.475;  189.925;    0.000
246.434;  568.475;  205.925;    0.000
246.503;  538.475;  174.925;    0.000
246.572;  484.475;  203.925;    0.000
246.641;  534.475;  169.925;    0.000
246.710;  485.475;  186.925;    0.000
246.779;  539.475;  196.925;    0.000
246.847;  508.475;  209.925;    0.000
246.916;  521.475;  177.925;    0.000
246.985;  524.475;  188.925;    0.000
247.054;  516.475;  189.925;    0.000
247.123;  475.475;  196.925;    0.000
247.192;  509.475;  210.925;    0.000
247.260;  506.475;  164.925;    0.000
247.329;  511.475;  204.925;    0.000
247.398;  513.475;  204.925;    0.000
247.467;  473.475;  160.925;    0.000
247.536;  522.475;  193.925;    0.000
247.604;  592.475;  208.925;    0.000
247.673;  523.475;  168.925;    0.000
247.742;  472.475;  182.925;    0.000
247.811;  526.475;  186.925;    0.000
247.879;  500.475;  166.925;    0.000
247.948;  523.475;  192.925;    0.000
248.017;  581.475;  178.925;    0.000
248.086;  501.475;  193.925;    0.000
248.154;  540.475;  191.925;    0.000
248.223;  505.475;  207.925;    0.000
248.292;  517.475;  168.925;    0.000
248.361;  544.475;  211.925;    0.000
248.429;  526.475;  196.925;    0.000
248.498;  521.475;  163.925;    0.000
248.567;  502.475;  159.925;    0.000
248.635;  528.475;  194.925;    0.000
248.704;  567.475;  205.925;    0.000
248.773;  500.475;  190.925;    0.000
248.841;  482.475;  179.925;    0.000
248.910;  518.475;  193.925;    0.000
248.979;  461.475;  167.925;    0.000
249.047;  491.475;  166.925;    0.000
249.116;  535.475;  191.925;    0.000
249.185;  512.475;  203.925;    0.000
249.253;  460.475;  140.925;    0.000
249.322;  496.475;  173.925;    0.000
249.390;  513.475;  165.925;    0.000
249.459;  525.475;  173.925;    0.000
249.528;  517.475;  203.925;    0.000
249.596;  479.475;  204.925;    0.000
249.665;  481.475;  176.925;    0.000
249.733;  474.475;  178.925;    0.000
249.802;  478.475;  190.925;    0.000
249.871;  486.475;  171.925;    0.000
249.939;  465.475;  160.925;    0.000
250.008;  506.475;  220.925;    0.000
250.076;  512.475;  211.925;    0.000
250.145;  464.475;  145.925;    0.000
250.213;  440.475;  177.925;    0.000
250.282;  460.475;  186.925;    0.000
250.350;  432.475;  170.925;    0.000
250.419;  531.475;  195.925;    0.000
250.487;  515.475;  194.925;    0.000
250.556;  491.475;  178.925;    0.000
250.624;  515.475;  193.925;    0.000
250.693;  479.475;  167.925;    0.000
250.761;  537.475;  253.925;    0.000
250.830;  557.475;  241.925;    0.000
250.898;  411.475;  161.925;    0.000
250.967;  435.475;  178.925;    0.000
251.035;  447.475;  189.925;    0.000
251.104;  436.475;  166.925;    0.000
251.172;  502.475;  178.925;    0.000
251.241;  477.475;  174.925;    0.000
251.309;  487.475;  197.925;    0.000
251.378;  413.475;  172.925;    0.000
251.446;  449.475;  157.925;    0.000
251.514;  510.475;  197.925;    0.000
251.583;  480.475;  191.925;    0.000
251.651;  439.475;  154.925;    0.000
251.720;  444.475;  198.925;    0.000
251.788;  478.475;  226.925;    0.000
251.856;  446.475;  164.925;    0.000
251.925;  433.475;  181.925;    0.000
251.993;  505.475;  203.925;    0.000
252.062;  481.475;  211.925;    0.000
252.130;  470.475;  185.925;    0.000
252.198;  466.475;  190.925;    0.000
252.267;  444.475;  176.925;    0.000
252.335;  440.475;  179.925;    0.000
252.403;  458.475;  173.925;    0.000
252.472;  440.475;  172.925;    0.000
252.540;  472.475;  187.925;    0.000
252.608;  485.475;  204.925;    0.000
252.677;  439.475;  179.925;    0.000
252.745;  472.475;  192.925;    0.000
252.813;  477.475;  168.925;    0.000
252.881;  409.475;  157.925;    0.000
252.950;  414.475;  188.925;    0.000
253.018;  451.475;  191.925;    0.000
253.086;  399.475;  164.925;    0.000
253.155;  420.475;  172.925;    0.000
253.223;  408.475;  168.925;    0.000
253.291;  448.475;  190.925;    0.000
253.359;  427.475;  205.925;    0.000
253.428;  427.475;  228.925;    0.000
253.496;  393.475;  170.925;    0.000
253.564;  349.475;  164.925;    0.000
253.632;  409.475;  159.925;    0.000
253.700;  369.475;  166.925;    0.000
253.769;  383.475;  172.925;    0.000
253.837;  456.475;  157.925;    0.000
253.905;  402.475;  168.925;    0.000
253.973;  402.475;  179.925;    0.000
254.041;  378.475;  187.925;    0.000
254.110;  413.475;  186.925;    0.000
254.178;  405.475;  156.925;    0.000
254.246;  366.475;  132.925;    0.000
254.314;  394.475;  191.925;    0.000
254.382;  368.475;  189.925;    0.000
254.450;  356.475;  163.925;    0.000
254.518;  392.475;  172.925;    0.000
254.587;  364.475;  162.925;    0.000
254.655;  388.475;  191.925;    0.000
254.723;  385.475;  184.925;    0.000
254.791;  373.475;  169.925;    0.000
254.859;  369.475;  186.925;    0.000
254.927;  421.475;  207.925;    0.000
254.995;  339.475;  143.925;    0.000
255.063;  408.475;  198.925;    0.000
255.131;  360.475;  168.925;    0.000
255.199;  422.475;  183.925;    0.000
255.267;  392.475;  159.925;    0.000
255.336;  375.475;  197.925;    0.000
255.404;  369.475;  177.925;    0.000
255.472;  431.475;  204.925;    0.000
255.540;  412.475;  169.925;    0.000
255.608;  413.475;  141.925;    0.000
255.676;  393.475;  176.925;    0.000
255.744;  394.475;  184.925;    0.000
255.812;  405.475;  158.925;    0.000
255.880;  427.475;  202.925;    0.000
255.948;  424.475;  184.925;    0.000
256.016;  408.475;  192.925;    0.000
256.084;  398.475;  204.925;    0.000
256.152;  382.475;  191.925;    0.000
256.220;  411.475;  187.925;    0.000
256.288;  435.475;  176.925;    0.000
256.356;  431.475;  146.925;    0.000
256.424;  346.475;  164.925;    0.000
256.491;  404.475;  161.925;    0.000
256.559;  475.475;  167.925;    0.000
256.627;  431.475;  180.925;    0.000
256.695;  347.475;  159.925;    0.000
256.763;  442.475;  166.925;    0.000
256.831;  437.475;  166.925;    0.000
256.899;  425.475;  161.925;    0.000
256.967;  397.475;  116.925;    0.000
257.035;  437.475;  195.925;    0.000
257.103;  478.475;  227.925;    0.000
257.171;  452.475;  147.925;    0.000
257.238;  412.475;  158.925;    0.000
257.306;  422.475;  188.925;    0.000
257.374;  444.475;  153.925;    0.000
257.442;  416.475;  159.925;    0.000
257.510;  491.475;  201.925;    0.000
257.578;  403.475;  137.925;    0.000
257.646;  476.475;  172.925;    0.000
257.713;  485.475;  164.925;    0.000
257.781;  447.475;  163.925;    0.000
257.849;  475.475;  174.925;    0.000
257.917;  475.475;  164.925;    0.000
257.985;  465.475;  126.925;    0.000
258.052;  474.475;  158.925;    0.000
258.120;  507.475;  151.925;    0.000
258.188;  477.475;  169.925;    0.000
258.256;  531.475;  110.925;    0.000
258.324;  520.475;  193.925;    0.000
258.391;  508.475;  157.925;    0.000
258.459;  545.475;  193.925;    0.000
258.527;  534.475;  150.925;    0.000
258.595;  581.475;  173.925;    0.000
258.662;  535.475;  168.925;    0.000
258.730;  555.475;  190.925;    0.000
258.798;  510.475;  164.925;    0.000
258.865;  542.475;  165.925;    0.000
258.933;  546.475;  162.925;    0.000
259.001;  535.475;  174.925;    0.000
259.069;  549.475;  139.925;    0.000
259.136;  538.475;  160.925;    0.000
259.204;  556.475;  174.925;    0.000
259.272;  582.475;  161.925;    0.000
259.339;  589.475;  157.925;    0.000
259.407;  644.475;  159.925;    0.000
259.475;  556.475;  134.925;    0.000
259.542;  575.475;  179.925;    0.000
259.610;  650.475;  172.925;    0.000
259.677;  602.475;  152.925;    0.000
259.745;  611.475;  131.925;    0.000
259.813;  617.475;  185.925;    0.000
259.880;  635.475;  183.925;    0.000
259.948;  644.475;  168.925;    0.000
260.016;  596.475;  160.925;    0.000
260.083;  647.475;  163.925;    0.000
260.151;  652.475;  162.925;    0.000
260.218;  691.475;  171.925;    0.000
260.286;  657.475;  154.925;    0.000
260.353;  683.475;  182.925;    0.000
260.421;  703.475;  187.925;    0.000
260.489;  695.475;  185.925;    0.000
260.556;  673.475;  165.925;    0.000
260.624;  650.475;  185.925;    0.000
260.691;  713.475;  175.925;    0.000
260.759;  765.475;  201.925;    0.000
260.826;  693.475;  150.925;    0.000
260.894;  702.475;  142.925;    0.000
260.961;  684.475;  156.925;    0.000
261.029;  772.475;  161.925;    0.000
261.096;  780.475;  172.925;    0.000
261.164;  728.475;  149.925;    0.000
261.231;  750.475;  191.925;    0.000
261.299;  713.475;  182.925;    0.000
261.366;  743.475;  156.925;    0.000
261.434;  745.475;  188.925;    0.000
261.501;  775.475;  170.925;    0.000
261.568;  766.475;  167.925;    0.000
261.636;  770.475;  169.925;    0.000
261.703;  821.475;  200.925;    0.000
261.771;  796.475;  170.925;    0.000
261.838;  853.475;  175.925;    0.000
261.906;  774.475;  135.925;    0.000
261.973;  816.475;  184.925;    0.000
262.040;  848.475;  176.925;    0.000
262.108;  787.475;  201.925;    0.000
262.175;  788.475;  141.925;    0.000
262.243;  910.475;  175.925;    0.000
262.310;  805.475;  112.925;    0.000
262.377;  837.475;  158.925;    0.000
262.445;  863.475;  162.925;    0.000
262.512;  919.475;  184.925;    0.000
262.579;  896.475;  185.925;    0.000
262.647;  874.475;  158.925;    0.000
262.714;  936.475;  197.925;    0.000
262.781;  887.475;  133.925;    0.000
262.849;  861.475;  146.925;    0.000
262.916;  913.475;  204.925;    0.000
262.983;  932.475;  191.925;    0.000
263.051;  891.475;  140.925;    0.000
263.118;  885.475;  154.925;    0.000
263.185;  904.475;  169.925;    0.000
263.252;  960.475;  150.925;    0.000
263.320;  929.475;  145.925;    0.000
263.387;  913.475;  144.925;    0.000
263.454;  874.475;  193.925;    0.000
263.522;  903.475;  160.925;    0.000
263.589; 1007.475;  153.925;    0.000
263.656;  950.475;  178.925;    0.000
263.723;  944.475;  136.925;    0.000
263.790;  968.475;  162.925;    0.000
263.858;  967.475;  164.925;    0.000
263.925;  991.475;  146.925;    0.000
263.992; 1000.475;  191.925;    0.000
264.059;  959.475;  180.925;    0.000
264.126; 1011.475;  183.925;    0.000
264.194;  953.475;  174.925;    0.000
264.261; 1025.475;  187.925;    0.000
264.328; 1009.475;  179.925;    0.000
264.395; 1079.475;  166.925;    0.000
264.462; 1025.475;  197.925;    0.000
264.529; 1064.475;  209.925;    0.000
264.597; 1006.475;  173.925;    0.000
264.664; 1058.475;  193.925;    0.000
264.731; 1017.475;  165.925;    0.000
264.798; 1010.475;  148.925;    0.000
264.865; 1027.475;  186.925;    0.000
264.932; 1032.475;  152.925;    0.000
264.999; 1040.475;  166.925;    0.000
265.066; 1052.475;  186.925;    0.000
265.133; 1082.475;  172.925;    0.000
265.201; 1077.475;  159.925;    0.000
265.268; 1089.475;  164.925;    0.000
265.335; 1035.475;  161.925;    0.000
265.402; 1053.475;  157.925;    0.000
265.469; 1094.475;  134.925;    0.000
265.536; 1174.475;  191.925;    0.000
265.603; 1130.475;  170.925;    0.000
265.670; 1127.475;  162.925;    0.000
265.737; 1152.475;  172.925;    0.000
265.804; 1104.475;  151.925;    0.000
265.871; 1088.475;  191.925;    0.000
265.938; 1102.475;  173.925;    0.000
266.005; 1143.475;  201.925;    0.000
266.072; 1155.475;  156.925;    0.000
266.139; 1221.475;  191.925;    0.000
266.206; 1167.475;  151.925;    0.000
266.273; 1118.475;  194.925;    0.000
266.340; 1091.475;  120.925;    0.000
266.407; 1143.475;  130.925;    0.000
266.474; 1128.475;  137.925;    0.000
266.541; 1181.475;  139.925;    0.000
266.608; 1200.475;  139.925;    0.000
266.675; 1199.475;  198.925;    0.000
266.742; 1159.475;  165.925;    0.000
266.808; 1191.475;  174.925;    0.000
266.875; 1218.475;  169.925;    0.000
266.942; 1125.475;  137.925;    0.000
267.009; 1199.475;  181.925;    0.000
267.076; 1197.475;  204.925;    0.000
267.143; 1175.475;  179.925;    0.000
267.210; 1196.475;  160.925;    0.000
267.277; 1212.475;  154.925;    0.000
267.344; 1225.475;  178.925;    0.000
267.410; 1260.475;  190.925;    0.000
267.477; 1265.475;  193.925;    0.000
267.544; 1229.475;  168.925;    0.000
267.611; 1285.475;  177.925;    0.000
267.678; 1230.475;  205.925;    0.000
267.745; 1275.475;  205.925;    0.000
267.811; 1220.475;  164.925;    0.000
267.878; 1250.475;  166.925;    0.000
267.945; 1268.475;  160.925;    0.000
268.012; 1272.475;  172.925;    0.000
268.079; 1309.475;  186.925;    0.000
268.145; 1189.475;  188.925;    0.000
268.212; 1232.475;  181.925;    0.000
268.279; 1277.475;  158.925;    0.000
268.346; 1275.475;  192.925;    0.000
268.412; 1292.475;  159.925;    0.000
268.479; 1214.475;  176.925;    0.000
268.546; 1273.475;  170.925;    0.000
268.613; 1264.475;  133.925;    0.000
268.679; 1281.475;  170.925;    0.000
268.746; 1239.475;  185.925;    0.000
268.813; 1236.475;  170.925;    0.000
268.879; 1226.475;  149.925;    0.000
268.946; 1235.475;  176.925;    0.000
269.013; 1254.475;  153.925;    0.000
269.079; 1195.475;  156.925;    0.000
269.146; 1281.475;  143.925;    0.000
269.213; 1356.475;  170.925;    0.000
269.280; 1215.475;  202.925;    0.000
269.346; 1334.475;  180.925;    0.000
269.413; 1217.475;  162.925;    0.000
269.479; 1238.475;  175.925;    0.000
269.546; 1265.475;  151.925;    0.000
269.613; 1263.475;  159.925;    0.000
269.679; 1274.475;  190.925;    0.000
269.746; 1202.475;  159.925;    0.000
269.813; 1228.475;  151.925;    0.000
269.879; 1294.475;  169.925;    0.000
269.946; 1233.475;  169.925;    0.000
270.012; 1240.475;  185.925;    0.000
270.079; 1178.475;  133.925;    0.000
270.145; 1193.475;  161.925;    0.000
270.212; 1248.475;  156.925;    0.000
270.279; 1234.475;  176.925;    0.000
270.345; 1233.475;  140.925;    0.000
270.412; 1202.475;  162.925;    0.000
270.478; 1224.475;  148.925;    0.000
270.545; 1175.475;  146.925;    0.000
270.611; 1224.475;  168.925;    0.000
270.678; 1208.475;  164.925;    0.000
270.744; 1258.475;  117.925;    0.000
270.811; 1205.475;  196.925;    0.000
270.877; 1247.475;  151.925;    0.000
270.944; 1211.475;  174.925;    0.000
271.010; 1209.475;  180.925;    0.000
271.077; 1284.475;  162.925;    0.000
271.143; 1158.475;  178.925;    0.000
271.210; 1205.475;  159.925;    0.000
271.276; 1237.475;  143.925;    0.000
271.342; 1230.475;  196.925;    0.000
271.409; 1209.475;  161.925;    0.000
271.475; 1250.475;  153.925;    0.000
271.542; 1230.475;  147.925;    0.000
271.608; 1286.475;  175.925;    0.000
271.675; 1174.475;  134.925;    0.000
271.741; 1250.475;  182.925;    0.000
271.807; 1254.475;  174.925;    0.000
271.874; 1216.475;  169.925;    0.000
271.940; 1176.475;  179.925;    0.000
272.007; 1276.475;  173.925;    0.000
272.073; 1224.475;  133.925;    0.000
272.139; 1194.475;  191.925;    0.000
272.206; 1227.475;  168.925;    0.000
272.272; 1263.475;  179.925;    0.000
272.338; 1281.475;  224.925;    0.000
272.405; 1283.475;  156.925;    0.000
272.471; 1214.475;  175.925;    0.000
272.537; 1265.475;  190.925;    0.000
272.604; 1239.475;  199.925;    0.000
272.670; 1218.475;  156.925;    0.000
272.736; 1215.475;  198.925;    0.000
272.802; 1310.475;  169.925;    0.000
272.869; 1230.475;  141.925;    0.000
272.935; 1245.475;  145.925;    0.000
273.001; 1270.475;  156.925;    0.000
273.068; 1289.475;  157.925;    0.000
273.134; 1234.475;  184.925;    0.000
273.200; 1290.475;  158.925;    0.000
273.266; 1262.475;  150.925;    0.000
273.333; 1356.475;  176.925;    0.000
273.399; 1176.475;  118.925;    0.000
273.465; 1272.475;  184.925;    0.000
273.531; 1246.475;  179.925;    0.000
273.597; 1264.475;  167.925;    0.000
273.664; 1333.475;  186.925;    0.000
273.730; 1273.475;  137.925;    0.000
273.796; 1341.475;  148.925;    0.000
273.862; 1294.475;  183.925;    0.000
273.928; 1335.475;  179.925;    0.000
273.995; 1222.475;  189.925;    0.000
274.061; 1486.475;  188.925;    0.000
274.127; 1366.475;  132.925;    0.000
274.193; 1280.475;  135.925;    0.000
274.259; 1291.475;  177.925;    0.000
274.325; 1322.475;  178.925;    0.000
274.391; 1356.475;  140.925;    0.000
274.457; 1334.475;  158.925;    0.000
274.524; 1361.475;  175.925;    0.000
274.590; 1365.475;  182.925;    0.000
274.656; 1342.475;  165.925;    0.000
274.722; 1341.475;  152.925;    0.000
274.788; 1436.475;  159.925;    0.000
274.854; 1420.475;  143.925;    0.000
274.920; 1376.475;  117.925;    0.000
274.986; 1400.475;  140.925;    0.000
275.052; 1398.475;  174.925;    0.000
275.118; 1459.475;  129.925;    0.000
275.184; 1445.475;  173.925;    0.000
275.250; 1423.475;  196.925;    0.000
275.316; 1369.475;  142.925;    0.000
275.382; 1456.475;  149.925;    0.000
275.448; 1449.475;  178.925;    0.000
275.514; 1486.475;  136.925;    0.000
275.580; 1439.475;  140.925;    0.000
275.646; 1540.475;  133.925;    0.000
275.712; 1451.475;  162.925;    0.000
275.778; 1566.475;  129.925;    0.000
275.844; 1610.475;  156.925;    0.000
275.910; 1571.475;  172.925;    0.000
275.976; 1577.475;  158.925;    0.000
276.042; 1579.475;  141.925;    0.000
276.108; 1602.475;  212.925;    0.000
276.174; 1694.475;  148.925;    0.000
276.240; 1627.475;  134.925;    0.000
276.306; 1728.475;  149.925;    0.000
276.372; 1687.475;  126.925;    0.000
276.437; 1770.475;  168.925;    0.000
276.503; 1784.475;  158.925;    0.000
276.569; 1901.475;  191.925;    0.000
276.635; 1839.475;  130.925;    0.000
276.701; 1863.475;  161.925;    0.000
276.767; 1884.475;  148.925;    0.000
276.833; 1835.475;  147.925;    0.000
276.899; 1980.475;  149.925;    0.000
276.964; 2053.475;  181.925;    0.000
277.030; 2009.475;  186.925;    0.000
277.096; 2091.475;  132.925;    0.000
277.162; 2151.475;  181.925;    0.000
277.228; 2307.475;  166.925;    0.000
277.293; 2300.475;  154.925;    0.000
277.359; 2490.475;  181.925;    0.000
277.425; 2405.475;  184.925;    0.000
277.491; 2567.475;  150.925;    0.000
277.557; 3047.475;  159.925;    0.000
277.622; 3909.475;  129.925;    0.000
277.688; 4054.475;  184.925;    0.000
277.754; 3988.475;  182.925;    0.000
277.820; 4419.475;  149.925;    0.000
277.885; 5279.475;  185.925;    0.000
277.951; 6438.475;  164.925;    0.000
278.017; 5620.475;  162.925;    0.000
278.083; 4795.475;  189.925;    0.000
278.148; 4709.475;  184.925;    0.000
278.214; 4683.475;  188.925;    0.000
278.280; 4998.475;  206.925;    0.000
278.345; 4749.475;  187.925;    0.000
278.411; 4483.475;  174.925;    0.000
278.477; 4752.475;  190.925;    0.000
278.542; 4905.475;  154.925;    0.000
278.608; 5276.475;  191.925;    0.000
278.674; 5732.475;  243.925;    0.000
278.739; 6413.475;  141.925;    0.000
278.805; 7215.475;  171.925;    0.000
278.871; 8536.475;  181.925;    0.000
278.936;10437.475;  191.925;    0.000
279.002;14711.475;  201.925;    0.000
279.067;18446.475;  174.925;    0.000
279.133;18063.475;  165.925;    0.000
279.199;17173.475;  122.925;    0.000
279.264;17884.475;  159.925;    0.000
279.330;20687.475;  170.925;    0.000
279.395;24916.475;  173.925;    0.000
279.461;28997.475;  200.925;    0.000
279.527;30722.475;  199.925;    0.000
279.592;30397.475;  203.925;    0.000
279.658;28073.475;  209.925;    0.000
279.723;27155.475;  188.925;    0.000
279.789;27686.475;  180.925;    0.000
279.854;25186.475;  137.925;    0.000
279.920;21956.475;  223.925;    0.000
279.985;20346.475;  186.925;    0.000
280.051;20893.475;  198.925;    0.000
280.116;23546.475;  178.925;    0.000
280.182;27830.475;  176.925;    0.000
280.247;30365.475;  195.925;    0.000
280.313;27714.475;  165.925;    0.000
280.378;22042.475;  153.925;    0.000
280.444;16926.475;  181.925;    0.000
280.509;13720.475;  188.925;    0.000
280.574;11616.475;  149.925;    0.000
280.640; 9892.475;  164.925;    0.000
280.705; 9116.475;  166.925;    0.000
280.771; 8046.475;  188.925;    0.000
280.836; 7487.475;  188.925;    0.000
280.902; 7011.475;  168.925;    0.000
280.967; 6511.475;  202.925;    0.000
281.032; 6247.475;  197.925;    0.000
281.098; 5818.475;  138.925;    0.000
281.163; 5519.475;  160.925;    0.000
281.229; 5197.475;  212.925;    0.000
281.294; 4901.475;  227.925;    0.000
281.359; 4645.475;  200.925;    0.000
281.425; 4686.475;  189.925;    0.000
281.490; 4417.475;  176.925;    0.000
281.555; 4104.475;  182.925;    0.000
281.621; 4094.475;  169.925;    0.000
281.686; 4014.475;  182.925;    0.000
281.751; 3942.475;  208.925;    0.000
281.816; 3710.475;  166.925;    0.000
281.882; 3609.475;  181.925;    0.000
281.947; 3532.475;  178.925;    0.000
282.012; 3388.475;  167.925;    0.000
282.078; 3396.475;  170.925;    0.000
282.143; 3218.475;  157.925;    0.000
282.208; 3228.475;  158.925;    0.000
282.273; 3049.475;  187.925;    0.000
282.339; 3029.475;  185.925;    0.000
282.404; 2959.475;  201.925;    0.000
282.469; 2930.475;  202.925;    0.000
282.534; 2935.475;  185.925;    0.000
282.600; 2886.475;  125.925;    0.000
282.665; 2876.475;  162.925;    0.000
282.730; 2705.475;  174.925;    0.000
282.795; 2704.475;  179.925;    0.000
282.860; 2765.475;  190.925;    0.000
282.926; 2634.475;  200.925;    0.000
282.991; 2711.475;  161.925;    0.000
283.056; 2562.475;  175.925;    0.000
283.121; 2565.475;  181.925;    0.000
283.186; 2572.475;  221.925;    0.000
283.251; 2506.475;  168.925;    0.000
283.316; 2469.475;  156.925;    0.000
283.382; 2396.475;  197.925;    0.000
283.447; 2428.475;  210.925;    0.000
283.512; 2379.475;  164.925;    0.000
283.577; 2316.475;  212.925;    0.000
283.642; 2398.475;  186.925;    0.000
283.707; 2367.475;  182.925;    0.000
283.772; 2229.475;  127.925;    0.000
283.837; 2289.475;  160.925;    0.000
283.902; 2273.475;  162.925;    0.000
283.967; 2312.475;  151.925;    0.000
284.032; 2283.475;  175.925;    0.000
284.097; 2296.475;  235.925;    0.000
284.163; 2248.475;  136.925;    0.000
284.228; 2332.475;  209.925;    0.000
284.293; 2383.475;  163.925;    0.000
284.358; 2369.475;  169.925;    0.000
284.423; 2269.475;  145.925;    0.000
284.488; 2361.475;  134.925;    0.000
284.553; 2397.475;  158.925;    0.000
284.618; 2357.475;  163.925;    0.000
284.683; 2466.475;  168.925;    0.000
284.748; 2502.475;  170.925;    0.000
284.812; 2662.475;  151.925;    0.000
284.877; 2928.475;  169.925;    0.000
284.942; 3340.475;  179.925;    0.000
285.007; 3898.475;  202.925;    0.000
285.072; 5276.475;  171.925;    0.000
285.137; 8338.475;  173.925;    0.000
285.202;11071.475;  196.925;    0.000
285.267; 9921.475;  193.925;    0.000
285.332; 6752.475;  151.925;    0.000
285.397; 4871.475;  183.925;    0.000
285.462; 4032.475;  168.925;    0.000
285.527; 3447.475;  166.925;    0.000
285.591; 3098.475;  124.925;    0.000
285.656; 2865.475;  145.925;    0.000
285.721; 2665.475;  155.925;    0.000
285.786; 2675.475;  170.925;    0.000
285.851; 2419.475;  175.925;    0.000
285.916; 2352.475;  186.925;    0.000
285.981; 2374.475;  204.925;    0.000
286.045; 2322.475;  237.925;    0.000
286.110; 2249.475;  197.925;    0.000
286.175; 2213.475;  143.925;    0.000
286.240; 2165.475;  167.925;    0.000
286.305; 2104.475;  202.925;    0.000
286.369; 2056.475;  214.925;    0.000
286.434; 2118.475;  206.925;    0.000
286.499; 2046.475;  177.925;    0.000
286.564; 2104.475;  201.925;    0.000
286.628; 2019.475;  153.925;    0.000
286.693; 2087.475;  161.925;    0.000
286.758; 2004.475;  181.925;    0.000
286.823; 2006.475;  176.925;    0.000
286.887; 1999.475;  158.925;    0.000
286.952; 2001.475;  198.925;    0.000
287.017; 2023.475;  196.925;    0.000
287.082; 1955.475;  154.925;    0.000
287.146; 2000.475;  178.925;    0.000
287.211; 1967.475;  165.925;    0.000
287.276; 1888.475;  165.925;    0.000
287.340; 1931.475;  178.925;    0.000
287.405; 1979.475;  177.925;    0.000
287.470; 1875.475;  141.925;    0.000
287.534; 1983.475;  224.925;    0.000
287.599; 1957.475;  184.925;    0.000
287.663; 1933.475;  177.925;    0.000
287.728; 1967.475;  144.925;    0.000
287.793; 1991.475;  210.925;    0.000
287.857; 1973.475;  198.925;    0.000
287.922; 1976.475;  168.925;    0.000
287.987; 1982.475;  168.925;    0.000
288.051; 1883.475;  200.925;    0.000
288.116; 1943.475;  199.925;    0.000
288.180; 1914.475;  211.925;    0.000
288.245; 1899.475;  182.925;    0.000
288.309; 1970.475;  180.925;    0.000
288.374; 1915.475;  196.925;    0.000
288.439; 2019.475;  187.925;    0.000
288.503; 1842.475;  159.925;    0.000
288.568; 1951.475;  207.925;    0.000
288.632; 1846.475;  210.925;    0.000
288.697; 1929.475;  196.925;    0.000
288.761; 1853.475;  175.925;    0.000
288.826; 1802.475;  159.925;    0.000
288.890; 1941.475;  183.925;    0.000
288.955; 1870.475;  149.925;    0.000
289.019; 1908.475;  194.925;    0.000
289.084; 1880.475;  171.925;    0.000
289.148; 1898.475;  191.925;    0.000
289.212; 1888.475;  217.925;    0.000
289.277; 1882.475;  196.925;    0.000
289.341; 1913.475;  211.925;    0.000
289.406; 1835.475;  165.925;    0.000
289.470; 1848.475;  197.925;    0.000
289.535; 1873.475;  208.925;    0.000
289.599; 1902.475;  192.925;    0.000
289.663; 1942.475;  169.925;    0.000
289.728; 1875.475;  168.925;    0.000
289.792; 1911.475;  192.925;    0.000
289.857; 1870.475;  202.925;    0.000
289.921; 1854.475;  176.925;    0.000
289.985; 1894.475;  164.925;    0.000
290.050; 1919.475;  166.925;    0.000
290.114; 1817.475;  192.925;    0.000
290.178; 1928.475;  155.925;    0.000
290.243; 1818.475;  158.925;    0.000
290.307; 1822.475;  192.925;    0.000
290.371; 1925.475;  161.925;    0.000
290.436; 1984.475;  182.925;    0.000
290.500; 1775.475;  147.925;    0.000
290.564; 1910.475;  209.925;    0.000
290.629; 1794.475;  172.925;    0.000
290.693; 1856.475;  192.925;    0.000
290.757; 1929.475;  147.925;    0.000
290.821; 1917.475;  139.925;    0.000
290.886; 1836.475;  186.925;    0.000
290.950; 1958.475;  196.925;    0.000
291.014; 1959.475;  166.925;    0.000
291.078; 1864.475;  143.925;    0.000
291.143; 1912.475;  171.925;    0.000
291.207; 1967.475;  187.925;    0.000
291.271; 1970.475;  208.925;    0.000
291.335; 2003.475;  195.925;    0.000
291.399; 2003.475;  139.925;    0.000
291.464; 2099.475;  139.925;    0.000
291.528; 2149.475;  183.925;    0.000
291.592; 2200.475;  152.925;    0.000
291.656; 2123.475;  155.925;    0.000
291.720; 2093.475;  191.925;    0.000
291.784; 2023.475;  185.925;    0.000
291.849; 2008.475;  175.925;    0.000
291.913; 1983.475;  152.925;    0.000
291.977; 2053.475;  203.925;    0.000
292.041; 2012.475;  181.925;    0.000
292.105; 2057.475;  168.925;    0.000
292.169; 2029.475;  133.925;    0.000
292.233; 2089.475;  156.925;    0.000
292.297; 2146.475;  173.925;    0.000
292.361; 2201.475;  124.925;    0.000
292.425; 2252.475;  138.925;    0.000
292.490; 2338.475;  110.925;    0.000
292.554; 2336.475;  180.925;    0.000
292.618; 2446.475;  178.925;    0.000
292.682; 2700.475;  156.925;    0.000
292.746; 3037.475;  151.925;    0.000
292.810; 3906.475;  183.925;    0.000
292.874; 4915.475;  156.925;    0.000
292.938; 4948.475;  195.925;    0.000
293.002; 4589.475;  200.925;    0.000
293.066; 4054.475;  171.925;    0.000
293.130; 3818.475;  163.925;    0.000
293.194; 3685.475;  174.925;    0.000
293.258; 3509.475;  167.925;    0.000
293.322; 3456.475;  212.925;    0.000
293.386; 3492.475;  189.925;    0.000
293.450; 3842.475;  169.925;    0.000
293.514; 4308.475;  175.925;    0.000
293.577; 5342.475;  169.925;    0.000
293.641; 6999.475;  186.925;    0.000
293.705; 7689.475;  222.925;    0.000
293.769; 6806.475;  150.925;    0.000
293.833; 6047.475;  165.925;    0.000
293.897; 5302.475;  152.925;    0.000
293.961; 4671.475;  179.925;    0.000
294.025; 4296.475;  159.925;    0.000
294.089; 4060.475;  181.925;    0.000
294.152; 3803.475;  188.925;    0.000
294.216; 3510.475;  170.925;    0.000
294.280; 3245.475;  167.925;    0.000
294.344; 3163.475;  151.925;    0.000
294.408; 3041.475;  180.925;    0.000
294.472; 2943.475;  144.925;    0.000
294.536; 2812.475;  171.925;    0.000
294.599; 2798.475;  157.925;    0.000
294.663; 2637.475;  139.925;    0.000
294.727; 2464.475;  208.925;    0.000
294.791; 2487.475;  152.925;    0.000
294.855; 2521.475;  181.925;    0.000
294.918; 2238.475;  136.925;    0.000
294.982; 2340.475;  155.925;    0.000
295.046; 2271.475;  200.925;    0.000
295.110; 2203.475;  190.925;    0.000
295.173; 2282.475;  156.925;    0.000
295.237; 2230.475;  160.925;    0.000
295.301; 2045.475;  145.925;    0.000
295.364; 2179.475;  166.925;    0.000
295.428; 2173.475;  125.925;    0.000
295.492; 2108.475;  154.925;    0.000
295.556; 2082.475;  172.925;    0.000
295.619; 2136.475;  210.925;    0.000
295.683; 2067.475;  181.925;    0.000
295.747; 1970.475;  176.925;    0.000
295.810; 1977.475;  181.925;    0.000
295.874; 1960.475;  160.925;    0.000
295.938; 1921.475;  119.925;    0.000
296.001; 2057.475;  206.925;    0.000
296.065; 1940.475;  136.925;    0.000
296.128; 1826.475;  156.925;    0.000
296.192; 1923.475;  174.925;    0.000
296.256; 1890.475;  145.925;    0.000
296.319; 1924.475;  167.925;    0.000
296.383; 1905.475;  168.925;    0.000
296.447; 1940.475;  190.925;    0.000
296.510; 1871.475;  165.925;    0.000
296.574; 1800.475;  184.925;    0.000
296.637; 1771.475;  155.925;    0.000
296.701; 1900.475;  168.925;    0.000
296.764; 1811.475;  161.925;    0.000
296.828; 1885.475;  218.925;    0.000
296.891; 1799.475;  176.925;    0.000
296.955; 1759.475;  169.925;    0.000
297.018; 1839.475;  168.925;    0.000
297.082; 1857.475;  176.925;    0.000
297.145; 1814.475;  171.925;    0.000
297.209; 1779.475;  196.925;    0.000
297.272; 1829.475;  170.925;    0.000
297.336; 1753.475;  156.925;    0.000
297.399; 1770.475;  168.925;    0.000
297.463; 1750.475;  203.925;    0.000
297.526; 1785.475;  164.925;    0.000
297.590; 1712.475;  175.925;    0.000
297.653; 1744.475;  170.925;    0.000
297.717; 1728.475;  156.925;    0.000
297.780; 1732.475;  149.925;    0.000
297.843; 1712.475;  156.925;    0.000
297.907; 1693.475;  129.925;    0.000
297.970; 1767.475;  163.925;    0.000
298.034; 1765.475;  162.925;    0.000
298.097; 1721.475;  182.925;    0.000
298.160; 1753.475;  194.925;    0.000
298.224; 1776.475;  178.925;    0.000
298.287; 1725.475;  147.925;    0.000
298.350; 1702.475;  187.925;    0.000
298.414; 1744.475;  193.925;    0.000
298.477; 1656.475;  127.925;    0.000
298.540; 1671.475;  181.925;    0.000
298.604; 1686.475;  163.925;    0.000
298.667; 1690.475;  177.925;    0.000
298.730; 1713.475;  192.925;    0.000
298.794; 1679.475;  183.925;    0.000
298.857; 1657.475;  194.925;    0.000
298.920; 1618.475;  147.925;    0.000
298.984; 1696.475;  184.925;    0.000
299.047; 1640.475;  218.925;    0.000
299.110; 1639.475;  171.925;    0.000
299.173; 1670.475;  177.925;    0.000
299.237; 1682.475;  181.925;    0.000
299.300; 1675.475;  170.925;    0.000
299.363; 1633.475;  185.925;    0.000
299.426; 1551.475;  193.925;    0.000
299.489; 1698.475;  184.925;    0.000
299.553; 1600.475;  194.925;    0.000
299.616; 1583.475;  171.925;    0.000
299.679; 1634.475;  182.925;    0.000
299.742; 1593.475;  138.925;    0.000
299.805; 1590.475;  172.925;    0.000
299.868; 1539.475;  191.925;    0.000
299.932; 1599.475;  193.925;    0.000
299.995; 1600.475;  201.925;    0.000
300.058; 1544.475;  177.925;    0.000
300.121; 1568.475;  178.925;    0.000
300.184; 1607.475;  171.925;    0.000
300.247; 1617.475;  184.925;    0.000
300.310; 1517.475;  200.925;    0.000
300.374; 1601.475;  172.925;    0.000
300.437; 1579.475;  187.925;    0.000
300.500; 1527.475;  211.925;    0.000
300.563; 1648.475;  190.925;    0.000
300.626; 1620.475;  196.925;    0.000
300.689; 1554.475;  162.925;    0.000
300.752; 1557.475;  163.925;    0.000
300.815; 1607.475;  207.925;    0.000
300.878; 1575.475;  221.925;    0.000
300.941; 1603.475;  176.925;    0.000
301.004; 1550.475;  193.925;    0.000
301.067; 1594.475;  165.925;    0.000
301.130; 1583.475;  179.925;    0.000
301.193; 1523.475;  196.925;    0.000
301.256; 1547.475;  210.925;    0.000
301.319; 1564.475;  196.925;    0.000
301.382; 1588.475;  162.925;    0.000
301.445; 1629.475;  233.925;    0.000
301.508; 1509.475;  176.925;    0.000
301.571; 1541.475;  185.925;    0.000
301.634; 1579.475;  202.925;    0.000
301.697; 1507.475;  189.925;    0.000
301.760; 1504.475;  224.925;    0.000
301.823; 1488.475;  212.925;    0.000
301.885; 1516.475;  196.925;    0.000
301.948; 1555.475;  169.925;    0.000
302.011; 1585.475;  160.925;    0.000
302.074; 1551.475;  202.925;    0.000
302.137; 1543.475;  130.925;    0.000
302.200; 1541.475;  188.925;    0.000
302.263; 1591.475;  196.925;    0.000
302.326; 1572.475;  172.925;    0.000
302.388; 1603.475;  197.925;    0.000
302.451; 1495.475;  203.925;    0.000
302.514; 1554.475;  164.925;    0.000
302.577; 1539.475;  170.925;    0.000
302.640; 1583.475;  156.925;    0.000
302.703; 1533.475;  188.925;    0.000
302.765; 1537.475;  213.925;    0.000
302.828; 1604.475;  212.925;    0.000
302.891; 1539.475;  203.925;    0.000
302.954; 1487.475;  148.925;    0.000
303.016; 1564.475;  168.925;    0.000
303.079; 1532.475;  206.925;    0.000
303.142; 1559.475;  210.925;    0.000
303.205; 1545.475;  189.925;    0.000
303.267; 1477.475;  174.925;    0.000
303.330; 1521.475;  198.925;    0.000
303.393; 1531.475;  207.925;    0.000
303.456; 1545.475;  177.925;    0.000
303.518; 1542.475;  192.925;    0.000
303.581; 1498.475;  171.925;    0.000
303.644; 1526.475;  193.925;    0.000
303.706; 1569.475;  185.925;    0.000
303.769; 1588.475;  198.925;    0.000
303.832; 1542.475;  192.925;    0.000
303.894; 1568.475;  199.925;    0.000
303.957; 1506.475;  160.925;    0.000
304.020; 1530.475;  184.925;    0.000
304.082; 1537.475;  191.925;    0.000
304.145; 1536.475;  216.925;    0.000
304.207; 1449.475;  175.925;    0.000
304.270; 1532.475;  192.925;    0.000
304.333; 1556.475;  218.925;    0.000
304.395; 1494.475;  195.925;    0.000
304.458; 1565.475;  206.925;    0.000
304.520; 1558.475;  229.925;    0.000
304.583; 1463.475;  202.925;    0.000
304.646; 1595.475;  159.925;    0.000
304.708; 1540.475;  167.925;    0.000
304.771; 1476.475;  141.925;    0.000
304.833; 1482.475;  184.925;    0.000
304.896; 1529.475;  197.925;    0.000
304.958; 1515.475;  179.925;    0.000
305.021; 1513.475;  175.925;    0.000
305.083; 1461.475;  182.925;    0.000
305.146; 1448.475;  182.925;    0.000
305.208; 1530.475;  174.925;    0.000
305.271; 1495.475;  157.925;    0.000
305.333; 1596.475;  185.925;    0.000
305.396; 1474.475;  199.925;    0.000
305.458; 1535.475;  203.925;    0.000
305.520; 1548.475;  195.925;    0.000
305.583; 1457.475;  152.925;    0.000
305.645; 1511.475;  200.925;    0.000
305.708; 1542.475;  149.925;    0.000
305.770; 1597.475;  211.925;    0.000
305.833; 1555.475;  189.925;    0.000
305.895; 1484.475;  200.925;    0.000
305.957; 1479.475;  166.925;    0.000
306.020; 1492.475;  186.925;    0.000
306.082; 1528.475;  197.925;    0.000
306.144; 1521.475;  200.925;    0.000
306.207; 1511.475;  180.925;    0.000
306.269; 1467.475;  209.925;    0.000
306.331; 1529.475;  205.925;    0.000
306.394; 1497.475;  176.925;    0.000
306.456; 1474.475;  184.925;    0.000
306.518; 1613.475;  210.925;    0.000
306.581; 1493.475;  162.925;    0.000
306.643; 1548.475;  196.925;    0.000
306.705; 1558.475;  204.925;    0.000
306.768; 1554.475;  158.925;    0.000
306.830; 1578.475;  205.925;    0.000
306.892; 1558.475;  189.925;    0.000
306.954; 1565.475;  188.925;    0.000
307.017; 1538.475;  180.925;    0.000
307.079; 1520.475;  197.925;    0.000
307.141; 1558.475;  184.925;    0.000
307.203; 1518.475;  182.925;    0.000
307.266; 1632.475;  166.925;    0.000
307.328; 1548.475;  186.925;    0.000
307.390; 1629.475;  176.925;    0.000
307.452; 1618.475;  194.925;    0.000
307.514; 1584.475;  225.925;    0.000
307.577; 1525.475;  209.925;    0.000
307.639; 1545.475;  203.925;    0.000
307.701; 1626.475;  214.925;    0.000
307.763; 1672.475;  203.925;    0.000
307.825; 1635.475;  202.925;    0.000
307.887; 1642.475;  244.925;    0.000
307.949; 1598.475;  173.925;    0.000
308.012; 1560.475;  219.925;    0.000
308.074; 1625.475;  157.925;    0.000
308.136; 1597.475;  215.925;    0.000
308.198; 1620.475;  186.925;    0.000
308.260; 1582.475;  186.925;    0.000
308.322; 1637.475;  201.925;    0.000
308.384; 1578.475;  218.925;    0.000
308.446; 1636.475;  159.925;    0.000
308.508; 1633.475;  191.925;    0.000
308.570; 1610.475;  185.925;    0.000
308.632; 1666.475;  208.925;    0.000
308.694; 1668.475;  161.925;    0.000
308.756; 1621.475;  169.925;    0.000
308.818; 1668.475;  187.925;    0.000
308.880; 1698.475;  192.925;    0.000
308.942; 1702.475;  194.925;    0.000
309.004; 1661.475;  206.925;    0.000
309.066; 1744.475;  204.925;    0.000
309.128; 1703.475;  181.925;    0.000
309.190; 1716.475;  166.925;    0.000
309.252; 1766.475;  213.925;    0.000
309.314; 1756.475;  249.925;    0.000
309.376; 1777.475;  238.925;    0.000
309.438; 1737.475;  206.925;    0.000
309.500; 1753.475;  185.925;    0.000
309.562; 1794.475;  214.925;    0.000
309.624; 1941.475;  216.925;    0.000
309.686; 2022.475;  197.925;    0.000
309.747; 1844.475;  171.925;    0.000
309.809; 1864.475;  198.925;    0.000
309.871; 1810.475;  185.925;    0.000
309.933; 1818.475;  172.925;    0.000
309.995; 1708.475;  168.925;    0.000
310.057; 1759.475;  177.925;    0.000
310.119; 1737.475;  207.925;    0.000
310.180; 1716.475;  180.925;    0.000
310.242; 1740.475;  202.925;    0.000
310.304; 1793.475;  200.925;    0.000
310.366; 1707.475;  222.925;    0.000
310.428; 1708.475;  179.925;    0.000
310.489; 1775.475;  196.925;    0.000
310.551; 1719.475;  203.925;    0.000
310.613; 1664.475;  198.925;    0.000
310.675; 1753.475;  203.925;    0.000
310.737; 1707.475;  195.925;    0.000
310.798; 1737.475;  204.925;    0.000
310.860; 1731.475;  195.925;    0.000
310.922; 1737.475;  195.925;    0.000
310.983; 1690.475;  225.925;    0.000
311.045; 1657.475;  203.925;    0.000
311.107; 1716.475;  194.925;    0.000
311.169; 1707.475;  185.925;    0.000
311.230; 1682.475;  175.925;    0.000
311.292; 1760.475;  220.925;    0.000
311.354; 1758.475;  189.925;    0.000
311.415; 1715.475;  187.925;    0.000
311.477; 1745.475;  180.925;    0.000
311.539; 1678.475;  175.925;    0.000
311.600; 1673.475;  192.925;    0.000
311.662; 1734.475;  212.925;    0.000
311.724; 1729.475;  217.925;    0.000
311.785; 1754.475;  218.925;    0.000
311.847; 1780.475;  219.925;    0.000
311.908; 1682.475;  202.925;    0.000
311.970; 1722.475;  186.925;    0.000
312.032; 1752.475;  212.925;    0.000
312.093; 1682.475;  203.925;    0.000
312.155; 1731.475;  165.925;    0.000
312.216; 1684.475;  183.925;    0.000
312.278; 1728.475;  167.925;    0.000
312.339; 1733.475;  190.925;    0.000
312.401; 1744.475;  219.925;    0.000
312.462; 1611.475;  190.925;    0.000
312.524; 1659.475;  203.925;    0.000
312.585; 1713.475;  191.925;    0.000
312.647; 1750.475;  197.925;    0.000
312.708; 1707.475;  203.925;    0.000
312.770; 1719.475;  203.925;    0.000
312.831; 1659.475;  155.925;    0.000
312.893; 1706.475;  189.925;    0.000
312.954; 1732.475;  212.925;    0.000
313.016; 1677.475;  179.925;    0.000
313.077; 1641.475;  209.925;    0.000
313.139; 1721.475;  185.925;    0.000
313.200; 1696.475;  180.925;    0.000
313.261; 1733.475;  220.925;    0.000
313.323; 1790.475;  171.925;    0.000
313.384; 1662.475;  180.925;    0.000
313.446; 1722.475;  202.925;    0.000
313.507; 1671.475;  172.925;    0.000
313.568; 1726.475;  192.925;    0.000
313.630; 1688.475;  191.925;    0.000
313.691; 1752.475;  176.925;    0.000
313.752; 1710.475;  175.925;    0.000
313.814; 1693.475;  202.925;    0.000
313.875; 1784.475;  186.925;    0.000
313.936; 1763.475;  199.925;    0.000
313.998; 1711.475;  164.925;    0.000
314.059; 1710.475;  159.925;    0.000
314.120; 1688.475;  175.925;    0.000
314.182; 1767.475;  181.925;    0.000
314.243; 1735.475;  157.925;    0.000
314.304; 1705.475;  168.925;    0.000
314.365; 1768.475;  203.925;    0.000
314.427; 1701.475;  151.925;    0.000
314.488; 1747.475;  174.925;    0.000
314.549; 1723.475;  184.925;    0.000
314.610; 1750.475;  198.925;    0.000
314.672; 1713.475;  193.925;    0.000
314.733; 1736.475;  171.925;    0.000
314.794; 1657.475;  141.925;    0.000
314.855; 1683.475;  184.925;    0.000
314.917; 1694.475;  175.925;    0.000
314.978; 1732.475;  190.925;    0.000
315.039; 1697.475;  183.925;    0.000
315.100; 1698.475;  204.925;    0.000
315.161; 1715.475;  202.925;    0.000
315.222; 1730.475;  177.925;    0.000
315.283; 1807.475;  191.925;    0.000
315.345; 1748.475;  185.925;    0.000
315.406; 1720.475;  194.925;    0.000
315.467; 1773.475;  167.925;    0.000
315.528; 1758.475;  174.925;    0.000
315.589; 1663.475;  197.925;    0.000
315.650; 1739.475;  192.925;    0.000
315.711; 1773.475;  181.925;    0.000
315.772; 1760.475;  157.925;    0.000
315.833; 1836.475;  189.925;    0.000
315.894; 1749.475;  184.925;    0.000
315.955; 1713.475;  202.925;    0.000
316.016; 1776.475;  220.925;    0.000
316.078; 1769.475;  180.925;    0.000
316.139; 1809.475;  240.925;    0.000
316.200; 1732.475;  190.925;    0.000
316.261; 1736.475;  179.925;    0.000
316.322; 1739.475;  176.925;    0.000
316.383; 1720.475;  188.925;    0.000
316.444; 1730.475;  228.925;    0.000
316.504; 1681.475;  199.925;    0.000
316.565; 1733.475;  221.925;    0.000
316.626; 1735.475;  204.925;    0.000
316.687; 1733.475;  192.925;    0.000
316.748; 1776.475;  220.925;    0.000
316.809; 1740.475;  175.925;    0.000
316.870; 1672.475;  164.925;    0.000
316.931; 1757.475;  208.925;    0.000
316.992; 1824.475;  224.925;    0.000
317.053; 1725.475;  204.925;    0.000
317.114; 1781.475;  199.925;    0.000
317.175; 1821.475;  230.925;    0.000
317.235; 1646.475;  186.925;    0.000
317.296; 1691.475;  224.925;    0.000
317.357; 1726.475;  154.925;    0.000
317.418; 1754.475;  219.925;    0.000
317.479; 1734.475;  229.925;    0.000
317.540; 1738.475;  201.925;    0.000
317.601; 1723.475;  180.925;    0.000
317.661; 1684.475;  179.925;    0.000
317.722; 1694.475;  193.925;    0.000
317.783; 1644.475;  164.925;    0.000
317.844; 1768.475;  232.925;    0.000
317.904; 1639.475;  222.925;    0.000
317.965; 1663.475;  199.925;    0.000
318.026; 1774.475;  200.925;    0.000
318.087; 1679.475;  182.925;    0.000
318.148; 1741.475;  216.925;    0.000
318.208; 1739.475;  239.925;    0.000
318.269; 1739.475;  163.925;    0.000
318.330; 1730.475;  204.925;    0.000
318.390; 1759.475;  191.925;    0.000
318.451; 1742.475;  200.925;    0.000
318.512; 1727.475;  181.925;    0.000
318.572; 1773.475;  233.925;    0.000
318.633; 1696.475;  220.925;    0.000
318.694; 1773.475;  179.925;    0.000
318.754; 1770.475;  214.925;    0.000
318.815; 1739.475;  214.925;    0.000
318.876; 1718.475;  220.925;    0.000
318.936; 1743.475;  212.925;    0.000
318.997; 1744.475;  201.925;    0.000
319.058; 1710.475;  215.925;    0.000
319.118; 1725.475;  251.925;    0.000
319.179; 1662.475;  240.925;    0.000
319.239; 1711.475;  240.925;    0.000
319.300; 1729.475;  232.925;    0.000
319.361; 1720.475;  211.925;    0.000
319.421; 1698.475;  219.925;    0.000
319.482; 1752.475;  228.925;    0.000
319.542; 1727.475;  216.925;    0.000
319.603; 1778.475;  190.925;    0.000
319.663; 1705.475;  227.925;    0.000
319.724; 1682.475;  191.925;    0.000
319.784; 1739.475;  196.925;    0.000
319.845; 1735.475;  190.925;    0.000
319.905; 1692.475;  221.925;    0.000
319.966; 1768.475;  219.925;    0.000
320.026; 1776.475;  233.925;    0.000
320.087; 1669.475;  204.925;    0.000
320.147; 1733.475;  189.925;    0.000
320.208; 1705.475;  200.925;    0.000
320.268; 1695.475;  217.925;    0.000
320.329; 1781.475;  216.925;    0.000
320.389; 1738.475;  228.925;    0.000
320.449; 1728.475;  236.925;    0.000
320.510; 1744.475;  234.925;    0.000
320.570; 1743.475;  176.925;    0.000
320.631; 1794.475;  228.925;    0.000
320.691; 1744.475;  228.925;    0.000
320.751; 1775.475;  188.925;    0.000
320.812; 1707.475;  223.925;    0.000
320.872; 1789.475;  268.925;    0.000
320.932; 1722.475;  226.925;    0.000
320.993; 1707.475;  216.925;    0.000
321.053; 1787.475;  236.925;    0.000
321.113; 1619.475;  197.925;    0.000
321.174; 1776.475;  218.925;    0.000
321.234; 1728.475;  229.925;    0.000
321.294; 1725.475;  208.925;    0.000
321.355; 1705.475;  248.925;    0.000
321.415; 1719.475;  218.925;    0.000
321.475; 1727.475;  173.925;    0.000
321.535; 1719.475;  234.925;    0.000
321.596; 1716.475;  202.925;    0.000
321.656; 1722.475;  246.925;    0.000
321.716; 1801.475;  235.925;    0.000
321.776; 1717.475;  210.925;    0.000
321.837; 1655.475;  217.925;    0.000
321.897; 1731.475;  215.925;    0.000
321.957; 1760.475;  239.925;    0.000
322.017; 1750.475;  173.925;    0.000
322.077; 1762.475;  263.925;    0.000
322.138; 1787.475;  232.925;    0.000
322.198; 1739.475;  211.925;    0.000
322.258; 1867.475;  213.925;    0.000
322.318; 1686.475;  168.925;    0.000
322.378; 1784.475;  251.925;    0.000
322.438; 1755.475;  212.925;    0.000
322.499; 1809.475;  265.925;    0.000
322.559; 1701.475;  210.925;    0.000
322.619; 1732.475;  242.925;    0.000
322.679; 1727.475;  229.925;    0.000
322.739; 1745.475;  216.925;    0.000
322.799; 1688.475;  238.925;    0.000
322.859; 1788.475;  249.925;    0.000
322.919; 1753.475;  211.925;    0.000
322.979; 1727.475;  244.925;    0.000
323.039; 1740.475;  226.925;    0.000
323.099; 1755.475;  223.925;    0.000
323.159; 1743.475;  232.925;    0.000
323.219; 1716.475;  203.925;    0.000
323.279; 1655.475;  218.925;    0.000
323.339; 1667.475;  231.925;    0.000
323.399; 1771.475;  255.925;    0.000
323.459; 1733.475;  244.925;    0.000
323.519; 1811.475;  213.925;    0.000
323.579; 1783.475;  193.925;    0.000
323.639; 1831.475;  191.925;    0.000
323.699; 1813.475;  199.925;    0.000
323.759; 1826.475;  246.925;    0.000
323.819; 1781.475;  206.925;    0.000
323.879; 1735.475;  238.925;    0.000
323.939; 1689.475;  229.925;    0.000
323.999; 1736.475;  219.925;    0.000
324.059; 1766.475;  177.925;    0.000
324.119; 1710.475;  235.925;    0.000
324.178; 1781.475;  211.925;    0.000
324.238; 1742.475;  168.925;    0.000
324.298; 1769.475;  205.925;    0.000
324.358; 1782.475;  224.925;    0.000
324.418; 1784.475;  235.925;    0.000
324.478; 1694.475;  187.925;    0.000
324.538; 1750.475;  230.925;    0.000
324.597; 1734.475;  206.925;    0.000
324.657; 1758.475;  180.925;    0.000
324.717; 1817.475;  175.925;    0.000
324.777; 1724.475;  169.925;    0.000
324.837; 1678.475;  165.925;    0.000
324.896; 1758.475;  205.925;    0.000
324.956; 1764.475;  216.925;    0.000
325.016; 1756.475;  197.925;    0.000
325.076; 1731.475;  220.925;    0.000
325.135; 1708.475;  242.925;    0.000
325.195; 1808.475;  186.925;    0.000
325.255; 1717.475;  160.925;    0.000
325.315; 1815.475;  198.925;    0.000
325.374; 1727.475;  208.925;    0.000
325.434; 1669.475;  209.925;    0.000
325.494; 1731.475;  191.925;    0.000
325.553; 1706.475;  190.925;    0.000
325.613; 1757.475;  229.925;    0.000
325.673; 1737.475;  172.925;    0.000
325.732; 1664.475;  160.925;    0.000
325.792; 1745.475;  177.925;    0.000
325.852; 1682.475;  201.925;    0.000
325.911; 1684.475;  226.925;    0.000
325.971; 1810.475;  224.925;    0.000
326.031; 1685.475;  202.925;    0.000
326.090; 1712.475;  232.925;    0.000
326.150; 1746.475;  230.925;    0.000
326.209; 1689.475;  201.925;    0.000
326.269; 1734.475;  202.925;    0.000
326.328; 1732.475;  203.925;    0.000
326.388; 1711.475;  194.925;    0.000
326.448; 1774.475;  233.925;    0.000
326.507; 1686.475;  192.925;    0.000
326.567; 1704.475;  163.925;    0.000
326.626; 1745.475;  227.925;    0.000
326.686; 1633.475;  177.925;    0.000
326.745; 1750.475;  210.925;    0.000
326.805; 1678.475;  198.925;    0.000
326.864; 1727.475;  185.925;    0.000
326.924; 1758.475;  255.925;    0.000
326.983; 1656.475;  208.925;    0.000
327.043; 1688.475;  241.925;    0.000
327.102; 1658.475;  183.925;    0.000
327.161; 1673.475;  210.925;    0.000
327.221; 1666.475;  213.925;    0.000
327.280; 1689.475;  194.925;    0.000
327.340; 1709.475;  212.925;    0.000
327.399; 1662.475;  209.925;    0.000
327.459; 1678.475;  229.925;    0.000
327.518; 1666.475;  196.925;    0.000
327.577; 1632.475;  197.925;    0.000
327.637; 1692.475;  210.925;    0.000
327.696; 1692.475;  196.925;    0.000
327.755; 1690.475;  216.925;    0.000
327.815; 1712.475;  240.925;    0.000
327.874; 1697.475;  250.925;    0.000
327.933; 1657.475;  229.925;    0.000
327.993; 1709.475;  202.925;    0.000
328.052; 1652.475;  178.925;    0.000
328.111; 1745.475;  230.925;    0.000
328.171; 1636.475;  207.925;    0.000
328.230; 1654.475;  170.925;    0.000
328.289; 1636.475;  205.925;    0.000
328.349; 1657.475;  235.925;    0.000
328.408; 1626.475;  231.925;    0.000
328.467; 1675.475;  217.925;    0.000
328.526; 1700.475;  239.925;    0.000
328.586; 1725.475;  214.925;    0.000
328.645; 1634.475;  205.925;    0.000
328.704; 1694.475;  211.925;    0.000
328.763; 1681.475;  208.925;    0.000
328.822; 1569.475;  251.925;    0.000
328.882; 1704.475;  211.925;    0.000
328.941; 1620.475;  232.925;    0.000
329.000; 1672.475;  235.925;    0.000
329.059; 1616.475;  222.925;    0.000
329.118; 1686.475;  265.925;    0.000
329.177; 1663.475;  237.925;    0.000
329.237; 1665.475;  258.925;    0.000
329.296; 1663.475;  225.925;    0.000
329.355; 1635.475;  227.925;    0.000
329.414; 1714.475;  212.925;    0.000
329.473; 1687.475;  250.925;    0.000
329.532; 1712.475;  263.925;    0.000
329.591; 1699.475;  212.925;    0.000
329.650; 1703.475;  219.925;    0.000
329.709; 1758.475;  218.925;    0.000
329.768; 1681.475;  195.925;    0.000
329.827; 1743.475;  223.925;    0.000
329.886; 1781.475;  230.925;    0.000
329.945; 1723.475;  211.925;    0.000
330.004; 1692.475;  247.925;    0.000
330.063; 1702.475;  193.925;    0.000
330.122; 1705.475;  229.925;    0.000
330.181; 1668.475;  223.925;    0.000
330.240; 1715.475;  199.925;    0.000
330.299; 1731.475;  211.925;    0.000
330.358; 1674.475;  198.925;    0.000
330.417; 1640.475;  190.925;    0.000
330.476; 1673.475;  237.925;    0.000
330.535; 1703.475;  239.925;    0.000
330.594; 1679.475;  207.925;    0.000
330.653; 1670.475;  193.925;    0.000
330.712; 1713.475;  225.925;    0.000
330.771; 1702.475;  236.925;    0.000
330.830; 1705.475;  219.925;    0.000
330.889; 1663.475;  211.925;    0.000
330.948; 1638.475;  194.925;    0.000
331.006; 1664.475;  190.925;    0.000
331.065; 1628.475;  192.925;    0.000
331.124; 1670.475;  195.925;    0.000
331.183; 1621.475;  191.925;    0.000
331.242; 1676.475;  203.925;    0.000
331.301; 1665.475;  183.925;    0.000
331.359; 1685.475;  196.925;    0.000
331.418; 1652.475;  209.925;    0.000
331.477; 1754.475;  255.925;    0.000
331.536; 1587.475;  237.925;    0.000
331.595; 1536.475;  217.925;    0.000
331.653; 1584.475;  198.925;    0.000
331.712; 1577.475;  194.925;    0.000
331.771; 1508.475;  229.925;    0.000
331.830; 1631.475;  254.925;    0.000
331.888; 1561.475;  218.925;    0.000
331.947; 1629.475;  211.925;    0.000
332.006; 1596.475;  261.925;    0.000
332.065; 1527.475;  204.925;    0.000
332.123; 1537.475;  225.925;    0.000
332.182; 1556.475;  193.925;    0.000
332.241; 1614.475;  201.925;    0.000
332.299; 1599.475;  182.925;    0.000
332.358; 1565.475;  244.925;    0.000
332.417; 1622.475;  218.925;    0.000
332.475; 1559.475;  218.925;    0.000
332.534; 1622.475;  228.925;    0.000
332.592; 1573.475;  199.925;    0.000
332.651; 1622.475;  204.925;    0.000
332.710; 1702.475;  217.925;    0.000
332.768; 1669.475;  195.925;    0.000
332.827; 1708.475;  182.925;    0.000
332.885; 1650.475;  247.925;    0.000
332.944; 1660.475;  170.925;    0.000
333.003; 1592.475;  200.925;    0.000
333.061; 1626.475;  243.925;    0.000
333.120; 1685.475;  235.925;    0.000
333.178; 1718.475;  195.925;    0.000
333.237; 1711.475;  217.925;    0.000
333.295; 1721.475;  252.925;    0.000
333.354; 1652.475;  201.925;    0.000
333.412; 1698.475;  181.925;    0.000
333.471; 1722.475;  239.925;    0.000
333.529; 1763.475;  214.925;    0.000
333.588; 1708.475;  232.925;    0.000
333.646; 1739.475;  202.925;    0.000
333.705; 1814.475;  232.925;    0.000
333.763; 1802.475;  215.925;    0.000
333.822; 1789.475;  187.925;    0.000
333.880; 1793.475;  186.925;    0.000
333.938; 1743.475;  185.925;    0.000
333.997; 1674.475;  234.925;    0.000
334.055; 1726.475;  255.925;    0.000
334.114; 1716.475;  225.925;    0.000
334.172; 1722.475;  209.925;    0.000
334.230; 1679.475;  194.925;    0.000
334.289; 1694.475;  213.925;    0.000
334.347; 1742.475;  235.925;    0.000
334.405; 1687.475;  242.925;    0.000
334.464; 1696.475;  208.925;    0.000
334.522; 1675.475;  197.925;    0.000
334.580; 1734.475;  204.925;    0.000
334.639; 1680.475;  217.925;    0.000
334.697; 1683.475;  183.925;    0.000
334.755; 1685.475;  196.925;    0.000
334.814; 1681.475;  216.925;    0.000
334.872; 1648.475;  190.925;    0.000
334.930; 1623.475;  162.925;    0.000
334.988; 1731.475;  261.925;    0.000
335.047; 1792.475;  220.925;    0.000
335.105; 1716.475;  190.925;    0.000
335.163; 1729.475;  201.925;    0.000
335.221; 1715.475;  213.925;    0.000
335.280; 1745.475;  202.925;    0.000
335.338; 1649.475;  210.925;    0.000
335.396; 1701.475;  255.925;    0.000
335.454; 1750.475;  216.925;    0.000
335.512; 1739.475;  242.925;    0.000
335.570; 1724.475;  227.925;    0.000
335.629; 1754.475;  225.925;    0.000
335.687; 1730.475;  227.925;    0.000
335.745; 1812.475;  194.925;    0.000
335.803; 1735.475;  221.925;    0.000
335.861; 1815.475;  217.925;    0.000
335.919; 1770.475;  214.925;    0.000
335.977; 1790.475;  209.925;    0.000
336.035; 1757.475;  215.925;    0.000
336.094; 1651.475;  198.925;    0.000
336.152; 1729.475;  222.925;    0.000
336.210; 1852.475;  225.925;    0.000
336.268; 1792.475;  234.925;    0.000
336.326; 1778.475;  209.925;    0.000
336.384; 1749.475;  271.925;    0.000
336.442; 1644.475;  207.925;    0.000
336.500; 1705.475;  226.925;    0.000
336.558; 1683.475;  219.925;    0.000
336.616; 1802.475;  260.925;    0.000
336.674; 1664.475;  205.925;    0.000
336.732; 1697.475;  225.925;    0.000
336.790; 1692.475;  191.925;    0.000
336.848; 1695.475;  219.925;    0.000
336.906; 1654.475;  230.925;    0.000
336.964; 1739.475;  226.925;    0.000
337.022; 1734.475;  266.925;    0.000
337.080; 1783.475;  231.925;    0.000
337.138; 1655.475;  249.925;    0.000
337.195; 1704.475;  207.925;    0.000
337.253; 1683.475;  207.925;    0.000
337.311; 1652.475;  225.925;    0.000
337.369; 1687.475;  211.925;    0.000
337.427; 1613.475;  196.925;    0.000
337.485; 1719.475;  269.925;    0.000
337.543; 1777.475;  227.925;    0.000
337.601; 1745.475;  260.925;    0.000
337.658; 1695.475;  237.925;    0.000
337.716; 1590.475;  222.925;    0.000
337.774; 1681.475;  256.925;    0.000
337.832; 1660.475;  223.925;    0.000
337.890; 1584.475;  188.925;    0.000
337.947; 1571.475;  212.925;    0.000
338.005; 1688.475;  217.925;    0.000
338.063; 1700.475;  200.925;    0.000
338.121; 1657.475;  217.925;    0.000
338.178; 1621.475;  236.925;    0.000
338.236; 1681.475;  218.925;    0.000
338.294; 1651.475;  238.925;    0.000
338.352; 1675.475;  266.925;    0.000
338.409; 1646.475;  240.925;    0.000
338.467; 1620.475;  210.925;    0.000
338.525; 1610.475;  255.925;    0.000
338.583; 1621.475;  239.925;    0.000
338.640; 1693.475;  243.925;    0.000
338.698; 1664.475;  204.925;    0.000
338.756; 1709.475;  219.925;    0.000
338.813; 1644.475;  227.925;    0.000
338.871; 1726.475;  227.925;    0.000
338.928; 1690.475;  211.925;    0.000
338.986; 1661.475;  254.925;    0.000
339.044; 1718.475;  207.925;    0.000
339.101; 1557.475;  229.925;    0.000
339.159; 1628.475;  237.925;    0.000
339.216; 1688.475;  231.925;    0.000
339.274; 1702.475;  301.925;    0.000
339.332; 1686.475;  259.925;    0.000
339.389; 1724.475;  258.925;    0.000
339.447; 1643.475;  226.925;    0.000
339.504; 1647.475;  229.925;    0.000
339.562; 1664.475;  244.925;    0.000
339.619; 1728.475;  265.925;    0.000
339.677; 1725.475;  253.925;    0.000
339.734; 1637.475;  191.925;    0.000
339.792; 1707.475;  238.925;    0.000
339.849; 1625.475;  236.925;    0.000
339.907; 1699.475;  254.925;    0.000
339.964; 1624.475;  196.925;    0.000
340.022; 1650.475;  247.925;    0.000
340.079; 1659.475;  275.925;    0.000
340.137; 1672.475;  248.925;    0.000
340.194; 1581.475;  263.925;    0.000
340.252; 1639.475;  266.925;    0.000
340.309; 1658.475;  211.925;    0.000
340.366; 1637.475;  237.925;    0.000
340.424; 1683.475;  260.925;    0.000
340.481; 1684.475;  255.925;    0.000
340.538; 1665.475;  235.925;    0.000
340.596; 1564.475;  225.925;    0.000
340.653; 1606.475;  230.925;    0.000
340.711; 1711.475;  272.925;    0.000
340.768; 1719.475;  253.925;    0.000
340.825; 1654.475;  201.925;    0.000
340.883; 1765.475;  232.925;    0.000
340.940; 1636.475;  247.925;    0.000
340.997; 1639.475;  244.925;    0.000
341.054; 1729.475;  244.925;    0.000
341.112; 1602.475;  258.925;    0.000
341.169; 1652.475;  238.925;    0.000
341.226; 1669.475;  213.925;    0.000
341.284; 1661.475;  240.925;    0.000
341.341; 1678.475;  194.925;    0.000
341.398; 1754.475;  191.925;    0.000
341.455; 1689.475;  227.925;    0.000
341.512; 1666.475;  238.925;    0.000
341.570; 1680.475;  236.925;    0.000
341.627; 1698.475;  241.925;    0.000
341.684; 1730.475;  225.925;    0.000
341.741; 1748.475;  299.925;    0.000
341.798; 1706.475;  265.925;    0.000
341.856; 1685.475;  230.925;    0.000
341.913; 1752.475;  234.925;    0.000
341.970; 1712.475;  260.925;    0.000
342.027; 1665.475;  255.925;    0.000
342.084; 1706.475;  260.925;    0.000
342.141; 1720.475;  263.925;    0.000
342.198; 1685.475;  245.925;    0.000
342.255; 1679.475;  210.925;    0.000
342.313; 1678.475;  251.925;    0.000
342.370; 1696.475;  234.925;    0.000
342.427; 1677.475;  249.925;    0.000
342.484; 1654.475;  254.925;    0.000
342.541; 1621.475;  229.925;    0.000
342.598; 1684.475;  255.925;    0.000
342.655; 1605.475;  225.925;    0.000
342.712; 1714.475;  224.925;    0.000
342.769; 1646.475;  215.925;    0.000
342.826; 1688.475;  240.925;    0.000
342.883; 1613.475;  233.925;    0.000
342.940; 1566.475;  212.925;    0.000
342.997; 1606.475;  236.925;    0.000
343.054; 1622.475;  255.925;    0.000
343.111; 1633.475;  228.925;    0.000
343.168; 1674.475;  230.925;    0.000
343.225; 1692.475;  258.925;    0.000
343.282; 1750.475;  202.925;    0.000
343.339; 1756.475;  253.925;    0.000
343.395; 1658.475;  232.925;    0.000
343.452; 1694.475;  253.925;    0.000
343.509; 1727.475;  213.925;    0.000
343.566; 1796.475;  259.925;    0.000
343.623; 1759.475;  244.925;    0.000
343.680; 1704.475;  232.925;    0.000
343.737; 1642.475;  222.925;    0.000
343.794; 1715.475;  204.925;    0.000
343.850; 1759.475;  249.925;    0.000
343.907; 1741.475;  212.925;    0.000
343.964; 1733.475;  226.925;    0.000
344.021; 1804.475;  251.925;    0.000
344.078; 1827.475;  246.925;    0.000
344.134; 1761.475;  218.925;    0.000
344.191; 1834.475;  244.925;    0.000
344.248; 1836.475;  211.925;    0.000
344.305; 1769.475;  221.925;    0.000
344.361; 1745.475;  247.925;    0.000
344.418; 1774.475;  265.925;    0.000
344.475; 1744.475;  254.925;    0.000
344.532; 1785.475;  233.925;    0.000
344.588; 1788.475;  236.925;    0.000
344.645; 1768.475;  249.925;    0.000
344.702; 1770.475;  220.925;    0.000
344.758; 1829.475;  255.925;    0.000
344.815; 1828.475;  236.925;    0.000
344.872; 1775.475;  218.925;    0.000
344.928; 1801.475;  230.925;    0.000
344.985; 1764.475;  222.925;    0.000
345.042; 1758.475;  199.925;    0.000
345.098; 1753.475;  226.925;    0.000
345.155; 1705.475;  245.925;    0.000
345.212; 1764.475;  225.925;    0.000
345.268; 1793.475;  237.925;    0.000
345.325; 1720.475;  213.925;    0.000
345.381; 1798.475;  267.925;    0.000
345.438; 1780.475;  240.925;    0.000
345.495; 1785.475;  254.925;    0.000
345.551; 1822.475;  248.925;    0.000
345.608; 1737.475;  196.925;    0.000
345.664; 1720.475;  245.925;    0.000
345.721; 1671.475;  252.925;    0.000
345.777; 1698.475;  245.925;    0.000
345.834; 1688.475;  210.925;    0.000
345.890; 1662.475;  244.925;    0.000
345.947; 1769.475;  238.925;    0.000
346.003; 1787.475;  224.925;    0.000
346.060; 1782.475;  206.925;    0.000
346.116; 1871.475;  237.925;    0.000
346.173; 1738.475;  242.925;    0.000
346.229; 1794.475;  269.925;    0.000
346.285; 1711.475;  262.925;    0.000
346.342; 1714.475;  263.925;    0.000
346.398; 1783.475;  224.925;    0.000
346.455; 1764.475;  237.925;    0.000
346.511; 1830.475;  216.925;    0.000
346.567; 1855.475;  211.925;    0.000
346.624; 1844.475;  225.925;    0.000
346.680; 1807.475;  242.925;    0.000
346.737; 1791.475;  244.925;    0.000
346.793; 1718.475;  260.925;    0.000
346.849; 1719.475;  251.925;    0.000
346.906; 1847.475;  260.925;    0.000
346.962; 1867.475;  267.925;    0.000
347.018; 1797.475;  246.925;    0.000
347.074; 1810.475;  272.925;    0.000
347.131; 1719.475;  211.925;    0.000
347.187; 1837.475;  240.925;    0.000
347.243; 1701.475;  233.925;    0.000
347.300; 1722.475;  225.925;    0.000
347.356; 1920.475;  236.925;    0.000
347.412; 1759.475;  237.925;    0.000
347.468; 1866.475;  284.925;    0.000
347.524; 1738.475;  252.925;    0.000
347.581; 1782.475;  278.925;    0.000
347.637; 1871.475;  262.925;    0.000
347.693; 1805.475;  268.925;    0.000
347.749; 1810.475;  260.925;    0.000
347.805; 1790.475;  224.925;    0.000
347.862; 1750.475;  243.925;    0.000
347.918; 1795.475;  257.925;    0.000
347.974; 1810.475;  248.925;    0.000
348.030; 1780.475;  242.925;    0.000
348.086; 1794.475;  234.925;    0.000
348.142; 1826.475;  239.925;    0.000
348.198; 1819.475;  260.925;    0.000
348.254; 1832.475;  262.925;    0.000
348.311; 1819.475;  263.925;    0.000
348.367; 1846.475;  235.925;    0.000
348.423; 1702.475;  205.925;    0.000
348.479; 1785.475;  234.925;    0.000
348.535; 1767.475;  257.925;    0.000
348.591; 1767.475;  267.925;    0.000
348.647; 1764.475;  243.925;    0.000
348.703; 1786.475;  278.925;    0.000
348.759; 1800.475;  259.925;    0.000
348.815; 1827.475;  288.925;    0.000
348.871; 1787.475;  269.925;    0.000
348.927; 1757.475;  239.925;    0.000
348.983; 1886.475;  289.925;    0.000
349.039; 1799.475;  221.925;    0.000
349.095; 1793.475;  252.925;    0.000
349.151; 1843.475;  226.925;    0.000
349.207; 1762.475;  263.925;    0.000
349.263; 1832.475;  194.925;    0.000
349.319; 1811.475;  212.925;    0.000
349.374; 1826.475;  236.925;    0.000
349.430; 1833.475;  229.925;    0.000
349.486; 1800.475;  247.925;    0.000
349.542; 1839.475;  263.925;    0.000
349.598; 1803.475;  248.925;    0.000
349.654; 1808.475;  252.925;    0.000
349.710; 1736.475;  230.925;    0.000
349.766; 1847.475;  201.925;    0.000
349.821; 1819.475;  229.925;    0.000
349.877; 1835.475;  282.925;    0.000
349.933; 1851.475;  240.925;    0.000
349.989; 1829.475;  251.925;    0.000
350.045; 1821.475;  240.925;    0.000
350.100; 1863.475;  256.925;    0.000
350.156; 1819.475;  243.925;    0.000
350.212; 1775.475;  250.925;    0.000
350.268; 1790.475;  251.925;    0.000
350.323; 1774.475;  208.925;    0.000
350.379; 1835.475;  244.925;    0.000
350.435; 1843.475;  237.925;    0.000
350.491; 1719.475;  201.925;    0.000
350.546; 1778.475;  225.925;    0.000
350.602; 1778.475;  260.925;    0.000
350.658; 1831.475;  224.925;    0.000
350.713; 1785.475;  264.925;    0.000
350.769; 1867.475;  196.925;    0.000
350.825; 1752.475;  202.925;    0.000
350.880; 1754.475;  232.925;    0.000
350.936; 1777.475;  242.925;    0.000
350.992; 1750.475;  238.925;    0.000
351.047; 1817.475;  242.925;    0.000
351.103; 1793.475;  199.925;    0.000
351.158; 1850.475;  242.925;    0.000
351.214; 1740.475;  225.925;    0.000
351.270; 1816.475;  197.925;    0.000
351.325; 1834.475;  231.925;    0.000
351.381; 1812.475;  215.925;    0.000
351.436; 1840.475;  233.925;    0.000
351.492; 1883.475;  216.925;    0.000
351.547; 1923.475;  244.925;    0.000
351.603; 1846.475;  249.925;    0.000
351.658; 1943.475;  249.925;    0.000
351.714; 1871.475;  222.925;    0.000
351.769; 1811.475;  222.925;    0.000
351.825; 1783.475;  226.925;    0.000
351.880; 1874.475;  238.925;    0.000
351.936; 1865.475;  230.925;    0.000
351.991; 1863.475;  243.925;    0.000
352.047; 1829.475;  201.925;    0.000
352.102; 1853.475;  243.925;    0.000
352.158; 1776.475;  193.925;    0.000
352.213; 1764.475;  219.925;    0.000
352.268; 1801.475;  205.925;    0.000
352.324; 1766.475;  246.925;    0.000
352.379; 1810.475;  247.925;    0.000
352.434; 1859.475;  252.925;    0.000
352.490; 1847.475;  205.925;    0.000
352.545; 1830.475;  262.925;    0.000
352.601; 1878.475;  229.925;    0.000
352.656; 1862.475;  207.925;    0.000
352.711; 1787.475;  228.925;    0.000
352.767; 1849.475;  216.925;    0.000
352.822; 1776.475;  219.925;    0.000
352.877; 1774.475;  234.925;    0.000
352.932; 1782.475;  249.925;    0.000
352.988; 1847.475;  196.925;    0.000
353.043; 1838.475;  228.925;    0.000
353.098; 1847.475;  231.925;    0.000
353.153; 1836.475;  235.925;    0.000
353.209; 1810.475;  250.925;    0.000
353.264; 1745.475;  212.925;    0.000
353.319; 1838.475;  234.925;    0.000
353.374; 1785.475;  245.925;    0.000
353.430; 1803.475;  261.925;    0.000
353.485; 1854.475;  249.925;    0.000
353.540; 1868.475;  260.925;    0.000
353.595; 1844.475;  219.925;    0.000
353.650; 1848.475;  242.925;    0.000
353.705; 1819.475;  244.925;    0.000
353.761; 1810.475;  242.925;    0.000
353.816; 1755.475;  214.925;    0.000
353.871; 1843.475;  237.925;    0.000
353.926; 1771.475;  233.925;    0.000
353.981; 1853.475;  250.925;    0.000
354.036; 1824.475;  239.925;    0.000
354.091; 1843.475;  289.925;    0.000
354.146; 1785.475;  282.925;    0.000
354.201; 1845.475;  244.925;    0.000
354.256; 1826.475;  257.925;    0.000
354.311; 1815.475;  305.925;    0.000
354.367; 1853.475;  220.925;    0.000
354.422; 1850.475;  261.925;    0.000
354.477; 1808.475;  212.925;    0.000
354.532; 1820.475;  254.925;    0.000
354.587; 1885.475;  252.925;    0.000
354.642; 1824.475;  210.925;    0.000
354.697; 1866.475;  232.925;    0.000
354.751; 1871.475;  254.925;    0.000
354.806; 1849.475;  233.925;    0.000
354.861; 1884.475;  244.925;    0.000
354.916; 1805.475;  235.925;    0.000
354.971; 1816.475;  258.925;    0.000
355.026; 1877.475;  251.925;    0.000
355.081; 1802.475;  254.925;    0.000
355.136; 1835.475;  212.925;    0.000
355.191; 1812.475;  211.925;    0.000
355.246; 1829.475;  237.925;    0.000
355.301; 1870.475;  255.925;    0.000
355.355; 1842.475;  231.925;    0.000
355.410; 1855.475;  224.925;    0.000
355.465; 1851.475;  235.925;    0.000
355.520; 1888.475;  244.925;    0.000
355.575; 1830.475;  267.925;    0.000
355.630; 1906.475;  255.925;    0.000
355.684; 1745.475;  254.925;    0.000
355.739; 1887.475;  217.925;    0.000
355.794; 1785.475;  206.925;    0.000
355.849; 1766.475;  221.925;    0.000
355.904; 1792.475;  257.925;    0.000
355.958; 1844.475;  221.925;    0.000
356.013; 1815.475;  192.925;    0.000
356.068; 1856.475;  267.925;    0.000
356.123; 1832.475;  218.925;    0.000
356.177; 1839.475;  236.925;    0.000
356.232; 1907.475;  236.925;    0.000
356.287; 1781.475;  246.925;    0.000
356.341; 1861.475;  241.925;    0.000
356.396; 1727.475;  219.925;    0.000
356.451; 1785.475;  244.925;    0.000
356.505; 1815.475;  248.925;    0.000
356.560; 1832.475;  267.925;    0.000
356.615; 1808.475;  258.925;    0.000
356.669; 1787.475;  291.925;    0.000
356.724; 1824.475;  272.925;    0.000
356.778; 1775.475;  244.925;    0.000
356.833; 1735.475;  223.925;    0.000
356.888; 1863.475;  245.925;    0.000
356.942; 1855.475;  221.925;    0.000
356.997; 1845.475;  254.925;    0.000
357.051; 1849.475;  244.925;    0.000
357.106; 1797.475;  227.925;    0.000
357.160; 1763.475;  176.925;    0.000
357.215; 1807.475;  234.925;    0.000
357.269; 1818.475;  233.925;    0.000
357.324; 1806.475;  232.925;    0.000
357.378; 1790.475;  211.925;    0.000
357.433; 1765.475;  252.925;    0.000
357.487; 1727.475;  227.925;    0.000
357.542; 1768.475;  246.925;    0.000
357.596; 1802.475;  260.925;    0.000
357.651; 1774.475;  301.925;    0.000
357.705; 1748.475;  230.925;    0.000
357.760; 1741.475;  211.925;    0.000
357.814; 1775.475;  265.925;    0.000
357.868; 1726.475;  220.925;    0.000
357.923; 1746.475;  220.925;    0.000
357.977; 1813.475;  245.925;    0.000
358.032; 1770.475;  247.925;    0.000
358.086; 1745.475;  242.925;    0.000
358.140; 1726.475;  270.925;    0.000
358.195; 1768.475;  242.925;    0.000
358.249; 1812.475;  238.925;    0.000
358.303; 1816.475;  285.925;    0.000
358.358; 1780.475;  265.925;    0.000
358.412; 1788.475;  265.925;    0.000
358.466; 1829.475;  257.925;    0.000
358.521; 1791.475;  251.925;    0.000
358.575; 1815.475;  254.925;    0.000
358.629; 1733.475;  278.925;    0.000
358.683; 1743.475;  288.925;    0.000
358.738; 1744.475;  302.925;    0.000
358.792; 1805.475;  239.925;    0.000
358.846; 1787.475;  293.925;    0.000
358.900; 1822.475;  271.925;    0.000
358.954; 1801.475;  300.925;    0.000
359.009; 1835.475;  279.925;    0.000
359.063; 1848.475;  249.925;    0.000
359.117; 1849.475;  264.925;    0.000
359.171; 1836.475;  279.925;    0.000
359.225; 1802.475;  276.925;    0.000
359.280; 1817.475;  237.925;    0.000
359.334; 1765.475;  280.925;    0.000
359.388; 1772.475;  282.925;    0.000
359.442; 1727.475;  243.925;    0.000
359.496; 1700.475;  204.925;    0.000
359.550; 1802.475;  308.925;    0.000
359.604; 1762.475;  264.925;    0.000
359.658; 1739.475;  247.925;    0.000
359.712; 1769.475;  273.925;    0.000
359.766; 1765.475;  212.925;    0.000
359.820; 1702.475;  228.925;    0.000
359.875; 1694.475;  248.925;    0.000
359.929; 1829.475;  271.925;    0.000
359.983; 1806.475;  274.925;    0.000
360.037; 1738.475;  262.925;    0.000
360.091; 1792.475;  302.925;    0.000
360.145; 1718.475;  244.925;    0.000
360.199; 1770.475;  253.925;    0.000
360.253; 1784.475;  285.925;    0.000
360.306; 1714.475;  287.925;    0.000
360.360; 1773.475;  267.925;    0.000
360.414; 1720.475;  250.925;    0.000
360.468; 1750.475;  270.925;    0.000
360.522; 1775.475;  276.925;    0.000
360.576; 1780.475;  269.925;    0.000
360.630; 1792.475;  281.925;    0.000
360.684; 1795.475;  291.925;    0.000
360.738; 1792.475;  325.925;    0.000
360.792; 1743.475;  320.925;    0.000
360.846; 1789.475;  276.925;    0.000
360.899; 1801.475;  314.925;    0.000
360.953; 1785.475;  275.925;    0.000
361.007; 1811.475;  292.925;    0.000
361.061; 1761.475;  278.925;    0.000
361.115; 1762.475;  264.925;    0.000
361.168; 1706.475;  317.925;    0.000
361.222; 1750.475;  277.925;    0.000
361.276; 1703.475;  274.925;    0.000
361.330; 1762.475;  269.925;    0.000
361.384; 1682.475;  280.925;    0.000
361.437; 1782.475;  304.925;    0.000
361.491; 1762.475;  256.925;    0.000
361.545; 1725.475;  293.925;    0.000
361.599; 1794.475;  284.925;    0.000
361.652; 1794.475;  274.925;    0.000
361.706; 1784.475;  284.925;    0.000
361.760; 1718.475;  260.925;    0.000
361.813; 1736.475;  272.925;    0.000
361.867; 1818.475;  300.925;    0.000
361.921; 1702.475;  275.925;    0.000
361.974; 1725.475;  258.925;    0.000
362.028; 1680.475;  248.925;    0.000
362.082; 1723.475;  252.925;    0.000
362.135; 1724.475;  240.925;    0.000
362.189; 1748.475;  259.925;    0.000
362.242; 1778.475;  267.925;    0.000
362.296; 1725.475;  280.925;    0.000
362.350; 1783.475;  282.925;    0.000
362.403; 1761.475;  288.925;    0.000
362.457; 1723.475;  253.925;    0.000
362.510; 1710.475;  323.925;    0.000
362.564; 1706.475;  286.925;    0.000
362.617; 1703.475;  317.925;    0.000
362.671; 1682.475;  286.925;    0.000
362.724; 1653.475;  274.925;    0.000
362.778; 1738.475;  295.925;    0.000
362.831; 1770.475;  289.925;    0.000
362.885; 1723.475;  318.925;    0.000
362.938; 1650.475;  271.925;    0.000
362.992;  316.475;  285.925;    0.000
363.045;  288.475;  291.925;    0.000
363.099;  310.475;  276.925;    0.000
363.152;  307.475;  309.925;    0.000
363.205;  296.475;  263.925;    0.000
363.259;  263.475;  288.925;    0.000
363.312;  311.475;  333.925;    0.000
363.366;  290.475;  328.925;    0.000
363.419;  311.475;  328.925;    0.000
363.472;  291.475;  295.925;    0.000
363.526;  293.475;  334.925;    0.000
363.579;  281.475;  312.925;    0.000
363.632;  276.475;  274.925;    0.000
363.686;  275.475;  282.925;    0.000
363.739;  269.475;  289.925;    0.000
363.792;  286.475;  287.925;    0.000

