
Integration time [ms]:   0.300
Averaging Nr. [scans]: 1
Smoothing Nr. [pixels]: 0
Data measured with spectrometer [name]: UV1
Wave   ;Sample   ;Dark     ;Reference
[nm]   ;[counts] ;[counts] ;[counts] 

236.381;  176.450;  149.925;    0.000
236.451;  185.450;  206.925;    0.000
236.520;  180.450;  212.925;    0.000
236.590;  219.450;  189.925;    0.000
236.660;  174.450;  184.925;    0.000
236.730;  218.450;  186.925;    0.000
236.799;  187.450;  191.925;    0.000
236.869;  158.450;  184.925;    0.000
236.939;  186.450;  176.925;    0.000
237.009;  149.450;  184.925;    0.000
237.078;  185.450;  189.925;    0.000
237.148;  162.450;  217.925;    0.000
237.218;  183.450;  192.925;    0.000
237.287;  175.450;  182.925;    0.000
237.357;  171.450;  196.925;    0.000
237.427;  193.450;  144.925;    0.000
237.496;  593.450;  224.925;    0.000
237.566;  608.450;  210.925;    0.000
237.636;  596.450;  165.925;    0.000
237.705;  588.450;  214.925;    0.000
237.775;  557.450;  194.925;    0.000
237.845;  653.450;  214.925;    0.000
237.914;  584.450;  191.925;    0.000
237.984;  608.450;  218.925;    0.000
238.054;  600.450;  187.925;    0.000
238.123;  543.450;  179.925;    0.000
238.193;  575.450;  177.925;    0.000
238.263;  630.450;  225.925;    0.000
238.332;  544.450;  197.925;    0.000
238.402;  612.450;  183.925;    0.000
238.471;  608.450;  181.925;    0.000
238.541;  594.450;  200.925;    0.000
238.611;  551.450;  170.925;    0.000
238.680;  580.450;  170.925;    0.000
238.750;  534.450;  175.925;    0.000
238.819;  602.450;  180.925;    0.000
238.889;  589.450;  190.925;    0.000
238.958;  566.450;  207.925;    0.000
239.028;  626.450;  201.925;    0.000
239.097;  563.450;  181.925;    0.000
239.167;  629.450;  222.925;    0.000
239.237;  633.450;  221.925;    0.000
239.306;  565.450;  147.925;    0.000
239.376;  593.450;  188.925;    0.000
239.445;  620.450;  198.925;    0.000
239.515;  549.450;  191.925;    0.000
239.584;  577.450;  178.925;    0.000
239.654;  571.450;  147.925;    0.000
239.723;  587.450;  212.925;    0.000
239.793;  598.450;  185.925;    0.000
239.862;  551.450;  157.925;    0.000
239.932;  535.450;  181.925;    0.000
240.001;  554.450;  163.925;    0.000
240.070;  570.450;  194.925;    0.000
240.140;  571.450;  202.925;    0.000
240.209;  564.450;  180.925;    0.000
240.279;  552.450;  188.925;    0.000
240.348;  557.450;  189.925;    0.000
240.418;  541.450;  143.925;    0.000
240.487;  592.450;  195.925;    0.000
240.556;  588.450;  170.925;    0.000
240.626;  610.450;  172.925;    0.000
240.695;  551.450;  202.925;    0.000
240.765;  591.450;  191.925;    0.000
240.834;  570.450;  177.925;    0.000
240.903;  592.450;  189.925;    0.000
240.973;  529.450;  196.925;    0.000
241.042;  596.450;  183.925;    0.000
241.112;  560.450;  189.925;    0.000
241.181;  575.450;  186.925;    0.000
241.250;  566.450;  168.925;    0.000
241.320;  535.450;  200.925;    0.000
241.389;  540.450;  185.925;    0.000
241.458;  592.450;  194.925;    0.000
241.528;  544.450;  165.925;    0.000
241.597;  541.450;  200.925;    0.000
241.666;  516.450;  184.925;    0.000
241.736;  606.450;  176.925;    0.000
241.805;  574.450;  165.925;    0.000
241.874;  546.450;  200.925;    0.000
241.943;  533.450;  184.925;    0.000
242.013;  564.450;  212.925;    0.000
242.082;  549.450;  200.925;    0.000
242.151;  587.450;  196.925;    0.000
242.221;  539.450;  182.925;    0.000
242.290;  531.450;  222.925;    0.000
242.359;  512.450;  142.925;    0.000
242.428;  587.450;  180.925;    0.000
242.498;  498.450;  180.925;    0.000
242.567;  566.450;  181.925;    0.000
242.636;  564.450;  203.925;    0.000
242.705;  606.450;  209.925;    0.000
242.774;  530.450;  172.925;    0.000
242.844;  555.450;  218.925;    0.000
242.913;  547.450;  188.925;    0.000
242.982;  526.450;  193.925;    0.000
243.051;  523.450;  202.925;    0.000
243.120;  549.450;  174.925;    0.000
243.190;  540.450;  165.925;    0.000
243.259;  546.450;  206.925;    0.000
243.328;  543.450;  166.925;    0.000
243.397;  486.450;  167.925;    0.000
243.466;  491.450;  163.925;    0.000
243.535;  550.450;  162.925;    0.000
243.605;  539.450;  159.925;    0.000
243.674;  546.450;  171.925;    0.000
243.743;  563.450;  189.925;    0.000
243.812;  574.450;  169.925;    0.000
243.881;  555.450;  145.925;    0.000
243.950;  480.450;  197.925;    0.000
244.019;  513.450;  189.925;    0.000
244.088;  494.450;  200.925;    0.000
244.158;  523.450;  208.925;    0.000
244.227;  516.450;  154.925;    0.000
244.296;  528.450;  142.925;    0.000
244.365;  543.450;  198.925;    0.000
244.434;  477.450;  162.925;    0.000
244.503;  540.450;  186.925;    0.000
244.572;  500.450;  143.925;    0.000
244.641;  506.450;  145.925;    0.000
244.710;  574.450;  159.925;    0.000
244.779;  545.450;  175.925;    0.000
244.848;  470.450;  163.925;    0.000
244.917;  566.450;  157.925;    0.000
244.986;  533.450;  166.925;    0.000
245.055;  505.450;  211.925;    0.000
245.124;  525.450;  155.925;    0.000
245.193;  513.450;  187.925;    0.000
245.262;  541.450;  152.925;    0.000
245.331;  541.450;  177.925;    0.000
245.400;  437.450;  157.925;    0.000
245.469;  507.450;  195.925;    0.000
245.538;  531.450;  199.925;    0.000
245.607;  509.450;  194.925;    0.000
245.676;  487.450;  170.925;    0.000
245.745;  493.450;  208.925;    0.000
245.814;  506.450;  185.925;    0.000
245.883;  508.450;  165.925;    0.000
245.952;  509.450;  151.925;    0.000
246.021;  524.450;  171.925;    0.000
246.090;  503.450;  174.925;    0.000
246.159;  511.450;  192.925;    0.000
246.227;  466.450;  178.925;    0.000
246.296;  509.450;  159.925;    0.000
246.365;  456.450;  189.925;    0.000
246.434;  544.450;  205.925;    0.000
246.503;  480.450;  174.925;    0.000
246.572;  535.450;  203.925;    0.000
246.641;  487.450;  169.925;    0.000
246.710;  508.450;  186.925;    0.000
246.779;  484.450;  196.925;    0.000
246.847;  496.450;  209.925;    0.000
246.916;  500.450;  177.925;    0.000
246.985;  490.450;  188.925;    0.000
247.054;  478.450;  189.925;    0.000
247.123;  456.450;  196.925;    0.000
247.192;  488.450;  210.925;    0.000
247.260;  506.450;  164.925;    0.000
247.329;  459.450;  204.925;    0.000
247.398;  483.450;  204.925;    0.000
247.467;  472.450;  160.925;    0.000
247.536;  506.450;  193.925;    0.000
247.604;  499.450;  208.925;    0.000
247.673;  502.450;  168.925;    0.000
247.742;  482.450;  182.925;    0.000
247.811;  474.450;  186.925;    0.000
247.879;  463.450;  166.925;    0.000
247.948;  506.450;  192.925;    0.000
248.017;  473.450;  178.925;    0.000
248.086;  511.450;  193.925;    0.000
248.154;  487.450;  191.925;    0.000
248.223;  496.450;  207.925;    0.000
248.292;  451.450;  168.925;    0.000
248.361;  495.450;  211.925;    0.000
248.429;  488.450;  196.925;    0.000
248.498;  530.450;  163.925;    0.000
248.567;  502.450;  159.925;    0.000
248.635;  536.450;  194.925;    0.000
248.704;  506.450;  205.925;    0.000
248.773;  472.450;  190.925;    0.000
248.841;  483.450;  179.925;    0.000
248.910;  459.450;  193.925;    0.000
248.979;  470.450;  167.925;    0.000
249.047;  425.450;  166.925;    0.000
249.116;  440.450;  191.925;    0.000
249.185;  530.450;  203.925;    0.000
249.253;  456.450;  140.925;    0.000
249.322;  497.450;  173.925;    0.000
249.390;  425.450;  165.925;    0.000
249.459;  452.450;  173.925;    0.000
249.528;  471.450;  203.925;    0.000
249.596;  488.450;  204.925;    0.000
249.665;  437.450;  176.925;    0.000
249.733;  453.450;  178.925;    0.000
249.802;  484.450;  190.925;    0.000
249.871;  484.450;  171.925;    0.000
249.939;  448.450;  160.925;    0.000
250.008;  445.450;  220.925;    0.000
250.076;  453.450;  211.925;    0.000
250.145;  488.450;  145.925;    0.000
250.213;  472.450;  177.925;    0.000
250.282;  422.450;  186.925;    0.000
250.350;  435.450;  170.925;    0.000
250.419;  417.450;  195.925;    0.000
250.487;  506.450;  194.925;    0.000
250.556;  462.450;  178.925;    0.000
250.624;  459.450;  193.925;    0.000
250.693;  424.450;  167.925;    0.000
250.761;  445.450;  253.925;    0.000
250.830;  485.450;  241.925;    0.000
250.898;  419.450;  161.925;    0.000
250.967;  432.450;  178.925;    0.000
251.035;  454.450;  189.925;    0.000
251.104;  441.450;  166.925;    0.000
251.172;  465.450;  178.925;    0.000
251.241;  458.450;  174.925;    0.000
251.309;  440.450;  197.925;    0.000
251.378;  445.450;  172.925;    0.000
251.446;  417.450;  157.925;    0.000
251.514;  457.450;  197.925;    0.000
251.583;  485.450;  191.925;    0.000
251.651;  444.450;  154.925;    0.000
251.720;  449.450;  198.925;    0.000
251.788;  471.450;  226.925;    0.000
251.856;  375.450;  164.925;    0.000
251.925;  421.450;  181.925;    0.000
251.993;  444.450;  203.925;    0.000
252.062;  425.450;  211.925;    0.000
252.130;  446.450;  185.925;    0.000
252.198;  454.450;  190.925;    0.000
252.267;  411.450;  176.925;    0.000
252.335;  466.450;  179.925;    0.000
252.403;  427.450;  173.925;    0.000
252.472;  425.450;  172.925;    0.000
252.540;  431.450;  187.925;    0.000
252.608;  474.450;  204.925;    0.000
252.677;  381.450;  179.925;    0.000
252.745;  456.450;  192.925;    0.000
252.813;  413.450;  168.925;    0.000
252.881;  392.450;  157.925;    0.000
252.950;  423.450;  188.925;    0.000
253.018;  433.450;  191.925;    0.000
253.086;  452.450;  164.925;    0.000
253.155;  421.450;  172.925;    0.000
253.223;  416.450;  168.925;    0.000
253.291;  414.450;  190.925;    0.000
253.359;  419.450;  205.925;    0.000
253.428;  428.450;  228.925;    0.000
253.496;  411.450;  170.925;    0.000
253.564;  366.450;  164.925;    0.000
253.632;  395.450;  159.925;    0.000
253.700;  390.450;  166.925;    0.000
253.769;  406.450;  172.925;    0.000
253.837;  400.450;  157.925;    0.000
253.905;  401.450;  168.925;    0.000
253.973;  390.450;  179.925;    0.000
254.041;  393.450;  187.925;    0.000
254.110;  421.450;  186.925;    0.000
254.178;  432.450;  156.925;    0.000
254.246;  395.450;  132.925;    0.000
254.314;  399.450;  191.925;    0.000
254.382;  385.450;  189.925;    0.000
254.450;  399.450;  163.925;    0.000
254.518;  408.450;  172.925;    0.000
254.587;  364.450;  162.925;    0.000
254.655;  462.450;  191.925;    0.000
254.723;  401.450;  184.925;    0.000
254.791;  398.450;  169.925;    0.000
254.859;  414.450;  186.925;    0.000
254.927;  452.450;  207.925;    0.000
254.995;  393.450;  143.925;    0.000
255.063;  393.450;  198.925;    0.000
255.131;  435.450;  168.925;    0.000
255.199;  401.450;  183.925;    0.000
255.267;  400.450;  159.925;    0.000
255.336;  431.450;  197.925;    0.000
255.404;  423.450;  177.925;    0.000
255.472;  424.450;  204.925;    0.000
255.540;  393.450;  169.925;    0.000
255.608;  424.450;  141.925;    0.000
255.676;  414.450;  176.925;    0.000
255.744;  430.450;  184.925;    0.000
255.812;  450.450;  158.925;    0.000
255.880;  477.450;  202.925;    0.000
255.948;  448.450;  184.925;    0.000
256.016;  463.450;  192.925;    0.000
256.084;  425.450;  204.925;    0.000
256.152;  449.450;  191.925;    0.000
256.220;  433.450;  187.925;    0.000
256.288;  418.450;  176.925;    0.000
256.356;  440.450;  146.925;    0.000
256.424;  437.450;  164.925;    0.000
256.491;  427.450;  161.925;    0.000
256.559;  435.450;  167.925;    0.000
256.627;  499.450;  180.925;    0.000
256.695;  400.450;  159.925;    0.000
256.763;  529.450;  166.925;    0.000
256.831;  460.450;  166.925;    0.000
256.899;  478.450;  161.925;    0.000
256.967;  444.450;  116.925;    0.000
257.035;  478.450;  195.925;    0.000
257.103;  503.450;  227.925;    0.000
257.171;  470.450;  147.925;    0.000
257.238;  519.450;  158.925;    0.000
257.306;  514.450;  188.925;    0.000
257.374;  563.450;  153.925;    0.000
257.442;  518.450;  159.925;    0.000
257.510;  533.450;  201.925;    0.000
257.578;  512.450;  137.925;    0.000
257.646;  521.450;  172.925;    0.000
257.713;  502.450;  164.925;    0.000
257.781;  539.450;  163.925;    0.000
257.849;  565.450;  174.925;    0.000
257.917;  568.450;  164.925;    0.000
257.985;  529.450;  126.925;    0.000
258.052;  595.450;  158.925;    0.000
258.120;  574.450;  151.925;    0.000
258.188;  599.450;  169.925;    0.000
258.256;  562.450;  110.925;    0.000
258.324;  579.450;  193.925;    0.000
258.391;  590.450;  157.925;    0.000
258.459;  645.450;  193.925;    0.000
258.527;  598.450;  150.925;    0.000
258.595;  589.450;  173.925;    0.000
258.662;  558.450;  168.925;    0.000
258.730;  601.450;  190.925;    0.000
258.798;  605.450;  164.925;    0.000
258.865;  605.450;  165.925;    0.000
258.933;  657.450;  162.925;    0.000
259.001;  651.450;  174.925;    0.000
259.069;  619.450;  139.925;    0.000
259.136;  683.450;  160.925;    0.000
259.204;  683.450;  174.925;    0.000
259.272;  703.450;  161.925;    0.000
259.339;  708.450;  157.925;    0.000
259.407;  694.450;  159.925;    0.000
259.475;  658.450;  134.925;    0.000
259.542;  694.450;  179.925;    0.000
259.610;  694.450;  172.925;    0.000
259.677;  722.450;  152.925;    0.000
259.745;  697.450;  131.925;    0.000
259.813;  737.450;  185.925;    0.000
259.880;  705.450;  183.925;    0.000
259.948;  727.450;  168.925;    0.000
260.016;  753.450;  160.925;    0.000
260.083;  755.450;  163.925;    0.000
260.151;  795.450;  162.925;    0.000
260.218;  767.450;  171.925;    0.000
260.286;  764.450;  154.925;    0.000
260.353;  783.450;  182.925;    0.000
260.421;  740.450;  187.925;    0.000
260.489;  874.450;  185.925;    0.000
260.556;  798.450;  165.925;    0.000
260.624;  786.450;  185.925;    0.000
260.691;  868.450;  175.925;    0.000
260.759;  868.450;  201.925;    0.000
260.826;  783.450;  150.925;    0.000
260.894;  829.450;  142.925;    0.000
260.961;  873.450;  156.925;    0.000
261.029;  866.450;  161.925;    0.000
261.096;  904.450;  172.925;    0.000
261.164;  828.450;  149.925;    0.000
261.231;  895.450;  191.925;    0.000
261.299;  835.450;  182.925;    0.000
261.366;  835.450;  156.925;    0.000
261.434;  870.450;  188.925;    0.000
261.501;  928.450;  170.925;    0.000
261.568;  902.450;  167.925;    0.000
261.636;  916.450;  169.925;    0.000
261.703;  998.450;  200.925;    0.000
261.771;  987.450;  170.925;    0.000
261.838;  976.450;  175.925;    0.000
261.906;  955.450;  135.925;    0.000
261.973;  946.450;  184.925;    0.000
262.040; 1009.450;  176.925;    0.000
262.108; 1034.450;  201.925;    0.000
262.175;  938.450;  141.925;    0.000
262.243;  994.450;  175.925;    0.000
262.310; 1013.450;  112.925;    0.000
262.377; 1045.450;  158.925;    0.000
262.445;  969.450;  162.925;    0.000
262.512; 1021.450;  184.925;    0.000
262.579; 1049.450;  185.925;    0.000
262.647; 1029.450;  158.925;    0.000
262.714; 1101.450;  197.925;    0.000
262.781; 1047.450;  133.925;    0.000
262.849; 1047.450;  146.925;    0.000
262.916; 1173.450;  204.925;    0.000
262.983; 1115.450;  191.925;    0.000
263.051; 1061.450;  140.925;    0.000
263.118; 1114.450;  154.925;    0.000
263.185; 1090.450;  169.925;    0.000
263.252; 1085.450;  150.925;    0.000
263.320; 1080.450;  145.925;    0.000
263.387; 1113.450;  144.925;    0.000
263.454; 1181.450;  193.925;    0.000
263.522; 1069.450;  160.925;    0.000
263.589; 1137.450;  153.925;    0.000
263.656; 1092.450;  178.925;    0.000
263.723; 1131.450;  136.925;    0.000
263.790; 1167.450;  162.925;    0.000
263.858; 1279.450;  164.925;    0.000
263.925; 1171.450;  146.925;    0.000
263.992; 1192.450;  191.925;    0.000
264.059; 1128.450;  180.925;    0.000
264.126; 1200.450;  183.925;    0.000
264.194; 1188.450;  174.925;    0.000
264.261; 1178.450;  187.925;    0.000
264.328; 1174.450;  179.925;    0.000
264.395; 1264.450;  166.925;    0.000
264.462; 1228.450;  197.925;    0.000
264.529; 1230.450;  209.925;    0.000
264.597; 1239.450;  173.925;    0.000
264.664; 1321.450;  193.925;    0.000
264.731; 1220.450;  165.925;    0.000
264.798; 1254.450;  148.925;    0.000
264.865; 1239.450;  186.925;    0.000
264.932; 1264.450;  152.925;    0.000
264.999; 1245.450;  166.925;    0.000
265.066; 1308.450;  186.925;    0.000
265.133; 1321.450;  172.925;    0.000
265.201; 1390.450;  159.925;    0.000
265.268; 1282.450;  164.925;    0.000
265.335; 1279.450;  161.925;    0.000
265.402; 1356.450;  157.925;    0.000
265.469; 1311.450;  134.925;    0.000
265.536; 1331.450;  191.925;    0.000
265.603; 1359.450;  170.925;    0.000
265.670; 1308.450;  162.925;    0.000
265.737; 1314.450;  172.925;    0.000
265.804; 1398.450;  151.925;    0.000
265.871; 1312.450;  191.925;    0.000
265.938; 1450.450;  173.925;    0.000
266.005; 1436.450;  201.925;    0.000
266.072; 1351.450;  156.925;    0.000
266.139; 1433.450;  191.925;    0.000
266.206; 1458.450;  151.925;    0.000
266.273; 1361.450;  194.925;    0.000
266.340; 1422.450;  120.925;    0.000
266.407; 1356.450;  130.925;    0.000
266.474; 1483.450;  137.925;    0.000
266.541; 1483.450;  139.925;    0.000
266.608; 1449.450;  139.925;    0.000
266.675; 1443.450;  198.925;    0.000
266.742; 1478.450;  165.925;    0.000
266.808; 1402.450;  174.925;    0.000
266.875; 1410.450;  169.925;    0.000
266.942; 1445.450;  137.925;    0.000
267.009; 1476.450;  181.925;    0.000
267.076; 1479.450;  204.925;    0.000
267.143; 1439.450;  179.925;    0.000
267.210; 1481.450;  160.925;    0.000
267.277; 1481.450;  154.925;    0.000
267.344; 1460.450;  178.925;    0.000
267.410; 1536.450;  190.925;    0.000
267.477; 1510.450;  193.925;    0.000
267.544; 1459.450;  168.925;    0.000
267.611; 1539.450;  177.925;    0.000
267.678; 1514.450;  205.925;    0.000
267.745; 1522.450;  205.925;    0.000
267.811; 1451.450;  164.925;    0.000
267.878; 1470.450;  166.925;    0.000
267.945; 1478.450;  160.925;    0.000
268.012; 1509.450;  172.925;    0.000
268.079; 1481.450;  186.925;    0.000
268.145; 1548.450;  188.925;    0.000
268.212; 1513.450;  181.925;    0.000
268.279; 1463.450;  158.925;    0.000
268.346; 1493.450;  192.925;    0.000
268.412; 1463.450;  159.925;    0.000
268.479; 1474.450;  176.925;    0.000
268.546; 1457.450;  170.925;    0.000
268.613; 1526.450;  133.925;    0.000
268.679; 1465.450;  170.925;    0.000
268.746; 1566.450;  185.925;    0.000
268.813; 1487.450;  170.925;    0.000
268.879; 1449.450;  149.925;    0.000
268.946; 1475.450;  176.925;    0.000
269.013; 1459.450;  153.925;    0.000
269.079; 1467.450;  156.925;    0.000
269.146; 1468.450;  143.925;    0.000
269.213; 1485.450;  170.925;    0.000
269.280; 1488.450;  202.925;    0.000
269.346; 1456.450;  180.925;    0.000
269.413; 1492.450;  162.925;    0.000
269.479; 1498.450;  175.925;    0.000
269.546; 1515.450;  151.925;    0.000
269.613; 1462.450;  159.925;    0.000
269.679; 1492.450;  190.925;    0.000
269.746; 1478.450;  159.925;    0.000
269.813; 1473.450;  151.925;    0.000
269.879; 1482.450;  169.925;    0.000
269.946; 1529.450;  169.925;    0.000
270.012; 1500.450;  185.925;    0.000
270.079; 1457.450;  133.925;    0.000
270.145; 1491.450;  161.925;    0.000
270.212; 1511.450;  156.925;    0.000
270.279; 1493.450;  176.925;    0.000
270.345; 1520.450;  140.925;    0.000
270.412; 1461.450;  162.925;    0.000
270.478; 1528.450;  148.925;    0.000
270.545; 1418.450;  146.925;    0.000
270.611; 1419.450;  168.925;    0.000
270.678; 1402.450;  164.925;    0.000
270.744; 1439.450;  117.925;    0.000
270.811; 1428.450;  196.925;    0.000
270.877; 1433.450;  151.925;    0.000
270.944; 1430.450;  174.925;    0.000
271.010; 1435.450;  180.925;    0.000
271.077; 1450.450;  162.925;    0.000
271.143; 1430.450;  178.925;    0.000
271.210; 1437.450;  159.925;    0.000
271.276; 1383.450;  143.925;    0.000
271.342; 1470.450;  196.925;    0.000
271.409; 1459.450;  161.925;    0.000
271.475; 1417.450;  153.925;    0.000
271.542; 1435.450;  147.925;    0.000
271.608; 1418.450;  175.925;    0.000
271.675; 1375.450;  134.925;    0.000
271.741; 1420.450;  182.925;    0.000
271.807; 1391.450;  174.925;    0.000
271.874; 1406.450;  169.925;    0.000
271.940; 1457.450;  179.925;    0.000
272.007; 1438.450;  173.925;    0.000
272.073; 1434.450;  133.925;    0.000
272.139; 1438.450;  191.925;    0.000
272.206; 1441.450;  168.925;    0.000
272.272; 1403.450;  179.925;    0.000
272.338; 1459.450;  224.925;    0.000
272.405; 1413.450;  156.925;    0.000
272.471; 1383.450;  175.925;    0.000
272.537; 1415.450;  190.925;    0.000
272.604; 1420.450;  199.925;    0.000
272.670; 1390.450;  156.925;    0.000
272.736; 1425.450;  198.925;    0.000
272.802; 1420.450;  169.925;    0.000
272.869; 1398.450;  141.925;    0.000
272.935; 1410.450;  145.925;    0.000
273.001; 1477.450;  156.925;    0.000
273.068; 1409.450;  157.925;    0.000
273.134; 1430.450;  184.925;    0.000
273.200; 1415.450;  158.925;    0.000
273.266; 1453.450;  150.925;    0.000
273.333; 1457.450;  176.925;    0.000
273.399; 1325.450;  118.925;    0.000
273.465; 1449.450;  184.925;    0.000
273.531; 1416.450;  179.925;    0.000
273.597; 1395.450;  167.925;    0.000
273.664; 1447.450;  186.925;    0.000
273.730; 1413.450;  137.925;    0.000
273.796; 1441.450;  148.925;    0.000
273.862; 1492.450;  183.925;    0.000
273.928; 1388.450;  179.925;    0.000
273.995; 1480.450;  189.925;    0.000
274.061; 1497.450;  188.925;    0.000
274.127; 1433.450;  132.925;    0.000
274.193; 1358.450;  135.925;    0.000
274.259; 1412.450;  177.925;    0.000
274.325; 1484.450;  178.925;    0.000
274.391; 1419.450;  140.925;    0.000
274.457; 1441.450;  158.925;    0.000
274.524; 1439.450;  175.925;    0.000
274.590; 1488.450;  182.925;    0.000
274.656; 1486.450;  165.925;    0.000
274.722; 1452.450;  152.925;    0.000
274.788; 1483.450;  159.925;    0.000
274.854; 1490.450;  143.925;    0.000
274.920; 1396.450;  117.925;    0.000
274.986; 1473.450;  140.925;    0.000
275.052; 1442.450;  174.925;    0.000
275.118; 1454.450;  129.925;    0.000
275.184; 1525.450;  173.925;    0.000
275.250; 1566.450;  196.925;    0.000
275.316; 1447.450;  142.925;    0.000
275.382; 1469.450;  149.925;    0.000
275.448; 1485.450;  178.925;    0.000
275.514; 1477.450;  136.925;    0.000
275.580; 1485.450;  140.925;    0.000
275.646; 1542.450;  133.925;    0.000
275.712; 1481.450;  162.925;    0.000
275.778; 1533.450;  129.925;    0.000
275.844; 1489.450;  156.925;    0.000
275.910; 1517.450;  172.925;    0.000
275.976; 1507.450;  158.925;    0.000
276.042; 1523.450;  141.925;    0.000
276.108; 1563.450;  212.925;    0.000
276.174; 1519.450;  148.925;    0.000
276.240; 1591.450;  134.925;    0.000
276.306; 1544.450;  149.925;    0.000
276.372; 1588.450;  126.925;    0.000
276.437; 1550.450;  168.925;    0.000
276.503; 1508.450;  158.925;    0.000
276.569; 1558.450;  191.925;    0.000
276.635; 1588.450;  130.925;    0.000
276.701; 1672.450;  161.925;    0.000
276.767; 1545.450;  148.925;    0.000
276.833; 1676.450;  147.925;    0.000
276.899; 1651.450;  149.925;    0.000
276.964; 1738.450;  181.925;    0.000
277.030; 1676.450;  186.925;    0.000
277.096; 1691.450;  132.925;    0.000
277.162; 1668.450;  181.925;    0.000
277.228; 1628.450;  166.925;    0.000
277.293; 1667.450;  154.925;    0.000
277.359; 1768.450;  181.925;    0.000
277.425; 1726.450;  184.925;    0.000
277.491; 1918.450;  150.925;    0.000
277.557; 1982.450;  159.925;    0.000
277.622; 2404.450;  129.925;    0.000
277.688; 2328.450;  184.925;    0.000
277.754; 2291.450;  182.925;    0.000
277.820; 2479.450;  149.925;    0.000
277.885; 2785.450;  185.925;    0.000
277.951; 3256.450;  164.925;    0.000
278.017; 2866.450;  162.925;    0.000
278.083; 2590.450;  189.925;    0.000
278.148; 2416.450;  184.925;    0.000
278.214; 2519.450;  188.925;    0.000
278.280; 2624.450;  206.925;    0.000
278.345; 2443.450;  187.925;    0.000
278.411; 2251.450;  174.925;    0.000
278.477; 2320.450;  190.925;    0.000
278.542; 2492.450;  154.925;    0.000
278.608; 2570.450;  191.925;    0.000
278.674; 2664.450;  243.925;    0.000
278.739; 2788.450;  141.925;    0.000
278.805; 3016.450;  171.925;    0.000
278.871; 3286.450;  181.925;    0.000
278.936; 3761.450;  191.925;    0.000
279.002; 4890.450;  201.925;    0.000
279.067; 5974.450;  174.925;    0.000
279.133; 6226.450;  165.925;    0.000
279.199; 6317.450;  122.925;    0.000
279.264; 6651.450;  159.925;    0.000
279.330; 8357.450;  170.925;    0.000
279.395;11991.450;  173.925;    0.000
279.461;19317.449;  200.925;    0.000
279.527;24219.449;  199.925;    0.000
279.592;20408.449;  203.925;    0.000
279.658;14113.450;  209.925;    0.000
279.723;11686.450;  188.925;    0.000
279.789;11775.450;  180.925;    0.000
279.854;10488.450;  137.925;    0.000
279.920; 8812.450;  223.925;    0.000
279.985; 8291.450;  186.925;    0.000
280.051; 8289.450;  198.925;    0.000
280.116;10300.450;  178.925;    0.000
280.182;16504.449;  176.925;    0.000
280.247;20898.449;  195.925;    0.000
280.313;16174.450;  165.925;    0.000
280.378; 9453.450;  153.925;    0.000
280.444; 6742.450;  181.925;    0.000
280.509; 5460.450;  188.925;    0.000
280.574; 4607.450;  149.925;    0.000
280.640; 4139.450;  164.925;    0.000
280.705; 3801.450;  166.925;    0.000
280.771; 3679.450;  188.925;    0.000
280.836; 3358.450;  188.925;    0.000
280.902; 3330.450;  168.925;    0.000
280.967; 3050.450;  202.925;    0.000
281.032; 3111.450;  197.925;    0.000
281.098; 2880.450;  138.925;    0.000
281.163; 2829.450;  160.925;    0.000
281.229; 2827.450;  212.925;    0.000
281.294; 2741.450;  227.925;    0.000
281.359; 2658.450;  200.925;    0.000
281.425; 2740.450;  189.925;    0.000
281.490; 2537.450;  176.925;    0.000
281.555; 2476.450;  182.925;    0.000
281.621; 2471.450;  169.925;    0.000
281.686; 2467.450;  182.925;    0.000
281.751; 2494.450;  208.925;    0.000
281.816; 2377.450;  166.925;    0.000
281.882; 2460.450;  181.925;    0.000
281.947; 2346.450;  178.925;    0.000
282.012; 2314.450;  167.925;    0.000
282.078; 2361.450;  170.925;    0.000
282.143; 2249.450;  157.925;    0.000
282.208; 2348.450;  158.925;    0.000
282.273; 2329.450;  187.925;    0.000
282.339; 2307.450;  185.925;    0.000
282.404; 2249.450;  201.925;    0.000
282.469; 2261.450;  202.925;    0.000
282.534; 2182.450;  185.925;    0.000
282.600; 2239.450;  125.925;    0.000
282.665; 2156.450;  162.925;    0.000
282.730; 2189.450;  174.925;    0.000
282.795; 2247.450;  179.925;    0.000
282.860; 2171.450;  190.925;    0.000
282.926; 2240.450;  200.925;    0.000
282.991; 2210.450;  161.925;    0.000
283.056; 2211.450;  175.925;    0.000
283.121; 2202.450;  181.925;    0.000
283.186; 2218.450;  221.925;    0.000
283.251; 2298.450;  168.925;    0.000
283.316; 2279.450;  156.925;    0.000
283.382; 2184.450;  197.925;    0.000
283.447; 2175.450;  210.925;    0.000
283.512; 2197.450;  164.925;    0.000
283.577; 2263.450;  212.925;    0.000
283.642; 2202.450;  186.925;    0.000
283.707; 2200.450;  182.925;    0.000
283.772; 2238.450;  127.925;    0.000
283.837; 2249.450;  160.925;    0.000
283.902; 2208.450;  162.925;    0.000
283.967; 2149.450;  151.925;    0.000
284.032; 2230.450;  175.925;    0.000
284.097; 2265.450;  235.925;    0.000
284.163; 2255.450;  136.925;    0.000
284.228; 2300.450;  209.925;    0.000
284.293; 2243.450;  163.925;    0.000
284.358; 2277.450;  169.925;    0.000
284.423; 2201.450;  145.925;    0.000
284.488; 2300.450;  134.925;    0.000
284.553; 2354.450;  158.925;    0.000
284.618; 2328.450;  163.925;    0.000
284.683; 2341.450;  168.925;    0.000
284.748; 2357.450;  170.925;    0.000
284.812; 2450.450;  151.925;    0.000
284.877; 2633.450;  169.925;    0.000
284.942; 2842.450;  179.925;    0.000
285.007; 3055.450;  202.925;    0.000
285.072; 3953.450;  171.925;    0.000
285.137; 6037.450;  173.925;    0.000
285.202; 7965.450;  196.925;    0.000
285.267; 6555.450;  193.925;    0.000
285.332; 4488.450;  151.925;    0.000
285.397; 3491.450;  183.925;    0.000
285.462; 3007.450;  168.925;    0.000
285.527; 2737.450;  166.925;    0.000
285.591; 2642.450;  124.925;    0.000
285.656; 2530.450;  145.925;    0.000
285.721; 2446.450;  155.925;    0.000
285.786; 2506.450;  170.925;    0.000
285.851; 2493.450;  175.925;    0.000
285.916; 2391.450;  186.925;    0.000
285.981; 2431.450;  204.925;    0.000
286.045; 2337.450;  237.925;    0.000
286.110; 2441.450;  197.925;    0.000
286.175; 2263.450;  143.925;    0.000
286.240; 2330.450;  167.925;    0.000
286.305; 2380.450;  202.925;    0.000
286.369; 2307.450;  214.925;    0.000
286.434; 2421.450;  206.925;    0.000
286.499; 2304.450;  177.925;    0.000
286.564; 2283.450;  201.925;    0.000
286.628; 2310.450;  153.925;    0.000
286.693; 2342.450;  161.925;    0.000
286.758; 2325.450;  181.925;    0.000
286.823; 2374.450;  176.925;    0.000
286.887; 2260.450;  158.925;    0.000
286.952; 2317.450;  198.925;    0.000
287.017; 2389.450;  196.925;    0.000
287.082; 2313.450;  154.925;    0.000
287.146; 2303.450;  178.925;    0.000
287.211; 2400.450;  165.925;    0.000
287.276; 2335.450;  165.925;    0.000
287.340; 2289.450;  178.925;    0.000
287.405; 2297.450;  177.925;    0.000
287.470; 2300.450;  141.925;    0.000
287.534; 2286.450;  224.925;    0.000
287.599; 2164.450;  184.925;    0.000
287.663; 2287.450;  177.925;    0.000
287.728; 2233.450;  144.925;    0.000
287.793; 2296.450;  210.925;    0.000
287.857; 2267.450;  198.925;    0.000
287.922; 2280.450;  168.925;    0.000
287.987; 2324.450;  168.925;    0.000
288.051; 2243.450;  200.925;    0.000
288.116; 2318.450;  199.925;    0.000
288.180; 2318.450;  211.925;    0.000
288.245; 2400.450;  182.925;    0.000
288.309; 2310.450;  180.925;    0.000
288.374; 2320.450;  196.925;    0.000
288.439; 2283.450;  187.925;    0.000
288.503; 2281.450;  159.925;    0.000
288.568; 2302.450;  207.925;    0.000
288.632; 2321.450;  210.925;    0.000
288.697; 2274.450;  196.925;    0.000
288.761; 2298.450;  175.925;    0.000
288.826; 2225.450;  159.925;    0.000
288.890; 2311.450;  183.925;    0.000
288.955; 2275.450;  149.925;    0.000
289.019; 2313.450;  194.925;    0.000
289.084; 2195.450;  171.925;    0.000
289.148; 2259.450;  191.925;    0.000
289.212; 2236.450;  217.925;    0.000
289.277; 2256.450;  196.925;    0.000
289.341; 2285.450;  211.925;    0.000
289.406; 2204.450;  165.925;    0.000
289.470; 2208.450;  197.925;    0.000
289.535; 2370.450;  208.925;    0.000
289.599; 2294.450;  192.925;    0.000
289.663; 2295.450;  169.925;    0.000
289.728; 2260.450;  168.925;    0.000
289.792; 2286.450;  192.925;    0.000
289.857; 2327.450;  202.925;    0.000
289.921; 2279.450;  176.925;    0.000
289.985; 2290.450;  164.925;    0.000
290.050; 2254.450;  166.925;    0.000
290.114; 2163.450;  192.925;    0.000
290.178; 2208.450;  155.925;    0.000
290.243; 2256.450;  158.925;    0.000
290.307; 2265.450;  192.925;    0.000
290.371; 2297.450;  161.925;    0.000
290.436; 2308.450;  182.925;    0.000
290.500; 2260.450;  147.925;    0.000
290.564; 2288.450;  209.925;    0.000
290.629; 2285.450;  172.925;    0.000
290.693; 2223.450;  192.925;    0.000
290.757; 2218.450;  147.925;    0.000
290.821; 2316.450;  139.925;    0.000
290.886; 2276.450;  186.925;    0.000
290.950; 2251.450;  196.925;    0.000
291.014; 2214.450;  166.925;    0.000
291.078; 2323.450;  143.925;    0.000
291.143; 2290.450;  171.925;    0.000
291.207; 2288.450;  187.925;    0.000
291.271; 2312.450;  208.925;    0.000
291.335; 2375.450;  195.925;    0.000
291.399; 2312.450;  139.925;    0.000
291.464; 2353.450;  139.925;    0.000
291.528; 2384.450;  183.925;    0.000
291.592; 2322.450;  152.925;    0.000
291.656; 2402.450;  155.925;    0.000
291.720; 2366.450;  191.925;    0.000
291.784; 2305.450;  185.925;    0.000
291.849; 2336.450;  175.925;    0.000
291.913; 2373.450;  152.925;    0.000
291.977; 2373.450;  203.925;    0.000
292.041; 2353.450;  181.925;    0.000
292.105; 2279.450;  168.925;    0.000
292.169; 2322.450;  133.925;    0.000
292.233; 2365.450;  156.925;    0.000
292.297; 2315.450;  173.925;    0.000
292.361; 2333.450;  124.925;    0.000
292.425; 2398.450;  138.925;    0.000
292.490; 2331.450;  110.925;    0.000
292.554; 2277.450;  180.925;    0.000
292.618; 2310.450;  178.925;    0.000
292.682; 2435.450;  156.925;    0.000
292.746; 2437.450;  151.925;    0.000
292.810; 2596.450;  183.925;    0.000
292.874; 2701.450;  156.925;    0.000
292.938; 2679.450;  195.925;    0.000
293.002; 2666.450;  200.925;    0.000
293.066; 2615.450;  171.925;    0.000
293.130; 2506.450;  163.925;    0.000
293.194; 2495.450;  174.925;    0.000
293.258; 2446.450;  167.925;    0.000
293.322; 2539.450;  212.925;    0.000
293.386; 2504.450;  189.925;    0.000
293.450; 2497.450;  169.925;    0.000
293.514; 2638.450;  175.925;    0.000
293.577; 2847.450;  169.925;    0.000
293.641; 3000.450;  186.925;    0.000
293.705; 3148.450;  222.925;    0.000
293.769; 2987.450;  150.925;    0.000
293.833; 2855.450;  165.925;    0.000
293.897; 2768.450;  152.925;    0.000
293.961; 2772.450;  179.925;    0.000
294.025; 2656.450;  159.925;    0.000
294.089; 2636.450;  181.925;    0.000
294.152; 2564.450;  188.925;    0.000
294.216; 2558.450;  170.925;    0.000
294.280; 2558.450;  167.925;    0.000
294.344; 2506.450;  151.925;    0.000
294.408; 2370.450;  180.925;    0.000
294.472; 2402.450;  144.925;    0.000
294.536; 2377.450;  171.925;    0.000
294.599; 2457.450;  157.925;    0.000
294.663; 2397.450;  139.925;    0.000
294.727; 2357.450;  208.925;    0.000
294.791; 2295.450;  152.925;    0.000
294.855; 2323.450;  181.925;    0.000
294.918; 2285.450;  136.925;    0.000
294.982; 2339.450;  155.925;    0.000
295.046; 2285.450;  200.925;    0.000
295.110; 2314.450;  190.925;    0.000
295.173; 2316.450;  156.925;    0.000
295.237; 2315.450;  160.925;    0.000
295.301; 2240.450;  145.925;    0.000
295.364; 2283.450;  166.925;    0.000
295.428; 2315.450;  125.925;    0.000
295.492; 2220.450;  154.925;    0.000
295.556; 2424.450;  172.925;    0.000
295.619; 2382.450;  210.925;    0.000
295.683; 2290.450;  181.925;    0.000
295.747; 2234.450;  176.925;    0.000
295.810; 2264.450;  181.925;    0.000
295.874; 2196.450;  160.925;    0.000
295.938; 2279.450;  119.925;    0.000
296.001; 2279.450;  206.925;    0.000
296.065; 2259.450;  136.925;    0.000
296.128; 2200.450;  156.925;    0.000
296.192; 2270.450;  174.925;    0.000
296.256; 2190.450;  145.925;    0.000
296.319; 2300.450;  167.925;    0.000
296.383; 2208.450;  168.925;    0.000
296.447; 2258.450;  190.925;    0.000
296.510; 2191.450;  165.925;    0.000
296.574; 2287.450;  184.925;    0.000
296.637; 2210.450;  155.925;    0.000
296.701; 2170.450;  168.925;    0.000
296.764; 2275.450;  161.925;    0.000
296.828; 2308.450;  218.925;    0.000
296.891; 2228.450;  176.925;    0.000
296.955; 2211.450;  169.925;    0.000
297.018; 2209.450;  168.925;    0.000
297.082; 2162.450;  176.925;    0.000
297.145; 2194.450;  171.925;    0.000
297.209; 2174.450;  196.925;    0.000
297.272; 2194.450;  170.925;    0.000
297.336; 2213.450;  156.925;    0.000
297.399; 2119.450;  168.925;    0.000
297.463; 2199.450;  203.925;    0.000
297.526; 2123.450;  164.925;    0.000
297.590; 2077.450;  175.925;    0.000
297.653; 2153.450;  170.925;    0.000
297.717; 2208.450;  156.925;    0.000
297.780; 2074.450;  149.925;    0.000
297.843; 2164.450;  156.925;    0.000
297.907; 2135.450;  129.925;    0.000
297.970; 2091.450;  163.925;    0.000
298.034; 2180.450;  162.925;    0.000
298.097; 2189.450;  182.925;    0.000
298.160; 2152.450;  194.925;    0.000
298.224; 2110.450;  178.925;    0.000
298.287; 2150.450;  147.925;    0.000
298.350; 2120.450;  187.925;    0.000
298.414; 2113.450;  193.925;    0.000
298.477; 2042.450;  127.925;    0.000
298.540; 2033.450;  181.925;    0.000
298.604; 2087.450;  163.925;    0.000
298.667; 2084.450;  177.925;    0.000
298.730; 2103.450;  192.925;    0.000
298.794; 2093.450;  183.925;    0.000
298.857; 2061.450;  194.925;    0.000
298.920; 2074.450;  147.925;    0.000
298.984; 2070.450;  184.925;    0.000
299.047; 2014.450;  218.925;    0.000
299.110; 2015.450;  171.925;    0.000
299.173; 2083.450;  177.925;    0.000
299.237; 1937.450;  181.925;    0.000
299.300; 2103.450;  170.925;    0.000
299.363; 2029.450;  185.925;    0.000
299.426; 1928.450;  193.925;    0.000
299.489; 1998.450;  184.925;    0.000
299.553; 1947.450;  194.925;    0.000
299.616; 1978.450;  171.925;    0.000
299.679; 2059.450;  182.925;    0.000
299.742; 1988.450;  138.925;    0.000
299.805; 1959.450;  172.925;    0.000
299.868; 1984.450;  191.925;    0.000
299.932; 1993.450;  193.925;    0.000
299.995; 2050.450;  201.925;    0.000
300.058; 1954.450;  177.925;    0.000
300.121; 1954.450;  178.925;    0.000
300.184; 1938.450;  171.925;    0.000
300.247; 1973.450;  184.925;    0.000
300.310; 1957.450;  200.925;    0.000
300.374; 2003.450;  172.925;    0.000
300.437; 1883.450;  187.925;    0.000
300.500; 1929.450;  211.925;    0.000
300.563; 1901.450;  190.925;    0.000
300.626; 1859.450;  196.925;    0.000
300.689; 2016.450;  162.925;    0.000
300.752; 1898.450;  163.925;    0.000
300.815; 1997.450;  207.925;    0.000
300.878; 1929.450;  221.925;    0.000
300.941; 1882.450;  176.925;    0.000
301.004; 1922.450;  193.925;    0.000
301.067; 1985.450;  165.925;    0.000
301.130; 1995.450;  179.925;    0.000
301.193; 1877.450;  196.925;    0.000
301.256; 1971.450;  210.925;    0.000
301.319; 1913.450;  196.925;    0.000
301.382; 1893.450;  162.925;    0.000
301.445; 2026.450;  233.925;    0.000
301.508; 1931.450;  176.925;    0.000
301.571; 1820.450;  185.925;    0.000
301.634; 1923.450;  202.925;    0.000
301.697; 1903.450;  189.925;    0.000
301.760; 1925.450;  224.925;    0.000
301.823; 1898.450;  212.925;    0.000
301.885; 1940.450;  196.925;    0.000
301.948; 1906.450;  169.925;    0.000
302.011; 1904.450;  160.925;    0.000
302.074; 1925.450;  202.925;    0.000
302.137; 1883.450;  130.925;    0.000
302.200; 1954.450;  188.925;    0.000
302.263; 1901.450;  196.925;    0.000
302.326; 1776.450;  172.925;    0.000
302.388; 1887.450;  197.925;    0.000
302.451; 1912.450;  203.925;    0.000
302.514; 1909.450;  164.925;    0.000
302.577; 1867.450;  170.925;    0.000
302.640; 1894.450;  156.925;    0.000
302.703; 1866.450;  188.925;    0.000
302.765; 1908.450;  213.925;    0.000
302.828; 1957.450;  212.925;    0.000
302.891; 1902.450;  203.925;    0.000
302.954; 1841.450;  148.925;    0.000
303.016; 1901.450;  168.925;    0.000
303.079; 1840.450;  206.925;    0.000
303.142; 1885.450;  210.925;    0.000
303.205; 1921.450;  189.925;    0.000
303.267; 1939.450;  174.925;    0.000
303.330; 1835.450;  198.925;    0.000
303.393; 1894.450;  207.925;    0.000
303.456; 1925.450;  177.925;    0.000
303.518; 1829.450;  192.925;    0.000
303.581; 1862.450;  171.925;    0.000
303.644; 1896.450;  193.925;    0.000
303.706; 1875.450;  185.925;    0.000
303.769; 1981.450;  198.925;    0.000
303.832; 1857.450;  192.925;    0.000
303.894; 1929.450;  199.925;    0.000
303.957; 1908.450;  160.925;    0.000
304.020; 1898.450;  184.925;    0.000
304.082; 1907.450;  191.925;    0.000
304.145; 1899.450;  216.925;    0.000
304.207; 1855.450;  175.925;    0.000
304.270; 1832.450;  192.925;    0.000
304.333; 1849.450;  218.925;    0.000
304.395; 1908.450;  195.925;    0.000
304.458; 1914.450;  206.925;    0.000
304.520; 1920.450;  229.925;    0.000
304.583; 1920.450;  202.925;    0.000
304.646; 1871.450;  159.925;    0.000
304.708; 1894.450;  167.925;    0.000
304.771; 1831.450;  141.925;    0.000
304.833; 1902.450;  184.925;    0.000
304.896; 1978.450;  197.925;    0.000
304.958; 1840.450;  179.925;    0.000
305.021; 1889.450;  175.925;    0.000
305.083; 1874.450;  182.925;    0.000
305.146; 1931.450;  182.925;    0.000
305.208; 1953.450;  174.925;    0.000
305.271; 1918.450;  157.925;    0.000
305.333; 2069.450;  185.925;    0.000
305.396; 1995.450;  199.925;    0.000
305.458; 1958.450;  203.925;    0.000
305.520; 2023.450;  195.925;    0.000
305.583; 1869.450;  152.925;    0.000
305.645; 1963.450;  200.925;    0.000
305.708; 1958.450;  149.925;    0.000
305.770; 1975.450;  211.925;    0.000
305.833; 1930.450;  189.925;    0.000
305.895; 1925.450;  200.925;    0.000
305.957; 1952.450;  166.925;    0.000
306.020; 1889.450;  186.925;    0.000
306.082; 1934.450;  197.925;    0.000
306.144; 2011.450;  200.925;    0.000
306.207; 1913.450;  180.925;    0.000
306.269; 1996.450;  209.925;    0.000
306.331; 1923.450;  205.925;    0.000
306.394; 1939.450;  176.925;    0.000
306.456; 1956.450;  184.925;    0.000
306.518; 1959.450;  210.925;    0.000
306.581; 1976.450;  162.925;    0.000
306.643; 1984.450;  196.925;    0.000
306.705; 1970.450;  204.925;    0.000
306.768; 2022.450;  158.925;    0.000
306.830; 1948.450;  205.925;    0.000
306.892; 2030.450;  189.925;    0.000
306.954; 2038.450;  188.925;    0.000
307.017; 2037.450;  180.925;    0.000
307.079; 1937.450;  197.925;    0.000
307.141; 1970.450;  184.925;    0.000
307.203; 1953.450;  182.925;    0.000
307.266; 2015.450;  166.925;    0.000
307.328; 2011.450;  186.925;    0.000
307.390; 1983.450;  176.925;    0.000
307.452; 1955.450;  194.925;    0.000
307.514; 2107.450;  225.925;    0.000
307.577; 2092.450;  209.925;    0.000
307.639; 2130.450;  203.925;    0.000
307.701; 2000.450;  214.925;    0.000
307.763; 2006.450;  203.925;    0.000
307.825; 2072.450;  202.925;    0.000
307.887; 2072.450;  244.925;    0.000
307.949; 1991.450;  173.925;    0.000
308.012; 2048.450;  219.925;    0.000
308.074; 2021.450;  157.925;    0.000
308.136; 2034.450;  215.925;    0.000
308.198; 2140.450;  186.925;    0.000
308.260; 2096.450;  186.925;    0.000
308.322; 2128.450;  201.925;    0.000
308.384; 2109.450;  218.925;    0.000
308.446; 2155.450;  159.925;    0.000
308.508; 2100.450;  191.925;    0.000
308.570; 2148.450;  185.925;    0.000
308.632; 2054.450;  208.925;    0.000
308.694; 2125.450;  161.925;    0.000
308.756; 2122.450;  169.925;    0.000
308.818; 2160.450;  187.925;    0.000
308.880; 2124.450;  192.925;    0.000
308.942; 2187.450;  194.925;    0.000
309.004; 2189.450;  206.925;    0.000
309.066; 2159.450;  204.925;    0.000
309.128; 2154.450;  181.925;    0.000
309.190; 2258.450;  166.925;    0.000
309.252; 2248.450;  213.925;    0.000
309.314; 2249.450;  249.925;    0.000
309.376; 2224.450;  238.925;    0.000
309.438; 2261.450;  206.925;    0.000
309.500; 2245.450;  185.925;    0.000
309.562; 2196.450;  214.925;    0.000
309.624; 2109.450;  216.925;    0.000
309.686; 2166.450;  197.925;    0.000
309.747; 2245.450;  171.925;    0.000
309.809; 2139.450;  198.925;    0.000
309.871; 2252.450;  185.925;    0.000
309.933; 2109.450;  172.925;    0.000
309.995; 2013.450;  168.925;    0.000
310.057; 2205.450;  177.925;    0.000
310.119; 2118.450;  207.925;    0.000
310.180; 2198.450;  180.925;    0.000
310.242; 2145.450;  202.925;    0.000
310.304; 2113.450;  200.925;    0.000
310.366; 2061.450;  222.925;    0.000
310.428; 2063.450;  179.925;    0.000
310.489; 2149.450;  196.925;    0.000
310.551; 2115.450;  203.925;    0.000
310.613; 2095.450;  198.925;    0.000
310.675; 2019.450;  203.925;    0.000
310.737; 2042.450;  195.925;    0.000
310.798; 2141.450;  204.925;    0.000
310.860; 2108.450;  195.925;    0.000
310.922; 2172.450;  195.925;    0.000
310.983; 2068.450;  225.925;    0.000
311.045; 2051.450;  203.925;    0.000
311.107; 2029.450;  194.925;    0.000
311.169; 2090.450;  185.925;    0.000
311.230; 2058.450;  175.925;    0.000
311.292; 2188.450;  220.925;    0.000
311.354; 2034.450;  189.925;    0.000
311.415; 2041.450;  187.925;    0.000
311.477; 2075.450;  180.925;    0.000
311.539; 2063.450;  175.925;    0.000
311.600; 2068.450;  192.925;    0.000
311.662; 2151.450;  212.925;    0.000
311.724; 2171.450;  217.925;    0.000
311.785; 2114.450;  218.925;    0.000
311.847; 2096.450;  219.925;    0.000
311.908; 2106.450;  202.925;    0.000
311.970; 2160.450;  186.925;    0.000
312.032; 2074.450;  212.925;    0.000
312.093; 2121.450;  203.925;    0.000
312.155; 2202.450;  165.925;    0.000
312.216; 2143.450;  183.925;    0.000
312.278; 2114.450;  167.925;    0.000
312.339; 2057.450;  190.925;    0.000
312.401; 2143.450;  219.925;    0.000
312.462; 2137.450;  190.925;    0.000
312.524; 2214.450;  203.925;    0.000
312.585; 2181.450;  191.925;    0.000
312.647; 2165.450;  197.925;    0.000
312.708; 2168.450;  203.925;    0.000
312.770; 2247.450;  203.925;    0.000
312.831; 2191.450;  155.925;    0.000
312.893; 2229.450;  189.925;    0.000
312.954; 2241.450;  212.925;    0.000
313.016; 2152.450;  179.925;    0.000
313.077; 2180.450;  209.925;    0.000
313.139; 2206.450;  185.925;    0.000
313.200; 2183.450;  180.925;    0.000
313.261; 2245.450;  220.925;    0.000
313.323; 2130.450;  171.925;    0.000
313.384; 2198.450;  180.925;    0.000
313.446; 2263.450;  202.925;    0.000
313.507; 2102.450;  172.925;    0.000
313.568; 2161.450;  192.925;    0.000
313.630; 2171.450;  191.925;    0.000
313.691; 2239.450;  176.925;    0.000
313.752; 2232.450;  175.925;    0.000
313.814; 2179.450;  202.925;    0.000
313.875; 2119.450;  186.925;    0.000
313.936; 2166.450;  199.925;    0.000
313.998; 2120.450;  164.925;    0.000
314.059; 2230.450;  159.925;    0.000
314.120; 2226.450;  175.925;    0.000
314.182; 2214.450;  181.925;    0.000
314.243; 2209.450;  157.925;    0.000
314.304; 2178.450;  168.925;    0.000
314.365; 2247.450;  203.925;    0.000
314.427; 2225.450;  151.925;    0.000
314.488; 2271.450;  174.925;    0.000
314.549; 2203.450;  184.925;    0.000
314.610; 2225.450;  198.925;    0.000
314.672; 2240.450;  193.925;    0.000
314.733; 2189.450;  171.925;    0.000
314.794; 2206.450;  141.925;    0.000
314.855; 2196.450;  184.925;    0.000
314.917; 2187.450;  175.925;    0.000
314.978; 2188.450;  190.925;    0.000
315.039; 2217.450;  183.925;    0.000
315.100; 2109.450;  204.925;    0.000
315.161; 2140.450;  202.925;    0.000
315.222; 2236.450;  177.925;    0.000
315.283; 2182.450;  191.925;    0.000
315.345; 2227.450;  185.925;    0.000
315.406; 2205.450;  194.925;    0.000
315.467; 2204.450;  167.925;    0.000
315.528; 2242.450;  174.925;    0.000
315.589; 2123.450;  197.925;    0.000
315.650; 2204.450;  192.925;    0.000
315.711; 2137.450;  181.925;    0.000
315.772; 2112.450;  157.925;    0.000
315.833; 2193.450;  189.925;    0.000
315.894; 2192.450;  184.925;    0.000
315.955; 2184.450;  202.925;    0.000
316.016; 2199.450;  220.925;    0.000
316.078; 2090.450;  180.925;    0.000
316.139; 2235.450;  240.925;    0.000
316.200; 2096.450;  190.925;    0.000
316.261; 2198.450;  179.925;    0.000
316.322; 2246.450;  176.925;    0.000
316.383; 2109.450;  188.925;    0.000
316.444; 2170.450;  228.925;    0.000
316.504; 2164.450;  199.925;    0.000
316.565; 2181.450;  221.925;    0.000
316.626; 2147.450;  204.925;    0.000
316.687; 2183.450;  192.925;    0.000
316.748; 2173.450;  220.925;    0.000
316.809; 2178.450;  175.925;    0.000
316.870; 2229.450;  164.925;    0.000
316.931; 2234.450;  208.925;    0.000
316.992; 2120.450;  224.925;    0.000
317.053; 2203.450;  204.925;    0.000
317.114; 2091.450;  199.925;    0.000
317.175; 2229.450;  230.925;    0.000
317.235; 2073.450;  186.925;    0.000
317.296; 2188.450;  224.925;    0.000
317.357; 2190.450;  154.925;    0.000
317.418; 2186.450;  219.925;    0.000
317.479; 2143.450;  229.925;    0.000
317.540; 2163.450;  201.925;    0.000
317.601; 2160.450;  180.925;    0.000
317.661; 2225.450;  179.925;    0.000
317.722; 2165.450;  193.925;    0.000
317.783; 2060.450;  164.925;    0.000
317.844; 2186.450;  232.925;    0.000
317.904; 2132.450;  222.925;    0.000
317.965; 2169.450;  199.925;    0.000
318.026; 2207.450;  200.925;    0.000
318.087; 2164.450;  182.925;    0.000
318.148; 2149.450;  216.925;    0.000
318.208; 2162.450;  239.925;    0.000
318.269; 2227.450;  163.925;    0.000
318.330; 2154.450;  204.925;    0.000
318.390; 2154.450;  191.925;    0.000
318.451; 2149.450;  200.925;    0.000
318.512; 2169.450;  181.925;    0.000
318.572; 2190.450;  233.925;    0.000
318.633; 2227.450;  220.925;    0.000
318.694; 2195.450;  179.925;    0.000
318.754; 2235.450;  214.925;    0.000
318.815; 2191.450;  214.925;    0.000
318.876; 2213.450;  220.925;    0.000
318.936; 2214.450;  212.925;    0.000
318.997; 2210.450;  201.925;    0.000
319.058; 2198.450;  215.925;    0.000
319.118; 2200.450;  251.925;    0.000
319.179; 2227.450;  240.925;    0.000
319.239; 2161.450;  240.925;    0.000
319.300; 2221.450;  232.925;    0.000
319.361; 2273.450;  211.925;    0.000
319.421; 2168.450;  219.925;    0.000
319.482; 2176.450;  228.925;    0.000
319.542; 2113.450;  216.925;    0.000
319.603; 2143.450;  190.925;    0.000
319.663; 2211.450;  227.925;    0.000
319.724; 2128.450;  191.925;    0.000
319.784; 2182.450;  196.925;    0.000
319.845; 2175.450;  190.925;    0.000
319.905; 2108.450;  221.925;    0.000
319.966; 2162.450;  219.925;    0.000
320.026; 2178.450;  233.925;    0.000
320.087; 2209.450;  204.925;    0.000
320.147; 2116.450;  189.925;    0.000
320.208; 2162.450;  200.925;    0.000
320.268; 2169.450;  217.925;    0.000
320.329; 2161.450;  216.925;    0.000
320.389; 2251.450;  228.925;    0.000
320.449; 2170.450;  236.925;    0.000
320.510; 2237.450;  234.925;    0.000
320.570; 2199.450;  176.925;    0.000
320.631; 2173.450;  228.925;    0.000
320.691; 2158.450;  228.925;    0.000
320.751; 2165.450;  188.925;    0.000
320.812; 2157.450;  223.925;    0.000
320.872; 2228.450;  268.925;    0.000
320.932; 2127.450;  226.925;    0.000
320.993; 2179.450;  216.925;    0.000
321.053; 2149.450;  236.925;    0.000
321.113; 2189.450;  197.925;    0.000
321.174; 2204.450;  218.925;    0.000
321.234; 2208.450;  229.925;    0.000
321.294; 2176.450;  208.925;    0.000
321.355; 2197.450;  248.925;    0.000
321.415; 2249.450;  218.925;    0.000
321.475; 2198.450;  173.925;    0.000
321.535; 2236.450;  234.925;    0.000
321.596; 2148.450;  202.925;    0.000
321.656; 2165.450;  246.925;    0.000
321.716; 2181.450;  235.925;    0.000
321.776; 2199.450;  210.925;    0.000
321.837; 2168.450;  217.925;    0.000
321.897; 2176.450;  215.925;    0.000
321.957; 2215.450;  239.925;    0.000
322.017; 2155.450;  173.925;    0.000
322.077; 2262.450;  263.925;    0.000
322.138; 2232.450;  232.925;    0.000
322.198; 2134.450;  211.925;    0.000
322.258; 2118.450;  213.925;    0.000
322.318; 2110.450;  168.925;    0.000
322.378; 2189.450;  251.925;    0.000
322.438; 2170.450;  212.925;    0.000
322.499; 2155.450;  265.925;    0.000
322.559; 2153.450;  210.925;    0.000
322.619; 2081.450;  242.925;    0.000
322.679; 2105.450;  229.925;    0.000
322.739; 2045.450;  216.925;    0.000
322.799; 2134.450;  238.925;    0.000
322.859; 2165.450;  249.925;    0.000
322.919; 2093.450;  211.925;    0.000
322.979; 2159.450;  244.925;    0.000
323.039; 2157.450;  226.925;    0.000
323.099; 2127.450;  223.925;    0.000
323.159; 2141.450;  232.925;    0.000
323.219; 2137.450;  203.925;    0.000
323.279; 2196.450;  218.925;    0.000
323.339; 2207.450;  231.925;    0.000
323.399; 2262.450;  255.925;    0.000
323.459; 2227.450;  244.925;    0.000
323.519; 2277.450;  213.925;    0.000
323.579; 2056.450;  193.925;    0.000
323.639; 2146.450;  191.925;    0.000
323.699; 2159.450;  199.925;    0.000
323.759; 2208.450;  246.925;    0.000
323.819; 2073.450;  206.925;    0.000
323.879; 2228.450;  238.925;    0.000
323.939; 2135.450;  229.925;    0.000
323.999; 2154.450;  219.925;    0.000
324.059; 2180.450;  177.925;    0.000
324.119; 2135.450;  235.925;    0.000
324.178; 2216.450;  211.925;    0.000
324.238; 2156.450;  168.925;    0.000
324.298; 2165.450;  205.925;    0.000
324.358; 2136.450;  224.925;    0.000
324.418; 2058.450;  235.925;    0.000
324.478; 2042.450;  187.925;    0.000
324.538; 2092.450;  230.925;    0.000
324.597; 2107.450;  206.925;    0.000
324.657; 2074.450;  180.925;    0.000
324.717; 2127.450;  175.925;    0.000
324.777; 2111.450;  169.925;    0.000
324.837; 2126.450;  165.925;    0.000
324.896; 2154.450;  205.925;    0.000
324.956; 2277.450;  216.925;    0.000
325.016; 2154.450;  197.925;    0.000
325.076; 2180.450;  220.925;    0.000
325.135; 2155.450;  242.925;    0.000
325.195; 2055.450;  186.925;    0.000
325.255; 2179.450;  160.925;    0.000
325.315; 2195.450;  198.925;    0.000
325.374; 2136.450;  208.925;    0.000
325.434; 2160.450;  209.925;    0.000
325.494; 2202.450;  191.925;    0.000
325.553; 2128.450;  190.925;    0.000
325.613; 2162.450;  229.925;    0.000
325.673; 2144.450;  172.925;    0.000
325.732; 2150.450;  160.925;    0.000
325.792; 2115.450;  177.925;    0.000
325.852; 2100.450;  201.925;    0.000
325.911; 2109.450;  226.925;    0.000
325.971; 2260.450;  224.925;    0.000
326.031; 2123.450;  202.925;    0.000
326.090; 2096.450;  232.925;    0.000
326.150; 2120.450;  230.925;    0.000
326.209; 2113.450;  201.925;    0.000
326.269; 2114.450;  202.925;    0.000
326.328; 2112.450;  203.925;    0.000
326.388; 2062.450;  194.925;    0.000
326.448; 2150.450;  233.925;    0.000
326.507; 2085.450;  192.925;    0.000
326.567; 2115.450;  163.925;    0.000
326.626; 2136.450;  227.925;    0.000
326.686; 2027.450;  177.925;    0.000
326.745; 2083.450;  210.925;    0.000
326.805; 2117.450;  198.925;    0.000
326.864; 2184.450;  185.925;    0.000
326.924; 2202.450;  255.925;    0.000
326.983; 2122.450;  208.925;    0.000
327.043; 2086.450;  241.925;    0.000
327.102; 2169.450;  183.925;    0.000
327.161; 2088.450;  210.925;    0.000
327.221; 2119.450;  213.925;    0.000
327.280; 1999.450;  194.925;    0.000
327.340; 2111.450;  212.925;    0.000
327.399; 2137.450;  209.925;    0.000
327.459; 2100.450;  229.925;    0.000
327.518; 2038.450;  196.925;    0.000
327.577; 2082.450;  197.925;    0.000
327.637; 2080.450;  210.925;    0.000
327.696; 2127.450;  196.925;    0.000
327.755; 2112.450;  216.925;    0.000
327.815; 2165.450;  240.925;    0.000
327.874; 2197.450;  250.925;    0.000
327.933; 2174.450;  229.925;    0.000
327.993; 2094.450;  202.925;    0.000
328.052; 2112.450;  178.925;    0.000
328.111; 2101.450;  230.925;    0.000
328.171; 2135.450;  207.925;    0.000
328.230; 2089.450;  170.925;    0.000
328.289; 2091.450;  205.925;    0.000
328.349; 2154.450;  235.925;    0.000
328.408; 2147.450;  231.925;    0.000
328.467; 2158.450;  217.925;    0.000
328.526; 2101.450;  239.925;    0.000
328.586; 2190.450;  214.925;    0.000
328.645; 2115.450;  205.925;    0.000
328.704; 2146.450;  211.925;    0.000
328.763; 2103.450;  208.925;    0.000
328.822; 2085.450;  251.925;    0.000
328.882; 2131.450;  211.925;    0.000
328.941; 2168.450;  232.925;    0.000
329.000; 2241.450;  235.925;    0.000
329.059; 2174.450;  222.925;    0.000
329.118; 2169.450;  265.925;    0.000
329.177; 2098.450;  237.925;    0.000
329.237; 2178.450;  258.925;    0.000
329.296; 2235.450;  225.925;    0.000
329.355; 2289.450;  227.925;    0.000
329.414; 2243.450;  212.925;    0.000
329.473; 2257.450;  250.925;    0.000
329.532; 2309.450;  263.925;    0.000
329.591; 2330.450;  212.925;    0.000
329.650; 2353.450;  219.925;    0.000
329.709; 2382.450;  218.925;    0.000
329.768; 2373.450;  195.925;    0.000
329.827; 2567.450;  223.925;    0.000
329.886; 2477.450;  230.925;    0.000
329.945; 2677.450;  211.925;    0.000
330.004; 2887.450;  247.925;    0.000
330.063; 3093.450;  193.925;    0.000
330.122; 3610.450;  229.925;    0.000
330.181; 4065.450;  223.925;    0.000
330.240; 4043.450;  199.925;    0.000
330.299; 3648.450;  211.925;    0.000
330.358; 3089.450;  198.925;    0.000
330.417; 2673.450;  190.925;    0.000
330.476; 2495.450;  237.925;    0.000
330.535; 2428.450;  239.925;    0.000
330.594; 2350.450;  207.925;    0.000
330.653; 2303.450;  193.925;    0.000
330.712; 2209.450;  225.925;    0.000
330.771; 2250.450;  236.925;    0.000
330.830; 2272.450;  219.925;    0.000
330.889; 2233.450;  211.925;    0.000
330.948; 2164.450;  194.925;    0.000
331.006; 2123.450;  190.925;    0.000
331.065; 2079.450;  192.925;    0.000
331.124; 2122.450;  195.925;    0.000
331.183; 2043.450;  191.925;    0.000
331.242; 2072.450;  203.925;    0.000
331.301; 2092.450;  183.925;    0.000
331.359; 2064.450;  196.925;    0.000
331.418; 2091.450;  209.925;    0.000
331.477; 2086.450;  255.925;    0.000
331.536; 2098.450;  237.925;    0.000
331.595; 1990.450;  217.925;    0.000
331.653; 2024.450;  198.925;    0.000
331.712; 1974.450;  194.925;    0.000
331.771; 2007.450;  229.925;    0.000
331.830; 1997.450;  254.925;    0.000
331.888; 2035.450;  218.925;    0.000
331.947; 2000.450;  211.925;    0.000
332.006; 2105.450;  261.925;    0.000
332.065; 1960.450;  204.925;    0.000
332.123; 2035.450;  225.925;    0.000
332.182; 2020.450;  193.925;    0.000
332.241; 2050.450;  201.925;    0.000
332.299; 1983.450;  182.925;    0.000
332.358; 2034.450;  244.925;    0.000
332.417; 1946.450;  218.925;    0.000
332.475; 1976.450;  218.925;    0.000
332.534; 2015.450;  228.925;    0.000
332.592; 2026.450;  199.925;    0.000
332.651; 2007.450;  204.925;    0.000
332.710; 2007.450;  217.925;    0.000
332.768; 2074.450;  195.925;    0.000
332.827; 2022.450;  182.925;    0.000
332.885; 2137.450;  247.925;    0.000
332.944; 1938.450;  170.925;    0.000
333.003; 1924.450;  200.925;    0.000
333.061; 2057.450;  243.925;    0.000
333.120; 1969.450;  235.925;    0.000
333.178; 2033.450;  195.925;    0.000
333.237; 2027.450;  217.925;    0.000
333.295; 2064.450;  252.925;    0.000
333.354; 2031.450;  201.925;    0.000
333.412; 2003.450;  181.925;    0.000
333.471; 2037.450;  239.925;    0.000
333.529; 2070.450;  214.925;    0.000
333.588; 2132.450;  232.925;    0.000
333.646; 1998.450;  202.925;    0.000
333.705; 2156.450;  232.925;    0.000
333.763; 2099.450;  215.925;    0.000
333.822; 2061.450;  187.925;    0.000
333.880; 2080.450;  186.925;    0.000
333.938; 2075.450;  185.925;    0.000
333.997; 2064.450;  234.925;    0.000
334.055; 2092.450;  255.925;    0.000
334.114; 2125.450;  225.925;    0.000
334.172; 1934.450;  209.925;    0.000
334.230; 2012.450;  194.925;    0.000
334.289; 2042.450;  213.925;    0.000
334.347; 2044.450;  235.925;    0.000
334.405; 2103.450;  242.925;    0.000
334.464; 2049.450;  208.925;    0.000
334.522; 2038.450;  197.925;    0.000
334.580; 1997.450;  204.925;    0.000
334.639; 2062.450;  217.925;    0.000
334.697; 1980.450;  183.925;    0.000
334.755; 2017.450;  196.925;    0.000
334.814; 1973.450;  216.925;    0.000
334.872; 2015.450;  190.925;    0.000
334.930; 1951.450;  162.925;    0.000
334.988; 1974.450;  261.925;    0.000
335.047; 1967.450;  220.925;    0.000
335.105; 2011.450;  190.925;    0.000
335.163; 1996.450;  201.925;    0.000
335.221; 2012.450;  213.925;    0.000
335.280; 2033.450;  202.925;    0.000
335.338; 2100.450;  210.925;    0.000
335.396; 2066.450;  255.925;    0.000
335.454; 2050.450;  216.925;    0.000
335.512; 2040.450;  242.925;    0.000
335.570; 2107.450;  227.925;    0.000
335.629; 2042.450;  225.925;    0.000
335.687; 2119.450;  227.925;    0.000
335.745; 2151.450;  194.925;    0.000
335.803; 2062.450;  221.925;    0.000
335.861; 2134.450;  217.925;    0.000
335.919; 2099.450;  214.925;    0.000
335.977; 2014.450;  209.925;    0.000
336.035; 1996.450;  215.925;    0.000
336.094; 2035.450;  198.925;    0.000
336.152; 2075.450;  222.925;    0.000
336.210; 2098.450;  225.925;    0.000
336.268; 2063.450;  234.925;    0.000
336.326; 2148.450;  209.925;    0.000
336.384; 2120.450;  271.925;    0.000
336.442; 2090.450;  207.925;    0.000
336.500; 2115.450;  226.925;    0.000
336.558; 2006.450;  219.925;    0.000
336.616; 2096.450;  260.925;    0.000
336.674; 2070.450;  205.925;    0.000
336.732; 2039.450;  225.925;    0.000
336.790; 2060.450;  191.925;    0.000
336.848; 1993.450;  219.925;    0.000
336.906; 1972.450;  230.925;    0.000
336.964; 2043.450;  226.925;    0.000
337.022; 2036.450;  266.925;    0.000
337.080; 2128.450;  231.925;    0.000
337.138; 2105.450;  249.925;    0.000
337.195; 2024.450;  207.925;    0.000
337.253; 2064.450;  207.925;    0.000
337.311; 1970.450;  225.925;    0.000
337.369; 2008.450;  211.925;    0.000
337.427; 2077.450;  196.925;    0.000
337.485; 2058.450;  269.925;    0.000
337.543; 2024.450;  227.925;    0.000
337.601; 1947.450;  260.925;    0.000
337.658; 1982.450;  237.925;    0.000
337.716; 2021.450;  222.925;    0.000
337.774; 2015.450;  256.925;    0.000
337.832; 2070.450;  223.925;    0.000
337.890; 1950.450;  188.925;    0.000
337.947; 1949.450;  212.925;    0.000
338.005; 1981.450;  217.925;    0.000
338.063; 1992.450;  200.925;    0.000
338.121; 1963.450;  217.925;    0.000
338.178; 1991.450;  236.925;    0.000
338.236; 2043.450;  218.925;    0.000
338.294; 2033.450;  238.925;    0.000
338.352; 2028.450;  266.925;    0.000
338.409; 1998.450;  240.925;    0.000
338.467; 2112.450;  210.925;    0.000
338.525; 2048.450;  255.925;    0.000
338.583; 1975.450;  239.925;    0.000
338.640; 1932.450;  243.925;    0.000
338.698; 2005.450;  204.925;    0.000
338.756; 1952.450;  219.925;    0.000
338.813; 2032.450;  227.925;    0.000
338.871; 2034.450;  227.925;    0.000
338.928; 2020.450;  211.925;    0.000
338.986; 1965.450;  254.925;    0.000
339.044; 1956.450;  207.925;    0.000
339.101; 2004.450;  229.925;    0.000
339.159; 2007.450;  237.925;    0.000
339.216; 2042.450;  231.925;    0.000
339.274; 1979.450;  301.925;    0.000
339.332; 2046.450;  259.925;    0.000
339.389; 2002.450;  258.925;    0.000
339.447; 2002.450;  226.925;    0.000
339.504; 1971.450;  229.925;    0.000
339.562; 2022.450;  244.925;    0.000
339.619; 2015.450;  265.925;    0.000
339.677; 2081.450;  253.925;    0.000
339.734; 2017.450;  191.925;    0.000
339.792; 2028.450;  238.925;    0.000
339.849; 2089.450;  236.925;    0.000
339.907; 2076.450;  254.925;    0.000
339.964; 2057.450;  196.925;    0.000
340.022; 2051.450;  247.925;    0.000
340.079; 1980.450;  275.925;    0.000
340.137; 1923.450;  248.925;    0.000
340.194; 1988.450;  263.925;    0.000
340.252; 2053.450;  266.925;    0.000
340.309; 2018.450;  211.925;    0.000
340.366; 1996.450;  237.925;    0.000
340.424; 1990.450;  260.925;    0.000
340.481; 1974.450;  255.925;    0.000
340.538; 1883.450;  235.925;    0.000
340.596; 1997.450;  225.925;    0.000
340.653; 2032.450;  230.925;    0.000
340.711; 2025.450;  272.925;    0.000
340.768; 2017.450;  253.925;    0.000
340.825; 2072.450;  201.925;    0.000
340.883; 2053.450;  232.925;    0.000
340.940; 2034.450;  247.925;    0.000
340.997; 2007.450;  244.925;    0.000
341.054; 1963.450;  244.925;    0.000
341.112; 2044.450;  258.925;    0.000
341.169; 1993.450;  238.925;    0.000
341.226; 2045.450;  213.925;    0.000
341.284; 2130.450;  240.925;    0.000
341.341; 2076.450;  194.925;    0.000
341.398; 1998.450;  191.925;    0.000
341.455; 2059.450;  227.925;    0.000
341.512; 2141.450;  238.925;    0.000
341.570; 2069.450;  236.925;    0.000
341.627; 2020.450;  241.925;    0.000
341.684; 2003.450;  225.925;    0.000
341.741; 2112.450;  299.925;    0.000
341.798; 2131.450;  265.925;    0.000
341.856; 2035.450;  230.925;    0.000
341.913; 2130.450;  234.925;    0.000
341.970; 1986.450;  260.925;    0.000
342.027; 2068.450;  255.925;    0.000
342.084; 2020.450;  260.925;    0.000
342.141; 1996.450;  263.925;    0.000
342.198; 2039.450;  245.925;    0.000
342.255; 2043.450;  210.925;    0.000
342.313; 2130.450;  251.925;    0.000
342.370; 2142.450;  234.925;    0.000
342.427; 2038.450;  249.925;    0.000
342.484; 2038.450;  254.925;    0.000
342.541; 1994.450;  229.925;    0.000
342.598; 1993.450;  255.925;    0.000
342.655; 2043.450;  225.925;    0.000
342.712; 2069.450;  224.925;    0.000
342.769; 2041.450;  215.925;    0.000
342.826; 1951.450;  240.925;    0.000
342.883; 2055.450;  233.925;    0.000
342.940; 1950.450;  212.925;    0.000
342.997; 2041.450;  236.925;    0.000
343.054; 2027.450;  255.925;    0.000
343.111; 2048.450;  228.925;    0.000
343.168; 1990.450;  230.925;    0.000
343.225; 2085.450;  258.925;    0.000
343.282; 2135.450;  202.925;    0.000
343.339; 2110.450;  253.925;    0.000
343.395; 2058.450;  232.925;    0.000
343.452; 2127.450;  253.925;    0.000
343.509; 2047.450;  213.925;    0.000
343.566; 2206.450;  259.925;    0.000
343.623; 2097.450;  244.925;    0.000
343.680; 2089.450;  232.925;    0.000
343.737; 2108.450;  222.925;    0.000
343.794; 2104.450;  204.925;    0.000
343.850; 2163.450;  249.925;    0.000
343.907; 2097.450;  212.925;    0.000
343.964; 2187.450;  226.925;    0.000
344.021; 2088.450;  251.925;    0.000
344.078; 2072.450;  246.925;    0.000
344.134; 2122.450;  218.925;    0.000
344.191; 2167.450;  244.925;    0.000
344.248; 2226.450;  211.925;    0.000
344.305; 2144.450;  221.925;    0.000
344.361; 2210.450;  247.925;    0.000
344.418; 2171.450;  265.925;    0.000
344.475; 2106.450;  254.925;    0.000
344.532; 2107.450;  233.925;    0.000
344.588; 2164.450;  236.925;    0.000
344.645; 2151.450;  249.925;    0.000
344.702; 2140.450;  220.925;    0.000
344.758; 2153.450;  255.925;    0.000
344.815; 2236.450;  236.925;    0.000
344.872; 2110.450;  218.925;    0.000
344.928; 2126.450;  230.925;    0.000
344.985; 2138.450;  222.925;    0.000
345.042; 2157.450;  199.925;    0.000
345.098; 2086.450;  226.925;    0.000
345.155; 2077.450;  245.925;    0.000
345.212; 2095.450;  225.925;    0.000
345.268; 2103.450;  237.925;    0.000
345.325; 2113.450;  213.925;    0.000
345.381; 2237.450;  267.925;    0.000
345.438; 2191.450;  240.925;    0.000
345.495; 2142.450;  254.925;    0.000
345.551; 2254.450;  248.925;    0.000
345.608; 2073.450;  196.925;    0.000
345.664; 2097.450;  245.925;    0.000
345.721; 2174.450;  252.925;    0.000
345.777; 2085.450;  245.925;    0.000
345.834; 2111.450;  210.925;    0.000
345.890; 2105.450;  244.925;    0.000
345.947; 2063.450;  238.925;    0.000
346.003; 2153.450;  224.925;    0.000
346.060; 2039.450;  206.925;    0.000
346.116; 2070.450;  237.925;    0.000
346.173; 2195.450;  242.925;    0.000
346.229; 2194.450;  269.925;    0.000
346.285; 2175.450;  262.925;    0.000
346.342; 2276.450;  263.925;    0.000
346.398; 2175.450;  224.925;    0.000
346.455; 2298.450;  237.925;    0.000
346.511; 2217.450;  216.925;    0.000
346.567; 2192.450;  211.925;    0.000
346.624; 2198.450;  225.925;    0.000
346.680; 2132.450;  242.925;    0.000
346.737; 2175.450;  244.925;    0.000
346.793; 2211.450;  260.925;    0.000
346.849; 2258.450;  251.925;    0.000
346.906; 2227.450;  260.925;    0.000
346.962; 2304.450;  267.925;    0.000
347.018; 2212.450;  246.925;    0.000
347.074; 2206.450;  272.925;    0.000
347.131; 2203.450;  211.925;    0.000
347.187; 2150.450;  240.925;    0.000
347.243; 2230.450;  233.925;    0.000
347.300; 2174.450;  225.925;    0.000
347.356; 2229.450;  236.925;    0.000
347.412; 2234.450;  237.925;    0.000
347.468; 2253.450;  284.925;    0.000
347.524; 2181.450;  252.925;    0.000
347.581; 2203.450;  278.925;    0.000
347.637; 2253.450;  262.925;    0.000
347.693; 2185.450;  268.925;    0.000
347.749; 2229.450;  260.925;    0.000
347.805; 2195.450;  224.925;    0.000
347.862; 2244.450;  243.925;    0.000
347.918; 2101.450;  257.925;    0.000
347.974; 2235.450;  248.925;    0.000
348.030; 2157.450;  242.925;    0.000
348.086; 2274.450;  234.925;    0.000
348.142; 2312.450;  239.925;    0.000
348.198; 2211.450;  260.925;    0.000
348.254; 2222.450;  262.925;    0.000
348.311; 2229.450;  263.925;    0.000
348.367; 2203.450;  235.925;    0.000
348.423; 2150.450;  205.925;    0.000
348.479; 2116.450;  234.925;    0.000
348.535; 2237.450;  257.925;    0.000
348.591; 2235.450;  267.925;    0.000
348.647; 2192.450;  243.925;    0.000
348.703; 2235.450;  278.925;    0.000
348.759; 2100.450;  259.925;    0.000
348.815; 2189.450;  288.925;    0.000
348.871; 2176.450;  269.925;    0.000
348.927; 2248.450;  239.925;    0.000
348.983; 2202.450;  289.925;    0.000
349.039; 2190.450;  221.925;    0.000
349.095; 2237.450;  252.925;    0.000
349.151; 2220.450;  226.925;    0.000
349.207; 2184.450;  263.925;    0.000
349.263; 2197.450;  194.925;    0.000
349.319; 2143.450;  212.925;    0.000
349.374; 2183.450;  236.925;    0.000
349.430; 2210.450;  229.925;    0.000
349.486; 2292.450;  247.925;    0.000
349.542; 2293.450;  263.925;    0.000
349.598; 2272.450;  248.925;    0.000
349.654; 2248.450;  252.925;    0.000
349.710; 2277.450;  230.925;    0.000
349.766; 2282.450;  201.925;    0.000
349.821; 2261.450;  229.925;    0.000
349.877; 2248.450;  282.925;    0.000
349.933; 2230.450;  240.925;    0.000
349.989; 2251.450;  251.925;    0.000
350.045; 2185.450;  240.925;    0.000
350.100; 2247.450;  256.925;    0.000
350.156; 2308.450;  243.925;    0.000
350.212; 2223.450;  250.925;    0.000
350.268; 2242.450;  251.925;    0.000
350.323; 2177.450;  208.925;    0.000
350.379; 2242.450;  244.925;    0.000
350.435; 2270.450;  237.925;    0.000
350.491; 2276.450;  201.925;    0.000
350.546; 2327.450;  225.925;    0.000
350.602; 2271.450;  260.925;    0.000
350.658; 2227.450;  224.925;    0.000
350.713; 2267.450;  264.925;    0.000
350.769; 2166.450;  196.925;    0.000
350.825; 2194.450;  202.925;    0.000
350.880; 2224.450;  232.925;    0.000
350.936; 2276.450;  242.925;    0.000
350.992; 2242.450;  238.925;    0.000
351.047; 2225.450;  242.925;    0.000
351.103; 2257.450;  199.925;    0.000
351.158; 2312.450;  242.925;    0.000
351.214; 2206.450;  225.925;    0.000
351.270; 2177.450;  197.925;    0.000
351.325; 2289.450;  231.925;    0.000
351.381; 2275.450;  215.925;    0.000
351.436; 2326.450;  233.925;    0.000
351.492; 2293.450;  216.925;    0.000
351.547; 2353.450;  244.925;    0.000
351.603; 2285.450;  249.925;    0.000
351.658; 2308.450;  249.925;    0.000
351.714; 2265.450;  222.925;    0.000
351.769; 2297.450;  222.925;    0.000
351.825; 2325.450;  226.925;    0.000
351.880; 2387.450;  238.925;    0.000
351.936; 2316.450;  230.925;    0.000
351.991; 2329.450;  243.925;    0.000
352.047; 2341.450;  201.925;    0.000
352.102; 2327.450;  243.925;    0.000
352.158; 2234.450;  193.925;    0.000
352.213; 2228.450;  219.925;    0.000
352.268; 2273.450;  205.925;    0.000
352.324; 2325.450;  246.925;    0.000
352.379; 2338.450;  247.925;    0.000
352.434; 2311.450;  252.925;    0.000
352.490; 2296.450;  205.925;    0.000
352.545; 2301.450;  262.925;    0.000
352.601; 2293.450;  229.925;    0.000
352.656; 2259.450;  207.925;    0.000
352.711; 2328.450;  228.925;    0.000
352.767; 2230.450;  216.925;    0.000
352.822; 2235.450;  219.925;    0.000
352.877; 2309.450;  234.925;    0.000
352.932; 2220.450;  249.925;    0.000
352.988; 2200.450;  196.925;    0.000
353.043; 2301.450;  228.925;    0.000
353.098; 2266.450;  231.925;    0.000
353.153; 2361.450;  235.925;    0.000
353.209; 2264.450;  250.925;    0.000
353.264; 2318.450;  212.925;    0.000
353.319; 2271.450;  234.925;    0.000
353.374; 2199.450;  245.925;    0.000
353.430; 2233.450;  261.925;    0.000
353.485; 2342.450;  249.925;    0.000
353.540; 2267.450;  260.925;    0.000
353.595; 2282.450;  219.925;    0.000
353.650; 2234.450;  242.925;    0.000
353.705; 2265.450;  244.925;    0.000
353.761; 2271.450;  242.925;    0.000
353.816; 2354.450;  214.925;    0.000
353.871; 2395.450;  237.925;    0.000
353.926; 2265.450;  233.925;    0.000
353.981; 2215.450;  250.925;    0.000
354.036; 2328.450;  239.925;    0.000
354.091; 2317.450;  289.925;    0.000
354.146; 2322.450;  282.925;    0.000
354.201; 2295.450;  244.925;    0.000
354.256; 2264.450;  257.925;    0.000
354.311; 2398.450;  305.925;    0.000
354.367; 2373.450;  220.925;    0.000
354.422; 2313.450;  261.925;    0.000
354.477; 2344.450;  212.925;    0.000
354.532; 2266.450;  254.925;    0.000
354.587; 2303.450;  252.925;    0.000
354.642; 2235.450;  210.925;    0.000
354.697; 2309.450;  232.925;    0.000
354.751; 2300.450;  254.925;    0.000
354.806; 2235.450;  233.925;    0.000
354.861; 2284.450;  244.925;    0.000
354.916; 2314.450;  235.925;    0.000
354.971; 2245.450;  258.925;    0.000
355.026; 2336.450;  251.925;    0.000
355.081; 2226.450;  254.925;    0.000
355.136; 2286.450;  212.925;    0.000
355.191; 2273.450;  211.925;    0.000
355.246; 2211.450;  237.925;    0.000
355.301; 2380.450;  255.925;    0.000
355.355; 2309.450;  231.925;    0.000
355.410; 2327.450;  224.925;    0.000
355.465; 2301.450;  235.925;    0.000
355.520; 2292.450;  244.925;    0.000
355.575; 2338.450;  267.925;    0.000
355.630; 2317.450;  255.925;    0.000
355.684; 2258.450;  254.925;    0.000
355.739; 2283.450;  217.925;    0.000
355.794; 2326.450;  206.925;    0.000
355.849; 2239.450;  221.925;    0.000
355.904; 2311.450;  257.925;    0.000
355.958; 2283.450;  221.925;    0.000
356.013; 2268.450;  192.925;    0.000
356.068; 2293.450;  267.925;    0.000
356.123; 2306.450;  218.925;    0.000
356.177; 2278.450;  236.925;    0.000
356.232; 2332.450;  236.925;    0.000
356.287; 2396.450;  246.925;    0.000
356.341; 2399.450;  241.925;    0.000
356.396; 2257.450;  219.925;    0.000
356.451; 2421.450;  244.925;    0.000
356.505; 2262.450;  248.925;    0.000
356.560; 2328.450;  267.925;    0.000
356.615; 2304.450;  258.925;    0.000
356.669; 2357.450;  291.925;    0.000
356.724; 2269.450;  272.925;    0.000
356.778; 2345.450;  244.925;    0.000
356.833; 2232.450;  223.925;    0.000
356.888; 2274.450;  245.925;    0.000
356.942; 2381.450;  221.925;    0.000
356.997; 2315.450;  254.925;    0.000
357.051; 2297.450;  244.925;    0.000
357.106; 2312.450;  227.925;    0.000
357.160; 2213.450;  176.925;    0.000
357.215; 2331.450;  234.925;    0.000
357.269; 2242.450;  233.925;    0.000
357.324; 2345.450;  232.925;    0.000
357.378; 2326.450;  211.925;    0.000
357.433; 2269.450;  252.925;    0.000
357.487; 2274.450;  227.925;    0.000
357.542; 2329.450;  246.925;    0.000
357.596; 2373.450;  260.925;    0.000
357.651; 2333.450;  301.925;    0.000
357.705; 2313.450;  230.925;    0.000
357.760; 2293.450;  211.925;    0.000
357.814; 2265.450;  265.925;    0.000
357.868; 2315.450;  220.925;    0.000
357.923; 2313.450;  220.925;    0.000
357.977; 2257.450;  245.925;    0.000
358.032; 2301.450;  247.925;    0.000
358.086; 2387.450;  242.925;    0.000
358.140; 2240.450;  270.925;    0.000
358.195; 2267.450;  242.925;    0.000
358.249; 2343.450;  238.925;    0.000
358.303; 2281.450;  285.925;    0.000
358.358; 2274.450;  265.925;    0.000
358.412; 2282.450;  265.925;    0.000
358.466; 2274.450;  257.925;    0.000
358.521; 2248.450;  251.925;    0.000
358.575; 2325.450;  254.925;    0.000
358.629; 2299.450;  278.925;    0.000
358.683; 2247.450;  288.925;    0.000
358.738; 2219.450;  302.925;    0.000
358.792; 2268.450;  239.925;    0.000
358.846; 2283.450;  293.925;    0.000
358.900; 2320.450;  271.925;    0.000
358.954; 2284.450;  300.925;    0.000
359.009; 2372.450;  279.925;    0.000
359.063; 2342.450;  249.925;    0.000
359.117; 2332.450;  264.925;    0.000
359.171; 2420.450;  279.925;    0.000
359.225; 2410.450;  276.925;    0.000
359.280; 2366.450;  237.925;    0.000
359.334; 2361.450;  280.925;    0.000
359.388; 2306.450;  282.925;    0.000
359.442; 2248.450;  243.925;    0.000
359.496; 2269.450;  204.925;    0.000
359.550; 2309.450;  308.925;    0.000
359.604; 2309.450;  264.925;    0.000
359.658; 2279.450;  247.925;    0.000
359.712; 2330.450;  273.925;    0.000
359.766; 2339.450;  212.925;    0.000
359.820; 2293.450;  228.925;    0.000
359.875; 2283.450;  248.925;    0.000
359.929; 2338.450;  271.925;    0.000
359.983; 2299.450;  274.925;    0.000
360.037; 2248.450;  262.925;    0.000
360.091; 2331.450;  302.925;    0.000
360.145; 2288.450;  244.925;    0.000
360.199; 2283.450;  253.925;    0.000
360.253; 2262.450;  285.925;    0.000
360.306; 2268.450;  287.925;    0.000
360.360; 2312.450;  267.925;    0.000
360.414; 2356.450;  250.925;    0.000
360.468; 2258.450;  270.925;    0.000
360.522; 2225.450;  276.925;    0.000
360.576; 2236.450;  269.925;    0.000
360.630; 2386.450;  281.925;    0.000
360.684; 2340.450;  291.925;    0.000
360.738; 2315.450;  325.925;    0.000
360.792; 2281.450;  320.925;    0.000
360.846; 2254.450;  276.925;    0.000
360.899; 2343.450;  314.925;    0.000
360.953; 2314.450;  275.925;    0.000
361.007; 2314.450;  292.925;    0.000
361.061; 2317.450;  278.925;    0.000
361.115; 2245.450;  264.925;    0.000
361.168; 2326.450;  317.925;    0.000
361.222; 2215.450;  277.925;    0.000
361.276; 2329.450;  274.925;    0.000
361.330; 2303.450;  269.925;    0.000
361.384; 2263.450;  280.925;    0.000
361.437; 2385.450;  304.925;    0.000
361.491; 2224.450;  256.925;    0.000
361.545; 2315.450;  293.925;    0.000
361.599; 2378.450;  284.925;    0.000
361.652; 2246.450;  274.925;    0.000
361.706; 2253.450;  284.925;    0.000
361.760; 2304.450;  260.925;    0.000
361.813; 2272.450;  272.925;    0.000
361.867; 2293.450;  300.925;    0.000
361.921; 2331.450;  275.925;    0.000
361.974; 2255.450;  258.925;    0.000
362.028; 2342.450;  248.925;    0.000
362.082; 2280.450;  252.925;    0.000
362.135; 2267.450;  240.925;    0.000
362.189; 2232.450;  259.925;    0.000
362.242; 2258.450;  267.925;    0.000
362.296; 2271.450;  280.925;    0.000
362.350; 2280.450;  282.925;    0.000
362.403; 2254.450;  288.925;    0.000
362.457; 2328.450;  253.925;    0.000
362.510; 2261.450;  323.925;    0.000
362.564; 2184.450;  286.925;    0.000
362.617; 2316.450;  317.925;    0.000
362.671; 2255.450;  286.925;    0.000
362.724; 2248.450;  274.925;    0.000
362.778; 2307.450;  295.925;    0.000
362.831; 2290.450;  289.925;    0.000
362.885; 2270.450;  318.925;    0.000
362.938; 2174.450;  271.925;    0.000
362.992;  362.450;  285.925;    0.000
363.045;  260.450;  291.925;    0.000
363.099;  251.450;  276.925;    0.000
363.152;  315.450;  309.925;    0.000
363.205;  287.450;  263.925;    0.000
363.259;  287.450;  288.925;    0.000
363.312;  292.450;  333.925;    0.000
363.366;  290.450;  328.925;    0.000
363.419;  302.450;  328.925;    0.000
363.472;  272.450;  295.925;    0.000
363.526;  320.450;  334.925;    0.000
363.579;  272.450;  312.925;    0.000
363.632;  291.450;  274.925;    0.000
363.686;  273.450;  282.925;    0.000
363.739;  242.450;  289.925;    0.000
363.792;  296.450;  287.925;    0.000

