
Integration time [ms]:   0.300
Averaging Nr. [scans]: 1
Smoothing Nr. [pixels]: 0
Data measured with spectrometer [name]: UV2
Wave   ;Sample   ;Dark     ;Reference
[nm]   ;[counts] ;[counts] ;[counts] 

353.533;  214.725;  235.675;    0.000
353.597;  254.725;  239.675;    0.000
353.660;  195.725;  203.675;    0.000
353.723;  192.725;  225.675;    0.000
353.786;  218.725;  178.675;    0.000
353.850;  201.725;  199.675;    0.000
353.913;  203.725;  179.675;    0.000
353.976;  214.725;  209.675;    0.000
354.039;  200.725;  188.675;    0.000
354.102;  233.725;  219.675;    0.000
354.166;  203.725;  237.675;    0.000
354.229;  202.725;  179.675;    0.000
354.292;  159.725;  210.675;    0.000
354.355;  202.725;  214.675;    0.000
354.418;  177.725;  173.675;    0.000
354.481;  226.725;  170.675;    0.000
354.545;  781.725;  229.675;    0.000
354.608;  808.725;  233.675;    0.000
354.671;  781.725;  183.675;    0.000
354.734;  835.725;  208.675;    0.000
354.797;  823.725;  263.675;    0.000
354.860;  855.725;  208.675;    0.000
354.923;  828.725;  202.675;    0.000
354.986;  837.725;  207.675;    0.000
355.050;  908.725;  180.675;    0.000
355.113;  890.725;  189.675;    0.000
355.176;  856.725;  214.675;    0.000
355.239;  882.725;  199.675;    0.000
355.302;  935.725;  229.675;    0.000
355.365;  920.725;  220.675;    0.000
355.428;  969.725;  196.675;    0.000
355.491;  990.725;  243.675;    0.000
355.554;  949.725;  191.675;    0.000
355.617;  986.725;  200.675;    0.000
355.680; 1006.725;  190.675;    0.000
355.743; 1041.725;  236.675;    0.000
355.806; 1019.725;  193.675;    0.000
355.869; 1045.725;  223.675;    0.000
355.932; 1019.725;  208.675;    0.000
355.995; 1049.725;  231.675;    0.000
356.058; 1063.725;  202.675;    0.000
356.121; 1130.725;  198.675;    0.000
356.184; 1067.725;  209.675;    0.000
356.247; 1054.725;  224.675;    0.000
356.310; 1039.725;  149.675;    0.000
356.373; 1090.725;  211.675;    0.000
356.436; 1091.725;  195.675;    0.000
356.498; 1106.725;  176.675;    0.000
356.561; 1173.725;  186.675;    0.000
356.624; 1126.725;  184.675;    0.000
356.687; 1057.725;  179.675;    0.000
356.750; 1108.725;  213.675;    0.000
356.813; 1167.725;  172.675;    0.000
356.876; 1101.725;  189.675;    0.000
356.939; 1141.725;  204.675;    0.000
357.001; 1151.725;  195.675;    0.000
357.064; 1124.725;  202.675;    0.000
357.127; 1104.725;  176.675;    0.000
357.190; 1205.725;  186.675;    0.000
357.253; 1187.725;  178.675;    0.000
357.316; 1146.725;  187.675;    0.000
357.378; 1134.725;  181.675;    0.000
357.441; 1126.725;  142.675;    0.000
357.504; 1161.725;  161.675;    0.000
357.567; 1122.725;  113.675;    0.000
357.629; 1145.725;  193.675;    0.000
357.692; 1177.725;  144.675;    0.000
357.755; 1149.725;  177.675;    0.000
357.818; 1133.725;  144.675;    0.000
357.880; 1197.725;  182.675;    0.000
357.943; 1179.725;  166.675;    0.000
358.006; 1205.725;  184.675;    0.000
358.069; 1199.725;  200.675;    0.000
358.131; 1161.725;  148.675;    0.000
358.194; 1217.725;  155.675;    0.000
358.257; 1216.725;  173.675;    0.000
358.319; 1197.725;  178.675;    0.000
358.382; 1252.725;  184.675;    0.000
358.445; 1237.725;  156.675;    0.000
358.507; 1241.725;  199.675;    0.000
358.570; 1198.725;  182.675;    0.000
358.633; 1219.725;  167.675;    0.000
358.695; 1186.725;  124.675;    0.000
358.758; 1191.725;  164.675;    0.000
358.821; 1197.725;  147.675;    0.000
358.883; 1215.725;  153.675;    0.000
358.946; 1188.725;  171.675;    0.000
359.008; 1243.725;  196.675;    0.000
359.071; 1292.725;  178.675;    0.000
359.134; 1211.725;  123.675;    0.000
359.196; 1240.725;  166.675;    0.000
359.259; 1236.725;  173.675;    0.000
359.321; 1226.725;  164.675;    0.000
359.384; 1256.725;  155.675;    0.000
359.446; 1310.725;  157.675;    0.000
359.509; 1258.725;  153.675;    0.000
359.571; 1256.725;  184.675;    0.000
359.634; 1227.725;  138.675;    0.000
359.696; 1304.725;  169.675;    0.000
359.759; 1317.725;  152.675;    0.000
359.821; 1253.725;  150.675;    0.000
359.884; 1288.725;  166.675;    0.000
359.946; 1270.725;  165.675;    0.000
360.009; 1338.725;  176.675;    0.000
360.071; 1295.725;  148.675;    0.000
360.134; 1333.725;  193.675;    0.000
360.196; 1274.725;  151.675;    0.000
360.259; 1341.725;  182.675;    0.000
360.321; 1275.725;  168.675;    0.000
360.384; 1246.725;  176.675;    0.000
360.446; 1323.725;  156.675;    0.000
360.508; 1283.725;  183.675;    0.000
360.571; 1295.725;  193.675;    0.000
360.633; 1388.725;  184.675;    0.000
360.696; 1325.725;  136.675;    0.000
360.758; 1360.725;  186.675;    0.000
360.820; 1258.725;  127.675;    0.000
360.883; 1344.725;  146.675;    0.000
360.945; 1344.725;  144.675;    0.000
361.007; 1321.725;  160.675;    0.000
361.070; 1318.725;  175.675;    0.000
361.132; 1325.725;  195.675;    0.000
361.194; 1318.725;  167.675;    0.000
361.257; 1344.725;  140.675;    0.000
361.319; 1367.725;  154.675;    0.000
361.381; 1383.725;  181.675;    0.000
361.443; 1319.725;  137.675;    0.000
361.506; 1419.725;  159.675;    0.000
361.568; 1316.725;  144.675;    0.000
361.630; 1334.725;  189.675;    0.000
361.693; 1366.725;  162.675;    0.000
361.755; 1384.725;  156.675;    0.000
361.817; 1454.725;  225.675;    0.000
361.879; 1372.725;  172.675;    0.000
361.941; 1365.725;  138.675;    0.000
362.004; 1427.725;  163.675;    0.000
362.066; 1386.725;  164.675;    0.000
362.128; 1467.725;  160.675;    0.000
362.190; 1474.725;  168.675;    0.000
362.252; 1401.725;  177.675;    0.000
362.315; 1384.725;  169.675;    0.000
362.377; 1379.725;  188.675;    0.000
362.439; 1394.725;  158.675;    0.000
362.501; 1425.725;  168.675;    0.000
362.563; 1459.725;  168.675;    0.000
362.625; 1426.725;  188.675;    0.000
362.688; 1446.725;  162.675;    0.000
362.750; 1441.725;  209.675;    0.000
362.812; 1423.725;  154.675;    0.000
362.874; 1476.725;  190.675;    0.000
362.936; 1415.725;  190.675;    0.000
362.998; 1441.725;  143.675;    0.000
363.060; 1533.725;  186.675;    0.000
363.122; 1452.725;  167.675;    0.000
363.184; 1476.725;  163.675;    0.000
363.246; 1446.725;  169.675;    0.000
363.308; 1441.725;  165.675;    0.000
363.370; 1461.725;  177.675;    0.000
363.432; 1426.725;  139.675;    0.000
363.494; 1454.725;  177.675;    0.000
363.556; 1389.725;  164.675;    0.000
363.618; 1435.725;  170.675;    0.000
363.680; 1455.725;  146.675;    0.000
363.742; 1505.725;  179.675;    0.000
363.804; 1467.725;  188.675;    0.000
363.866; 1521.725;  186.675;    0.000
363.928; 1468.725;  147.675;    0.000
363.990; 1432.725;  185.675;    0.000
364.052; 1423.725;  197.675;    0.000
364.114; 1458.725;  150.675;    0.000
364.176; 1473.725;  217.675;    0.000
364.238; 1530.725;  159.675;    0.000
364.300; 1470.725;  192.675;    0.000
364.362; 1426.725;  130.675;    0.000
364.424; 1433.725;  131.675;    0.000
364.486; 1519.725;  178.675;    0.000
364.548; 1453.725;  203.675;    0.000
364.609; 1543.725;  192.675;    0.000
364.671; 1497.725;  169.675;    0.000
364.733; 1477.725;  169.675;    0.000
364.795; 1436.725;  157.675;    0.000
364.857; 1499.725;  171.675;    0.000
364.919; 1492.725;  134.675;    0.000
364.981; 1509.725;  162.675;    0.000
365.042; 1513.725;  136.675;    0.000
365.104; 1516.725;  152.675;    0.000
365.166; 1516.725;  149.675;    0.000
365.228; 1486.725;  195.675;    0.000
365.290; 1505.725;  147.675;    0.000
365.351; 1495.725;  138.675;    0.000
365.413; 1506.725;  168.675;    0.000
365.475; 1522.725;  150.675;    0.000
365.537; 1505.725;  179.675;    0.000
365.598; 1549.725;  177.675;    0.000
365.660; 1440.725;  149.675;    0.000
365.722; 1567.725;  160.675;    0.000
365.784; 1527.725;  175.675;    0.000
365.845; 1489.725;  149.675;    0.000
365.907; 1587.725;  154.675;    0.000
365.969; 1542.725;  128.675;    0.000
366.030; 1498.725;  176.675;    0.000
366.092; 1448.725;  181.675;    0.000
366.154; 1515.725;  194.675;    0.000
366.215; 1570.725;  149.675;    0.000
366.277; 1553.725;  144.675;    0.000
366.339; 1541.725;  160.675;    0.000
366.400; 1510.725;  144.675;    0.000
366.462; 1552.725;  145.675;    0.000
366.524; 1561.725;  148.675;    0.000
366.585; 1579.725;  128.675;    0.000
366.647; 1573.725;  156.675;    0.000
366.708; 1503.725;  128.675;    0.000
366.770; 1596.725;  188.675;    0.000
366.832; 1583.725;  170.675;    0.000
366.893; 1522.725;  158.675;    0.000
366.955; 1535.725;  150.675;    0.000
367.016; 1554.725;  160.675;    0.000
367.078; 1570.725;  144.675;    0.000
367.139; 1478.725;  109.675;    0.000
367.201; 1561.725;  155.675;    0.000
367.262; 1552.725;  165.675;    0.000
367.324; 1525.725;  180.675;    0.000
367.385; 1527.725;  150.675;    0.000
367.447; 1595.725;  164.675;    0.000
367.508; 1577.725;  137.675;    0.000
367.570; 1500.725;  174.675;    0.000
367.631; 1565.725;  126.675;    0.000
367.693; 1574.725;  153.675;    0.000
367.754; 1648.725;  194.675;    0.000
367.816; 1477.725;  154.675;    0.000
367.877; 1600.725;  183.675;    0.000
367.939; 1609.725;  179.675;    0.000
368.000; 1585.725;  142.675;    0.000
368.062; 1526.725;  147.675;    0.000
368.123; 1539.725;  155.675;    0.000
368.184; 1574.725;  169.675;    0.000
368.246; 1529.725;  145.675;    0.000
368.307; 1591.725;  165.675;    0.000
368.369; 1537.725;  177.675;    0.000
368.430; 1544.725;  161.675;    0.000
368.491; 1605.725;  156.675;    0.000
368.553; 1551.725;  156.675;    0.000
368.614; 1606.725;  186.675;    0.000
368.675; 1543.725;  154.675;    0.000
368.737; 1638.725;  162.675;    0.000
368.798; 1647.725;  202.675;    0.000
368.859; 1584.725;  162.675;    0.000
368.921; 1635.725;  171.675;    0.000
368.982; 1602.725;  193.675;    0.000
369.043; 1647.725;  207.675;    0.000
369.104; 1556.725;  143.675;    0.000
369.166; 1616.725;  203.675;    0.000
369.227; 1570.725;  125.675;    0.000
369.288; 1557.725;  154.675;    0.000
369.349; 1660.725;  187.675;    0.000
369.411; 1578.725;  191.675;    0.000
369.472; 1586.725;  175.675;    0.000
369.533; 1579.725;  180.675;    0.000
369.594; 1567.725;  161.675;    0.000
369.656; 1680.725;  169.675;    0.000
369.717; 1587.725;  103.675;    0.000
369.778; 1625.725;  159.675;    0.000
369.839; 1586.725;  146.675;    0.000
369.900; 1670.725;  218.675;    0.000
369.961; 1598.725;  200.675;    0.000
370.023; 1674.725;  177.675;    0.000
370.084; 1593.725;  149.675;    0.000
370.145; 1649.725;  179.675;    0.000
370.206; 1655.725;  179.675;    0.000
370.267; 1705.725;  166.675;    0.000
370.328; 1589.725;  164.675;    0.000
370.389; 1667.725;  162.675;    0.000
370.451; 1675.725;  179.675;    0.000
370.512; 1666.725;  181.675;    0.000
370.573; 1641.725;  173.675;    0.000
370.634; 1653.725;  162.675;    0.000
370.695; 1540.725;  167.675;    0.000
370.756; 1672.725;  177.675;    0.000
370.817; 1563.725;  178.675;    0.000
370.878; 1735.725;  152.675;    0.000
370.939; 1565.725;  185.675;    0.000
371.000; 1630.725;  173.675;    0.000
371.061; 1688.725;  176.675;    0.000
371.122; 1614.725;  169.675;    0.000
371.183; 1602.725;  116.675;    0.000
371.244; 1661.725;  174.675;    0.000
371.305; 1703.725;  152.675;    0.000
371.366; 1644.725;  168.675;    0.000
371.427; 1607.725;  188.675;    0.000
371.488; 1715.725;  180.675;    0.000
371.549; 1709.725;  145.675;    0.000
371.610; 1684.725;  160.675;    0.000
371.671; 1664.725;  164.675;    0.000
371.732; 1696.725;  158.675;    0.000
371.793; 1706.725;  162.675;    0.000
371.853; 1687.725;  130.675;    0.000
371.914; 1686.725;  172.675;    0.000
371.975; 1598.725;   98.675;    0.000
372.036; 1698.725;  161.675;    0.000
372.097; 1645.725;  143.675;    0.000
372.158; 1694.725;  175.675;    0.000
372.219; 1727.725;  196.675;    0.000
372.280; 1693.725;  175.675;    0.000
372.340; 1677.725;  160.675;    0.000
372.401; 1679.725;  163.675;    0.000
372.462; 1643.725;  147.675;    0.000
372.523; 1684.725;  146.675;    0.000
372.584; 1641.725;  173.675;    0.000
372.645; 1665.725;  126.675;    0.000
372.705; 1666.725;  179.675;    0.000
372.766; 1646.725;  173.675;    0.000
372.827; 1660.725;  171.675;    0.000
372.888; 1745.725;  134.675;    0.000
372.948; 1651.725;  167.675;    0.000
373.009; 1731.725;  167.675;    0.000
373.070; 1685.725;  152.675;    0.000
373.131; 1670.725;  177.675;    0.000
373.191; 1775.725;  225.675;    0.000
373.252; 1682.725;  165.675;    0.000
373.313; 1632.725;  171.675;    0.000
373.373; 1693.725;  160.675;    0.000
373.434; 1775.725;  172.675;    0.000
373.495; 1680.725;  150.675;    0.000
373.555; 1721.725;  130.675;    0.000
373.616; 1664.725;  155.675;    0.000
373.677; 1735.725;  212.675;    0.000
373.737; 1728.725;  188.675;    0.000
373.798; 1658.725;  203.675;    0.000
373.859; 1693.725;  169.675;    0.000
373.919; 1702.725;  197.675;    0.000
373.980; 1674.725;  134.675;    0.000
374.041; 1758.725;  186.675;    0.000
374.101; 1695.725;  207.675;    0.000
374.162; 1737.725;  190.675;    0.000
374.222; 1719.725;  182.675;    0.000
374.283; 1793.725;  213.675;    0.000
374.343; 1707.725;  191.675;    0.000
374.404; 1660.725;  181.675;    0.000
374.465; 1741.725;  193.675;    0.000
374.525; 1672.725;  153.675;    0.000
374.586; 1759.725;  190.675;    0.000
374.646; 1802.725;  173.675;    0.000
374.707; 1734.725;  210.675;    0.000
374.767; 1681.725;  218.675;    0.000
374.828; 1656.725;  174.675;    0.000
374.888; 1812.725;  197.675;    0.000
374.949; 1775.725;  196.675;    0.000
375.009; 1675.725;  169.675;    0.000
375.070; 1737.725;  157.675;    0.000
375.130; 1686.725;  203.675;    0.000
375.190; 1766.725;  174.675;    0.000
375.251; 1794.725;  230.675;    0.000
375.311; 1768.725;  198.675;    0.000
375.372; 1731.725;  160.675;    0.000
375.432; 1705.725;  169.675;    0.000
375.493; 1703.725;  159.675;    0.000
375.553; 1757.725;  179.675;    0.000
375.613; 1722.725;  157.675;    0.000
375.674; 1694.725;  174.675;    0.000
375.734; 1723.725;  180.675;    0.000
375.794; 1716.725;  175.675;    0.000
375.855; 1731.725;  193.675;    0.000
375.915; 1711.725;  148.675;    0.000
375.975; 1687.725;  183.675;    0.000
376.036; 1714.725;  144.675;    0.000
376.096; 1682.725;  195.675;    0.000
376.156; 1726.725;  200.675;    0.000
376.217; 1718.725;  160.675;    0.000
376.277; 1814.725;  193.675;    0.000
376.337; 1739.725;  168.675;    0.000
376.398; 1693.725;  183.675;    0.000
376.458; 1765.725;  168.675;    0.000
376.518; 1733.725;  184.675;    0.000
376.578; 1679.725;  176.675;    0.000
376.639; 1746.725;  158.675;    0.000
376.699; 1713.725;  157.675;    0.000
376.759; 1731.725;  184.675;    0.000
376.819; 1739.725;  166.675;    0.000
376.880; 1730.725;  220.675;    0.000
376.940; 1663.725;  195.675;    0.000
377.000; 1725.725;  178.675;    0.000
377.060; 1670.725;  212.675;    0.000
377.120; 1774.725;  161.675;    0.000
377.180; 1729.725;  168.675;    0.000
377.241; 1768.725;  167.675;    0.000
377.301; 1759.725;  171.675;    0.000
377.361; 1669.725;  174.675;    0.000
377.421; 1713.725;  216.675;    0.000
377.481; 1717.725;  164.675;    0.000
377.541; 1744.725;  163.675;    0.000
377.601; 1784.725;  197.675;    0.000
377.661; 1773.725;  175.675;    0.000
377.722; 1747.725;  196.675;    0.000
377.782; 1763.725;  162.675;    0.000
377.842; 1710.725;  179.675;    0.000
377.902; 1758.725;  140.675;    0.000
377.962; 1667.725;  121.675;    0.000
378.022; 1724.725;  174.675;    0.000
378.082; 1760.725;  167.675;    0.000
378.142; 1729.725;  151.675;    0.000
378.202; 1743.725;  174.675;    0.000
378.262; 1736.725;  168.675;    0.000
378.322; 1746.725;  183.675;    0.000
378.382; 1736.725;  159.675;    0.000
378.442; 1749.725;  177.675;    0.000
378.502; 1752.725;  137.675;    0.000
378.562; 1714.725;  140.675;    0.000
378.622; 1801.725;  197.675;    0.000
378.682; 1788.725;  205.675;    0.000
378.742; 1737.725;  160.675;    0.000
378.802; 1678.725;  132.675;    0.000
378.862; 1797.725;  222.675;    0.000
378.921; 1761.725;  178.675;    0.000
378.981; 1796.725;  160.675;    0.000
379.041; 1747.725;  136.675;    0.000
379.101; 1795.725;  184.675;    0.000
379.161; 1715.725;  147.675;    0.000
379.221; 1781.725;  139.675;    0.000
379.281; 1848.725;  204.675;    0.000
379.341; 1750.725;  142.675;    0.000
379.401; 1806.725;  136.675;    0.000
379.460; 1786.725;  161.675;    0.000
379.520; 1739.725;  171.675;    0.000
379.580; 1816.725;  168.675;    0.000
379.640; 1863.725;  183.675;    0.000
379.700; 1759.725;  182.675;    0.000
379.759; 1833.725;  190.675;    0.000
379.819; 1778.725;  149.675;    0.000
379.879; 1734.725;  140.675;    0.000
379.939; 1872.725;  155.675;    0.000
379.999; 1836.725;  199.675;    0.000
380.058; 1867.725;  163.675;    0.000
380.118; 1767.725;  190.675;    0.000
380.178; 1849.725;  220.675;    0.000
380.237; 1840.725;  181.675;    0.000
380.297; 1806.725;  187.675;    0.000
380.357; 1774.725;  193.675;    0.000
380.417; 1842.725;  157.675;    0.000
380.476; 1863.725;  176.675;    0.000
380.536; 1762.725;  180.675;    0.000
380.596; 1823.725;  191.675;    0.000
380.655; 1817.725;  190.675;    0.000
380.715; 1907.725;  180.675;    0.000
380.775; 1890.725;  202.675;    0.000
380.834; 1841.725;  190.675;    0.000
380.894; 1790.725;  163.675;    0.000
380.954; 1841.725;  181.675;    0.000
381.013; 1920.725;  218.675;    0.000
381.073; 1909.725;  181.675;    0.000
381.132; 1897.725;  193.675;    0.000
381.192; 1913.725;  209.675;    0.000
381.252; 1849.725;  206.675;    0.000
381.311; 1834.725;  173.675;    0.000
381.371; 1917.725;  188.675;    0.000
381.430; 1839.725;  162.675;    0.000
381.490; 1881.725;  168.675;    0.000
381.549; 1895.725;  213.675;    0.000
381.609; 1897.725;  194.675;    0.000
381.668; 1903.725;  190.675;    0.000
381.728; 1794.725;  183.675;    0.000
381.787; 1873.725;  172.675;    0.000
381.847; 1884.725;  198.675;    0.000
381.906; 1873.725;  197.675;    0.000
381.966; 1902.725;  201.675;    0.000
382.025; 1925.725;  219.675;    0.000
382.085; 1901.725;  194.675;    0.000
382.144; 1944.725;  187.675;    0.000
382.204; 1905.725;  196.675;    0.000
382.263; 1891.725;  168.675;    0.000
382.323; 1949.725;  135.675;    0.000
382.382; 1871.725;  173.675;    0.000
382.441; 1940.725;  155.675;    0.000
382.501; 1973.725;  168.675;    0.000
382.560; 2056.725;  200.675;    0.000
382.619; 2047.725;  155.675;    0.000
382.679; 1976.725;  198.675;    0.000
382.738; 2054.725;  211.675;    0.000
382.798; 2099.725;  214.675;    0.000
382.857; 2138.725;  146.675;    0.000
382.916; 2174.725;  183.675;    0.000
382.976; 2138.725;  173.675;    0.000
383.035; 2225.725;  165.675;    0.000
383.094; 2276.725;  173.675;    0.000
383.154; 2303.725;  143.675;    0.000
383.213; 2431.725;  173.675;    0.000
383.272; 2331.725;  166.675;    0.000
383.331; 2317.725;  154.675;    0.000
383.391; 2284.725;  232.675;    0.000
383.450; 2118.725;  185.675;    0.000
383.509; 2136.725;  204.675;    0.000
383.568; 2250.725;  197.675;    0.000
383.628; 2373.725;  171.675;    0.000
383.687; 2402.725;  202.675;    0.000
383.746; 2599.725;  116.675;    0.000
383.805; 2672.725;  156.675;    0.000
383.864; 2503.725;  150.675;    0.000
383.924; 2399.725;  195.675;    0.000
383.983; 2181.725;  157.675;    0.000
384.042; 2154.725;  184.675;    0.000
384.101; 2048.725;  210.675;    0.000
384.160; 2062.725;  123.675;    0.000
384.219; 2056.725;  191.675;    0.000
384.279; 2033.725;  184.675;    0.000
384.338; 2075.725;  172.675;    0.000
384.397; 2074.725;  153.675;    0.000
384.456; 2021.725;  181.675;    0.000
384.515; 2022.725;  171.675;    0.000
384.574; 2071.725;  172.675;    0.000
384.633; 1986.725;  174.675;    0.000
384.692; 2027.725;  178.675;    0.000
384.751; 2085.725;  180.675;    0.000
384.810; 2017.725;  161.675;    0.000
384.869; 1914.725;  162.675;    0.000
384.929; 1951.725;  157.675;    0.000
384.988; 2042.725;  153.675;    0.000
385.047; 1917.725;  178.675;    0.000
385.106; 2009.725;  164.675;    0.000
385.165; 1941.725;  127.675;    0.000
385.224; 1952.725;  156.675;    0.000
385.283; 1905.725;  178.675;    0.000
385.342; 1925.725;  177.675;    0.000
385.401; 2123.725;  178.675;    0.000
385.459; 1943.725;  177.675;    0.000
385.518; 1934.725;  152.675;    0.000
385.577; 1921.725;  133.675;    0.000
385.636; 2021.725;  204.675;    0.000
385.695; 2010.725;  161.675;    0.000
385.754; 2016.725;  190.675;    0.000
385.813; 2013.725;  160.675;    0.000
385.872; 2005.725;  138.675;    0.000
385.931; 1951.725;  192.675;    0.000
385.990; 2021.725;  158.675;    0.000
386.049; 2018.725;  187.675;    0.000
386.107; 1959.725;  140.675;    0.000
386.166; 1941.725;  139.675;    0.000
386.225; 1946.725;  182.675;    0.000
386.284; 1979.725;  123.675;    0.000
386.343; 2055.725;  207.675;    0.000
386.402; 2086.725;  150.675;    0.000
386.460; 2039.725;  185.675;    0.000
386.519; 2017.725;  145.675;    0.000
386.578; 1984.725;  153.675;    0.000
386.637; 2052.725;  153.675;    0.000
386.696; 2003.725;  189.675;    0.000
386.754; 2014.725;  128.675;    0.000
386.813; 1987.725;  202.675;    0.000
386.872; 2038.725;  152.675;    0.000
386.931; 2078.725;  166.675;    0.000
386.989; 2064.725;  194.675;    0.000
387.048; 2021.725;  176.675;    0.000
387.107; 2084.725;  203.675;    0.000
387.165; 2039.725;  136.675;    0.000
387.224; 2019.725;  193.675;    0.000
387.283; 2016.725;  157.675;    0.000
387.342; 2019.725;  194.675;    0.000
387.400; 1992.725;  191.675;    0.000
387.459; 2036.725;  142.675;    0.000
387.517; 2084.725;  202.675;    0.000
387.576; 2060.725;  164.675;    0.000
387.635; 2002.725;  147.675;    0.000
387.693; 2100.725;  199.675;    0.000
387.752; 2044.725;  181.675;    0.000
387.811; 2078.725;  161.675;    0.000
387.869; 2082.725;  184.675;    0.000
387.928; 2115.725;  175.675;    0.000
387.986; 2042.725;  143.675;    0.000
388.045; 2078.725;  146.675;    0.000
388.103; 2087.725;  164.675;    0.000
388.162; 2037.725;  170.675;    0.000
388.221; 2060.725;  169.675;    0.000
388.279; 2091.725;  151.675;    0.000
388.338; 2111.725;  175.675;    0.000
388.396; 2066.725;  170.675;    0.000
388.455; 2091.725;  193.675;    0.000
388.513; 2070.725;  134.675;    0.000
388.572; 2128.725;  201.675;    0.000
388.630; 2124.725;  181.675;    0.000
388.689; 2071.725;  165.675;    0.000
388.747; 2076.725;  164.675;    0.000
388.806; 2139.725;  155.675;    0.000
388.864; 2020.725;  172.675;    0.000
388.922; 2006.725;  190.675;    0.000
388.981; 2096.725;  170.675;    0.000
389.039; 2124.725;  142.675;    0.000
389.098; 2136.725;  177.675;    0.000
389.156; 2138.725;  184.675;    0.000
389.214; 2151.725;  197.675;    0.000
389.273; 2128.725;  141.675;    0.000
389.331; 2156.725;  145.675;    0.000
389.390; 2184.725;  160.675;    0.000
389.448; 2123.725;  142.675;    0.000
389.506; 2074.725;  192.675;    0.000
389.565; 2200.725;  176.675;    0.000
389.623; 2178.725;  174.675;    0.000
389.681; 2134.725;  184.675;    0.000
389.740; 2192.725;  193.675;    0.000
389.798; 2117.725;  130.675;    0.000
389.856; 2118.725;  224.675;    0.000
389.914; 2127.725;  223.675;    0.000
389.973; 2121.725;  164.675;    0.000
390.031; 2200.725;  198.675;    0.000
390.089; 2131.725;  177.675;    0.000
390.147; 2131.725;  158.675;    0.000
390.206; 2158.725;  213.675;    0.000
390.264; 2107.725;  178.675;    0.000
390.322; 2168.725;  181.675;    0.000
390.380; 2174.725;  148.675;    0.000
390.439; 2158.725;  185.675;    0.000
390.497; 2171.725;  208.675;    0.000
390.555; 2180.725;  175.675;    0.000
390.613; 2174.725;  178.675;    0.000
390.671; 2291.725;  190.675;    0.000
390.729; 2163.725;  172.675;    0.000
390.788; 2170.725;  194.675;    0.000
390.846; 2164.725;  187.675;    0.000
390.904; 2269.725;  207.675;    0.000
390.962; 2232.725;  211.675;    0.000
391.020; 2264.725;  218.675;    0.000
391.078; 2235.725;  179.675;    0.000
391.136; 2204.725;  223.675;    0.000
391.194; 2171.725;  209.675;    0.000
391.253; 2192.725;  217.675;    0.000
391.311; 2162.725;  217.675;    0.000
391.369; 2184.725;  217.675;    0.000
391.427; 2262.725;  253.675;    0.000
391.485; 2250.725;  176.675;    0.000
391.543; 2240.725;  252.675;    0.000
391.601; 2179.725;  168.675;    0.000
391.659; 2192.725;  206.675;    0.000
391.717; 2233.725;  172.675;    0.000
391.775; 2187.725;  170.675;    0.000
391.833; 2230.725;  196.675;    0.000
391.891; 2240.725;  180.675;    0.000
391.949; 2220.725;  201.675;    0.000
392.007; 2287.725;  196.675;    0.000
392.065; 2260.725;  191.675;    0.000
392.123; 2287.725;  158.675;    0.000
392.180; 2338.725;  192.675;    0.000
392.238; 2222.725;  186.675;    0.000
392.296; 2316.725;  150.675;    0.000
392.354; 2298.725;  175.675;    0.000
392.412; 2336.725;  219.675;    0.000
392.470; 2371.725;  200.675;    0.000
392.528; 2343.725;  177.675;    0.000
392.586; 2242.725;  169.675;    0.000
392.644; 2355.725;  155.675;    0.000
392.701; 2294.725;  215.675;    0.000
392.759; 2380.725;  218.675;    0.000
392.817; 2340.725;  178.675;    0.000
392.875; 2325.725;  190.675;    0.000
392.933; 2366.725;  197.675;    0.000
392.991; 2225.725;  179.675;    0.000
393.048; 2292.725;  205.675;    0.000
393.106; 2342.725;  229.675;    0.000
393.164; 2373.725;  167.675;    0.000
393.222; 2403.725;  156.675;    0.000
393.279; 2473.725;  203.675;    0.000
393.337; 2464.725;  216.675;    0.000
393.395; 2523.725;  180.675;    0.000
393.453; 2517.725;  163.675;    0.000
393.510; 2386.725;  194.675;    0.000
393.568; 2383.725;  207.675;    0.000
393.626; 2384.725;  200.675;    0.000
393.684; 2398.725;  234.675;    0.000
393.741; 2351.725;  197.675;    0.000
393.799; 2449.725;  201.675;    0.000
393.857; 2330.725;  185.675;    0.000
393.914; 2372.725;  200.675;    0.000
393.972; 2309.725;  181.675;    0.000
394.030; 2390.725;  188.675;    0.000
394.087; 2419.725;  202.675;    0.000
394.145; 2375.725;  214.675;    0.000
394.202; 2430.725;  204.675;    0.000
394.260; 2397.725;  178.675;    0.000
394.318; 2469.725;  208.675;    0.000
394.375; 2476.725;  183.675;    0.000
394.433; 2396.725;  175.675;    0.000
394.490; 2391.725;  170.675;    0.000
394.548; 2367.725;  161.675;    0.000
394.605; 2477.725;  196.675;    0.000
394.663; 2460.725;  191.675;    0.000
394.720; 2424.725;  179.675;    0.000
394.778; 2486.725;  193.675;    0.000
394.836; 2440.725;  160.675;    0.000
394.893; 2429.725;  152.675;    0.000
394.951; 2432.725;  179.675;    0.000
395.008; 2504.725;  185.675;    0.000
395.065; 2465.725;  154.675;    0.000
395.123; 2552.725;  176.675;    0.000
395.180; 2491.725;  202.675;    0.000
395.238; 2440.725;  135.675;    0.000
395.295; 2456.725;  178.675;    0.000
395.353; 2495.725;  181.675;    0.000
395.410; 2450.725;  160.675;    0.000
395.468; 2504.725;  179.675;    0.000
395.525; 2530.725;  187.675;    0.000
395.582; 2558.725;  221.675;    0.000
395.640; 2538.725;  220.675;    0.000
395.697; 2493.725;  174.675;    0.000
395.754; 2506.725;  177.675;    0.000
395.812; 2531.725;  193.675;    0.000
395.869; 2561.725;  220.675;    0.000
395.927; 2567.725;  206.675;    0.000
395.984; 2575.725;  213.675;    0.000
396.041; 2543.725;  194.675;    0.000
396.098; 2536.725;  144.675;    0.000
396.156; 2541.725;  168.675;    0.000
396.213; 2534.725;  181.675;    0.000
396.270; 2492.725;  186.675;    0.000
396.328; 2512.725;  165.675;    0.000
396.385; 2532.725;  192.675;    0.000
396.442; 2539.725;  196.675;    0.000
396.499; 2509.725;  162.675;    0.000
396.557; 2540.725;  177.675;    0.000
396.614; 2528.725;  184.675;    0.000
396.671; 2590.725;  180.675;    0.000
396.728; 2592.725;  194.675;    0.000
396.785; 2657.725;  173.675;    0.000
396.843; 2644.725;  154.675;    0.000
396.900; 2682.725;  200.675;    0.000
396.957; 2567.725;  158.675;    0.000
397.014; 2676.725;  203.675;    0.000
397.071; 2681.725;  178.675;    0.000
397.128; 2656.725;  201.675;    0.000
397.186; 2665.725;  200.675;    0.000
397.243; 2632.725;  187.675;    0.000
397.300; 2630.725;  173.675;    0.000
397.357; 2615.725;  189.675;    0.000
397.414; 2606.725;  202.675;    0.000
397.471; 2569.725;  156.675;    0.000
397.528; 2540.725;  197.675;    0.000
397.585; 2645.725;  174.675;    0.000
397.642; 2706.725;  202.675;    0.000
397.699; 2695.725;  197.675;    0.000
397.756; 2621.725;  188.675;    0.000
397.814; 2684.725;  210.675;    0.000
397.871; 2655.725;  203.675;    0.000
397.928; 2675.725;  189.675;    0.000
397.985; 2664.725;  192.675;    0.000
398.042; 2669.725;  198.675;    0.000
398.099; 2686.725;  181.675;    0.000
398.156; 2734.725;  201.675;    0.000
398.212; 2742.725;  216.675;    0.000
398.269; 2736.725;  206.675;    0.000
398.326; 2699.725;  213.675;    0.000
398.383; 2723.725;  168.675;    0.000
398.440; 2709.725;  184.675;    0.000
398.497; 2761.725;  194.675;    0.000
398.554; 2678.725;  219.675;    0.000
398.611; 2734.725;  190.675;    0.000
398.668; 2750.725;  138.675;    0.000
398.725; 2731.725;  170.675;    0.000
398.782; 2707.725;  223.675;    0.000
398.839; 2743.725;  211.675;    0.000
398.895; 2779.725;  173.675;    0.000
398.952; 2747.725;  207.675;    0.000
399.009; 2948.725;  173.675;    0.000
399.066; 2778.725;  171.675;    0.000
399.123; 2748.725;  189.675;    0.000
399.180; 2790.725;  170.675;    0.000
399.236; 2840.725;  193.675;    0.000
399.293; 2870.725;  222.675;    0.000
399.350; 2837.725;  195.675;    0.000
399.407; 2998.725;  214.675;    0.000
399.463; 2887.725;  181.675;    0.000
399.520; 2978.725;  168.675;    0.000
399.577; 2933.725;  231.675;    0.000
399.634; 2885.725;  215.675;    0.000
399.690; 2901.725;  177.675;    0.000
399.747; 3010.725;  212.675;    0.000
399.804; 2973.725;  208.675;    0.000
399.861; 2971.725;  225.675;    0.000
399.917; 2983.725;  191.675;    0.000
399.974; 2865.725;  182.675;    0.000
400.031; 2921.725;  218.675;    0.000
400.087; 2925.725;  202.675;    0.000
400.144; 2956.725;  192.675;    0.000
400.201; 2888.725;  187.675;    0.000
400.257; 2843.725;  193.675;    0.000
400.314; 2901.725;  185.675;    0.000
400.370; 2927.725;  201.675;    0.000
400.427; 2898.725;  208.675;    0.000
400.484; 2946.725;  201.675;    0.000
400.540; 2882.725;  204.675;    0.000
400.597; 2911.725;  210.675;    0.000
400.653; 2942.725;  224.675;    0.000
400.710; 2925.725;  196.675;    0.000
400.766; 2967.725;  224.675;    0.000
400.823; 2891.725;  210.675;    0.000
400.879; 2882.725;  213.675;    0.000
400.936; 2915.725;  182.675;    0.000
400.993; 2883.725;  184.675;    0.000
401.049; 2888.725;  216.675;    0.000
401.105; 2794.725;  235.675;    0.000
401.162; 2929.725;  196.675;    0.000
401.218; 2900.725;  221.675;    0.000
401.275; 2898.725;  216.675;    0.000
401.331; 2822.725;  198.675;    0.000
401.388; 2917.725;  205.675;    0.000
401.444; 2909.725;  154.675;    0.000
401.501; 2842.725;  208.675;    0.000
401.557; 2897.725;  162.675;    0.000
401.614; 2823.725;  157.675;    0.000
401.670; 2869.725;  198.675;    0.000
401.726; 2847.725;  195.675;    0.000
401.783; 2837.725;  186.675;    0.000
401.839; 2861.725;  205.675;    0.000
401.895; 2908.725;  202.675;    0.000
401.952; 2863.725;  143.675;    0.000
402.008; 2916.725;  177.675;    0.000
402.064; 2861.725;  177.675;    0.000
402.121; 2823.725;  194.675;    0.000
402.177; 2888.725;  181.675;    0.000
402.233; 2876.725;  205.675;    0.000
402.290; 2798.725;  190.675;    0.000
402.346; 2905.725;  190.675;    0.000
402.402; 2950.725;  151.675;    0.000
402.458; 2876.725;  194.675;    0.000
402.515; 2880.725;  212.675;    0.000
402.571; 2895.725;  209.675;    0.000
402.627; 2961.725;  199.675;    0.000
402.683; 2843.725;  213.675;    0.000
402.740; 2872.725;  165.675;    0.000
402.796; 2936.725;  168.675;    0.000
402.852; 2990.725;  200.675;    0.000
402.908; 2847.725;  193.675;    0.000
402.964; 3002.725;  166.675;    0.000
403.021; 2942.725;  196.675;    0.000
403.077; 2940.725;  212.675;    0.000
403.133; 2939.725;  186.675;    0.000
403.189; 2966.725;  206.675;    0.000
403.245; 3005.725;  207.675;    0.000
403.301; 3049.725;  204.675;    0.000
403.357; 2948.725;  246.675;    0.000
403.414; 2900.725;  227.675;    0.000
403.470; 2949.725;  207.675;    0.000
403.526; 2953.725;  171.675;    0.000
403.582; 2897.725;  200.675;    0.000
403.638; 2954.725;  213.675;    0.000
403.694; 2938.725;  239.675;    0.000
403.750; 2945.725;  221.675;    0.000
403.806; 2965.725;  197.675;    0.000
403.862; 3013.725;  222.675;    0.000
403.918; 3035.725;  174.675;    0.000
403.974; 3035.725;  183.675;    0.000
404.030; 2897.725;  184.675;    0.000
404.086; 2909.725;  170.675;    0.000
404.142; 3063.725;  215.675;    0.000
404.198; 3018.725;  189.675;    0.000
404.254; 3052.725;  195.675;    0.000
404.310; 2991.725;  206.675;    0.000
404.366; 3033.725;  179.675;    0.000
404.422; 3008.725;  197.675;    0.000
404.478; 2973.725;  176.675;    0.000
404.534; 2994.725;  165.675;    0.000
404.590; 3070.725;  203.675;    0.000
404.646; 3093.725;  195.675;    0.000
404.701; 2972.725;  180.675;    0.000
404.757; 3001.725;  218.675;    0.000
404.813; 3037.725;  160.675;    0.000
404.869; 3051.725;  213.675;    0.000
404.925; 3051.725;  171.675;    0.000
404.981; 3084.725;  194.675;    0.000
405.037; 3127.725;  211.675;    0.000
405.092; 3067.725;  158.675;    0.000
405.148; 3086.725;  140.675;    0.000
405.204; 3026.725;  161.675;    0.000
405.260; 2992.725;  161.675;    0.000
405.316; 3126.725;  155.675;    0.000
405.371; 3088.725;  151.675;    0.000
405.427; 3079.725;  186.675;    0.000
405.483; 3029.725;  206.675;    0.000
405.539; 3112.725;  162.675;    0.000
405.594; 3079.725;  205.675;    0.000
405.650; 3160.725;  153.675;    0.000
405.706; 3058.725;  185.675;    0.000
405.761; 3063.725;  205.675;    0.000
405.817; 3094.725;  185.675;    0.000
405.873; 3052.725;  160.675;    0.000
405.928; 3058.725;  182.675;    0.000
405.984; 3195.725;  206.675;    0.000
406.040; 3172.725;  200.675;    0.000
406.095; 3059.725;  138.675;    0.000
406.151; 3194.725;  178.675;    0.000
406.207; 3113.725;  225.675;    0.000
406.262; 3140.725;  161.675;    0.000
406.318; 3172.725;  186.675;    0.000
406.374; 3174.725;  173.675;    0.000
406.429; 3145.725;  197.675;    0.000
406.485; 3163.725;  260.675;    0.000
406.540; 3196.725;  184.675;    0.000
406.596; 3190.725;  193.675;    0.000
406.651; 3127.725;  176.675;    0.000
406.707; 3175.725;  158.675;    0.000
406.763; 3196.725;  174.675;    0.000
406.818; 3180.725;  188.675;    0.000
406.874; 3177.725;  176.675;    0.000
406.929; 3294.725;  220.675;    0.000
406.985; 3260.725;  167.675;    0.000
407.040; 3346.725;  191.675;    0.000
407.095; 3270.725;  190.675;    0.000
407.151; 3353.725;  196.675;    0.000
407.206; 3329.725;  184.675;    0.000
407.262; 3280.725;  167.675;    0.000
407.317; 3369.725;  199.675;    0.000
407.373; 3325.725;  211.675;    0.000
407.428; 3285.725;  202.675;    0.000
407.484; 3379.725;  172.675;    0.000
407.539; 3330.725;  171.675;    0.000
407.594; 3419.725;  219.675;    0.000
407.650; 3321.725;  179.675;    0.000
407.705; 3359.725;  141.675;    0.000
407.760; 3394.725;  182.675;    0.000
407.816; 3379.725;  203.675;    0.000
407.871; 3408.725;  219.675;    0.000
407.926; 3367.725;  197.675;    0.000
407.982; 3398.725;  176.675;    0.000
408.037; 3371.725;  187.675;    0.000
408.092; 3430.725;  161.675;    0.000
408.148; 3326.725;  185.675;    0.000
408.203; 3308.725;  196.675;    0.000
408.258; 3387.725;  188.675;    0.000
408.314; 3420.725;  225.675;    0.000
408.369; 3301.725;  172.675;    0.000
408.424; 3431.725;  204.675;    0.000
408.479; 3322.725;  182.675;    0.000
408.534; 3348.725;  220.675;    0.000
408.590; 3344.725;  196.675;    0.000
408.645; 3305.725;  170.675;    0.000
408.700; 3330.725;  204.675;    0.000
408.755; 3375.725;  219.675;    0.000
408.810; 3334.725;  174.675;    0.000
408.866; 3358.725;  212.675;    0.000
408.921; 3345.725;  233.675;    0.000
408.976; 3285.725;  198.675;    0.000
409.031; 3274.725;  179.675;    0.000
409.086; 3351.725;  181.675;    0.000
409.141; 3373.725;  192.675;    0.000
409.196; 3241.725;  172.675;    0.000
409.252; 3275.725;  199.675;    0.000
409.307; 3325.725;  159.675;    0.000
409.362; 3372.725;  158.675;    0.000
409.417; 3327.725;  164.675;    0.000
409.472; 3305.725;  186.675;    0.000
409.527; 3322.725;  215.675;    0.000
409.582; 3305.725;  227.675;    0.000
409.637; 3340.725;  211.675;    0.000
409.692; 3338.725;  224.675;    0.000
409.747; 3293.725;  147.675;    0.000
409.802; 3295.725;  203.675;    0.000
409.857; 3335.725;  203.675;    0.000
409.912; 3358.725;  219.675;    0.000
409.967; 3307.725;  200.675;    0.000
410.022; 3327.725;  199.675;    0.000
410.077; 3336.725;  171.675;    0.000
410.132; 3326.725;  193.675;    0.000
410.187; 3263.725;  167.675;    0.000
410.242; 3224.725;  188.675;    0.000
410.297; 3310.725;  195.675;    0.000
410.351; 3308.725;  225.675;    0.000
410.406; 3379.725;  188.675;    0.000
410.461; 3396.725;  197.675;    0.000
410.516; 3324.725;  212.675;    0.000
410.571; 3329.725;  173.675;    0.000
410.626; 3480.725;  180.675;    0.000
410.681; 3400.725;  198.675;    0.000
410.736; 3426.725;  190.675;    0.000
410.790; 3238.725;  204.675;    0.000
410.845; 3353.725;  214.675;    0.000
410.900; 3368.725;  184.675;    0.000
410.955; 3368.725;  231.675;    0.000
411.010; 3295.725;  211.675;    0.000
411.064; 3341.725;  204.675;    0.000
411.119; 3327.725;  219.675;    0.000
411.174; 3352.725;  208.675;    0.000
411.229; 3436.725;  207.675;    0.000
411.283; 3398.725;  199.675;    0.000
411.338; 3245.725;  198.675;    0.000
411.393; 3364.725;  155.675;    0.000
411.447; 3400.725;  200.675;    0.000
411.502; 3392.725;  229.675;    0.000
411.557; 3299.725;  197.675;    0.000
411.612; 3351.725;  171.675;    0.000
411.666; 3474.725;  201.675;    0.000
411.721; 3396.725;  174.675;    0.000
411.776; 3414.725;  222.675;    0.000
411.830; 3468.725;  150.675;    0.000
411.885; 3380.725;  169.675;    0.000
411.939; 3399.725;  216.675;    0.000
411.994; 3358.725;  215.675;    0.000
412.049; 3361.725;  219.675;    0.000
412.103; 3386.725;  225.675;    0.000
412.158; 3382.725;  216.675;    0.000
412.212; 3498.725;  218.675;    0.000
412.267; 3421.725;  219.675;    0.000
412.322; 3399.725;  235.675;    0.000
412.376; 3351.725;  208.675;    0.000
412.431; 3553.725;  232.675;    0.000
412.485; 3425.725;  223.675;    0.000
412.540; 3365.725;  217.675;    0.000
412.594; 3452.725;  195.675;    0.000
412.649; 3510.725;  236.675;    0.000
412.703; 3441.725;  216.675;    0.000
412.758; 3411.725;  201.675;    0.000
412.812; 3343.725;  176.675;    0.000
412.866; 3402.725;  179.675;    0.000
412.921; 3423.725;  196.675;    0.000
412.975; 3337.725;  238.675;    0.000
413.030; 3366.725;  272.675;    0.000
413.084; 3480.725;  208.675;    0.000
413.139; 3405.725;  201.675;    0.000
413.193; 3306.725;  198.675;    0.000
413.247; 3433.725;  213.675;    0.000
413.302; 3385.725;  202.675;    0.000
413.356; 3328.725;  184.675;    0.000
413.410; 3395.725;  202.675;    0.000
413.465; 3351.725;  145.675;    0.000
413.519; 3329.725;  200.675;    0.000
413.573; 3421.725;  197.675;    0.000
413.628; 3356.725;  224.675;    0.000
413.682; 3450.725;  211.675;    0.000
413.736; 3358.725;  202.675;    0.000
413.791; 3453.725;  228.675;    0.000
413.845; 3383.725;  184.675;    0.000
413.899; 3440.725;  226.675;    0.000
413.953; 3367.725;  213.675;    0.000
414.008; 3277.725;  175.675;    0.000
414.062; 3407.725;  216.675;    0.000
414.116; 3376.725;  206.675;    0.000
414.170; 3442.725;  229.675;    0.000
414.225; 3316.725;  196.675;    0.000
414.279; 3451.725;  199.675;    0.000
414.333; 3404.725;  220.675;    0.000
414.387; 3380.725;  217.675;    0.000
414.441; 3401.725;  206.675;    0.000
414.496; 3316.725;  264.675;    0.000
414.550; 3366.725;  217.675;    0.000
414.604; 3434.725;  224.675;    0.000
414.658; 3366.725;  156.675;    0.000
414.712; 3285.725;  203.675;    0.000
414.766; 3466.725;  216.675;    0.000
414.820; 3387.725;  218.675;    0.000
414.874; 3323.725;  240.675;    0.000
414.928; 3427.725;  204.675;    0.000
414.982; 3325.725;  195.675;    0.000
415.037; 3397.725;  212.675;    0.000
415.091; 3390.725;  211.675;    0.000
415.145; 3350.725;  230.675;    0.000
415.199; 3354.725;  208.675;    0.000
415.253; 3463.725;  213.675;    0.000
415.307; 3395.725;  208.675;    0.000
415.361; 3359.725;  193.675;    0.000
415.415; 3443.725;  207.675;    0.000
415.469; 3399.725;  214.675;    0.000
415.523; 3394.725;  226.675;    0.000
415.577; 3376.725;  194.675;    0.000
415.631; 3378.725;  258.675;    0.000
415.684; 3424.725;  239.675;    0.000
415.738; 3474.725;  191.675;    0.000
415.792; 3331.725;  185.675;    0.000
415.846; 3314.725;  239.675;    0.000
415.900; 3431.725;  209.675;    0.000
415.954; 3384.725;  215.675;    0.000
416.008; 3517.725;  229.675;    0.000
416.062; 3446.725;  200.675;    0.000
416.116; 3349.725;  195.675;    0.000
416.169; 3454.725;  238.675;    0.000
416.223; 3418.725;  271.675;    0.000
416.277; 3397.725;  232.675;    0.000
416.331; 3459.725;  226.675;    0.000
416.385; 3455.725;  207.675;    0.000
416.439; 3513.725;  221.675;    0.000
416.492; 3409.725;  269.675;    0.000
416.546; 3369.725;  254.675;    0.000
416.600; 3396.725;  225.675;    0.000
416.654; 3408.725;  269.675;    0.000
416.707; 3385.725;  232.675;    0.000
416.761; 3367.725;  226.675;    0.000
416.815; 3353.725;  219.675;    0.000
416.869; 3406.725;  234.675;    0.000
416.922; 3294.725;  230.675;    0.000
416.976; 3277.725;  216.675;    0.000
417.030; 3430.725;  271.675;    0.000
417.083; 3381.725;  229.675;    0.000
417.137; 3379.725;  249.675;    0.000
417.191; 3407.725;  241.675;    0.000
417.244; 3345.725;  230.675;    0.000
417.298; 3281.725;  215.675;    0.000
417.352; 3407.725;  188.675;    0.000
417.405; 3264.725;  248.675;    0.000
417.459; 3328.725;  256.675;    0.000
417.512; 3377.725;  263.675;    0.000
417.566; 3405.725;  227.675;    0.000
417.620; 3376.725;  270.675;    0.000
417.673; 3314.725;  216.675;    0.000
417.727; 3358.725;  234.675;    0.000
417.780; 3441.725;  215.675;    0.000
417.834; 3305.725;  203.675;    0.000
417.887; 3408.725;  257.675;    0.000
417.941; 3387.725;  216.675;    0.000
417.994; 3365.725;  245.675;    0.000
418.048; 3315.725;  209.675;    0.000
418.101; 3317.725;  207.675;    0.000
418.155; 3428.725;  204.675;    0.000
418.208; 3384.725;  270.675;    0.000
418.262; 3467.725;  228.675;    0.000
418.315; 3338.725;  254.675;    0.000
418.369; 3369.725;  245.675;    0.000
418.422; 3480.725;  224.675;    0.000
418.476; 3386.725;  221.675;    0.000
418.529; 3320.725;  234.675;    0.000
418.582; 3397.725;  249.675;    0.000
418.636; 3329.725;  224.675;    0.000
418.689; 3414.725;  228.675;    0.000
418.743; 3345.725;  240.675;    0.000
418.796; 3304.725;  197.675;    0.000
418.849; 3363.725;  220.675;    0.000
418.903; 3323.725;  246.675;    0.000
418.956; 3353.725;  250.675;    0.000
419.009; 3455.725;  276.675;    0.000
419.063; 3274.725;  232.675;    0.000
419.116; 3298.725;  228.675;    0.000
419.169; 3348.725;  249.675;    0.000
419.222; 3315.725;  215.675;    0.000
419.276; 3314.725;  228.675;    0.000
419.329; 3321.725;  246.675;    0.000
419.382; 3267.725;  188.675;    0.000
419.435; 3322.725;  240.675;    0.000
419.489; 3410.725;  261.675;    0.000
419.542; 3285.725;  224.675;    0.000
419.595; 3279.725;  251.675;    0.000
419.648; 3304.725;  236.675;    0.000
419.701; 3309.725;  244.675;    0.000
419.755; 3301.725;  242.675;    0.000
419.808; 3315.725;  242.675;    0.000
419.861; 3306.725;  189.675;    0.000
419.914; 3376.725;  258.675;    0.000
419.967; 3189.725;  230.675;    0.000
420.020; 3229.725;  223.675;    0.000
420.073; 3298.725;  221.675;    0.000
420.127; 3361.725;  252.675;    0.000
420.180; 3256.725;  219.675;    0.000
420.233; 3253.725;  201.675;    0.000
420.286; 3263.725;  221.675;    0.000
420.339; 3311.725;  250.675;    0.000
420.392; 3241.725;  268.675;    0.000
420.445; 3200.725;  223.675;    0.000
420.498; 3201.725;  240.675;    0.000
420.551; 3088.725;  220.675;    0.000
420.604; 3152.725;  231.675;    0.000
420.657; 3203.725;  228.675;    0.000
420.710; 3186.725;  219.675;    0.000
420.763; 3257.725;  280.675;    0.000
420.816; 3194.725;  202.675;    0.000
420.869; 3184.725;  219.675;    0.000
420.922; 3214.725;  218.675;    0.000
420.975; 3175.725;  237.675;    0.000
421.028; 3223.725;  242.675;    0.000
421.081; 3269.725;  247.675;    0.000
421.134; 3286.725;  239.675;    0.000
421.187; 3079.725;  229.675;    0.000
421.239; 3130.725;  200.675;    0.000
421.292; 3232.725;  205.675;    0.000
421.345; 3205.725;  219.675;    0.000
421.398; 3247.725;  187.675;    0.000
421.451; 3286.725;  226.675;    0.000
421.504; 3155.725;  206.675;    0.000
421.557; 3212.725;  226.675;    0.000
421.609; 3095.725;  209.675;    0.000
421.662; 3146.725;  229.675;    0.000
421.715; 3121.725;  231.675;    0.000
421.768; 3140.725;  215.675;    0.000
421.821; 3162.725;  211.675;    0.000
421.873; 3174.725;  220.675;    0.000
421.926; 3157.725;  212.675;    0.000
421.979; 3165.725;  209.675;    0.000
422.032; 3070.725;  203.675;    0.000
422.084; 3207.725;  213.675;    0.000
422.137; 3105.725;  196.675;    0.000
422.190; 3163.725;  246.675;    0.000
422.243; 3127.725;  194.675;    0.000
422.295; 3153.725;  225.675;    0.000
422.348; 3120.725;  248.675;    0.000
422.401; 3091.725;  252.675;    0.000
422.453; 3094.725;  249.675;    0.000
422.506; 3150.725;  233.675;    0.000
422.559; 3153.725;  228.675;    0.000
422.611; 3134.725;  224.675;    0.000
422.664; 3258.725;  226.675;    0.000
422.716; 3187.725;  226.675;    0.000
422.769; 3217.725;  216.675;    0.000
422.822; 3105.725;  256.675;    0.000
422.874; 3085.725;  206.675;    0.000
422.927; 3135.725;  257.675;    0.000
422.979; 3100.725;  209.675;    0.000
423.032; 3067.725;  244.675;    0.000
423.084; 3077.725;  244.675;    0.000
423.137; 3035.725;  213.675;    0.000
423.189; 3104.725;  208.675;    0.000
423.242; 3058.725;  226.675;    0.000
423.294; 3048.725;  250.675;    0.000
423.347; 3089.725;  206.675;    0.000
423.399; 3140.725;  268.675;    0.000
423.452; 3088.725;  262.675;    0.000
423.504; 3031.725;  237.675;    0.000
423.557; 3040.725;  245.675;    0.000
423.609; 3051.725;  211.675;    0.000
423.662; 3098.725;  222.675;    0.000
423.714; 3122.725;  219.675;    0.000
423.766; 3076.725;  250.675;    0.000
423.819; 3004.725;  220.675;    0.000
423.871; 3094.725;  229.675;    0.000
423.923; 2955.725;  219.675;    0.000
423.976; 2995.725;  221.675;    0.000
424.028; 2958.725;  211.675;    0.000
424.081; 3046.725;  254.675;    0.000
424.133; 3081.725;  230.675;    0.000
424.185; 3106.725;  241.675;    0.000
424.238; 2978.725;  182.675;    0.000
424.290; 3087.725;  215.675;    0.000
424.342; 2971.725;  235.675;    0.000
424.394; 2987.725;  225.675;    0.000
424.447; 3115.725;  264.675;    0.000
424.499; 3081.725;  225.675;    0.000
424.551; 3114.725;  237.675;    0.000
424.603; 2972.725;  219.675;    0.000
424.656; 2978.725;  240.675;    0.000
424.708; 3028.725;  266.675;    0.000
424.760; 3011.725;  230.675;    0.000
424.812; 3077.725;  284.675;    0.000
424.864; 2950.725;  189.675;    0.000
424.917; 2963.725;  226.675;    0.000
424.969; 2970.725;  253.675;    0.000
425.021; 2952.725;  233.675;    0.000
425.073; 3003.725;  246.675;    0.000
425.125; 3019.725;  238.675;    0.000
425.177; 2928.725;  253.675;    0.000
425.229; 3053.725;  254.675;    0.000
425.282; 3006.725;  252.675;    0.000
425.334; 2944.725;  261.675;    0.000
425.386; 2952.725;  227.675;    0.000
425.438; 2910.725;  246.675;    0.000
425.490; 3033.725;  249.675;    0.000
425.542; 2969.725;  236.675;    0.000
425.594; 2912.725;  236.675;    0.000
425.646; 2954.725;  237.675;    0.000
425.698; 2905.725;  271.675;    0.000
425.750; 2979.725;  240.675;    0.000
425.802; 2887.725;  238.675;    0.000
425.854; 2886.725;  256.675;    0.000
425.906; 3047.725;  230.675;    0.000
425.958; 3015.725;  231.675;    0.000
426.010; 2946.725;  268.675;    0.000
426.062; 2832.725;  227.675;    0.000
426.114; 2995.725;  234.675;    0.000
426.166; 2934.725;  239.675;    0.000
426.218; 2912.725;  255.675;    0.000
426.270; 2993.725;  196.675;    0.000
426.321; 2924.725;  231.675;    0.000
426.373; 2890.725;  199.675;    0.000
426.425; 2865.725;  245.675;    0.000
426.477; 2792.725;  259.675;    0.000
426.529; 2969.725;  274.675;    0.000
426.581; 2856.725;  221.675;    0.000
426.633; 2845.725;  231.675;    0.000
426.684; 2865.725;  248.675;    0.000
426.736; 2902.725;  237.675;    0.000
426.788; 2859.725;  191.675;    0.000
426.840; 2848.725;  180.675;    0.000
426.892; 2919.725;  259.675;    0.000
426.943; 2909.725;  256.675;    0.000
426.995; 2879.725;  212.675;    0.000
427.047; 2928.725;  233.675;    0.000
427.099; 2856.725;  222.675;    0.000
427.150; 2908.725;  203.675;    0.000
427.202; 2871.725;  218.675;    0.000
427.254; 2816.725;  198.675;    0.000
427.306; 2868.725;  248.675;    0.000
427.357; 2824.725;  239.675;    0.000
427.409; 2918.725;  193.675;    0.000
427.461; 2870.725;  215.675;    0.000
427.512; 2826.725;  251.675;    0.000
427.564; 2764.725;  210.675;    0.000
427.616; 2712.725;  251.675;    0.000
427.667; 2791.725;  246.675;    0.000
427.719; 2765.725;  227.675;    0.000
427.770; 2817.725;  247.675;    0.000
427.822; 2724.725;  261.675;    0.000
427.874; 2806.725;  231.675;    0.000
427.925; 2818.725;  231.675;    0.000
427.977; 2813.725;  243.675;    0.000
428.028; 2801.725;  249.675;    0.000
428.080; 2786.725;  224.675;    0.000
428.131; 2755.725;  247.675;    0.000
428.183; 2799.725;  213.675;    0.000
428.234; 2805.725;  213.675;    0.000
428.286; 2803.725;  224.675;    0.000
428.337; 2835.725;  212.675;    0.000
428.389; 2840.725;  231.675;    0.000
428.440; 2844.725;  248.675;    0.000
428.492; 2751.725;  242.675;    0.000
428.543; 2846.725;  220.675;    0.000
428.595; 2774.725;  212.675;    0.000
428.646; 2774.725;  231.675;    0.000
428.697; 2814.725;  232.675;    0.000
428.749; 2702.725;  231.675;    0.000
428.800; 2813.725;  270.675;    0.000
428.852; 2853.725;  266.675;    0.000
428.903; 2773.725;  215.675;    0.000
428.954; 2831.725;  200.675;    0.000
429.006; 2779.725;  247.675;    0.000
429.057; 2783.725;  247.675;    0.000
429.108; 2669.725;  193.675;    0.000
429.160; 2747.725;  249.675;    0.000
429.211; 2828.725;  228.675;    0.000
429.262; 2702.725;  243.675;    0.000
429.314; 2730.725;  227.675;    0.000
429.365; 2715.725;  242.675;    0.000
429.416; 2708.725;  240.675;    0.000
429.467; 2692.725;  222.675;    0.000
429.519; 2797.725;  233.675;    0.000
429.570; 2759.725;  223.675;    0.000
429.621; 2696.725;  257.675;    0.000
429.672; 2694.725;  220.675;    0.000
429.724; 2690.725;  203.675;    0.000
429.775; 2729.725;  242.675;    0.000
429.826; 2728.725;  195.675;    0.000
429.877; 2720.725;  248.675;    0.000
429.928; 2663.725;  226.675;    0.000
429.980; 2711.725;  189.675;    0.000
430.031; 2703.725;  223.675;    0.000
430.082; 2658.725;  217.675;    0.000
430.133; 2670.725;  210.675;    0.000
430.184; 2754.725;  271.675;    0.000
430.235; 2642.725;  190.675;    0.000
430.286; 2704.725;  233.675;    0.000
430.337; 2763.725;  232.675;    0.000
430.388; 2655.725;  221.675;    0.000
430.439; 2673.725;  221.675;    0.000
430.490; 2695.725;  229.675;    0.000
430.542; 2674.725;  196.675;    0.000
430.593; 2702.725;  214.675;    0.000
430.644; 2754.725;  224.675;    0.000
430.695; 2675.725;  216.675;    0.000
430.746; 2660.725;  228.675;    0.000
430.797; 2679.725;  190.675;    0.000
430.848; 2685.725;  231.675;    0.000
430.898; 2697.725;  232.675;    0.000
430.949; 2690.725;  224.675;    0.000
431.000; 2694.725;  236.675;    0.000
431.051; 2634.725;  251.675;    0.000
431.102; 2667.725;  205.675;    0.000
431.153; 2683.725;  212.675;    0.000
431.204; 2689.725;  200.675;    0.000
431.255; 2649.725;  220.675;    0.000
431.306; 2661.725;  223.675;    0.000
431.357; 2696.725;  240.675;    0.000
431.408; 2674.725;  232.675;    0.000
431.458; 2637.725;  204.675;    0.000
431.509; 2657.725;  196.675;    0.000
431.560; 2701.725;  243.675;    0.000
431.611; 2624.725;  222.675;    0.000
431.662; 2673.725;  246.675;    0.000
431.713; 2583.725;  188.675;    0.000
431.763; 2625.725;  226.675;    0.000
431.814; 2633.725;  239.675;    0.000
431.865; 2746.725;  245.675;    0.000
431.916; 2625.725;  173.675;    0.000
431.966; 2686.725;  220.675;    0.000
432.017; 2613.725;  247.675;    0.000
432.068; 2633.725;  241.675;    0.000
432.118; 2659.725;  220.675;    0.000
432.169; 2711.725;  244.675;    0.000
432.220; 2609.725;  246.675;    0.000
432.271; 2569.725;  203.675;    0.000
432.321; 2559.725;  244.675;    0.000
432.372; 2646.725;  254.675;    0.000
432.423; 2598.725;  224.675;    0.000
432.473; 2605.725;  211.675;    0.000
432.524; 2647.725;  227.675;    0.000
432.574; 2652.725;  228.675;    0.000
432.625; 2569.725;  223.675;    0.000
432.676; 2639.725;  220.675;    0.000
432.726; 2625.725;  257.675;    0.000
432.777; 2668.725;  257.675;    0.000
432.827; 2682.725;  240.675;    0.000
432.878; 2625.725;  219.675;    0.000
432.928; 2624.725;  234.675;    0.000
432.979; 2641.725;  226.675;    0.000
433.029; 2644.725;  216.675;    0.000
433.080; 2623.725;  232.675;    0.000
433.130; 2759.725;  257.675;    0.000
433.181; 2596.725;  243.675;    0.000
433.231; 2669.725;  239.675;    0.000
433.282; 2714.725;  232.675;    0.000
433.332; 2664.725;  256.675;    0.000
433.383; 2690.725;  268.675;    0.000
433.433; 2576.725;  291.675;    0.000
433.484; 2671.725;  263.675;    0.000
433.534; 2655.725;  248.675;    0.000
433.585; 2578.725;  244.675;    0.000
433.635; 2581.725;  242.675;    0.000
433.685; 2610.725;  243.675;    0.000
433.736; 2608.725;  283.675;    0.000
433.786; 2620.725;  264.675;    0.000
433.836; 2681.725;  282.675;    0.000
433.887; 2681.725;  265.675;    0.000
433.937; 2701.725;  255.675;    0.000
433.987; 2592.725;  245.675;    0.000
434.038; 2564.725;  276.675;    0.000
434.088; 2639.725;  249.675;    0.000
434.138; 2661.725;  260.675;    0.000
434.189; 2667.725;  241.675;    0.000
434.239; 2594.725;  232.675;    0.000
434.289; 2668.725;  272.675;    0.000
434.339; 2610.725;  288.675;    0.000
434.389; 2589.725;  258.675;    0.000
434.440; 2688.725;  244.675;    0.000
434.490; 2663.725;  288.675;    0.000
434.540; 2606.725;  252.675;    0.000
434.590; 2627.725;  256.675;    0.000
434.640; 2677.725;  259.675;    0.000
434.691; 2706.725;  220.675;    0.000
434.741; 2634.725;  238.675;    0.000
434.791; 2661.725;  276.675;    0.000
434.841; 2626.725;  256.675;    0.000
434.891; 2605.725;  297.675;    0.000
434.941; 2691.725;  290.675;    0.000
434.991; 2613.725;  261.675;    0.000
435.042; 2725.725;  300.675;    0.000
435.092; 2653.725;  248.675;    0.000
435.142; 2501.725;  246.675;    0.000
435.192; 2586.725;  201.675;    0.000
435.242; 2545.725;  234.675;    0.000
435.292; 2559.725;  266.675;    0.000
435.342; 2581.725;  250.675;    0.000
435.392; 2597.725;  279.675;    0.000
435.442; 2573.725;  242.675;    0.000
435.492; 2563.725;  265.675;    0.000
435.542; 2508.725;  243.675;    0.000
435.592; 2557.725;  243.675;    0.000
435.642; 2651.725;  241.675;    0.000
435.692; 2627.725;  263.675;    0.000
435.742; 2630.725;  264.675;    0.000
435.792; 2564.725;  291.675;    0.000
435.842; 2589.725;  257.675;    0.000
435.891; 2592.725;  224.675;    0.000
435.941; 2484.725;  243.675;    0.000
435.991; 2607.725;  300.675;    0.000
436.041; 2498.725;  197.675;    0.000
436.091; 2555.725;  238.675;    0.000
436.141; 2400.725;  222.675;    0.000
436.191; 2474.725;  249.675;    0.000
436.241; 2488.725;  208.675;    0.000
436.290; 2531.725;  282.675;    0.000
436.340; 2484.725;  233.675;    0.000
436.390; 2514.725;  223.675;    0.000
436.440; 2543.725;  252.675;    0.000
436.490; 2392.725;  254.675;    0.000
436.539; 2514.725;  271.675;    0.000
436.589; 2434.725;  248.675;    0.000
436.639; 2461.725;  235.675;    0.000
436.689; 2512.725;  238.675;    0.000
436.738; 2484.725;  267.675;    0.000
436.788; 2443.725;  239.675;    0.000
436.838; 2515.725;  244.675;    0.000
436.887; 2507.725;  265.675;    0.000
436.937; 2398.725;  261.675;    0.000
436.987; 2370.725;  235.675;    0.000
437.036; 2488.725;  267.675;    0.000
437.086; 2458.725;  258.675;    0.000
437.136; 2478.725;  250.675;    0.000
437.185; 2423.725;  214.675;    0.000
437.235; 2463.725;  257.675;    0.000
437.285; 2316.725;  259.675;    0.000
437.334; 2463.725;  241.675;    0.000
437.384; 2511.725;  231.675;    0.000
437.433; 2462.725;  239.675;    0.000
437.483; 2434.725;  260.675;    0.000
437.532; 2448.725;  277.675;    0.000
437.582; 2392.725;  268.675;    0.000
437.631; 2356.725;  239.675;    0.000
437.681; 2457.725;  251.675;    0.000
437.730; 2413.725;  246.675;    0.000
437.780; 2330.725;  226.675;    0.000
437.829; 2310.725;  256.675;    0.000
437.879; 2298.725;  239.675;    0.000
437.928; 2375.725;  253.675;    0.000
437.978; 2375.725;  245.675;    0.000
438.027; 2413.725;  277.675;    0.000
438.077; 2353.725;  248.675;    0.000
438.126; 2415.725;  201.675;    0.000
438.176; 2384.725;  220.675;    0.000
438.225; 2428.725;  250.675;    0.000
438.274; 2399.725;  234.675;    0.000
438.324; 2337.725;  276.675;    0.000
438.373; 2354.725;  226.675;    0.000
438.422; 2376.725;  228.675;    0.000
438.472; 2372.725;  225.675;    0.000
438.521; 2342.725;  227.675;    0.000
438.570; 2317.725;  242.675;    0.000
438.620; 2375.725;  277.675;    0.000
438.669; 2282.725;  256.675;    0.000
438.718; 2374.725;  248.675;    0.000
438.768; 2389.725;  225.675;    0.000
438.817; 2369.725;  229.675;    0.000
438.866; 2338.725;  218.675;    0.000
438.915; 2435.725;  256.675;    0.000
438.965; 2395.725;  242.675;    0.000
439.014; 2277.725;  260.675;    0.000
439.063; 2389.725;  238.675;    0.000
439.112; 2439.725;  209.675;    0.000
439.162; 2338.725;  258.675;    0.000
439.211; 2440.725;  275.675;    0.000
439.260; 2373.725;  238.675;    0.000
439.309; 2409.725;  237.675;    0.000
439.358; 2312.725;  252.675;    0.000
439.407; 2285.725;  239.675;    0.000
439.456; 2338.725;  211.675;    0.000
439.506; 2371.725;  261.675;    0.000
439.555; 2321.725;  274.675;    0.000
439.604; 2380.725;  262.675;    0.000
439.653; 2357.725;  245.675;    0.000
439.702; 2335.725;  247.675;    0.000
439.751; 2344.725;  228.675;    0.000
439.800; 2339.725;  253.675;    0.000
439.849; 2430.725;  219.675;    0.000
439.898; 2403.725;  246.675;    0.000
439.947; 2412.725;  229.675;    0.000
439.996; 2402.725;  274.675;    0.000
440.045; 2346.725;  224.675;    0.000
440.094; 2347.725;  225.675;    0.000
440.143; 2342.725;  277.675;    0.000
440.192; 2384.725;  252.675;    0.000
440.241; 2371.725;  253.675;    0.000
440.290; 2421.725;  242.675;    0.000
440.339; 2238.725;  220.675;    0.000
440.388; 2387.725;  244.675;    0.000
440.437; 2356.725;  268.675;    0.000
440.486; 2248.725;  242.675;    0.000
440.535; 2403.725;  269.675;    0.000
440.583; 2371.725;  258.675;    0.000
440.632; 2324.725;  286.675;    0.000
440.681; 2394.725;  238.675;    0.000
440.730; 2418.725;  271.675;    0.000
440.779; 2454.725;  226.675;    0.000
440.828; 2392.725;  213.675;    0.000
440.876; 2350.725;  207.675;    0.000
440.925; 2341.725;  247.675;    0.000
440.974; 2307.725;  229.675;    0.000
441.023; 2443.725;  227.675;    0.000
441.072; 2364.725;  222.675;    0.000
441.120; 2401.725;  273.675;    0.000
441.169; 2379.725;  263.675;    0.000
441.218; 2356.725;  264.675;    0.000
441.267; 2406.725;  287.675;    0.000
441.315; 2340.725;  251.675;    0.000
441.364; 2375.725;  252.675;    0.000
441.413; 2330.725;  227.675;    0.000
441.461; 2336.725;  198.675;    0.000
441.510; 2345.725;  273.675;    0.000
441.559; 2310.725;  245.675;    0.000
441.607; 2408.725;  218.675;    0.000
441.656; 2307.725;  261.675;    0.000
441.705; 2408.725;  259.675;    0.000
441.753; 2373.725;  272.675;    0.000
441.802; 2325.725;  246.675;    0.000
441.850; 2338.725;  255.675;    0.000
441.899; 2410.725;  236.675;    0.000
441.948; 2336.725;  267.675;    0.000
441.996; 2399.725;  246.675;    0.000
442.045; 2219.725;  279.675;    0.000
442.093; 2393.725;  251.675;    0.000
442.142; 2321.725;  274.675;    0.000
442.190; 2378.725;  279.675;    0.000
442.239; 2328.725;  295.675;    0.000
442.287; 2332.725;  229.675;    0.000
442.336; 2383.725;  265.675;    0.000
442.384; 2343.725;  219.675;    0.000
442.433; 2403.725;  287.675;    0.000
442.481; 2408.725;  271.675;    0.000
442.529; 2328.725;  262.675;    0.000
442.578; 2390.725;  282.675;    0.000
442.626; 2320.725;  245.675;    0.000
442.675; 2372.725;  283.675;    0.000
442.723; 2330.725;  247.675;    0.000
442.771; 2330.725;  221.675;    0.000
442.820; 2353.725;  253.675;    0.000
442.868; 2266.725;  204.675;    0.000
442.917; 2394.725;  263.675;    0.000
442.965; 2427.725;  255.675;    0.000
443.013; 2313.725;  282.675;    0.000
443.062; 2305.725;  258.675;    0.000
443.110; 2273.725;  268.675;    0.000
443.158; 2333.725;  247.675;    0.000
443.206; 2378.725;  243.675;    0.000
443.255; 2345.725;  271.675;    0.000
443.303; 2341.725;  279.675;    0.000
443.351; 2269.725;  264.675;    0.000
443.399; 2325.725;  245.675;    0.000
443.448; 2395.725;  259.675;    0.000
443.496; 2339.725;  281.675;    0.000
443.544; 2315.725;  213.675;    0.000
443.592; 2411.725;  290.675;    0.000
443.640; 2389.725;  270.675;    0.000
443.689; 2332.725;  229.675;    0.000
443.737; 2328.725;  254.675;    0.000
443.785; 2340.725;  234.675;    0.000
443.833; 2322.725;  287.675;    0.000
443.881; 2289.725;  229.675;    0.000
443.929; 2344.725;  260.675;    0.000
443.977; 2348.725;  265.675;    0.000
444.025; 2278.725;  257.675;    0.000
444.074; 2351.725;  245.675;    0.000
444.122; 2411.725;  282.675;    0.000
444.170; 2386.725;  240.675;    0.000
444.218; 2360.725;  270.675;    0.000
444.266; 2339.725;  254.675;    0.000
444.314; 2308.725;  264.675;    0.000
444.362; 2320.725;  287.675;    0.000
444.410; 2375.725;  236.675;    0.000
444.458; 2360.725;  273.675;    0.000
444.506; 2350.725;  235.675;    0.000
444.554; 2394.725;  242.675;    0.000
444.602; 2386.725;  283.675;    0.000
444.650; 2476.725;  266.675;    0.000
444.698; 2430.725;  248.675;    0.000
444.746; 2367.725;  247.675;    0.000
444.793; 2391.725;  211.675;    0.000
444.841; 2365.725;  259.675;    0.000
444.889; 2410.725;  253.675;    0.000
444.937; 2389.725;  248.675;    0.000
444.985; 2336.725;  233.675;    0.000
445.033; 2370.725;  245.675;    0.000
445.081; 2263.725;  243.675;    0.000
445.129; 2331.725;  238.675;    0.000
445.176; 2319.725;  204.675;    0.000
445.224; 2384.725;  262.675;    0.000
445.272; 2327.725;  256.675;    0.000
445.320; 2412.725;  235.675;    0.000
445.368; 2246.725;  251.675;    0.000
445.415; 2344.725;  250.675;    0.000
445.463; 2308.725;  225.675;    0.000
445.511; 2384.725;  226.675;    0.000
445.559; 2386.725;  251.675;    0.000
445.606; 2409.725;  213.675;    0.000
445.654; 2290.725;  261.675;    0.000
445.702; 2218.725;  222.675;    0.000
445.749; 2308.725;  257.675;    0.000
445.797; 2313.725;  263.675;    0.000
445.845; 2267.725;  218.675;    0.000
445.892; 2335.725;  228.675;    0.000
445.940; 2285.725;  249.675;    0.000
445.988; 2354.725;  276.675;    0.000
446.035; 2297.725;  229.675;    0.000
446.083; 2296.725;  255.675;    0.000
446.130; 2298.725;  200.675;    0.000
446.178; 2295.725;  256.675;    0.000
446.226; 2265.725;  238.675;    0.000
446.273; 2303.725;  250.675;    0.000
446.321; 2268.725;  233.675;    0.000
446.368; 2291.725;  244.675;    0.000
446.416; 2242.725;  214.675;    0.000
446.463; 2279.725;  225.675;    0.000
446.511; 2296.725;  253.675;    0.000
446.558; 2178.725;  246.675;    0.000
446.606; 2298.725;  238.675;    0.000
446.653; 2321.725;  215.675;    0.000
446.701; 2358.725;  248.675;    0.000
446.748; 2336.725;  258.675;    0.000
446.796; 2305.725;  259.675;    0.000
446.843; 2331.725;  269.675;    0.000
446.891; 2289.725;  259.675;    0.000
446.938; 2315.725;  226.675;    0.000
446.985; 2296.725;  225.675;    0.000
447.033; 2329.725;  269.675;    0.000
447.080; 2358.725;  258.675;    0.000
447.128; 2281.725;  225.675;    0.000
447.175; 2376.725;  259.675;    0.000
447.222; 2326.725;  238.675;    0.000
447.270; 2369.725;  250.675;    0.000
447.317; 2273.725;  217.675;    0.000
447.364; 2291.725;  262.675;    0.000
447.411; 2286.725;  269.675;    0.000
447.459; 2341.725;  251.675;    0.000
447.506; 2211.725;  227.675;    0.000
447.553; 2307.725;  250.675;    0.000
447.601; 2328.725;  251.675;    0.000
447.648; 2301.725;  276.675;    0.000
447.695; 2373.725;  229.675;    0.000
447.742; 2328.725;  245.675;    0.000
447.789; 2402.725;  243.675;    0.000
447.837; 2352.725;  267.675;    0.000
447.884; 2285.725;  246.675;    0.000
447.931; 2305.725;  266.675;    0.000
447.978; 2378.725;  242.675;    0.000
448.025; 2303.725;  267.675;    0.000
448.072; 2292.725;  257.675;    0.000
448.120; 2297.725;  279.675;    0.000
448.167; 2345.725;  275.675;    0.000
448.214; 2369.725;  241.675;    0.000
448.261; 2244.725;  271.675;    0.000
448.308; 2316.725;  256.675;    0.000
448.355; 2365.725;  253.675;    0.000
448.402; 2369.725;  267.675;    0.000
448.449; 2195.725;  252.675;    0.000
448.496; 2220.725;  241.675;    0.000
448.543; 2280.725;  250.675;    0.000
448.590; 2229.725;  288.675;    0.000
448.637; 2257.725;  255.675;    0.000
448.684; 2222.725;  284.675;    0.000
448.731; 2302.725;  244.675;    0.000
448.778; 2240.725;  257.675;    0.000
448.825; 2303.725;  252.675;    0.000
448.872; 2141.725;  205.675;    0.000
448.919; 2257.725;  244.675;    0.000
448.966; 2311.725;  278.675;    0.000
449.013; 2358.725;  262.675;    0.000
449.060; 2318.725;  278.675;    0.000
449.107; 2269.725;  248.675;    0.000
449.154; 2171.725;  230.675;    0.000
449.200; 2230.725;  211.675;    0.000
449.247; 2229.725;  283.675;    0.000
449.294; 2341.725;  251.675;    0.000
449.341; 2309.725;  280.675;    0.000
449.388; 2244.725;  247.675;    0.000
449.435; 2273.725;  267.675;    0.000
449.481; 2339.725;  303.675;    0.000
449.528; 2257.725;  279.675;    0.000
449.575; 2197.725;  226.675;    0.000
449.622; 2218.725;  263.675;    0.000
449.668; 2197.725;  249.675;    0.000
449.715; 2206.725;  257.675;    0.000
449.762; 2255.725;  251.675;    0.000
449.809; 2209.725;  289.675;    0.000
449.855; 2305.725;  239.675;    0.000
449.902; 2247.725;  262.675;    0.000
449.949; 2273.725;  262.675;    0.000
449.995; 2264.725;  265.675;    0.000
450.042; 2195.725;  280.675;    0.000
450.089; 2243.725;  277.675;    0.000
450.135; 2186.725;  285.675;    0.000
450.182; 2237.725;  275.675;    0.000
450.229; 2252.725;  278.675;    0.000
450.275; 2180.725;  288.675;    0.000
450.322; 2202.725;  238.675;    0.000
450.368; 2327.725;  276.675;    0.000
450.415; 2253.725;  295.675;    0.000
450.462; 2232.725;  283.675;    0.000
450.508; 2322.725;  264.675;    0.000
450.555; 2293.725;  275.675;    0.000
450.601; 2208.725;  278.675;    0.000
450.648; 2201.725;  251.675;    0.000
450.694; 2224.725;  237.675;    0.000
450.741; 2239.725;  280.675;    0.000
450.787; 2309.725;  279.675;    0.000
450.834; 2252.725;  287.675;    0.000
450.880; 2167.725;  265.675;    0.000
450.927; 2244.725;  270.675;    0.000
450.973; 2160.725;  308.675;    0.000
451.019; 2213.725;  253.675;    0.000
451.066; 2340.725;  261.675;    0.000
451.112; 2174.725;  276.675;    0.000
451.159; 2262.725;  235.675;    0.000
451.205; 2174.725;  284.675;    0.000
451.251; 2223.725;  264.675;    0.000
451.298; 2214.725;  262.675;    0.000
451.344; 2275.725;  278.675;    0.000
451.390; 2255.725;  273.675;    0.000
451.437; 2241.725;  272.675;    0.000
451.483; 2334.725;  302.675;    0.000
451.529; 2213.725;  255.675;    0.000
451.576; 2236.725;  287.675;    0.000
451.622; 2204.725;  254.675;    0.000
451.668; 2251.725;  260.675;    0.000
451.714; 2229.725;  289.675;    0.000
451.761; 2263.725;  273.675;    0.000
451.807; 2228.725;  307.675;    0.000
451.853; 2264.725;  281.675;    0.000
451.899; 2128.725;  246.675;    0.000
451.945; 2181.725;  258.675;    0.000
451.992; 2232.725;  276.675;    0.000
452.038; 2166.725;  287.675;    0.000
452.084; 2172.725;  288.675;    0.000
452.130; 2114.725;  259.675;    0.000
452.176; 2191.725;  265.675;    0.000
452.222; 2182.725;  222.675;    0.000
452.268; 2253.725;  271.675;    0.000
452.315; 2184.725;  258.675;    0.000
452.361; 2165.725;  233.675;    0.000
452.407; 2216.725;  270.675;    0.000
452.453; 2175.725;  261.675;    0.000
452.499; 2285.725;  279.675;    0.000
452.545; 2238.725;  269.675;    0.000
452.591; 2277.725;  288.675;    0.000
452.637; 2166.725;  279.675;    0.000
452.683; 2146.725;  232.675;    0.000
452.729; 2289.725;  285.675;    0.000
452.775; 2255.725;  280.675;    0.000
452.821; 2259.725;  260.675;    0.000
452.867; 2197.725;  239.675;    0.000
452.913; 2203.725;  240.675;    0.000
452.959; 2269.725;  214.675;    0.000
453.005; 2204.725;  266.675;    0.000
453.051; 2226.725;  258.675;    0.000
453.097; 2197.725;  253.675;    0.000
453.142; 2166.725;  244.675;    0.000
453.188; 2189.725;  241.675;    0.000
453.234; 2154.725;  257.675;    0.000
453.280; 2151.725;  231.675;    0.000
453.326; 2159.725;  240.675;    0.000
453.372; 2243.725;  208.675;    0.000
453.418; 2245.725;  266.675;    0.000
453.463; 2171.725;  232.675;    0.000
453.509; 2180.725;  221.675;    0.000
453.555; 2170.725;  268.675;    0.000
453.601; 2162.725;  242.675;    0.000
453.647; 2231.725;  283.675;    0.000
453.692; 2212.725;  242.675;    0.000
453.738; 2208.725;  294.675;    0.000
453.784; 2173.725;  256.675;    0.000
453.829; 2217.725;  267.675;    0.000
453.875; 2148.725;  233.675;    0.000
453.921; 2104.725;  247.675;    0.000
453.967; 2198.725;  249.675;    0.000
454.012; 2209.725;  274.675;    0.000
454.058; 2161.725;  249.675;    0.000
454.104; 2204.725;  272.675;    0.000
454.149; 2218.725;  277.675;    0.000
454.195; 2151.725;  256.675;    0.000
454.240; 2207.725;  263.675;    0.000
454.286; 2209.725;  276.675;    0.000
454.332; 2198.725;  290.675;    0.000
454.377; 2261.725;  274.675;    0.000
454.423; 2190.725;  282.675;    0.000
454.468; 2152.725;  275.675;    0.000
454.514; 2207.725;  270.675;    0.000
454.559; 2195.725;  249.675;    0.000
454.605; 2229.725;  241.675;    0.000
454.650; 2231.725;  269.675;    0.000
454.696; 2166.725;  253.675;    0.000
454.741; 2130.725;  279.675;    0.000
454.787; 2162.725;  252.675;    0.000
454.832; 2177.725;  246.675;    0.000
454.878; 2216.725;  264.675;    0.000
454.923; 2253.725;  268.675;    0.000
454.969; 2243.725;  253.675;    0.000
455.014; 2237.725;  264.675;    0.000
455.060; 2209.725;  265.675;    0.000
455.105; 2194.725;  270.675;    0.000
455.150; 2175.725;  284.675;    0.000
455.196; 2218.725;  278.675;    0.000
455.241; 2275.725;  248.675;    0.000
455.286; 2211.725;  274.675;    0.000
455.332; 2197.725;  269.675;    0.000
455.377; 2150.725;  218.675;    0.000
455.422; 2207.725;  261.675;    0.000
455.468; 2250.725;  278.675;    0.000
455.513; 2186.725;  235.675;    0.000
455.558; 2173.725;  232.675;    0.000
455.604; 2213.725;  285.675;    0.000
455.649; 2204.725;  264.675;    0.000
455.694; 2225.725;  235.675;    0.000
455.739; 2183.725;  265.675;    0.000
455.785; 2229.725;  266.675;    0.000
455.830; 2279.725;  272.675;    0.000
455.875; 2138.725;  256.675;    0.000
455.920; 2171.725;  191.675;    0.000
455.965; 2146.725;  280.675;    0.000
456.010; 2221.725;  267.675;    0.000
456.056; 2208.725;  270.675;    0.000
456.101; 2177.725;  248.675;    0.000
456.146; 2214.725;  287.675;    0.000
456.191; 2263.725;  280.675;    0.000
456.236; 2173.725;  229.675;    0.000
456.281; 2264.725;  241.675;    0.000
456.326; 2191.725;  248.675;    0.000
456.371; 2213.725;  233.675;    0.000
456.416; 2292.725;  284.675;    0.000
456.461; 2195.725;  256.675;    0.000
456.507; 2180.725;  250.675;    0.000
456.552; 2218.725;  290.675;    0.000
456.597; 2255.725;  260.675;    0.000
456.642; 2238.725;  252.675;    0.000
456.687; 2192.725;  272.675;    0.000
456.732; 2282.725;  303.675;    0.000
456.776; 2213.725;  269.675;    0.000
456.821; 2274.725;  256.675;    0.000
456.866; 2241.725;  278.675;    0.000
456.911; 2142.725;  230.675;    0.000
456.956; 2225.725;  275.675;    0.000
457.001; 2275.725;  248.675;    0.000
457.046; 2199.725;  222.675;    0.000
457.091; 2199.725;  251.675;    0.000
457.136; 2191.725;  231.675;    0.000
457.181; 2143.725;  245.675;    0.000
457.225; 2268.725;  262.675;    0.000
457.270; 2194.725;  277.675;    0.000
457.315; 2216.725;  235.675;    0.000
457.360; 2244.725;  231.675;    0.000
457.405; 2340.725;  214.675;    0.000
457.450; 2228.725;  255.675;    0.000
457.494; 2273.725;  220.675;    0.000
457.539; 2238.725;  257.675;    0.000
457.584; 2180.725;  279.675;    0.000
457.629; 2262.725;  249.675;    0.000
457.673; 2190.725;  237.675;    0.000
457.718; 2209.725;  232.675;    0.000
457.763; 2243.725;  278.675;    0.000
457.807; 2242.725;  279.675;    0.000
457.852; 2243.725;  246.675;    0.000
457.897; 2323.725;  284.675;    0.000
457.941; 2323.725;  272.675;    0.000
457.986; 2254.725;  285.675;    0.000
458.031; 2285.725;  235.675;    0.000
458.075; 2302.725;  299.675;    0.000
458.120; 2288.725;  284.675;    0.000
458.165; 2220.725;  212.675;    0.000
458.209; 2335.725;  254.675;    0.000
458.254; 2233.725;  257.675;    0.000
458.298; 2303.725;  265.675;    0.000
458.343; 2260.725;  278.675;    0.000
458.387; 2322.725;  316.675;    0.000
458.432; 2300.725;  279.675;    0.000
458.476; 2305.725;  272.675;    0.000
458.521; 2262.725;  240.675;    0.000
458.565; 2288.725;  307.675;    0.000
458.610; 2327.725;  246.675;    0.000
458.654; 2308.725;  275.675;    0.000
458.699; 2293.725;  288.675;    0.000
458.743; 2329.725;  244.675;    0.000
458.788; 2316.725;  245.675;    0.000
458.832; 2362.725;  277.675;    0.000
458.877; 2324.725;  285.675;    0.000
458.921; 2233.725;  216.675;    0.000
458.965; 2213.725;  260.675;    0.000
459.010; 2366.725;  284.675;    0.000
459.054; 2441.725;  272.675;    0.000
459.099; 2286.725;  262.675;    0.000
459.143; 2385.725;  276.675;    0.000
459.187; 2293.725;  258.675;    0.000
459.231; 2405.725;  278.675;    0.000
459.276; 2351.725;  262.675;    0.000
459.320; 2459.725;  291.675;    0.000
459.364; 2463.725;  294.675;    0.000
459.409; 2411.725;  269.675;    0.000
459.453; 2377.725;  257.675;    0.000
459.497; 2376.725;  283.675;    0.000
459.541; 2428.725;  275.675;    0.000
459.586; 2402.725;  261.675;    0.000
459.630; 2346.725;  284.675;    0.000
459.674; 2305.725;  244.675;    0.000
459.718; 2470.725;  309.675;    0.000
459.762; 2380.725;  281.675;    0.000
459.807; 2395.725;  250.675;    0.000
459.851; 2413.725;  286.675;    0.000
459.895; 2373.725;  230.675;    0.000
459.939; 2343.725;  262.675;    0.000
459.983; 2402.725;  250.675;    0.000
460.027; 2400.725;  275.675;    0.000
460.071; 2371.725;  301.675;    0.000
460.115; 2383.725;  279.675;    0.000
460.159; 2472.725;  301.675;    0.000
460.204; 2407.725;  287.675;    0.000
460.248; 2426.725;  293.675;    0.000
460.292; 2354.725;  310.675;    0.000
460.336; 2462.725;  263.675;    0.000
460.380; 2416.725;  268.675;    0.000
460.424; 2454.725;  281.675;    0.000
460.468; 2483.725;  310.675;    0.000
460.512; 2439.725;  273.675;    0.000
460.556; 2479.725;  291.675;    0.000
460.599; 2430.725;  240.675;    0.000
460.643; 2357.725;  260.675;    0.000
460.687; 2480.725;  283.675;    0.000
460.731; 2426.725;  254.675;    0.000
460.775; 2462.725;  265.675;    0.000
460.819; 2483.725;  280.675;    0.000
460.863; 2525.725;  316.675;    0.000
460.907; 2348.725;  231.675;    0.000
460.951; 2551.725;  275.675;    0.000
460.995; 2429.725;  290.675;    0.000
461.038; 2440.725;  284.675;    0.000
461.082; 2477.725;  278.675;    0.000
461.126; 2616.725;  321.675;    0.000
461.170; 2480.725;  273.675;    0.000
461.214; 2569.725;  289.675;    0.000
461.257; 2458.725;  296.675;    0.000
461.301; 2497.725;  287.675;    0.000
461.345; 2542.725;  290.675;    0.000
461.389; 2408.725;  260.675;    0.000
461.432; 2521.725;  262.675;    0.000
461.476; 2475.725;  254.675;    0.000
461.520; 2517.725;  305.675;    0.000
461.563; 2453.725;  289.675;    0.000
461.607; 2626.725;  286.675;    0.000
461.651; 2475.725;  271.675;    0.000
461.694; 2444.725;  245.675;    0.000
461.738; 2435.725;  278.675;    0.000
461.782; 2551.725;  284.675;    0.000
461.825; 2511.725;  305.675;    0.000
461.869; 2498.725;  293.675;    0.000
461.913; 2516.725;  280.675;    0.000
461.956; 2508.725;  237.675;    0.000
462.000; 2596.725;  288.675;    0.000
462.043; 2518.725;  282.675;    0.000
462.087; 2513.725;  268.675;    0.000
462.130; 2452.725;  286.675;    0.000
462.174; 2556.725;  312.675;    0.000
462.217; 2542.725;  270.675;    0.000
462.261; 2485.725;  281.675;    0.000
462.304; 2559.725;  248.675;    0.000
462.348; 2566.725;  267.675;    0.000
462.391; 2584.725;  270.675;    0.000
462.435; 2589.725;  287.675;    0.000
462.478; 2549.725;  290.675;    0.000
462.522; 2564.725;  296.675;    0.000
462.565; 2625.725;  275.675;    0.000
462.608; 2626.725;  325.675;    0.000
462.652; 2637.725;  303.675;    0.000
462.695; 2593.725;  355.675;    0.000
462.739; 2584.725;  272.675;    0.000
462.782; 2671.725;  295.675;    0.000
462.825; 2681.725;  300.675;    0.000
462.869; 2591.725;  319.675;    0.000
462.912; 2719.725;  363.675;    0.000
462.955; 2574.725;  298.675;    0.000
462.998; 2674.725;  321.675;    0.000
463.042; 2701.725;  310.675;    0.000
463.085; 2640.725;  305.675;    0.000
463.128; 2706.725;  345.675;    0.000
463.172; 2643.725;  341.675;    0.000
463.215;  365.725;  300.675;    0.000
463.258;  319.725;  287.675;    0.000
463.301;  296.725;  290.675;    0.000
463.344;  305.725;  320.675;    0.000
463.388;  318.725;  340.675;    0.000
463.431;  295.725;  278.675;    0.000
463.474;  340.725;  353.675;    0.000
463.517;  308.725;  295.675;    0.000
463.560;  331.725;  328.675;    0.000
463.603;  333.725;  316.675;    0.000
463.646;  312.725;  295.675;    0.000
463.690;  326.725;  334.675;    0.000
463.733;  326.725;  343.675;    0.000
463.776;  292.725;  300.675;    0.000
463.819;  323.725;  368.675;    0.000
463.862;  296.725;  327.675;    0.000

