
Integration time [ms]:   0.300
Averaging Nr. [scans]: 1
Smoothing Nr. [pixels]: 0
Data measured with spectrometer [name]: VIS
Wave   ;Sample   ;Dark     ;Reference
[nm]   ;[counts] ;[counts] ;[counts] 

450.961;  210.275;  204.350;    0.000
451.100;  249.275;  243.350;    0.000
451.239;  226.275;  228.350;    0.000
451.377;  247.275;  250.350;    0.000
451.516;  193.275;  189.350;    0.000
451.655;  223.275;  235.350;    0.000
451.794;  216.275;  223.350;    0.000
451.932;  251.275;  269.350;    0.000
452.071;  201.275;  250.350;    0.000
452.210;  226.275;  262.350;    0.000
452.348;  211.275;  259.350;    0.000
452.487;  236.275;  231.350;    0.000
452.626;  235.275;  220.350;    0.000
452.764;  234.275;  252.350;    0.000
452.903;  245.275;  236.350;    0.000
453.042;  307.275;  217.350;    0.000
453.180; 3288.275;  273.350;    0.000
453.319; 3413.275;  261.350;    0.000
453.458; 3373.275;  219.350;    0.000
453.596; 3374.275;  307.350;    0.000
453.735; 3457.275;  246.350;    0.000
453.873; 3582.275;  270.350;    0.000
454.012; 3572.275;  232.350;    0.000
454.150; 3576.275;  211.350;    0.000
454.289; 3687.275;  245.350;    0.000
454.427; 3714.275;  224.350;    0.000
454.566; 3767.275;  252.350;    0.000
454.704; 3714.275;  225.350;    0.000
454.843; 3752.275;  195.350;    0.000
454.981; 3913.275;  258.350;    0.000
455.120; 3821.275;  191.350;    0.000
455.258; 3885.275;  243.350;    0.000
455.397; 4011.275;  188.350;    0.000
455.535; 3930.275;  219.350;    0.000
455.674; 3962.275;  184.350;    0.000
455.812; 4002.275;  225.350;    0.000
455.951; 4034.275;  201.350;    0.000
456.089; 4119.275;  187.350;    0.000
456.227; 4173.275;  199.350;    0.000
456.366; 4175.275;  235.350;    0.000
456.504; 4205.275;  216.350;    0.000
456.642; 4285.275;  256.350;    0.000
456.781; 4227.275;  201.350;    0.000
456.919; 4276.275;  231.350;    0.000
457.057; 4281.275;  181.350;    0.000
457.196; 4498.275;  231.350;    0.000
457.334; 4514.275;  229.350;    0.000
457.472; 4561.275;  242.350;    0.000
457.610; 4584.275;  221.350;    0.000
457.749; 4746.275;  218.350;    0.000
457.887; 4617.275;  213.350;    0.000
458.025; 4789.275;  228.350;    0.000
458.163; 4844.275;  204.350;    0.000
458.301; 4858.275;  230.350;    0.000
458.440; 4965.275;  200.350;    0.000
458.578; 4976.275;  222.350;    0.000
458.716; 5000.275;  137.350;    0.000
458.854; 5162.275;  259.350;    0.000
458.992; 5075.275;  172.350;    0.000
459.130; 5086.275;  253.350;    0.000
459.269; 5236.275;  212.350;    0.000
459.407; 5290.275;  212.350;    0.000
459.545; 5261.275;  225.350;    0.000
459.683; 5263.275;  225.350;    0.000
459.821; 5331.275;  192.350;    0.000
459.959; 5306.275;  205.350;    0.000
460.097; 5331.275;  199.350;    0.000
460.235; 5402.275;  232.350;    0.000
460.373; 5533.275;  248.350;    0.000
460.511; 5651.275;  225.350;    0.000
460.649; 5661.275;  204.350;    0.000
460.787; 5535.275;  221.350;    0.000
460.925; 5555.275;  181.350;    0.000
461.063; 5682.275;  243.350;    0.000
461.201; 5633.275;  212.350;    0.000
461.339; 5864.275;  229.350;    0.000
461.477; 5815.275;  162.350;    0.000
461.615; 5823.275;  232.350;    0.000
461.753; 5905.275;  193.350;    0.000
461.891; 5944.275;  217.350;    0.000
462.029; 5944.275;  224.350;    0.000
462.166; 6009.275;  222.350;    0.000
462.304; 6001.275;  185.350;    0.000
462.442; 6162.275;  246.350;    0.000
462.580; 6072.275;  246.350;    0.000
462.718; 6184.275;  235.350;    0.000
462.856; 6086.275;  230.350;    0.000
462.993; 6060.275;  266.350;    0.000
463.131; 6091.275;  208.350;    0.000
463.269; 6090.275;  218.350;    0.000
463.407; 5924.275;  215.350;    0.000
463.545; 5987.275;  200.350;    0.000
463.682; 6004.275;  206.350;    0.000
463.820; 6273.275;  211.350;    0.000
463.958; 6379.275;  206.350;    0.000
464.095; 6528.275;  193.350;    0.000
464.233; 6669.275;  203.350;    0.000
464.371; 6640.275;  258.350;    0.000
464.509; 6578.275;  219.350;    0.000
464.646; 6573.275;  210.350;    0.000
464.784; 6498.275;  206.350;    0.000
464.921; 6520.275;  233.350;    0.000
465.059; 6556.275;  186.350;    0.000
465.197; 6483.275;  213.350;    0.000
465.334; 6430.275;  202.350;    0.000
465.472; 6333.275;  236.350;    0.000
465.609; 6290.275;  206.350;    0.000
465.747; 6334.275;  208.350;    0.000
465.885; 6387.275;  198.350;    0.000
466.022; 6339.275;  210.350;    0.000
466.160; 6420.275;  245.350;    0.000
466.297; 6287.275;  226.350;    0.000
466.435; 6443.275;  235.350;    0.000
466.572; 6523.275;  226.350;    0.000
466.710; 6433.275;  266.350;    0.000
466.847; 6434.275;  258.350;    0.000
466.985; 6455.275;  228.350;    0.000
467.122; 6479.275;  201.350;    0.000
467.260; 6299.275;  170.350;    0.000
467.397; 6368.275;  174.350;    0.000
467.534; 6273.275;  244.350;    0.000
467.672; 6291.275;  247.350;    0.000
467.809; 6245.275;  182.350;    0.000
467.947; 6433.275;  208.350;    0.000
468.084; 6278.275;  206.350;    0.000
468.221; 6282.275;  249.350;    0.000
468.359; 6373.275;  253.350;    0.000
468.496; 6210.275;  208.350;    0.000
468.633; 6374.275;  189.350;    0.000
468.771; 6287.275;  216.350;    0.000
468.908; 6277.275;  240.350;    0.000
469.045; 6366.275;  234.350;    0.000
469.183; 6389.275;  203.350;    0.000
469.320; 6451.275;  230.350;    0.000
469.457; 6455.275;  219.350;    0.000
469.594; 6488.275;  233.350;    0.000
469.732; 6521.275;  230.350;    0.000
469.869; 6586.275;  239.350;    0.000
470.006; 6443.275;  224.350;    0.000
470.143; 6709.275;  241.350;    0.000
470.280; 6594.275;  234.350;    0.000
470.417; 6560.275;  236.350;    0.000
470.555; 6589.275;  207.350;    0.000
470.692; 6503.275;  251.350;    0.000
470.829; 6610.275;  238.350;    0.000
470.966; 6555.275;  242.350;    0.000
471.103; 6642.275;  215.350;    0.000
471.240; 6596.275;  237.350;    0.000
471.377; 6539.275;  235.350;    0.000
471.514; 6563.275;  256.350;    0.000
471.651; 6507.275;  198.350;    0.000
471.789; 6537.275;  215.350;    0.000
471.926; 6680.275;  210.350;    0.000
472.063; 6415.275;  237.350;    0.000
472.200; 6453.275;  265.350;    0.000
472.337; 6521.275;  240.350;    0.000
472.474; 6462.275;  195.350;    0.000
472.611; 6386.275;  228.350;    0.000
472.748; 6445.275;  234.350;    0.000
472.884; 6494.275;  230.350;    0.000
473.021; 6524.275;  219.350;    0.000
473.158; 6455.275;  253.350;    0.000
473.295; 6551.275;  207.350;    0.000
473.432; 6564.275;  238.350;    0.000
473.569; 6527.275;  236.350;    0.000
473.706; 6294.275;  203.350;    0.000
473.843; 6433.275;  232.350;    0.000
473.980; 6473.275;  207.350;    0.000
474.117; 6566.275;  182.350;    0.000
474.253; 6437.275;  261.350;    0.000
474.390; 6471.275;  211.350;    0.000
474.527; 6522.275;  229.350;    0.000
474.664; 6540.275;  181.350;    0.000
474.801; 6581.275;  250.350;    0.000
474.937; 6636.275;  196.350;    0.000
475.074; 6715.275;  213.350;    0.000
475.211; 6623.275;  232.350;    0.000
475.348; 6702.275;  228.350;    0.000
475.484; 6658.275;  240.350;    0.000
475.621; 6808.275;  235.350;    0.000
475.758; 6595.275;  232.350;    0.000
475.894; 6703.275;  227.350;    0.000
476.031; 6677.275;  233.350;    0.000
476.168; 6569.275;  205.350;    0.000
476.304; 6754.275;  263.350;    0.000
476.441; 6735.275;  255.350;    0.000
476.578; 6719.275;  191.350;    0.000
476.714; 6594.275;  218.350;    0.000
476.851; 6766.275;  224.350;    0.000
476.987; 6701.275;  225.350;    0.000
477.124; 6743.275;  231.350;    0.000
477.261; 6707.275;  291.350;    0.000
477.397; 6709.275;  218.350;    0.000
477.534; 6867.275;  209.350;    0.000
477.670; 6874.275;  210.350;    0.000
477.807; 6829.275;  199.350;    0.000
477.943; 6909.275;  219.350;    0.000
478.080; 6912.275;  234.350;    0.000
478.216; 6837.275;  196.350;    0.000
478.353; 7057.275;  234.350;    0.000
478.489; 6998.275;  219.350;    0.000
478.626; 6892.275;  209.350;    0.000
478.762; 7082.275;  206.350;    0.000
478.898; 6990.275;  209.350;    0.000
479.035; 6982.275;  232.350;    0.000
479.171; 7133.275;  219.350;    0.000
479.308; 7058.275;  226.350;    0.000
479.444; 7069.275;  184.350;    0.000
479.580; 7045.275;  192.350;    0.000
479.717; 7115.275;  247.350;    0.000
479.853; 6894.275;  181.350;    0.000
479.989; 7125.275;  212.350;    0.000
480.126; 7142.275;  187.350;    0.000
480.262; 7162.275;  217.350;    0.000
480.398; 7091.275;  249.350;    0.000
480.535; 7143.275;  196.350;    0.000
480.671; 7230.275;  199.350;    0.000
480.807; 7239.275;  231.350;    0.000
480.943; 7061.275;  192.350;    0.000
481.080; 7269.275;  206.350;    0.000
481.216; 7131.275;  189.350;    0.000
481.352; 7187.275;  215.350;    0.000
481.488; 7265.275;  223.350;    0.000
481.624; 7254.275;  235.350;    0.000
481.760; 7092.275;  218.350;    0.000
481.897; 7231.275;  204.350;    0.000
482.033; 7133.275;  243.350;    0.000
482.169; 7092.275;  239.350;    0.000
482.305; 7263.275;  221.350;    0.000
482.441; 7112.275;  162.350;    0.000
482.577; 7155.275;  241.350;    0.000
482.713; 7154.275;  223.350;    0.000
482.849; 7164.275;  195.350;    0.000
482.985; 7183.275;  230.350;    0.000
483.121; 7250.275;  230.350;    0.000
483.258; 7095.275;  254.350;    0.000
483.394; 7017.275;  199.350;    0.000
483.530; 7170.275;  209.350;    0.000
483.665; 7111.275;  196.350;    0.000
483.801; 7119.275;  208.350;    0.000
483.937; 7161.275;  202.350;    0.000
484.073; 7032.275;  247.350;    0.000
484.209; 7263.275;  188.350;    0.000
484.345; 7273.275;  241.350;    0.000
484.481; 7199.275;  247.350;    0.000
484.617; 7162.275;  248.350;    0.000
484.753; 7220.275;  255.350;    0.000
484.889; 7281.275;  253.350;    0.000
485.025; 7184.275;  226.350;    0.000
485.161; 7231.275;  207.350;    0.000
485.296; 7203.275;  247.350;    0.000
485.432; 7278.275;  255.350;    0.000
485.568; 7300.275;  216.350;    0.000
485.704; 7254.275;  232.350;    0.000
485.840; 7287.275;  231.350;    0.000
485.975; 7315.275;  233.350;    0.000
486.111; 7327.275;  207.350;    0.000
486.247; 7336.275;  211.350;    0.000
486.383; 7529.275;  219.350;    0.000
486.518; 7367.275;  213.350;    0.000
486.654; 7315.275;  216.350;    0.000
486.790; 7425.275;  253.350;    0.000
486.926; 7232.275;  229.350;    0.000
487.061; 7440.275;  241.350;    0.000
487.197; 7335.275;  218.350;    0.000
487.333; 7407.275;  221.350;    0.000
487.468; 7188.275;  206.350;    0.000
487.604; 7374.275;  254.350;    0.000
487.740; 7422.275;  240.350;    0.000
487.875; 7321.275;  260.350;    0.000
488.011; 7589.275;  232.350;    0.000
488.146; 7436.275;  206.350;    0.000
488.282; 7549.275;  236.350;    0.000
488.417; 7449.275;  255.350;    0.000
488.553; 7660.275;  221.350;    0.000
488.688; 7566.275;  233.350;    0.000
488.824; 7670.275;  246.350;    0.000
488.960; 7540.275;  267.350;    0.000
489.095; 7618.275;  217.350;    0.000
489.230; 7636.275;  226.350;    0.000
489.366; 7569.275;  232.350;    0.000
489.501; 7671.275;  220.350;    0.000
489.637; 7616.275;  245.350;    0.000
489.772; 7735.275;  228.350;    0.000
489.908; 7664.275;  250.350;    0.000
490.043; 7736.275;  239.350;    0.000
490.178; 7825.275;  213.350;    0.000
490.314; 7776.275;  270.350;    0.000
490.449; 7727.275;  245.350;    0.000
490.585; 7686.275;  218.350;    0.000
490.720; 7834.275;  243.350;    0.000
490.855; 7710.275;  196.350;    0.000
490.991; 7784.275;  208.350;    0.000
491.126; 7953.275;  268.350;    0.000
491.261; 7667.275;  226.350;    0.000
491.396; 7759.275;  201.350;    0.000
491.532; 7923.275;  213.350;    0.000
491.667; 7824.275;  183.350;    0.000
491.802; 7924.275;  239.350;    0.000
491.937; 7791.275;  228.350;    0.000
492.073; 8011.275;  258.350;    0.000
492.208; 7977.275;  218.350;    0.000
492.343; 7970.275;  205.350;    0.000
492.478; 8066.275;  247.350;    0.000
492.613; 8171.275;  217.350;    0.000
492.749; 8049.275;  258.350;    0.000
492.884; 7900.275;  208.350;    0.000
493.019; 7915.275;  248.350;    0.000
493.154; 7901.275;  231.350;    0.000
493.289; 7983.275;  226.350;    0.000
493.424; 7836.275;  216.350;    0.000
493.559; 7924.275;  205.350;    0.000
493.694; 7869.275;  203.350;    0.000
493.829; 7990.275;  231.350;    0.000
493.964; 7889.275;  200.350;    0.000
494.099; 7840.275;  253.350;    0.000
494.234; 7882.275;  244.350;    0.000
494.369; 7956.275;  239.350;    0.000
494.504; 8073.275;  223.350;    0.000
494.639; 8044.275;  263.350;    0.000
494.774; 7960.275;  240.350;    0.000
494.909; 7911.275;  231.350;    0.000
495.044; 7924.275;  195.350;    0.000
495.179; 8002.275;  231.350;    0.000
495.314; 8050.275;  231.350;    0.000
495.449; 7834.275;  239.350;    0.000
495.584; 8105.275;  201.350;    0.000
495.719; 8144.275;  201.350;    0.000
495.854; 8245.275;  201.350;    0.000
495.988; 8247.275;  239.350;    0.000
496.123; 8251.275;  199.350;    0.000
496.258; 8224.275;  256.350;    0.000
496.393; 8412.275;  214.350;    0.000
496.528; 8530.275;  220.350;    0.000
496.663; 8597.275;  207.350;    0.000
496.797; 8693.275;  241.350;    0.000
496.932; 8726.275;  215.350;    0.000
497.067; 8806.275;  240.350;    0.000
497.202; 8943.275;  177.350;    0.000
497.336; 9082.275;  221.350;    0.000
497.471; 9386.275;  228.350;    0.000
497.606; 9589.275;  213.350;    0.000
497.740; 9755.275;  217.350;    0.000
497.875;10021.275;  182.350;    0.000
498.010;10347.275;  230.350;    0.000
498.144;10325.275;  217.350;    0.000
498.279;10554.275;  194.350;    0.000
498.414;10697.275;  270.350;    0.000
498.548;10628.275;  184.350;    0.000
498.683;10465.275;  188.350;    0.000
498.817;10628.275;  216.350;    0.000
498.952;10393.275;  208.350;    0.000
499.087;10472.275;  236.350;    0.000
499.221;10566.275;  219.350;    0.000
499.356;10568.275;  263.350;    0.000
499.490;10570.275;  221.350;    0.000
499.625;10862.275;  233.350;    0.000
499.759;10822.275;  245.350;    0.000
499.894;10983.275;  241.350;    0.000
500.028;11124.275;  237.350;    0.000
500.162;11145.275;  282.350;    0.000
500.297;11179.275;  232.350;    0.000
500.431;11103.275;  266.350;    0.000
500.566;10953.275;  254.350;    0.000
500.700;10950.275;  238.350;    0.000
500.835;11052.275;  264.350;    0.000
500.969;10745.275;  165.350;    0.000
501.103;10681.275;  190.350;    0.000
501.238;10484.275;  274.350;    0.000
501.372;10145.275;  270.350;    0.000
501.506;10130.275;  231.350;    0.000
501.641; 9828.275;  224.350;    0.000
501.775; 9430.275;  224.350;    0.000
501.909; 9594.275;  218.350;    0.000
502.043; 9302.275;  238.350;    0.000
502.178; 9313.275;  289.350;    0.000
502.312; 8934.275;  225.350;    0.000
502.446; 8893.275;  295.350;    0.000
502.580; 8827.275;  200.350;    0.000
502.715; 8725.275;  256.350;    0.000
502.849; 8686.275;  226.350;    0.000
502.983; 8721.275;  250.350;    0.000
503.117; 8536.275;  229.350;    0.000
503.251; 8491.275;  267.350;    0.000
503.385; 8132.275;  237.350;    0.000
503.520; 8295.275;  210.350;    0.000
503.654; 7958.275;  204.350;    0.000
503.788; 8024.275;  236.350;    0.000
503.922; 7819.275;  225.350;    0.000
504.056; 7788.275;  222.350;    0.000
504.190; 7771.275;  220.350;    0.000
504.324; 7703.275;  257.350;    0.000
504.458; 7788.275;  223.350;    0.000
504.592; 7567.275;  252.350;    0.000
504.726; 7560.275;  216.350;    0.000
504.860; 7451.275;  231.350;    0.000
504.994; 7409.275;  228.350;    0.000
505.128; 7284.275;  239.350;    0.000
505.262; 7175.275;  245.350;    0.000
505.396; 7180.275;  231.350;    0.000
505.530; 7185.275;  211.350;    0.000
505.664; 6984.275;  223.350;    0.000
505.798; 7112.275;  239.350;    0.000
505.932; 7069.275;  232.350;    0.000
506.066; 6858.275;  263.350;    0.000
506.199; 6870.275;  231.350;    0.000
506.333; 6874.275;  213.350;    0.000
506.467; 6824.275;  241.350;    0.000
506.601; 6698.275;  233.350;    0.000
506.735; 6459.275;  235.350;    0.000
506.869; 6607.275;  269.350;    0.000
507.002; 6673.275;  244.350;    0.000
507.136; 6580.275;  258.350;    0.000
507.270; 6515.275;  218.350;    0.000
507.404; 6651.275;  191.350;    0.000
507.537; 6459.275;  226.350;    0.000
507.671; 6496.275;  243.350;    0.000
507.805; 6372.275;  234.350;    0.000
507.939; 6317.275;  234.350;    0.000
508.072; 6451.275;  261.350;    0.000
508.206; 6195.275;  220.350;    0.000
508.340; 6270.275;  241.350;    0.000
508.473; 6374.275;  214.350;    0.000
508.607; 6156.275;  232.350;    0.000
508.740; 6251.275;  222.350;    0.000
508.874; 6239.275;  225.350;    0.000
509.008; 6317.275;  258.350;    0.000
509.141; 6129.275;  210.350;    0.000
509.275; 6320.275;  199.350;    0.000
509.408; 6197.275;  260.350;    0.000
509.542; 6079.275;  252.350;    0.000
509.675; 6106.275;  276.350;    0.000
509.809; 6084.275;  266.350;    0.000
509.942; 6152.275;  227.350;    0.000
510.076; 5988.275;  243.350;    0.000
510.209; 5899.275;  221.350;    0.000
510.343; 5965.275;  229.350;    0.000
510.476; 6120.275;  246.350;    0.000
510.610; 5984.275;  211.350;    0.000
510.743; 5936.275;  279.350;    0.000
510.877; 5841.275;  274.350;    0.000
511.010; 5932.275;  252.350;    0.000
511.143; 5844.275;  228.350;    0.000
511.277; 5984.275;  261.350;    0.000
511.410; 5870.275;  217.350;    0.000
511.543; 5840.275;  230.350;    0.000
511.677; 5874.275;  245.350;    0.000
511.810; 5886.275;  237.350;    0.000
511.943; 5922.275;  224.350;    0.000
512.077; 5885.275;  194.350;    0.000
512.210; 5724.275;  212.350;    0.000
512.343; 5911.275;  236.350;    0.000
512.476; 5729.275;  248.350;    0.000
512.610; 5833.275;  249.350;    0.000
512.743; 5906.275;  224.350;    0.000
512.876; 5784.275;  277.350;    0.000
513.009; 5829.275;  261.350;    0.000
513.142; 5808.275;  213.350;    0.000
513.276; 5706.275;  192.350;    0.000
513.409; 5711.275;  267.350;    0.000
513.542; 5724.275;  224.350;    0.000
513.675; 5646.275;  244.350;    0.000
513.808; 5706.275;  218.350;    0.000
513.941; 5707.275;  237.350;    0.000
514.074; 5751.275;  257.350;    0.000
514.207; 5794.275;  245.350;    0.000
514.340; 5737.275;  195.350;    0.000
514.474; 5867.275;  244.350;    0.000
514.607; 5773.275;  230.350;    0.000
514.740; 5751.275;  246.350;    0.000
514.873; 5985.275;  268.350;    0.000
515.006; 6220.275;  253.350;    0.000
515.139; 6173.275;  235.350;    0.000
515.272; 6346.275;  214.350;    0.000
515.404; 6547.275;  228.350;    0.000
515.537; 6654.275;  263.350;    0.000
515.670; 6438.275;  270.350;    0.000
515.803; 6194.275;  243.350;    0.000
515.936; 6147.275;  226.350;    0.000
516.069; 6053.275;  227.350;    0.000
516.202; 6093.275;  259.350;    0.000
516.335; 6053.275;  260.350;    0.000
516.468; 6095.275;  243.350;    0.000
516.600; 6291.275;  258.350;    0.000
516.733; 6570.275;  235.350;    0.000
516.866; 6592.275;  267.350;    0.000
516.999; 6402.275;  251.350;    0.000
517.132; 6835.275;  261.350;    0.000
517.264; 7617.275;  260.350;    0.000
517.397; 7583.275;  231.350;    0.000
517.530; 6768.275;  257.350;    0.000
517.663; 6553.275;  263.350;    0.000
517.795; 6305.275;  250.350;    0.000
517.928; 6178.275;  257.350;    0.000
518.061; 6213.275;  227.350;    0.000
518.193; 6800.275;  252.350;    0.000
518.326; 8052.275;  227.350;    0.000
518.459; 8444.275;  210.350;    0.000
518.591; 7503.275;  214.350;    0.000
518.724; 6654.275;  269.350;    0.000
518.857; 6178.275;  215.350;    0.000
518.989; 6068.275;  259.350;    0.000
519.122; 5916.275;  238.350;    0.000
519.254; 6077.275;  248.350;    0.000
519.387; 5945.275;  246.350;    0.000
519.519; 5821.275;  239.350;    0.000
519.652; 5712.275;  249.350;    0.000
519.784; 5788.275;  238.350;    0.000
519.917; 5650.275;  231.350;    0.000
520.049; 5642.275;  244.350;    0.000
520.182; 5582.275;  205.350;    0.000
520.314; 5638.275;  262.350;    0.000
520.447; 5520.275;  234.350;    0.000
520.579; 5535.275;  273.350;    0.000
520.712; 5581.275;  215.350;    0.000
520.844; 5525.275;  258.350;    0.000
520.976; 5487.275;  242.350;    0.000
521.109; 5422.275;  232.350;    0.000
521.241; 5317.275;  236.350;    0.000
521.373; 5306.275;  227.350;    0.000
521.506; 5348.275;  212.350;    0.000
521.638; 5293.275;  292.350;    0.000
521.770; 5309.275;  259.350;    0.000
521.903; 5140.275;  263.350;    0.000
522.035; 5221.275;  269.350;    0.000
522.167; 5220.275;  289.350;    0.000
522.300; 5186.275;  255.350;    0.000
522.432; 4954.275;  247.350;    0.000
522.564; 5078.275;  239.350;    0.000
522.696; 5118.275;  246.350;    0.000
522.828; 5088.275;  230.350;    0.000
522.961; 5045.275;  239.350;    0.000
523.093; 5021.275;  269.350;    0.000
523.225; 4931.275;  251.350;    0.000
523.357; 5045.275;  244.350;    0.000
523.489; 4998.275;  266.350;    0.000
523.621; 5024.275;  267.350;    0.000
523.753; 4998.275;  234.350;    0.000
523.885; 4935.275;  229.350;    0.000
524.018; 4908.275;  221.350;    0.000
524.150; 4815.275;  264.350;    0.000
524.282; 4954.275;  283.350;    0.000
524.414; 4833.275;  258.350;    0.000
524.546; 4891.275;  286.350;    0.000
524.678; 4864.275;  274.350;    0.000
524.810; 4727.275;  253.350;    0.000
524.942; 4751.275;  183.350;    0.000
525.074; 4798.275;  232.350;    0.000
525.206; 4845.275;  250.350;    0.000
525.338; 4844.275;  228.350;    0.000
525.469; 4825.275;  224.350;    0.000
525.601; 4755.275;  247.350;    0.000
525.733; 4809.275;  199.350;    0.000
525.865; 4748.275;  230.350;    0.000
525.997; 4824.275;  209.350;    0.000
526.129; 4816.275;  211.350;    0.000
526.261; 4723.275;  233.350;    0.000
526.393; 4724.275;  261.350;    0.000
526.524; 4708.275;  206.350;    0.000
526.656; 4668.275;  260.350;    0.000
526.788; 4710.275;  293.350;    0.000
526.920; 4683.275;  208.350;    0.000
527.052; 4634.275;  204.350;    0.000
527.183; 4706.275;  244.350;    0.000
527.315; 4694.275;  237.350;    0.000
527.447; 4699.275;  236.350;    0.000
527.578; 4777.275;  235.350;    0.000
527.710; 4837.275;  253.350;    0.000
527.842; 4687.275;  231.350;    0.000
527.973; 4749.275;  224.350;    0.000
528.105; 4689.275;  237.350;    0.000
528.237; 4600.275;  213.350;    0.000
528.368; 4712.275;  194.350;    0.000
528.500; 4737.275;  195.350;    0.000
528.632; 4594.275;  201.350;    0.000
528.763; 4702.275;  196.350;    0.000
528.895; 4596.275;  204.350;    0.000
529.026; 4674.275;  214.350;    0.000
529.158; 4644.275;  197.350;    0.000
529.289; 4627.275;  230.350;    0.000
529.421; 4771.275;  247.350;    0.000
529.552; 4608.275;  255.350;    0.000
529.684; 4709.275;  270.350;    0.000
529.815; 4684.275;  248.350;    0.000
529.947; 4709.275;  234.350;    0.000
530.078; 4591.275;  223.350;    0.000
530.210; 4626.275;  243.350;    0.000
530.341; 4534.275;  222.350;    0.000
530.472; 4700.275;  217.350;    0.000
530.604; 4520.275;  242.350;    0.000
530.735; 4675.275;  249.350;    0.000
530.867; 4695.275;  257.350;    0.000
530.998; 4763.275;  250.350;    0.000
531.129; 4732.275;  244.350;    0.000
531.260; 4790.275;  276.350;    0.000
531.392; 4735.275;  220.350;    0.000
531.523; 4821.275;  262.350;    0.000
531.654; 4753.275;  264.350;    0.000
531.786; 4874.275;  225.350;    0.000
531.917; 4847.275;  285.350;    0.000
532.048; 4789.275;  239.350;    0.000
532.179; 4800.275;  248.350;    0.000
532.311; 4870.275;  219.350;    0.000
532.442; 4807.275;  264.350;    0.000
532.573; 4765.275;  230.350;    0.000
532.704; 4752.275;  253.350;    0.000
532.835; 4626.275;  239.350;    0.000
532.966; 4625.275;  247.350;    0.000
533.097; 4749.275;  225.350;    0.000
533.229; 4720.275;  282.350;    0.000
533.360; 4688.275;  236.350;    0.000
533.491; 4757.275;  247.350;    0.000
533.622; 4626.275;  265.350;    0.000
533.753; 4664.275;  226.350;    0.000
533.884; 4644.275;  294.350;    0.000
534.015; 4636.275;  215.350;    0.000
534.146; 4710.275;  223.350;    0.000
534.277; 4651.275;  264.350;    0.000
534.408; 4766.275;  232.350;    0.000
534.539; 4740.275;  274.350;    0.000
534.670; 4722.275;  275.350;    0.000
534.801; 4709.275;  261.350;    0.000
534.932; 4691.275;  225.350;    0.000
535.063; 4653.275;  235.350;    0.000
535.194; 4702.275;  300.350;    0.000
535.324; 4641.275;  249.350;    0.000
535.455; 4698.275;  260.350;    0.000
535.586; 4677.275;  288.350;    0.000
535.717; 4714.275;  237.350;    0.000
535.848; 4503.275;  271.350;    0.000
535.979; 4622.275;  234.350;    0.000
536.109; 4593.275;  255.350;    0.000
536.240; 4518.275;  269.350;    0.000
536.371; 4619.275;  232.350;    0.000
536.502; 4649.275;  253.350;    0.000
536.632; 4547.275;  240.350;    0.000
536.763; 4554.275;  251.350;    0.000
536.894; 4677.275;  256.350;    0.000
537.025; 4485.275;  247.350;    0.000
537.155; 4512.275;  272.350;    0.000
537.286; 4569.275;  241.350;    0.000
537.417; 4605.275;  279.350;    0.000
537.547; 4538.275;  229.350;    0.000
537.678; 4548.275;  227.350;    0.000
537.808; 4532.275;  225.350;    0.000
537.939; 4588.275;  250.350;    0.000
538.070; 4532.275;  263.350;    0.000
538.200; 4565.275;  270.350;    0.000
538.331; 4508.275;  249.350;    0.000
538.461; 4580.275;  230.350;    0.000
538.592; 4420.275;  282.350;    0.000
538.722; 4574.275;  253.350;    0.000
538.853; 4468.275;  240.350;    0.000
538.983; 4672.275;  232.350;    0.000
539.114; 4542.275;  248.350;    0.000
539.244; 4534.275;  256.350;    0.000
539.375; 4467.275;  248.350;    0.000
539.505; 4626.275;  235.350;    0.000
539.636; 4610.275;  237.350;    0.000
539.766; 4539.275;  263.350;    0.000
539.896; 4601.275;  217.350;    0.000
540.027; 4589.275;  217.350;    0.000
540.157; 4571.275;  231.350;    0.000
540.287; 4587.275;  210.350;    0.000
540.418; 4665.275;  239.350;    0.000
540.548; 4626.275;  260.350;    0.000
540.678; 4566.275;  228.350;    0.000
540.809; 4613.275;  241.350;    0.000
540.939; 4647.275;  238.350;    0.000
541.069; 4726.275;  245.350;    0.000
541.200; 4591.275;  225.350;    0.000
541.330; 4675.275;  219.350;    0.000
541.460; 4714.275;  254.350;    0.000
541.590; 4733.275;  234.350;    0.000
541.720; 4659.275;  196.350;    0.000
541.851; 4715.275;  200.350;    0.000
541.981; 4615.275;  235.350;    0.000
542.111; 4765.275;  246.350;    0.000
542.241; 4732.275;  214.350;    0.000
542.371; 4751.275;  221.350;    0.000
542.501; 4855.275;  259.350;    0.000
542.631; 5007.275;  213.350;    0.000
542.761; 5000.275;  240.350;    0.000
542.891; 4956.275;  242.350;    0.000
543.021; 4867.275;  230.350;    0.000
543.151; 5029.275;  261.350;    0.000
543.281; 4959.275;  212.350;    0.000
543.411; 4850.275;  229.350;    0.000
543.542; 4966.275;  204.350;    0.000
543.671; 4951.275;  260.350;    0.000
543.801; 4826.275;  236.350;    0.000
543.931; 4951.275;  243.350;    0.000
544.061; 4853.275;  262.350;    0.000
544.191; 4887.275;  223.350;    0.000
544.321; 4939.275;  217.350;    0.000
544.451; 4909.275;  209.350;    0.000
544.581; 4923.275;  213.350;    0.000
544.711; 4886.275;  256.350;    0.000
544.841; 5017.275;  235.350;    0.000
544.970; 5073.275;  260.350;    0.000
545.100; 5096.275;  236.350;    0.000
545.230; 5191.275;  220.350;    0.000
545.360; 5105.275;  219.350;    0.000
545.490; 5108.275;  217.350;    0.000
545.619; 5032.275;  199.350;    0.000
545.749; 4912.275;  183.350;    0.000
545.879; 4827.275;  169.350;    0.000
546.009; 4930.275;  215.350;    0.000
546.138; 4824.275;  228.350;    0.000
546.268; 4790.275;  209.350;    0.000
546.398; 4728.275;  167.350;    0.000
546.527; 4815.275;  178.350;    0.000
546.657; 4819.275;  175.350;    0.000
546.786; 4838.275;  225.350;    0.000
546.916; 4937.275;  196.350;    0.000
547.046; 4886.275;  185.350;    0.000
547.175; 4971.275;  184.350;    0.000
547.305; 4779.275;  197.350;    0.000
547.434; 4879.275;  168.350;    0.000
547.564; 4938.275;  183.350;    0.000
547.693; 4903.275;  204.350;    0.000
547.823; 4893.275;  211.350;    0.000
547.953; 4877.275;  174.350;    0.000
548.082; 4917.275;  217.350;    0.000
548.211; 4779.275;  201.350;    0.000
548.341; 4895.275;  195.350;    0.000
548.470; 4876.275;  225.350;    0.000
548.600; 4898.275;  194.350;    0.000
548.729; 4756.275;  218.350;    0.000
548.859; 4813.275;  202.350;    0.000
548.988; 4847.275;  193.350;    0.000
549.117; 4730.275;  182.350;    0.000
549.247; 4825.275;  198.350;    0.000
549.376; 4884.275;  200.350;    0.000
549.505; 4926.275;  200.350;    0.000
549.635; 4881.275;  224.350;    0.000
549.764; 4941.275;  200.350;    0.000
549.893; 4934.275;  224.350;    0.000
550.023; 5126.275;  207.350;    0.000
550.152; 4881.275;  167.350;    0.000
550.281; 5018.275;  219.350;    0.000
550.410; 4990.275;  217.350;    0.000
550.539; 5035.275;  211.350;    0.000
550.669; 5001.275;  173.350;    0.000
550.798; 5108.275;  211.350;    0.000
550.927; 5121.275;  195.350;    0.000
551.056; 5065.275;  176.350;    0.000
551.185; 5029.275;  203.350;    0.000
551.314; 5066.275;  178.350;    0.000
551.443; 4990.275;  185.350;    0.000
551.573; 5096.275;  167.350;    0.000
551.702; 5038.275;  193.350;    0.000
551.831; 5026.275;  245.350;    0.000
551.960; 4997.275;  190.350;    0.000
552.089; 5051.275;  202.350;    0.000
552.218; 5232.275;  211.350;    0.000
552.347; 5207.275;  184.350;    0.000
552.476; 5111.275;  200.350;    0.000
552.605; 5194.275;  174.350;    0.000
552.734; 5187.275;  206.350;    0.000
552.863; 5144.275;  189.350;    0.000
552.992; 5151.275;  209.350;    0.000
553.121; 5355.275;  201.350;    0.000
553.249; 5223.275;  208.350;    0.000
553.378; 5329.275;  142.350;    0.000
553.507; 5124.275;  208.350;    0.000
553.636; 5165.275;  192.350;    0.000
553.765; 5137.275;  182.350;    0.000
553.894; 5155.275;  183.350;    0.000
554.023; 5126.275;  182.350;    0.000
554.151; 5084.275;  211.350;    0.000
554.280; 5000.275;  179.350;    0.000
554.409; 4982.275;  182.350;    0.000
554.538; 5111.275;  209.350;    0.000
554.666; 5111.275;  182.350;    0.000
554.795; 5022.275;  179.350;    0.000
554.924; 4990.275;  217.350;    0.000
555.052; 5061.275;  220.350;    0.000
555.181; 5097.275;  228.350;    0.000
555.310; 5147.275;  212.350;    0.000
555.439; 5029.275;  199.350;    0.000
555.567; 5031.275;  220.350;    0.000
555.696; 5056.275;  187.350;    0.000
555.824; 5010.275;  189.350;    0.000
555.953; 4955.275;  217.350;    0.000
556.082; 5060.275;  187.350;    0.000
556.210; 5149.275;  245.350;    0.000
556.339; 5088.275;  195.350;    0.000
556.467; 5165.275;  218.350;    0.000
556.596; 5107.275;  198.350;    0.000
556.724; 5104.275;  201.350;    0.000
556.853; 5076.275;  196.350;    0.000
556.981; 5042.275;  175.350;    0.000
557.110; 5096.275;  210.350;    0.000
557.238; 5035.275;  190.350;    0.000
557.367; 4984.275;  192.350;    0.000
557.495; 4964.275;  219.350;    0.000
557.623; 4987.275;  203.350;    0.000
557.752; 5082.275;  166.350;    0.000
557.880; 5069.275;  172.350;    0.000
558.008; 5072.275;  221.350;    0.000
558.137; 5202.275;  211.350;    0.000
558.265; 5151.275;  157.350;    0.000
558.393; 5193.275;  198.350;    0.000
558.522; 5044.275;  209.350;    0.000
558.650; 5068.275;  260.350;    0.000
558.778; 5247.275;  203.350;    0.000
558.906; 5139.275;  210.350;    0.000
559.035; 5100.275;  194.350;    0.000
559.163; 5212.275;  192.350;    0.000
559.291; 5074.275;  215.350;    0.000
559.419; 5189.275;  197.350;    0.000
559.548; 5243.275;  160.350;    0.000
559.676; 5310.275;  200.350;    0.000
559.804; 5326.275;  223.350;    0.000
559.932; 5403.275;  213.350;    0.000
560.060; 5244.275;  224.350;    0.000
560.188; 5385.275;  221.350;    0.000
560.316; 5403.275;  223.350;    0.000
560.444; 5387.275;  159.350;    0.000
560.572; 5497.275;  204.350;    0.000
560.700; 5542.275;  213.350;    0.000
560.828; 5556.275;  216.350;    0.000
560.956; 5491.275;  207.350;    0.000
561.085; 5553.275;  231.350;    0.000
561.212; 5550.275;  197.350;    0.000
561.340; 5669.275;  192.350;    0.000
561.468; 5728.275;  215.350;    0.000
561.596; 5665.275;  215.350;    0.000
561.724; 5736.275;  181.350;    0.000
561.852; 5607.275;  184.350;    0.000
561.980; 5664.275;  217.350;    0.000
562.108; 5762.275;  199.350;    0.000
562.236; 5830.275;  181.350;    0.000
562.364; 5956.275;  234.350;    0.000
562.492; 5779.275;  225.350;    0.000
562.619; 5876.275;  204.350;    0.000
562.747; 5807.275;  223.350;    0.000
562.875; 5961.275;  210.350;    0.000
563.003; 6016.275;  232.350;    0.000
563.130; 6043.275;  224.350;    0.000
563.258; 6128.275;  213.350;    0.000
563.386; 6175.275;  191.350;    0.000
563.514; 6242.275;  252.350;    0.000
563.641; 6396.275;  201.350;    0.000
563.769; 6549.275;  201.350;    0.000
563.897; 6600.275;  176.350;    0.000
564.024; 6569.275;  167.350;    0.000
564.152; 6849.275;  205.350;    0.000
564.280; 6826.275;  222.350;    0.000
564.407; 6684.275;  192.350;    0.000
564.535; 7010.275;  231.350;    0.000
564.662; 6952.275;  197.350;    0.000
564.790; 7122.275;  200.350;    0.000
564.917; 7037.275;  172.350;    0.000
565.045; 7410.275;  187.350;    0.000
565.173; 7311.275;  173.350;    0.000
565.300; 7370.275;  196.350;    0.000
565.428; 7641.275;  195.350;    0.000
565.555; 7580.275;  191.350;    0.000
565.682; 7893.275;  169.350;    0.000
565.810; 7843.275;  198.350;    0.000
565.937; 8335.275;  213.350;    0.000
566.065; 8474.275;  221.350;    0.000
566.192; 8540.275;  173.350;    0.000
566.320; 8762.275;  214.350;    0.000
566.447; 8979.275;  214.350;    0.000
566.574; 9029.275;  188.350;    0.000
566.702; 9461.275;  198.350;    0.000
566.829; 9370.275;  200.350;    0.000
566.956; 9559.275;  194.350;    0.000
567.083; 9609.275;  176.350;    0.000
567.211; 9738.275;  189.350;    0.000
567.338; 9760.275;  184.350;    0.000
567.465; 9701.275;  181.350;    0.000
567.593; 9821.275;  194.350;    0.000
567.720; 9688.275;  193.350;    0.000
567.847; 9769.275;  196.350;    0.000
567.974;10114.275;  199.350;    0.000
568.101;10984.275;  150.350;    0.000
568.228;13088.275;  174.350;    0.000
568.356;14472.275;  164.350;    0.000
568.483;14660.275;  163.350;    0.000
568.610;14985.275;  187.350;    0.000
568.737;17116.275;  192.350;    0.000
568.864;19708.275;  218.350;    0.000
568.991;19380.275;  169.350;    0.000
569.118;17690.275;  161.350;    0.000
569.245;16294.275;  161.350;    0.000
569.372;15354.275;  187.350;    0.000
569.499;14200.275;  146.350;    0.000
569.626;13618.275;  172.350;    0.000
569.753;12769.275;  188.350;    0.000
569.880;12279.275;  180.350;    0.000
570.007;11803.275;  187.350;    0.000
570.134;11168.275;  196.350;    0.000
570.261;10715.275;  127.350;    0.000
570.388;10480.275;  189.350;    0.000
570.515;10055.275;  219.350;    0.000
570.642; 9699.275;  187.350;    0.000
570.768; 9516.275;  175.350;    0.000
570.895; 9275.275;  165.350;    0.000
571.022; 8934.275;  180.350;    0.000
571.149; 8837.275;  209.350;    0.000
571.276; 8591.275;  187.350;    0.000
571.402; 8538.275;  227.350;    0.000
571.529; 8435.275;  166.350;    0.000
571.656; 8059.275;  203.350;    0.000
571.783; 7890.275;  156.350;    0.000
571.909; 7969.275;  195.350;    0.000
572.036; 7781.275;  165.350;    0.000
572.163; 7741.275;  156.350;    0.000
572.289; 7681.275;  193.350;    0.000
572.416; 7499.275;  199.350;    0.000
572.543; 7404.275;  185.350;    0.000
572.669; 7576.275;  180.350;    0.000
572.796; 7310.275;  173.350;    0.000
572.922; 7374.275;  186.350;    0.000
573.049; 7107.275;  185.350;    0.000
573.176; 7092.275;  196.350;    0.000
573.302; 7124.275;  189.350;    0.000
573.429; 7171.275;  186.350;    0.000
573.555; 6975.275;  220.350;    0.000
573.682; 6863.275;  196.350;    0.000
573.808; 6834.275;  201.350;    0.000
573.935; 6906.275;  188.350;    0.000
574.061; 6699.275;  216.350;    0.000
574.188; 6847.275;  161.350;    0.000
574.314; 6837.275;  189.350;    0.000
574.440; 6763.275;  190.350;    0.000
574.567; 6679.275;  201.350;    0.000
574.693; 6677.275;  175.350;    0.000
574.820; 6777.275;  188.350;    0.000
574.946; 6620.275;  182.350;    0.000
575.072; 6647.275;  188.350;    0.000
575.198; 6693.275;  232.350;    0.000
575.325; 6662.275;  159.350;    0.000
575.451; 6726.275;  231.350;    0.000
575.577; 6562.275;  196.350;    0.000
575.704; 6609.275;  177.350;    0.000
575.830; 6596.275;  171.350;    0.000
575.956; 6533.275;  163.350;    0.000
576.082; 6661.275;  197.350;    0.000
576.208; 6687.275;  181.350;    0.000
576.335; 6668.275;  218.350;    0.000
576.461; 6648.275;  207.350;    0.000
576.587; 6610.275;  173.350;    0.000
576.713; 6682.275;  170.350;    0.000
576.839; 6735.275;  186.350;    0.000
576.965; 6522.275;  194.350;    0.000
577.091; 6520.275;  167.350;    0.000
577.217; 6651.275;  212.350;    0.000
577.343; 6515.275;  214.350;    0.000
577.469; 6455.275;  208.350;    0.000
577.596; 6609.275;  188.350;    0.000
577.722; 6568.275;  221.350;    0.000
577.848; 6593.275;  197.350;    0.000
577.974; 6583.275;  222.350;    0.000
578.099; 6713.275;  187.350;    0.000
578.225; 6658.275;  213.350;    0.000
578.351; 6616.275;  190.350;    0.000
578.477; 6704.275;  212.350;    0.000
578.603; 6685.275;  178.350;    0.000
578.729; 6688.275;  193.350;    0.000
578.855; 6667.275;  194.350;    0.000
578.981; 6824.275;  152.350;    0.000
579.107; 6794.275;  175.350;    0.000
579.232; 6874.275;  192.350;    0.000
579.358; 6898.275;  186.350;    0.000
579.484; 6809.275;  186.350;    0.000
579.610; 6864.275;  199.350;    0.000
579.735; 6991.275;  197.350;    0.000
579.861; 6993.275;  203.350;    0.000
579.987; 6975.275;  220.350;    0.000
580.113; 7130.275;  210.350;    0.000
580.238; 7132.275;  189.350;    0.000
580.364; 7253.275;  214.350;    0.000
580.490; 7312.275;  205.350;    0.000
580.615; 7269.275;  231.350;    0.000
580.741; 7141.275;  212.350;    0.000
580.867; 7290.275;  196.350;    0.000
580.992; 7376.275;  214.350;    0.000
581.118; 7448.275;  178.350;    0.000
581.243; 7502.275;  209.350;    0.000
581.369; 7636.275;  173.350;    0.000
581.494; 7695.275;  209.350;    0.000
581.620; 7860.275;  204.350;    0.000
581.745; 7858.275;  168.350;    0.000
581.871; 7917.275;  236.350;    0.000
581.996; 8090.275;  212.350;    0.000
582.122; 8257.275;  192.350;    0.000
582.247; 8140.275;  179.350;    0.000
582.373; 8193.275;  189.350;    0.000
582.498; 8422.275;  217.350;    0.000
582.624; 8411.275;  231.350;    0.000
582.749; 8580.275;  237.350;    0.000
582.874; 8734.275;  205.350;    0.000
583.000; 8906.275;  204.350;    0.000
583.125; 9009.275;  192.350;    0.000
583.250; 9149.275;  229.350;    0.000
583.376; 9282.275;  256.350;    0.000
583.501; 9347.275;  200.350;    0.000
583.626; 9445.275;  207.350;    0.000
583.751; 9754.275;  215.350;    0.000
583.877;10010.275;  212.350;    0.000
584.002;10115.275;  227.350;    0.000
584.127;10355.275;  153.350;    0.000
584.252;10580.275;  197.350;    0.000
584.377;10985.275;  183.350;    0.000
584.503;11005.275;  211.350;    0.000
584.628;11305.275;  215.350;    0.000
584.753;11661.275;  194.350;    0.000
584.878;11844.275;  154.350;    0.000
585.003;12162.275;  213.350;    0.000
585.128;12492.275;  199.350;    0.000
585.253;13048.275;  219.350;    0.000
585.378;13268.275;  174.350;    0.000
585.503;13854.275;  202.350;    0.000
585.628;14499.275;  186.350;    0.000
585.753;14918.275;  209.350;    0.000
585.878;15310.275;  167.350;    0.000
586.003;16048.275;  226.350;    0.000
586.128;16843.275;  206.350;    0.000
586.253;17493.275;  198.350;    0.000
586.378;18403.275;  180.350;    0.000
586.503;19031.275;  201.350;    0.000
586.628;20346.275;  206.350;    0.000
586.753;21589.275;  178.350;    0.000
586.878;22706.275;  228.350;    0.000
587.003;24581.275;  199.350;    0.000
587.127;26125.275;  194.350;    0.000
587.252;27793.275;  212.350;    0.000
587.377;29962.275;  172.350;    0.000
587.502;32039.275;  219.350;    0.000
587.627;34626.273;  247.350;    0.000
587.751;37584.273;  184.350;    0.000
587.876;41530.273;  215.350;    0.000
588.001;45107.273;  163.350;    0.000
588.125;49797.273;  185.350;    0.000
588.250;54261.273;  171.350;    0.000
588.375;59800.273;  255.350;    0.000
588.499;64657.273;  185.350;    0.000
588.624;65259.273;  167.350;    0.000
588.749;65259.273;  170.350;    0.000
588.873;62778.273;  173.350;    0.000
588.998;56772.273;  203.350;    0.000
589.122;65259.273;  184.350;    0.000
589.247;65259.273;  217.350;    0.000
589.372;65259.273;  250.350;    0.000
589.496;65259.273;  200.350;    0.000
589.621;62610.273;  199.350;    0.000
589.745;65259.273;  235.350;    0.000
589.870;65259.273;  206.350;    0.000
589.994;65259.273;  194.350;    0.000
590.118;65259.273;  177.350;    0.000
590.243;61565.273;  231.350;    0.000
590.367;55988.273;  173.350;    0.000
590.492;51157.273;  170.350;    0.000
590.616;46366.273;  182.350;    0.000
590.740;42766.273;  178.350;    0.000
590.865;39250.273;  219.350;    0.000
590.989;36084.273;  210.350;    0.000
591.114;33484.273;  194.350;    0.000
591.238;31147.275;  154.350;    0.000
591.362;29385.275;  210.350;    0.000
591.486;27411.275;  215.350;    0.000
591.611;25876.275;  194.350;    0.000
591.735;24572.275;  206.350;    0.000
591.859;23263.275;  188.350;    0.000
591.983;22242.275;  202.350;    0.000
592.107;20875.275;  175.350;    0.000
592.232;20066.275;  214.350;    0.000
592.356;19302.275;  232.350;    0.000
592.480;18543.275;  203.350;    0.000
592.604;17529.275;  204.350;    0.000
592.728;17021.275;  187.350;    0.000
592.852;16427.275;  204.350;    0.000
592.976;15889.275;  163.350;    0.000
593.100;15299.275;  177.350;    0.000
593.224;15066.275;  209.350;    0.000
593.349;14384.275;  255.350;    0.000
593.473;14037.275;  225.350;    0.000
593.597;13648.275;  211.350;    0.000
593.721;13345.275;  222.350;    0.000
593.844;12801.275;  202.350;    0.000
593.968;12570.275;  223.350;    0.000
594.092;12366.275;  162.350;    0.000
594.216;12100.275;  211.350;    0.000
594.340;11728.275;  198.350;    0.000
594.464;11474.275;  242.350;    0.000
594.588;11263.275;  213.350;    0.000
594.712;10809.275;  198.350;    0.000
594.836;10776.275;  207.350;    0.000
594.959;10498.275;  192.350;    0.000
595.083;10195.275;  180.350;    0.000
595.207;10019.275;  242.350;    0.000
595.331; 9828.275;  172.350;    0.000
595.455; 9788.275;  185.350;    0.000
595.578; 9331.275;  221.350;    0.000
595.702; 9219.275;  233.350;    0.000
595.826; 9233.275;  164.350;    0.000
595.949; 8846.275;  215.350;    0.000
596.073; 8762.275;  198.350;    0.000
596.197; 8869.275;  266.350;    0.000
596.320; 8505.275;  236.350;    0.000
596.444; 8510.275;  215.350;    0.000
596.568; 8343.275;  213.350;    0.000
596.691; 8133.275;  198.350;    0.000
596.815; 8104.275;  210.350;    0.000
596.938; 8026.275;  207.350;    0.000
597.062; 7869.275;  187.350;    0.000
597.186; 7843.275;  234.350;    0.000
597.309; 7604.275;  176.350;    0.000
597.433; 7526.275;  222.350;    0.000
597.556; 7433.275;  219.350;    0.000
597.680; 7318.275;  227.350;    0.000
597.803; 7461.275;  240.350;    0.000
597.926; 7196.275;  227.350;    0.000
598.050; 6949.275;  198.350;    0.000
598.173; 7056.275;  235.350;    0.000
598.297; 6947.275;  233.350;    0.000
598.420; 6928.275;  211.350;    0.000
598.543; 6726.275;  207.350;    0.000
598.667; 6842.275;  232.350;    0.000
598.790; 6802.275;  205.350;    0.000
598.913; 6787.275;  200.350;    0.000
599.037; 6632.275;  193.350;    0.000
599.160; 6615.275;  199.350;    0.000
599.283; 6605.275;  237.350;    0.000
599.406; 6467.275;  168.350;    0.000
599.530; 6385.275;  231.350;    0.000
599.653; 6418.275;  220.350;    0.000
599.776; 6327.275;  203.350;    0.000
599.899; 6228.275;  202.350;    0.000
600.022; 6233.275;  189.350;    0.000
600.145; 6224.275;  175.350;    0.000
600.269; 6249.275;  235.350;    0.000
600.392; 6117.275;  213.350;    0.000
600.515; 6160.275;  236.350;    0.000
600.638; 5914.275;  198.350;    0.000
600.761; 5944.275;  195.350;    0.000
600.884; 5822.275;  221.350;    0.000
601.007; 5844.275;  236.350;    0.000
601.130; 5810.275;  223.350;    0.000
601.253; 5865.275;  250.350;    0.000
601.376; 5922.275;  195.350;    0.000
601.499; 5537.275;  168.350;    0.000
601.622; 5742.275;  221.350;    0.000
601.745; 5633.275;  223.350;    0.000
601.868; 5650.275;  204.350;    0.000
601.991; 5673.275;  207.350;    0.000
602.113; 5576.275;  223.350;    0.000
602.236; 5477.275;  182.350;    0.000
602.359; 5524.275;  235.350;    0.000
602.482; 5487.275;  173.350;    0.000
602.605; 5382.275;  227.350;    0.000
602.728; 5472.275;  227.350;    0.000
602.850; 5516.275;  250.350;    0.000
602.973; 5434.275;  195.350;    0.000
603.096; 5535.275;  270.350;    0.000
603.219; 5323.275;  197.350;    0.000
603.341; 5328.275;  195.350;    0.000
603.464; 5274.275;  204.350;    0.000
603.587; 5389.275;  243.350;    0.000
603.709; 5229.275;  188.350;    0.000
603.832; 5273.275;  214.350;    0.000
603.955; 5284.275;  213.350;    0.000
604.077; 5141.275;  201.350;    0.000
604.200; 5212.275;  209.350;    0.000
604.323; 5280.275;  201.350;    0.000
604.445; 5064.275;  202.350;    0.000
604.568; 5092.275;  230.350;    0.000
604.690; 5108.275;  212.350;    0.000
604.813; 5134.275;  226.350;    0.000
604.935; 4996.275;  216.350;    0.000
605.058; 4970.275;  182.350;    0.000
605.180; 4988.275;  204.350;    0.000
605.303; 5016.275;  199.350;    0.000
605.425; 4915.275;  178.350;    0.000
605.547; 5060.275;  209.350;    0.000
605.670; 4951.275;  206.350;    0.000
605.792; 4964.275;  199.350;    0.000
605.915; 4840.275;  221.350;    0.000
606.037; 4985.275;  222.350;    0.000
606.159; 4954.275;  160.350;    0.000
606.282; 4805.275;  188.350;    0.000
606.404; 4910.275;  205.350;    0.000
606.526; 4844.275;  228.350;    0.000
606.648; 4754.275;  184.350;    0.000
606.771; 4863.275;  195.350;    0.000
606.893; 4738.275;  193.350;    0.000
607.015; 4799.275;  202.350;    0.000
607.137; 4690.275;  189.350;    0.000
607.260; 4715.275;  201.350;    0.000
607.382; 4715.275;  211.350;    0.000
607.504; 4745.275;  206.350;    0.000
607.626; 4763.275;  236.350;    0.000
607.748; 4813.275;  228.350;    0.000
607.870; 4745.275;  212.350;    0.000
607.992; 4663.275;  201.350;    0.000
608.114; 4722.275;  214.350;    0.000
608.237; 4747.275;  235.350;    0.000
608.359; 4756.275;  215.350;    0.000
608.481; 4660.275;  183.350;    0.000
608.603; 4607.275;  206.350;    0.000
608.725; 4609.275;  238.350;    0.000
608.847; 4681.275;  237.350;    0.000
608.969; 4658.275;  227.350;    0.000
609.090; 4576.275;  205.350;    0.000
609.212; 4493.275;  182.350;    0.000
609.334; 4564.275;  210.350;    0.000
609.456; 4650.275;  208.350;    0.000
609.578; 4621.275;  195.350;    0.000
609.700; 4554.275;  196.350;    0.000
609.822; 4526.275;  184.350;    0.000
609.944; 4594.275;  258.350;    0.000
610.065; 4559.275;  219.350;    0.000
610.187; 4428.275;  217.350;    0.000
610.309; 4627.275;  179.350;    0.000
610.431; 4453.275;  189.350;    0.000
610.552; 4387.275;  212.350;    0.000
610.674; 4451.275;  211.350;    0.000
610.796; 4384.275;  168.350;    0.000
610.918; 4501.275;  201.350;    0.000
611.039; 4408.275;  212.350;    0.000
611.161; 4437.275;  207.350;    0.000
611.282; 4423.275;  219.350;    0.000
611.404; 4486.275;  243.350;    0.000
611.526; 4462.275;  180.350;    0.000
611.647; 4306.275;  235.350;    0.000
611.769; 4322.275;  189.350;    0.000
611.890; 4455.275;  201.350;    0.000
612.012; 4377.275;  191.350;    0.000
612.133; 4485.275;  227.350;    0.000
612.255; 4383.275;  191.350;    0.000
612.377; 4369.275;  192.350;    0.000
612.498; 4335.275;  202.350;    0.000
612.619; 4324.275;  207.350;    0.000
612.741; 4402.275;  241.350;    0.000
612.862; 4361.275;  219.350;    0.000
612.984; 4378.275;  203.350;    0.000
613.105; 4477.275;  228.350;    0.000
613.226; 4276.275;  199.350;    0.000
613.348; 4355.275;  238.350;    0.000
613.469; 4370.275;  239.350;    0.000
613.590; 4409.275;  183.350;    0.000
613.712; 4284.275;  245.350;    0.000
613.833; 4294.275;  241.350;    0.000
613.954; 4325.275;  208.350;    0.000
614.076; 4465.275;  181.350;    0.000
614.197; 4348.275;  217.350;    0.000
614.318; 4326.275;  182.350;    0.000
614.439; 4291.275;  204.350;    0.000
614.560; 4366.275;  219.350;    0.000
614.682; 4380.275;  238.350;    0.000
614.803; 4384.275;  240.350;    0.000
614.924; 4487.275;  212.350;    0.000
615.045; 4547.275;  225.350;    0.000
615.166; 4765.275;  227.350;    0.000
615.287; 5260.275;  230.350;    0.000
615.408; 6524.275;  187.350;    0.000
615.529; 7265.275;  211.350;    0.000
615.650; 6805.275;  202.350;    0.000
615.771; 6112.275;  203.350;    0.000
615.892; 6310.275;  222.350;    0.000
616.013; 8142.275;  215.350;    0.000
616.134; 9804.275;  193.350;    0.000
616.255; 9526.275;  242.350;    0.000
616.376; 7992.275;  205.350;    0.000
616.497; 6915.275;  200.350;    0.000
616.618; 6275.275;  177.350;    0.000
616.739; 5862.275;  218.350;    0.000
616.860; 5733.275;  214.350;    0.000
616.981; 5340.275;  208.350;    0.000
617.102; 5137.275;  203.350;    0.000
617.222; 5069.275;  212.350;    0.000
617.343; 4869.275;  162.350;    0.000
617.464; 4864.275;  230.350;    0.000
617.585; 4686.275;  197.350;    0.000
617.705; 4680.275;  209.350;    0.000
617.826; 4554.275;  229.350;    0.000
617.947; 4492.275;  216.350;    0.000
618.068; 4436.275;  192.350;    0.000
618.188; 4399.275;  230.350;    0.000
618.309; 4458.275;  238.350;    0.000
618.430; 4435.275;  242.350;    0.000
618.550; 4284.275;  235.350;    0.000
618.671; 4324.275;  207.350;    0.000
618.791; 4359.275;  228.350;    0.000
618.912; 4235.275;  266.350;    0.000
619.033; 4229.275;  232.350;    0.000
619.153; 4304.275;  207.350;    0.000
619.274; 4206.275;  193.350;    0.000
619.394; 4189.275;  237.350;    0.000
619.515; 4161.275;  216.350;    0.000
619.635; 4060.275;  203.350;    0.000
619.756; 4108.275;  227.350;    0.000
619.876; 4131.275;  244.350;    0.000
619.996; 4178.275;  220.350;    0.000
620.117; 4118.275;  231.350;    0.000
620.237; 4088.275;  235.350;    0.000
620.358; 4126.275;  241.350;    0.000
620.478; 4045.275;  237.350;    0.000
620.598; 3989.275;  255.350;    0.000
620.719; 3887.275;  243.350;    0.000
620.839; 3978.275;  237.350;    0.000
620.959; 3933.275;  216.350;    0.000
621.079; 3988.275;  240.350;    0.000
621.200; 3928.275;  195.350;    0.000
621.320; 3981.275;  287.350;    0.000
621.440; 3915.275;  236.350;    0.000
621.560; 3936.275;  231.350;    0.000
621.681; 3882.275;  177.350;    0.000
621.801; 3856.275;  257.350;    0.000
621.921; 3930.275;  241.350;    0.000
622.041; 3867.275;  239.350;    0.000
622.161; 3910.275;  233.350;    0.000
622.281; 3857.275;  204.350;    0.000
622.401; 3962.275;  204.350;    0.000
622.521; 3825.275;  242.350;    0.000
622.641; 3881.275;  205.350;    0.000
622.761; 3817.275;  254.350;    0.000
622.882; 3736.275;  225.350;    0.000
623.002; 3863.275;  255.350;    0.000
623.121; 3876.275;  244.350;    0.000
623.241; 3834.275;  238.350;    0.000
623.361; 3754.275;  208.350;    0.000
623.481; 3620.275;  194.350;    0.000
623.601; 3843.275;  249.350;    0.000
623.721; 3776.275;  229.350;    0.000
623.841; 3797.275;  244.350;    0.000
623.961; 3735.275;  253.350;    0.000
624.081; 3688.275;  218.350;    0.000
624.201; 3759.275;  218.350;    0.000
624.320; 3704.275;  212.350;    0.000
624.440; 3688.275;  251.350;    0.000
624.560; 3649.275;  244.350;    0.000
624.680; 3706.275;  224.350;    0.000
624.799; 3669.275;  198.350;    0.000
624.919; 3628.275;  215.350;    0.000
625.039; 3650.275;  225.350;    0.000
625.159; 3656.275;  209.350;    0.000
625.278; 3783.275;  211.350;    0.000
625.398; 3616.275;  260.350;    0.000
625.518; 3646.275;  205.350;    0.000
625.637; 3665.275;  240.350;    0.000
625.757; 3602.275;  208.350;    0.000
625.876; 3581.275;  221.350;    0.000
625.996; 3738.275;  245.350;    0.000
626.115; 3627.275;  196.350;    0.000
626.235; 3562.275;  241.350;    0.000
626.354; 3629.275;  231.350;    0.000
626.474; 3606.275;  220.350;    0.000
626.594; 3559.275;  210.350;    0.000
626.713; 3479.275;  229.350;    0.000
626.832; 3677.275;  236.350;    0.000
626.952; 3560.275;  223.350;    0.000
627.071; 3555.275;  211.350;    0.000
627.191; 3581.275;  220.350;    0.000
627.310; 3645.275;  206.350;    0.000
627.429; 3466.275;  223.350;    0.000
627.549; 3470.275;  205.350;    0.000
627.668; 3575.275;  227.350;    0.000
627.787; 3618.275;  221.350;    0.000
627.907; 3512.275;  194.350;    0.000
628.026; 3529.275;  231.350;    0.000
628.145; 3533.275;  210.350;    0.000
628.264; 3613.275;  245.350;    0.000
628.384; 3485.275;  234.350;    0.000
628.503; 3496.275;  210.350;    0.000
628.622; 3532.275;  223.350;    0.000
628.741; 3474.275;  210.350;    0.000
628.860; 3564.275;  222.350;    0.000
628.980; 3460.275;  184.350;    0.000
629.099; 3510.275;  234.350;    0.000
629.218; 3498.275;  157.350;    0.000
629.337; 3589.275;  220.350;    0.000
629.456; 3468.275;  210.350;    0.000
629.575; 3524.275;  239.350;    0.000
629.694; 3483.275;  216.350;    0.000
629.813; 3487.275;  218.350;    0.000
629.932; 3526.275;  175.350;    0.000
630.051; 3558.275;  218.350;    0.000
630.170; 3480.275;  215.350;    0.000
630.289; 3517.275;  203.350;    0.000
630.408; 3503.275;  180.350;    0.000
630.527; 3501.275;  249.350;    0.000
630.646; 3481.275;  186.350;    0.000
630.764; 3524.275;  189.350;    0.000
630.883; 3510.275;  221.350;    0.000
631.002; 3435.275;  191.350;    0.000
631.121; 3418.275;  210.350;    0.000
631.240; 3502.275;  256.350;    0.000
631.359; 3452.275;  246.350;    0.000
631.477; 3419.275;  230.350;    0.000
631.596; 3467.275;  229.350;    0.000
631.715; 3503.275;  242.350;    0.000
631.834; 3493.275;  261.350;    0.000
631.952; 3474.275;  250.350;    0.000
632.071; 3469.275;  218.350;    0.000
632.190; 3481.275;  200.350;    0.000
632.308; 3417.275;  226.350;    0.000
632.427; 3360.275;  234.350;    0.000
632.546; 3385.275;  250.350;    0.000
632.664; 3334.275;  224.350;    0.000
632.783; 3452.275;  211.350;    0.000
632.901; 3324.275;  254.350;    0.000
633.020; 3346.275;  204.350;    0.000
633.138; 3414.275;  228.350;    0.000
633.257; 3403.275;  219.350;    0.000
633.375; 3408.275;  243.350;    0.000
633.494; 3368.275;  242.350;    0.000
633.612; 3341.275;  227.350;    0.000
633.731; 3317.275;  221.350;    0.000
633.849; 3239.275;  239.350;    0.000
633.968; 3352.275;  219.350;    0.000
634.086; 3422.275;  218.350;    0.000
634.204; 3390.275;  203.350;    0.000
634.323; 3332.275;  222.350;    0.000
634.441; 3289.275;  257.350;    0.000
634.559; 3310.275;  201.350;    0.000
634.678; 3301.275;  214.350;    0.000
634.796; 3343.275;  207.350;    0.000
634.914; 3236.275;  226.350;    0.000
635.032; 3302.275;  250.350;    0.000
635.151; 3155.275;  228.350;    0.000
635.269; 3248.275;  188.350;    0.000
635.387; 3279.275;  247.350;    0.000
635.505; 3282.275;  250.350;    0.000
635.623; 3327.275;  230.350;    0.000
635.742; 3261.275;  209.350;    0.000
635.860; 3324.275;  239.350;    0.000
635.978; 3121.275;  213.350;    0.000
636.096; 3181.275;  176.350;    0.000
636.214; 3289.275;  246.350;    0.000
636.332; 3174.275;  224.350;    0.000
636.450; 3168.275;  215.350;    0.000
636.568; 3258.275;  246.350;    0.000
636.686; 3140.275;  225.350;    0.000
636.804; 3162.275;  218.350;    0.000
636.922; 3207.275;  195.350;    0.000
637.040; 3256.275;  213.350;    0.000
637.158; 3227.275;  228.350;    0.000
637.276; 3222.275;  206.350;    0.000
637.394; 3293.275;  224.350;    0.000
637.512; 3149.275;  245.350;    0.000
637.629; 3252.275;  234.350;    0.000
637.747; 3183.275;  233.350;    0.000
637.865; 3131.275;  236.350;    0.000
637.983; 3058.275;  235.350;    0.000
638.101; 3158.275;  232.350;    0.000
638.218; 3184.275;  256.350;    0.000
638.336; 3173.275;  216.350;    0.000
638.454; 3185.275;  255.350;    0.000
638.572; 3205.275;  237.350;    0.000
638.689; 3007.275;  271.350;    0.000
638.807; 3166.275;  243.350;    0.000
638.925; 3120.275;  259.350;    0.000
639.042; 3122.275;  185.350;    0.000
639.160; 3128.275;  250.350;    0.000
639.278; 3077.275;  207.350;    0.000
639.395; 3113.275;  243.350;    0.000
639.513; 3146.275;  235.350;    0.000
639.630; 3163.275;  230.350;    0.000
639.748; 3074.275;  192.350;    0.000
639.865; 3114.275;  219.350;    0.000
639.983; 3126.275;  183.350;    0.000
640.100; 3173.275;  251.350;    0.000
640.218; 3093.275;  246.350;    0.000
640.335; 2997.275;  227.350;    0.000
640.453; 3053.275;  259.350;    0.000
640.570; 3065.275;  251.350;    0.000
640.688; 3030.275;  223.350;    0.000
640.805; 3112.275;  246.350;    0.000
640.922; 3060.275;  249.350;    0.000
641.040; 3044.275;  257.350;    0.000
641.157; 3022.275;  207.350;    0.000
641.274; 3005.275;  241.350;    0.000
641.391; 3096.275;  246.350;    0.000
641.509; 3070.275;  216.350;    0.000
641.626; 3086.275;  252.350;    0.000
641.743; 2997.275;  215.350;    0.000
641.860; 3062.275;  234.350;    0.000
641.978; 3060.275;  216.350;    0.000
642.095; 3033.275;  247.350;    0.000
642.212; 2993.275;  199.350;    0.000
642.329; 2988.275;  237.350;    0.000
642.446; 2979.275;  222.350;    0.000
642.563; 3002.275;  287.350;    0.000
642.681; 2952.275;  261.350;    0.000
642.798; 2988.275;  251.350;    0.000
642.915; 3040.275;  238.350;    0.000
643.032; 2991.275;  246.350;    0.000
643.149; 3007.275;  239.350;    0.000
643.266; 2984.275;  238.350;    0.000
643.383; 2966.275;  231.350;    0.000
643.500; 3006.275;  212.350;    0.000
643.617; 2973.275;  236.350;    0.000
643.734; 3013.275;  239.350;    0.000
643.850; 2934.275;  234.350;    0.000
643.967; 3059.275;  253.350;    0.000
644.084; 2979.275;  253.350;    0.000
644.201; 2992.275;  227.350;    0.000
644.318; 2946.275;  247.350;    0.000
644.435; 2923.275;  264.350;    0.000
644.552; 2989.275;  230.350;    0.000
644.668; 3019.275;  250.350;    0.000
644.785; 3036.275;  235.350;    0.000
644.902; 2975.275;  227.350;    0.000
645.019; 3013.275;  203.350;    0.000
645.135; 2996.275;  210.350;    0.000
645.252; 3019.275;  206.350;    0.000
645.369; 2952.275;  235.350;    0.000
645.485; 3001.275;  223.350;    0.000
645.602; 2924.275;  205.350;    0.000
645.719; 2960.275;  222.350;    0.000
645.835; 3035.275;  246.350;    0.000
645.952; 2918.275;  239.350;    0.000
646.068; 2990.275;  225.350;    0.000
646.185; 3106.275;  248.350;    0.000
646.302; 3104.275;  226.350;    0.000
646.418; 3023.275;  228.350;    0.000
646.535; 3009.275;  219.350;    0.000
646.651; 2981.275;  204.350;    0.000
646.768; 3045.275;  247.350;    0.000
646.884; 3082.275;  228.350;    0.000
647.000; 3067.275;  223.350;    0.000
647.117; 2966.275;  251.350;    0.000
647.233; 3098.275;  223.350;    0.000
647.350; 3068.275;  237.350;    0.000
647.466; 3037.275;  223.350;    0.000
647.582; 3105.275;  243.350;    0.000
647.699; 3003.275;  223.350;    0.000
647.815; 3067.275;  215.350;    0.000
647.931; 2962.275;  214.350;    0.000
648.047; 2902.275;  199.350;    0.000
648.164; 3032.275;  233.350;    0.000
648.280; 3051.275;  231.350;    0.000
648.396; 2985.275;  215.350;    0.000
648.512; 3101.275;  252.350;    0.000
648.629; 3009.275;  237.350;    0.000
648.745; 3034.275;  216.350;    0.000
648.861; 2997.275;  207.350;    0.000
648.977; 2942.275;  247.350;    0.000
649.093; 2964.275;  221.350;    0.000
649.209; 3038.275;  232.350;    0.000
649.325; 3077.275;  245.350;    0.000
649.441; 2980.275;  253.350;    0.000
649.557; 3033.275;  221.350;    0.000
649.673; 3024.275;  182.350;    0.000
649.789; 2995.275;  245.350;    0.000
649.905; 3008.275;  204.350;    0.000
650.021; 3040.275;  270.350;    0.000
650.137; 3016.275;  218.350;    0.000
650.253; 3060.275;  268.350;    0.000
650.369; 2973.275;  222.350;    0.000
650.485; 2924.275;  215.350;    0.000
650.601; 2978.275;  218.350;    0.000
650.717; 2904.275;  208.350;    0.000
650.833; 2978.275;  263.350;    0.000
650.948; 3084.275;  266.350;    0.000
651.064; 3038.275;  271.350;    0.000
651.180; 2953.275;  232.350;    0.000
651.296; 3024.275;  237.350;    0.000
651.411; 2967.275;  233.350;    0.000
651.527; 2940.275;  232.350;    0.000
651.643; 3025.275;  259.350;    0.000
651.759; 2932.275;  257.350;    0.000
651.874; 2960.275;  216.350;    0.000
651.990; 3055.275;  234.350;    0.000
652.105; 2904.275;  195.350;    0.000
652.221; 3078.275;  245.350;    0.000
652.337; 3004.275;  210.350;    0.000
652.452; 3010.275;  259.350;    0.000
652.568; 2983.275;  202.350;    0.000
652.683; 3020.275;  233.350;    0.000
652.799; 2915.275;  230.350;    0.000
652.914; 2938.275;  198.350;    0.000
653.030; 2955.275;  203.350;    0.000
653.145; 3093.275;  228.350;    0.000
653.261; 3090.275;  244.350;    0.000
653.376; 2985.275;  214.350;    0.000
653.492; 3061.275;  246.350;    0.000
653.607; 3013.275;  241.350;    0.000
653.722; 3072.275;  257.350;    0.000
653.838; 3151.275;  265.350;    0.000
653.953; 3010.275;  252.350;    0.000
654.068; 3014.275;  270.350;    0.000
654.184; 3118.275;  248.350;    0.000
654.299; 3100.275;  226.350;    0.000
654.414; 3139.275;  190.350;    0.000
654.530; 3205.275;  263.350;    0.000
654.645; 3223.275;  240.350;    0.000
654.760; 3265.275;  243.350;    0.000
654.875; 3248.275;  210.350;    0.000
654.990; 3269.275;  250.350;    0.000
655.106; 3266.275;  277.350;    0.000
655.221; 3351.275;  249.350;    0.000
655.336; 3394.275;  239.350;    0.000
655.451; 3354.275;  226.350;    0.000
655.566; 3324.275;  236.350;    0.000
655.681; 3509.275;  272.350;    0.000
655.796; 3439.275;  224.350;    0.000
655.911; 3569.275;  247.350;    0.000
656.026; 3587.275;  240.350;    0.000
656.141; 3676.275;  239.350;    0.000
656.256; 3654.275;  241.350;    0.000
656.371; 3785.275;  213.350;    0.000
656.486; 3680.275;  275.350;    0.000
656.601; 3781.275;  225.350;    0.000
656.716; 3814.275;  239.350;    0.000
656.831; 3581.275;  260.350;    0.000
656.946; 3602.275;  250.350;    0.000
657.060; 3620.275;  257.350;    0.000
657.175; 3396.275;  256.350;    0.000
657.290; 3457.275;  255.350;    0.000
657.405; 3494.275;  303.350;    0.000
657.520; 3449.275;  272.350;    0.000
657.634; 3376.275;  268.350;    0.000
657.749; 3320.275;  261.350;    0.000
657.864; 3252.275;  235.350;    0.000
657.979; 3279.275;  257.350;    0.000
658.093; 3224.275;  243.350;    0.000
658.208; 3208.275;  281.350;    0.000
658.323; 3250.275;  240.350;    0.000
658.437; 3294.275;  285.350;    0.000
658.552; 3097.275;  262.350;    0.000
658.666; 3188.275;  269.350;    0.000
658.781; 3076.275;  244.350;    0.000
658.895; 3069.275;  259.350;    0.000
659.010; 3051.275;  254.350;    0.000
659.125; 3056.275;  210.350;    0.000
659.239; 2992.275;  212.350;    0.000
659.353; 2990.275;  269.350;    0.000
659.468; 3096.275;  269.350;    0.000
659.582; 3005.275;  244.350;    0.000
659.697; 2910.275;  262.350;    0.000
659.811; 3028.275;  271.350;    0.000
659.926; 3005.275;  232.350;    0.000
660.040; 3026.275;  250.350;    0.000
660.154; 2978.275;  209.350;    0.000
660.269; 2945.275;  212.350;    0.000
660.383; 2874.275;  237.350;    0.000
660.497; 2920.275;  231.350;    0.000
660.612; 2975.275;  232.350;    0.000
660.726; 2883.275;  276.350;    0.000
660.840; 2938.275;  235.350;    0.000
660.954; 2829.275;  224.350;    0.000
661.068; 2906.275;  241.350;    0.000
661.183; 2825.275;  223.350;    0.000
661.297; 2753.275;  255.350;    0.000
661.411; 2795.275;  223.350;    0.000
661.525; 2756.275;  249.350;    0.000
661.639; 2843.275;  264.350;    0.000
661.753; 2746.275;  225.350;    0.000
661.867; 2778.275;  245.350;    0.000
661.981; 2659.275;  225.350;    0.000
662.095; 2842.275;  262.350;    0.000
662.209; 2739.275;  225.350;    0.000
662.323; 2743.275;  228.350;    0.000
662.437; 2735.275;  230.350;    0.000
662.551; 2787.275;  234.350;    0.000
662.665; 2773.275;  212.350;    0.000
662.779; 2715.275;  254.350;    0.000
662.893; 2703.275;  269.350;    0.000
663.007; 2701.275;  196.350;    0.000
663.121; 2701.275;  262.350;    0.000
663.235; 2666.275;  263.350;    0.000
663.349; 2601.275;  242.350;    0.000
663.462; 2745.275;  234.350;    0.000
663.576; 2646.275;  219.350;    0.000
663.690; 2756.275;  234.350;    0.000
663.804; 2635.275;  205.350;    0.000
663.917; 2666.275;  224.350;    0.000
664.031; 2614.275;  208.350;    0.000
664.145; 2641.275;  241.350;    0.000
664.258; 2650.275;  188.350;    0.000
664.372; 2605.275;  214.350;    0.000
664.486; 2631.275;  203.350;    0.000
664.599; 2615.275;  217.350;    0.000
664.713; 2614.275;  286.350;    0.000
664.827; 2523.275;  199.350;    0.000
664.940; 2602.275;  250.350;    0.000
665.054; 2567.275;  261.350;    0.000
665.167; 2553.275;  258.350;    0.000
665.281; 2651.275;  234.350;    0.000
665.394; 2583.275;  213.350;    0.000
665.508; 2479.275;  222.350;    0.000
665.621; 2557.275;  254.350;    0.000
665.735; 2662.275;  252.350;    0.000
665.848; 2571.275;  248.350;    0.000
665.961; 2575.275;  234.350;    0.000
666.075; 2659.275;  262.350;    0.000
666.188; 2534.275;  270.350;    0.000
666.301; 2521.275;  237.350;    0.000
666.415; 2515.275;  245.350;    0.000
666.528; 2529.275;  248.350;    0.000
666.641; 2493.275;  210.350;    0.000
666.755; 2503.275;  218.350;    0.000
666.868; 2584.275;  224.350;    0.000
666.981; 2549.275;  244.350;    0.000
667.094; 2502.275;  279.350;    0.000
667.207; 2516.275;  190.350;    0.000
667.321; 2463.275;  210.350;    0.000
667.434; 2454.275;  205.350;    0.000
667.547; 2530.275;  253.350;    0.000
667.660; 2453.275;  243.350;    0.000
667.773; 2502.275;  242.350;    0.000
667.886; 2483.275;  218.350;    0.000
667.999; 2537.275;  226.350;    0.000
668.112; 2513.275;  258.350;    0.000
668.225; 2466.275;  243.350;    0.000
668.338; 2447.275;  224.350;    0.000
668.451; 2473.275;  250.350;    0.000
668.564; 2534.275;  260.350;    0.000
668.677; 2482.275;  204.350;    0.000
668.790; 2425.275;  229.350;    0.000
668.903; 2467.275;  269.350;    0.000
669.016; 2388.275;  228.350;    0.000
669.129; 2387.275;  253.350;    0.000
669.242; 2359.275;  245.350;    0.000
669.354; 2350.275;  234.350;    0.000
669.467; 2447.275;  256.350;    0.000
669.580; 2450.275;  223.350;    0.000
669.693; 2427.275;  252.350;    0.000
669.806; 2353.275;  212.350;    0.000
669.918; 2371.275;  228.350;    0.000
670.031; 2433.275;  265.350;    0.000
670.144; 2353.275;  255.350;    0.000
670.256; 2419.275;  229.350;    0.000
670.369; 2406.275;  301.350;    0.000
670.482; 2367.275;  263.350;    0.000
670.594; 2424.275;  246.350;    0.000
670.707; 2298.275;  255.350;    0.000
670.820; 2345.275;  256.350;    0.000
670.932; 2415.275;  210.350;    0.000
671.045; 2419.275;  249.350;    0.000
671.157; 2398.275;  254.350;    0.000
671.270; 2403.275;  265.350;    0.000
671.382; 2438.275;  219.350;    0.000
671.495; 2373.275;  242.350;    0.000
671.607; 2401.275;  266.350;    0.000
671.720; 2319.275;  238.350;    0.000
671.832; 2301.275;  220.350;    0.000
671.944; 2387.275;  251.350;    0.000
672.057; 2402.275;  232.350;    0.000
672.169; 2370.275;  240.350;    0.000
672.281; 2393.275;  270.350;    0.000
672.394; 2410.275;  257.350;    0.000
672.506; 2285.275;  247.350;    0.000
672.618; 2307.275;  229.350;    0.000
672.731; 2327.275;  227.350;    0.000
672.843; 2372.275;  282.350;    0.000
672.955; 2457.275;  262.350;    0.000
673.067; 2328.275;  277.350;    0.000
673.180; 2255.275;  280.350;    0.000
673.292; 2401.275;  241.350;    0.000
673.404; 2336.275;  234.350;    0.000
673.516; 2302.275;  224.350;    0.000
673.628; 2376.275;  272.350;    0.000
673.740; 2279.275;  249.350;    0.000
673.852; 2342.275;  288.350;    0.000
673.964; 2400.275;  278.350;    0.000
674.076; 2313.275;  273.350;    0.000
674.188; 2290.275;  251.350;    0.000
674.300; 2307.275;  244.350;    0.000
674.412; 2273.275;  267.350;    0.000
674.524; 2282.275;  276.350;    0.000
674.636; 2360.275;  234.350;    0.000
674.748; 2329.275;  267.350;    0.000
674.860; 2283.275;  255.350;    0.000
674.972; 2252.275;  253.350;    0.000
675.084; 2297.275;  253.350;    0.000
675.196; 2270.275;  300.350;    0.000
675.307; 2322.275;  307.350;    0.000
675.419; 2273.275;  245.350;    0.000
675.531; 2380.275;  292.350;    0.000
675.643; 2280.275;  244.350;    0.000
675.755; 2291.275;  265.350;    0.000
675.866; 2383.275;  281.350;    0.000
675.978; 2258.275;  266.350;    0.000
676.090; 2346.275;  267.350;    0.000
676.201; 2280.275;  265.350;    0.000
676.313; 2283.275;  222.350;    0.000
676.425; 2339.275;  248.350;    0.000
676.536; 2265.275;  234.350;    0.000
676.648; 2403.275;  261.350;    0.000
676.759; 2288.275;  280.350;    0.000
676.871; 2163.275;  260.350;    0.000
676.983; 2291.275;  277.350;    0.000
677.094; 2188.275;  252.350;    0.000
677.206; 2251.275;  238.350;    0.000
677.317; 2222.275;  269.350;    0.000
677.429; 2207.275;  245.350;    0.000
677.540; 2251.275;  244.350;    0.000
677.651; 2206.275;  225.350;    0.000
677.763; 2249.275;  216.350;    0.000
677.874; 2239.275;  226.350;    0.000
677.986; 2241.275;  234.350;    0.000
678.097; 2253.275;  237.350;    0.000
678.208; 2257.275;  278.350;    0.000
678.320; 2348.275;  243.350;    0.000
678.431; 2185.275;  248.350;    0.000
678.542; 2286.275;  240.350;    0.000
678.653; 2224.275;  250.350;    0.000
678.765; 2170.275;  258.350;    0.000
678.876; 2178.275;  221.350;    0.000
678.987; 2154.275;  229.350;    0.000
679.098; 2155.275;  233.350;    0.000
679.209; 2236.275;  274.350;    0.000
679.320; 2165.275;  216.350;    0.000
679.432; 2195.275;  246.350;    0.000
679.543; 2155.275;  226.350;    0.000
679.654; 2235.275;  232.350;    0.000
679.765; 2182.275;  246.350;    0.000
679.876; 2184.275;  263.350;    0.000
679.987; 2147.275;  216.350;    0.000
680.098; 2219.275;  262.350;    0.000
680.209; 2133.275;  219.350;    0.000
680.320; 2199.275;  232.350;    0.000
680.431; 2156.275;  261.350;    0.000
680.542; 2203.275;  219.350;    0.000
680.653; 2149.275;  238.350;    0.000
680.763; 2174.275;  191.350;    0.000
680.874; 2087.275;  267.350;    0.000
680.985; 2152.275;  240.350;    0.000
681.096; 2223.275;  251.350;    0.000
681.207; 2132.275;  232.350;    0.000
681.318; 2215.275;  211.350;    0.000
681.428; 2201.275;  233.350;    0.000
681.539; 2138.275;  197.350;    0.000
681.650; 2225.275;  197.350;    0.000
681.760; 2140.275;  243.350;    0.000
681.871; 2155.275;  245.350;    0.000
681.982; 2164.275;  218.350;    0.000
682.093; 2189.275;  262.350;    0.000
682.203; 2126.275;  250.350;    0.000
682.314; 2128.275;  239.350;    0.000
682.424; 2131.275;  250.350;    0.000
682.535; 2126.275;  206.350;    0.000
682.646; 2190.275;  302.350;    0.000
682.756; 2095.275;  258.350;    0.000
682.867; 2132.275;  265.350;    0.000
682.977; 2193.275;  218.350;    0.000
683.088; 2177.275;  264.350;    0.000
683.198; 2089.275;  236.350;    0.000
683.308; 2135.275;  246.350;    0.000
683.419; 2202.275;  296.350;    0.000
683.529; 2158.275;  242.350;    0.000
683.640; 2120.275;  245.350;    0.000
683.750; 2028.275;  213.350;    0.000
683.860; 2161.275;  256.350;    0.000
683.971; 2085.275;  251.350;    0.000
684.081; 2137.275;  232.350;    0.000
684.191; 2114.275;  252.350;    0.000
684.301; 2234.275;  214.350;    0.000
684.412; 2182.275;  261.350;    0.000
684.522; 2214.275;  243.350;    0.000
684.632; 2146.275;  257.350;    0.000
684.742; 2171.275;  271.350;    0.000
684.852; 2137.275;  258.350;    0.000
684.963; 2155.275;  262.350;    0.000
685.073; 2125.275;  219.350;    0.000
685.183; 2163.275;  270.350;    0.000
685.293; 2133.275;  233.350;    0.000
685.403; 2120.275;  274.350;    0.000
685.513; 2217.275;  280.350;    0.000
685.623; 2234.275;  267.350;    0.000
685.733; 2141.275;  274.350;    0.000
685.843; 2148.275;  274.350;    0.000
685.953; 2152.275;  244.350;    0.000
686.063; 2132.275;  261.350;    0.000
686.173; 2009.275;  283.350;    0.000
686.283; 2168.275;  260.350;    0.000
686.393; 2118.275;  256.350;    0.000
686.503; 2094.275;  295.350;    0.000
686.612; 2164.275;  294.350;    0.000
686.722; 2144.275;  263.350;    0.000
686.832; 2072.275;  291.350;    0.000
686.942; 2091.275;  229.350;    0.000
687.052; 2171.275;  241.350;    0.000
687.161; 2146.275;  304.350;    0.000
687.271; 2120.275;  223.350;    0.000
687.381; 2066.275;  273.350;    0.000
687.491; 2089.275;  246.350;    0.000
687.600; 2209.275;  242.350;    0.000
687.710; 2149.275;  225.350;    0.000
687.820; 2158.275;  259.350;    0.000
687.929; 2129.275;  232.350;    0.000
688.039; 2136.275;  248.350;    0.000
688.148; 2078.275;  250.350;    0.000
688.258; 2030.275;  240.350;    0.000
688.367; 2093.275;  253.350;    0.000
688.477; 2086.275;  229.350;    0.000
688.586; 2058.275;  259.350;    0.000
688.696; 2079.275;  250.350;    0.000
688.805; 2145.275;  279.350;    0.000
688.915; 2136.275;  250.350;    0.000
689.024; 2023.275;  240.350;    0.000
689.134; 2093.275;  269.350;    0.000
689.243; 2021.275;  214.350;    0.000
689.352; 2068.275;  257.350;    0.000
689.462; 2180.275;  248.350;    0.000
689.571; 2077.275;  233.350;    0.000
689.680; 2088.275;  236.350;    0.000
689.790; 2042.275;  238.350;    0.000
689.899; 2092.275;  232.350;    0.000
690.008; 1990.275;  259.350;    0.000
690.117; 2096.275;  254.350;    0.000
690.227; 2032.275;  251.350;    0.000
690.336; 2131.275;  240.350;    0.000
690.445; 1982.275;  235.350;    0.000
690.554; 2095.275;  243.350;    0.000
690.663; 2008.275;  214.350;    0.000
690.772; 2078.275;  247.350;    0.000
690.881; 2115.275;  249.350;    0.000
690.990; 2043.275;  265.350;    0.000
691.099; 2061.275;  217.350;    0.000
691.209; 2060.275;  272.350;    0.000
691.318; 2093.275;  223.350;    0.000
691.427; 2051.275;  212.350;    0.000
691.536; 2079.275;  260.350;    0.000
691.644; 2098.275;  246.350;    0.000
691.753; 2076.275;  251.350;    0.000
691.862; 2074.275;  239.350;    0.000
691.971; 2095.275;  253.350;    0.000
692.080; 2071.275;  255.350;    0.000
692.189; 2061.275;  228.350;    0.000
692.298; 2102.275;  243.350;    0.000
692.406; 2117.275;  269.350;    0.000
692.515; 2037.275;  254.350;    0.000
692.624; 2067.275;  225.350;    0.000
692.733; 2054.275;  245.350;    0.000
692.842; 2049.275;  259.350;    0.000
692.950; 2048.275;  226.350;    0.000
693.059; 2048.275;  216.350;    0.000
693.168; 2043.275;  266.350;    0.000
693.276; 2035.275;  236.350;    0.000
693.385; 2072.275;  257.350;    0.000
693.494; 2092.275;  268.350;    0.000
693.602; 2024.275;  239.350;    0.000
693.711; 2045.275;  224.350;    0.000
693.819; 2029.275;  263.350;    0.000
693.928; 2072.275;  270.350;    0.000
694.036; 2052.275;  247.350;    0.000
694.145; 2104.275;  261.350;    0.000
694.253; 2106.275;  261.350;    0.000
694.362; 2026.275;  253.350;    0.000
694.470; 2088.275;  270.350;    0.000
694.579; 2052.275;  233.350;    0.000
694.687; 2130.275;  260.350;    0.000
694.795; 2049.275;  228.350;    0.000
694.904; 2115.275;  228.350;    0.000
695.012; 2050.275;  288.350;    0.000
695.120; 2152.275;  230.350;    0.000
695.229; 2023.275;  287.350;    0.000
695.337; 2036.275;  249.350;    0.000
695.445; 2121.275;  283.350;    0.000
695.553; 2013.275;  251.350;    0.000
695.662; 2112.275;  236.350;    0.000
695.770; 2047.275;  267.350;    0.000
695.878; 2008.275;  268.350;    0.000
695.986; 2060.275;  297.350;    0.000
696.094; 2050.275;  275.350;    0.000
696.202; 1982.275;  201.350;    0.000
696.310; 1995.275;  283.350;    0.000
696.419; 2062.275;  261.350;    0.000
696.527; 2102.275;  252.350;    0.000
696.635; 2069.275;  249.350;    0.000
696.743; 2085.275;  236.350;    0.000
696.851; 2091.275;  241.350;    0.000
696.959; 2125.275;  278.350;    0.000
697.067; 2079.275;  239.350;    0.000
697.174; 2074.275;  260.350;    0.000
697.282; 2068.275;  259.350;    0.000
697.390; 2059.275;  302.350;    0.000
697.498; 2046.275;  216.350;    0.000
697.606; 2071.275;  245.350;    0.000
697.714; 2069.275;  279.350;    0.000
697.822; 2126.275;  267.350;    0.000
697.929; 2053.275;  234.350;    0.000
698.037; 2051.275;  255.350;    0.000
698.145; 2017.275;  226.350;    0.000
698.253; 1966.275;  261.350;    0.000
698.360; 2123.275;  299.350;    0.000
698.468; 2078.275;  254.350;    0.000
698.576; 2129.275;  307.350;    0.000
698.683; 2052.275;  280.350;    0.000
698.791; 2055.275;  284.350;    0.000
698.899; 2079.275;  279.350;    0.000
699.006; 2097.275;  264.350;    0.000
699.114; 2064.275;  263.350;    0.000
699.221; 2098.275;  291.350;    0.000
699.329; 2091.275;  309.350;    0.000
699.436; 2113.275;  261.350;    0.000
699.544; 2126.275;  259.350;    0.000
699.651; 2042.275;  251.350;    0.000
699.759; 1971.275;  251.350;    0.000
699.866; 2091.275;  266.350;    0.000
699.974; 1992.275;  264.350;    0.000
700.081; 2109.275;  295.350;    0.000
700.188; 2087.275;  293.350;    0.000
700.296; 2009.275;  233.350;    0.000
700.403; 2037.275;  290.350;    0.000
700.510; 2064.275;  275.350;    0.000
700.618; 2048.275;  273.350;    0.000
700.725; 2063.275;  262.350;    0.000
700.832; 2020.275;  250.350;    0.000
700.940; 1956.275;  300.350;    0.000
701.047; 1916.275;  245.350;    0.000
701.154; 2034.275;  280.350;    0.000
701.261; 2001.275;  270.350;    0.000
701.368; 2034.275;  286.350;    0.000
701.475; 2028.275;  301.350;    0.000
701.582; 2026.275;  286.350;    0.000
701.690; 1997.275;  279.350;    0.000
701.797; 2094.275;  292.350;    0.000
701.904; 2159.275;  314.350;    0.000
702.011; 2018.275;  340.350;    0.000
702.118; 2017.275;  276.350;    0.000
702.225; 2050.275;  351.350;    0.000
702.332; 2041.275;  301.350;    0.000
702.439; 2045.275;  334.350;    0.000
702.546; 2087.275;  325.350;    0.000
702.652; 2110.275;  343.350;    0.000
702.759; 2143.275;  339.350;    0.000
702.866; 2104.275;  344.350;    0.000
702.973; 2158.275;  330.350;    0.000
703.080; 2065.275;  322.350;    0.000
703.187; 2027.275;  327.350;    0.000
703.294; 2071.275;  339.350;    0.000
703.400; 1940.275;  325.350;    0.000
703.507;  513.275;  372.350;    0.000
703.614;  330.275;  348.350;    0.000
703.720;  285.275;  333.350;    0.000
703.827;  337.275;  331.350;    0.000
703.934;  364.275;  330.350;    0.000
704.040;  312.275;  327.350;    0.000
704.147;  333.275;  327.350;    0.000
704.254;  334.275;  354.350;    0.000
704.360;  336.275;  337.350;    0.000
704.467;  348.275;  370.350;    0.000
704.573;  322.275;  367.350;    0.000
704.680;  324.275;  339.350;    0.000
704.786;  311.275;  356.350;    0.000
704.893;  314.275;  352.350;    0.000
704.999;  328.275;  332.350;    0.000
705.106;  317.275;  359.350;    0.000

