
Integration time [ms]:   0.300
Averaging Nr. [scans]: 1
Smoothing Nr. [pixels]: 0
Data measured with spectrometer [name]: NIR
Wave   ;Sample   ;Dark     ;Reference
[nm]   ;[counts] ;[counts] ;[counts] 

691.496;   23.750;  102.875;    0.000
691.696;   80.750;  181.875;    0.000
691.896;   35.750;  138.875;    0.000
692.096;   75.750;  182.875;    0.000
692.296;   13.750;  145.875;    0.000
692.496;   52.750;  154.875;    0.000
692.695;   18.750;  108.875;    0.000
692.895;   84.750;  176.875;    0.000
693.095;   -3.250;  138.875;    0.000
693.295;   97.750;  192.875;    0.000
693.495;   72.750;  170.875;    0.000
693.695;   21.750;  147.875;    0.000
693.894;   76.750;  191.875;    0.000
694.094;   56.750;  148.875;    0.000
694.294;   17.750;  147.875;    0.000
694.494;  134.750;  140.875;    0.000
694.693;  909.750;  137.875;    0.000
694.893;  986.750;  141.875;    0.000
695.093; 1018.750;  105.875;    0.000
695.293; 1065.750;  115.875;    0.000
695.492; 1011.750;   81.875;    0.000
695.692;  981.750;  162.875;    0.000
695.891; 1077.750;  162.875;    0.000
696.091; 1057.750;  166.875;    0.000
696.291; 1109.750;  143.875;    0.000
696.490; 1076.750;  170.875;    0.000
696.690;  977.750;  142.875;    0.000
696.889; 1083.750;  186.875;    0.000
697.089; 1017.750;  120.875;    0.000
697.288; 1129.750;  215.875;    0.000
697.488; 1164.750;  178.875;    0.000
697.687; 1055.750;  170.875;    0.000
697.887; 1068.750;  140.875;    0.000
698.086; 1093.750;  131.875;    0.000
698.286;  981.750;  117.875;    0.000
698.485; 1096.750;  136.875;    0.000
698.684; 1044.750;  126.875;    0.000
698.884; 1098.750;  161.875;    0.000
699.083; 1109.750;   95.875;    0.000
699.282; 1179.750;  120.875;    0.000
699.482; 1208.750;  131.875;    0.000
699.681; 1036.750;  168.875;    0.000
699.880; 1089.750;  154.875;    0.000
700.080; 1127.750;  149.875;    0.000
700.279;  984.750;   99.875;    0.000
700.478; 1086.750;  157.875;    0.000
700.677; 1056.750;  111.875;    0.000
700.877; 1045.750;  126.875;    0.000
701.076; 1120.750;  142.875;    0.000
701.275; 1130.750;  107.875;    0.000
701.474; 1133.750;   72.875;    0.000
701.673; 1156.750;   87.875;    0.000
701.872; 1063.750;  170.875;    0.000
702.071; 1118.750;  136.875;    0.000
702.271; 1173.750;  121.875;    0.000
702.470; 1117.750;  139.875;    0.000
702.669; 1082.750;  121.875;    0.000
702.868; 1244.750;  146.875;    0.000
703.067; 1201.750;  159.875;    0.000
703.266; 1195.750;  122.875;    0.000
703.465; 1237.750;  121.875;    0.000
703.664; 1191.750;  144.875;    0.000
703.863; 1178.750;  140.875;    0.000
704.062; 1133.750;  109.875;    0.000
704.260; 1182.750;  164.875;    0.000
704.459; 1163.750;  124.875;    0.000
704.658; 1124.750;  109.875;    0.000
704.857; 1151.750;  149.875;    0.000
705.056; 1027.750;  112.875;    0.000
705.255; 1097.750;   95.875;    0.000
705.454; 1130.750;  105.875;    0.000
705.652; 1074.750;  134.875;    0.000
705.851; 1172.750;   92.875;    0.000
706.050; 1260.750;  127.875;    0.000
706.249; 1097.750;  111.875;    0.000
706.447; 1075.750;   98.875;    0.000
706.646; 1041.750;  108.875;    0.000
706.845; 1310.750;   95.875;    0.000
707.043; 1208.750;   95.875;    0.000
707.242; 1101.750;   97.875;    0.000
707.441; 1236.750;  142.875;    0.000
707.639; 1105.750;  121.875;    0.000
707.838; 1145.750;  141.875;    0.000
708.037; 1158.750;  125.875;    0.000
708.235; 1189.750;  100.875;    0.000
708.434; 1132.750;  106.875;    0.000
708.632; 1121.750;   86.875;    0.000
708.831; 1229.750;  138.875;    0.000
709.029; 1097.750;   86.875;    0.000
709.228; 1205.750;  103.875;    0.000
709.426; 1180.750;  146.875;    0.000
709.625; 1213.750;  136.875;    0.000
709.823; 1129.750;  114.875;    0.000
710.022; 1105.750;  144.875;    0.000
710.220; 1121.750;  109.875;    0.000
710.418; 1246.750;  116.875;    0.000
710.617; 1095.750;   67.875;    0.000
710.815; 1147.750;  104.875;    0.000
711.013; 1185.750;  109.875;    0.000
711.212; 1139.750;  106.875;    0.000
711.410; 1259.750;   95.875;    0.000
711.608; 1152.750;  155.875;    0.000
711.807; 1246.750;  103.875;    0.000
712.005; 1197.750;  104.875;    0.000
712.203; 1168.750;   94.875;    0.000
712.401; 1218.750;  125.875;    0.000
712.599; 1200.750;  127.875;    0.000
712.798; 1309.750;  141.875;    0.000
712.996; 1107.750;   85.875;    0.000
713.194; 1280.750;   96.875;    0.000
713.392; 1229.750;   54.875;    0.000
713.590; 1180.750;  123.875;    0.000
713.788; 1177.750;  130.875;    0.000
713.986; 1200.750;  104.875;    0.000
714.184; 1272.750;   91.875;    0.000
714.382; 1353.750;  120.875;    0.000
714.580; 1188.750;   71.875;    0.000
714.778; 1163.750;   92.875;    0.000
714.976; 1158.750;  129.875;    0.000
715.174; 1214.750;   99.875;    0.000
715.372; 1355.750;  119.875;    0.000
715.570; 1448.750;   95.875;    0.000
715.768; 1472.750;  113.875;    0.000
715.966; 1589.750;   64.875;    0.000
716.164; 1557.750;  135.875;    0.000
716.362; 1510.750;  125.875;    0.000
716.560; 1468.750;  135.875;    0.000
716.758; 1324.750;   84.875;    0.000
716.955; 1321.750;  109.875;    0.000
717.153; 1361.750;   73.875;    0.000
717.351; 1333.750;  110.875;    0.000
717.549; 1384.750;  149.875;    0.000
717.746; 1352.750;  121.875;    0.000
717.944; 1347.750;  128.875;    0.000
718.142; 1333.750;  124.875;    0.000
718.340; 1261.750;   96.875;    0.000
718.537; 1424.750;  138.875;    0.000
718.735; 1404.750;  144.875;    0.000
718.933; 1332.750;   97.875;    0.000
719.130; 1367.750;  109.875;    0.000
719.328; 1347.750;  123.875;    0.000
719.525; 1302.750;  118.875;    0.000
719.723; 1384.750;  117.875;    0.000
719.920; 1302.750;   72.875;    0.000
720.118; 1350.750;   92.875;    0.000
720.316; 1402.750;  141.875;    0.000
720.513; 1297.750;   98.875;    0.000
720.711; 1226.750;  146.875;    0.000
720.908; 1273.750;  113.875;    0.000
721.105; 1329.750;  157.875;    0.000
721.303; 1243.750;  106.875;    0.000
721.500; 1261.750;   88.875;    0.000
721.698; 1265.750;   88.875;    0.000
721.895; 1345.750;   94.875;    0.000
722.092; 1281.750;   82.875;    0.000
722.290; 1342.750;  136.875;    0.000
722.487; 1357.750;   67.875;    0.000
722.684; 1505.750;  115.875;    0.000
722.882; 1347.750;  104.875;    0.000
723.079; 1285.750;  122.875;    0.000
723.276; 1321.750;   91.875;    0.000
723.473; 1303.750;   89.875;    0.000
723.671; 1395.750;   97.875;    0.000
723.868; 1366.750;  117.875;    0.000
724.065; 1395.750;  102.875;    0.000
724.262; 1421.750;  137.875;    0.000
724.459; 1316.750;   48.875;    0.000
724.656; 1310.750;  122.875;    0.000
724.854; 1415.750;   96.875;    0.000
725.051; 1452.750;  120.875;    0.000
725.248; 1371.750;  146.875;    0.000
725.445; 1264.750;  117.875;    0.000
725.642; 1309.750;  106.875;    0.000
725.839; 1420.750;  143.875;    0.000
726.036; 1256.750;   79.875;    0.000
726.233; 1366.750;   90.875;    0.000
726.430; 1388.750;  124.875;    0.000
726.627; 1379.750;   98.875;    0.000
726.824; 1368.750;   91.875;    0.000
727.021; 1444.750;  131.875;    0.000
727.218; 1213.750;  110.875;    0.000
727.414; 1460.750;   83.875;    0.000
727.611; 1320.750;   86.875;    0.000
727.808; 1352.750;  131.875;    0.000
728.005; 1418.750;  105.875;    0.000
728.202; 1311.750;  128.875;    0.000
728.399; 1376.750;  113.875;    0.000
728.595; 1270.750;  102.875;    0.000
728.792; 1338.750;   91.875;    0.000
728.989; 1329.750;  122.875;    0.000
729.186; 1450.750;  103.875;    0.000
729.382; 1408.750;  106.875;    0.000
729.579; 1365.750;  114.875;    0.000
729.776; 1403.750;  115.875;    0.000
729.972; 1377.750;  108.875;    0.000
730.169; 1423.750;  111.875;    0.000
730.366; 1404.750;  100.875;    0.000
730.562; 1431.750;   86.875;    0.000
730.759; 1464.750;   93.875;    0.000
730.955; 1391.750;  127.875;    0.000
731.152; 1346.750;   99.875;    0.000
731.348; 1352.750;   97.875;    0.000
731.545; 1450.750;   98.875;    0.000
731.741; 1452.750;  130.875;    0.000
731.938; 1452.750;  115.875;    0.000
732.134; 1505.750;  107.875;    0.000
732.331; 1454.750;   80.875;    0.000
732.527; 1451.750;  108.875;    0.000
732.724; 1448.750;  104.875;    0.000
732.920; 1464.750;  109.875;    0.000
733.116; 1313.750;  117.875;    0.000
733.313; 1425.750;   81.875;    0.000
733.509; 1452.750;   87.875;    0.000
733.705; 1298.750;  143.875;    0.000
733.902; 1372.750;   74.875;    0.000
734.098; 1393.750;   90.875;    0.000
734.294; 1441.750;  104.875;    0.000
734.490; 1410.750;  139.875;    0.000
734.687; 1475.750;  113.875;    0.000
734.883; 1350.750;   72.875;    0.000
735.079; 1519.750;  100.875;    0.000
735.275; 1495.750;  113.875;    0.000
735.471; 1241.750;   55.875;    0.000
735.667; 1360.750;  106.875;    0.000
735.863; 1477.750;  131.875;    0.000
736.060; 1418.750;  127.875;    0.000
736.256; 1552.750;   76.875;    0.000
736.452; 1427.750;  127.875;    0.000
736.648; 1442.750;  136.875;    0.000
736.844; 1471.750;  113.875;    0.000
737.040; 1501.750;  125.875;    0.000
737.236; 1542.750;   99.875;    0.000
737.432; 1546.750;   75.875;    0.000
737.628; 1501.750;  155.875;    0.000
737.824; 1588.750;  116.875;    0.000
738.019; 1351.750;   92.875;    0.000
738.215; 1517.750;  113.875;    0.000
738.411; 1413.750;  135.875;    0.000
738.607; 1491.750;   53.875;    0.000
738.803; 1466.750;   79.875;    0.000
738.999; 1426.750;  117.875;    0.000
739.195; 1503.750;  106.875;    0.000
739.390; 1489.750;  125.875;    0.000
739.586; 1388.750;  102.875;    0.000
739.782; 1479.750;  125.875;    0.000
739.978; 1503.750;  124.875;    0.000
740.173; 1534.750;   96.875;    0.000
740.369; 1495.750;  118.875;    0.000
740.565; 1524.750;  128.875;    0.000
740.760; 1558.750;  118.875;    0.000
740.956; 1584.750;  109.875;    0.000
741.152; 1503.750;  151.875;    0.000
741.347; 1570.750;  112.875;    0.000
741.543; 1572.750;  113.875;    0.000
741.738; 1765.750;  128.875;    0.000
741.934; 1728.750;  144.875;    0.000
742.129; 1726.750;  105.875;    0.000
742.325; 1889.750;  137.875;    0.000
742.520; 2104.750;  128.875;    0.000
742.716; 1897.750;  121.875;    0.000
742.911; 1960.750;   75.875;    0.000
743.107; 1959.750;  100.875;    0.000
743.302; 1747.750;   72.875;    0.000
743.498; 1932.750;  137.875;    0.000
743.693; 1815.750;  124.875;    0.000
743.888; 1986.750;  121.875;    0.000
744.084; 2076.750;   93.875;    0.000
744.279; 2514.750;   75.875;    0.000
744.474; 2654.750;  136.875;    0.000
744.670; 2428.750;  109.875;    0.000
744.865; 2187.750;  142.875;    0.000
745.060; 1964.750;   84.875;    0.000
745.255; 2067.750;  149.875;    0.000
745.451; 2043.750;  101.875;    0.000
745.646; 2044.750;  132.875;    0.000
745.841; 1988.750;  126.875;    0.000
746.036; 1998.750;  125.875;    0.000
746.231; 1982.750;  150.875;    0.000
746.426; 2030.750;  118.875;    0.000
746.622; 2456.750;  135.875;    0.000
746.817; 2844.750;  122.875;    0.000
747.012; 3115.750;  134.875;    0.000
747.207; 3033.750;  124.875;    0.000
747.402; 2551.750;  122.875;    0.000
747.597; 2326.750;   95.875;    0.000
747.792; 2428.750;  168.875;    0.000
747.987; 2328.750;  110.875;    0.000
748.182; 2261.750;  119.875;    0.000
748.377; 2232.750;   70.875;    0.000
748.572; 1977.750;  113.875;    0.000
748.767; 1928.750;  123.875;    0.000
748.961; 1980.750;  110.875;    0.000
749.156; 2073.750;  135.875;    0.000
749.351; 1882.750;   98.875;    0.000
749.546; 1987.750;  126.875;    0.000
749.741; 1652.750;  129.875;    0.000
749.936; 1812.750;   86.875;    0.000
750.130; 1767.750;   97.875;    0.000
750.325; 1933.750;  110.875;    0.000
750.520; 1778.750;  120.875;    0.000
750.715; 1942.750;  122.875;    0.000
750.909; 1922.750;  120.875;    0.000
751.104; 1842.750;  118.875;    0.000
751.299; 1877.750;  122.875;    0.000
751.493; 1781.750;  129.875;    0.000
751.688; 1871.750;  138.875;    0.000
751.882; 1645.750;   87.875;    0.000
752.077; 1861.750;  142.875;    0.000
752.272; 1767.750;  110.875;    0.000
752.466; 1827.750;  154.875;    0.000
752.661; 1744.750;   96.875;    0.000
752.855; 1693.750;   93.875;    0.000
753.050; 1705.750;  122.875;    0.000
753.244; 1764.750;  110.875;    0.000
753.439; 1716.750;  116.875;    0.000
753.633; 1814.750;  131.875;    0.000
753.828; 1755.750;  130.875;    0.000
754.022; 1681.750;   96.875;    0.000
754.216; 1602.750;  114.875;    0.000
754.411; 1708.750;  145.875;    0.000
754.605; 1705.750;   65.875;    0.000
754.799; 1590.750;  116.875;    0.000
754.994; 1641.750;  117.875;    0.000
755.188; 1859.750;  124.875;    0.000
755.382; 1636.750;   80.875;    0.000
755.576; 1759.750;   90.875;    0.000
755.771; 1671.750;  115.875;    0.000
755.965; 1641.750;  106.875;    0.000
756.159; 1564.750;   87.875;    0.000
756.353; 1668.750;  125.875;    0.000
756.547; 1696.750;  146.875;    0.000
756.742; 1662.750;  111.875;    0.000
756.936; 1637.750;  108.875;    0.000
757.130; 1530.750;  101.875;    0.000
757.324; 1754.750;  114.875;    0.000
757.518; 1620.750;  136.875;    0.000
757.712; 1677.750;  123.875;    0.000
757.906; 1731.750;  115.875;    0.000
758.100; 1751.750;  186.875;    0.000
758.294; 1809.750;  118.875;    0.000
758.488; 1672.750;  167.875;    0.000
758.682; 1711.750;  137.875;    0.000
758.876; 1668.750;  135.875;    0.000
759.070; 1600.750;  132.875;    0.000
759.264; 1629.750;  118.875;    0.000
759.458; 1734.750;  111.875;    0.000
759.651; 1582.750;  142.875;    0.000
759.845; 1618.750;  105.875;    0.000
760.039; 1652.750;   73.875;    0.000
760.233; 1745.750;  156.875;    0.000
760.427; 1647.750;  119.875;    0.000
760.620; 1655.750;  136.875;    0.000
760.814; 1585.750;  126.875;    0.000
761.008; 1614.750;  126.875;    0.000
761.202; 1709.750;  123.875;    0.000
761.395; 1714.750;  141.875;    0.000
761.589; 1632.750;  107.875;    0.000
761.783; 1577.750;  122.875;    0.000
761.976; 1719.750;  120.875;    0.000
762.170; 1753.750;  147.875;    0.000
762.363; 1767.750;  144.875;    0.000
762.557; 1732.750;  119.875;    0.000
762.750; 1571.750;  118.875;    0.000
762.944; 1656.750;  145.875;    0.000
763.138; 1709.750;  123.875;    0.000
763.331; 1660.750;  129.875;    0.000
763.524; 1782.750;  109.875;    0.000
763.718; 1726.750;  150.875;    0.000
763.911; 1706.750;  140.875;    0.000
764.105; 1587.750;   97.875;    0.000
764.298; 1586.750;  128.875;    0.000
764.492; 1839.750;  132.875;    0.000
764.685; 1789.750;   92.875;    0.000
764.878; 1595.750;  111.875;    0.000
765.072; 1668.750;  116.875;    0.000
765.265; 1697.750;  135.875;    0.000
765.458; 1622.750;   69.875;    0.000
765.651; 1687.750;  145.875;    0.000
765.845; 1610.750;   95.875;    0.000
766.038; 1712.750;  147.875;    0.000
766.231; 1901.750;  119.875;    0.000
766.424; 3093.750;  126.875;    0.000
766.617; 3662.750;   92.875;    0.000
766.811; 1991.750;  109.875;    0.000
767.004; 1614.750;  107.875;    0.000
767.197; 1819.750;  171.875;    0.000
767.390; 1689.750;  114.875;    0.000
767.583; 1643.750;  109.875;    0.000
767.776; 1786.750;  130.875;    0.000
767.969; 1707.750;  103.875;    0.000
768.162; 1686.750;  139.875;    0.000
768.355; 1777.750;  142.875;    0.000
768.548; 1952.750;  140.875;    0.000
768.741; 1801.750;   82.875;    0.000
768.934; 1754.750;  107.875;    0.000
769.127; 1897.750;  121.875;    0.000
769.320; 1743.750;  106.875;    0.000
769.513; 1900.750;  145.875;    0.000
769.706; 1937.750;  120.875;    0.000
769.898; 2975.750;  135.875;    0.000
770.091; 2575.750;  146.875;    0.000
770.284; 1754.750;  108.875;    0.000
770.477; 1778.750;  148.875;    0.000
770.670; 1791.750;  163.875;    0.000
770.862; 1926.750;   97.875;    0.000
771.055; 1758.750;  116.875;    0.000
771.248; 1839.750;  143.875;    0.000
771.441; 1693.750;  125.875;    0.000
771.633; 1782.750;  125.875;    0.000
771.826; 1969.750;  132.875;    0.000
772.018; 1857.750;  123.875;    0.000
772.211; 1938.750;  143.875;    0.000
772.404; 1885.750;  144.875;    0.000
772.596; 1879.750;  130.875;    0.000
772.789; 2031.750;  109.875;    0.000
772.981; 2063.750;  151.875;    0.000
773.174; 1935.750;  119.875;    0.000
773.366; 2021.750;  179.875;    0.000
773.559; 2062.750;  106.875;    0.000
773.751; 2254.750;  120.875;    0.000
773.944; 2096.750;  159.875;    0.000
774.136; 2156.750;  131.875;    0.000
774.329; 2111.750;  141.875;    0.000
774.521; 2075.750;  114.875;    0.000
774.713; 2453.750;  169.875;    0.000
774.906; 2364.750;  151.875;    0.000
775.098; 2420.750;   99.875;    0.000
775.290; 2504.750;  166.875;    0.000
775.483; 2668.750;  146.875;    0.000
775.675; 2827.750;  106.875;    0.000
775.867; 2844.750;   91.875;    0.000
776.059; 2978.750;  137.875;    0.000
776.251; 3592.750;  124.875;    0.000
776.444; 3784.750;  168.875;    0.000
776.636; 4252.750;  138.875;    0.000
776.828; 5166.750;  155.875;    0.000
777.020; 7045.750;  160.875;    0.000
777.212; 9750.750;  153.875;    0.000
777.404;11536.750;  135.875;    0.000
777.596;10662.750;  144.875;    0.000
777.788; 8289.750;  127.875;    0.000
777.980; 6121.750;  141.875;    0.000
778.172; 5205.750;  138.875;    0.000
778.364; 4418.750;  143.875;    0.000
778.556; 3889.750;  123.875;    0.000
778.748; 3911.750;  103.875;    0.000
778.940; 3349.750;  176.875;    0.000
779.132; 3211.750;  144.875;    0.000
779.324; 2915.750;   75.875;    0.000
779.516; 2905.750;  117.875;    0.000
779.708; 2496.750;  151.875;    0.000
779.900; 2651.750;  127.875;    0.000
780.091; 2344.750;  155.875;    0.000
780.283; 2322.750;  157.875;    0.000
780.475; 2251.750;  140.875;    0.000
780.667; 2448.750;  141.875;    0.000
780.859; 2190.750;  113.875;    0.000
781.050; 2078.750;  153.875;    0.000
781.242; 2089.750;  118.875;    0.000
781.434; 1994.750;  121.875;    0.000
781.625; 2082.750;  146.875;    0.000
781.817; 2011.750;  154.875;    0.000
782.008; 1935.750;  144.875;    0.000
782.200; 1913.750;  152.875;    0.000
782.392; 1855.750;  160.875;    0.000
782.583; 1879.750;  122.875;    0.000
782.775; 1940.750;  144.875;    0.000
782.966; 1902.750;  143.875;    0.000
783.158; 1783.750;  125.875;    0.000
783.349; 1930.750;  173.875;    0.000
783.541; 1740.750;  166.875;    0.000
783.732; 1900.750;  163.875;    0.000
783.924; 1907.750;  157.875;    0.000
784.115; 1788.750;  158.875;    0.000
784.306; 1821.750;  160.875;    0.000
784.498; 1966.750;  132.875;    0.000
784.689; 1808.750;  181.875;    0.000
784.880; 1864.750;  156.875;    0.000
785.072; 1872.750;  134.875;    0.000
785.263; 1741.750;  155.875;    0.000
785.454; 1849.750;  141.875;    0.000
785.645; 1764.750;  114.875;    0.000
785.837; 1832.750;  137.875;    0.000
786.028; 1730.750;  158.875;    0.000
786.219; 1769.750;  135.875;    0.000
786.410; 1707.750;  152.875;    0.000
786.601; 1736.750;  132.875;    0.000
786.792; 1748.750;  152.875;    0.000
786.984; 1721.750;  162.875;    0.000
787.175; 1865.750;   97.875;    0.000
787.366; 1736.750;  129.875;    0.000
787.557; 1566.750;  135.875;    0.000
787.748; 1630.750;  127.875;    0.000
787.939; 1735.750;  152.875;    0.000
788.130; 1709.750;  182.875;    0.000
788.321; 1724.750;  130.875;    0.000
788.512; 1861.750;  161.875;    0.000
788.703; 1697.750;  127.875;    0.000
788.894; 1828.750;  121.875;    0.000
789.084; 1777.750;  134.875;    0.000
789.275; 1782.750;  108.875;    0.000
789.466; 1689.750;  152.875;    0.000
789.657; 1681.750;  115.875;    0.000
789.848; 1740.750;  150.875;    0.000
790.039; 1789.750;  132.875;    0.000
790.229; 1759.750;  169.875;    0.000
790.420; 1813.750;  159.875;    0.000
790.611; 1623.750;  123.875;    0.000
790.801; 1846.750;  144.875;    0.000
790.992; 1769.750;  177.875;    0.000
791.183; 1602.750;  128.875;    0.000
791.373; 1677.750;  123.875;    0.000
791.564; 1656.750;  131.875;    0.000
791.755; 1675.750;  103.875;    0.000
791.945; 1831.750;  104.875;    0.000
792.136; 1699.750;  115.875;    0.000
792.326; 1699.750;   99.875;    0.000
792.517; 1670.750;  139.875;    0.000
792.707; 1726.750;  155.875;    0.000
792.898; 1692.750;  139.875;    0.000
793.088; 1828.750;  153.875;    0.000
793.279; 1740.750;  137.875;    0.000
793.469; 1887.750;  109.875;    0.000
793.660; 1721.750;  119.875;    0.000
793.850; 1908.750;  119.875;    0.000
794.040; 2014.750;  132.875;    0.000
794.231; 2068.750;  122.875;    0.000
794.421; 2126.750;  124.875;    0.000
794.611; 2269.750;  151.875;    0.000
794.802; 2686.750;  121.875;    0.000
794.992; 2913.750;  139.875;    0.000
795.182; 2868.750;  132.875;    0.000
795.372; 2493.750;  149.875;    0.000
795.563; 2403.750;  153.875;    0.000
795.753; 2393.750;  120.875;    0.000
795.943; 2181.750;  121.875;    0.000
796.133; 1950.750;   97.875;    0.000
796.323; 2075.750;  122.875;    0.000
796.513; 1928.750;  142.875;    0.000
796.703; 2005.750;  125.875;    0.000
796.893; 1865.750;  126.875;    0.000
797.083; 1827.750;  150.875;    0.000
797.273; 1966.750;  108.875;    0.000
797.463; 1950.750;  156.875;    0.000
797.653; 1839.750;   80.875;    0.000
797.843; 1885.750;   88.875;    0.000
798.033; 1792.750;   96.875;    0.000
798.223; 1741.750;  159.875;    0.000
798.413; 1921.750;  155.875;    0.000
798.603; 1806.750;  125.875;    0.000
798.793; 1643.750;  141.875;    0.000
798.983; 1590.750;  113.875;    0.000
799.172; 1799.750;   85.875;    0.000
799.362; 1553.750;  141.875;    0.000
799.552; 1639.750;  122.875;    0.000
799.742; 1618.750;  124.875;    0.000
799.932; 1553.750;  102.875;    0.000
800.121; 1636.750;  146.875;    0.000
800.311; 1645.750;  122.875;    0.000
800.501; 1498.750;  120.875;    0.000
800.690; 1737.750;  141.875;    0.000
800.880; 1659.750;  146.875;    0.000
801.070; 1562.750;  122.875;    0.000
801.259; 1571.750;  138.875;    0.000
801.449; 1631.750;  115.875;    0.000
801.638; 1747.750;  132.875;    0.000
801.828; 1536.750;   92.875;    0.000
802.017; 1635.750;  150.875;    0.000
802.207; 1730.750;  134.875;    0.000
802.396; 1702.750;  133.875;    0.000
802.586; 1604.750;  117.875;    0.000
802.775; 1542.750;  155.875;    0.000
802.965; 1758.750;  132.875;    0.000
803.154; 1627.750;  176.875;    0.000
803.343; 1589.750;  106.875;    0.000
803.533; 1678.750;  154.875;    0.000
803.722; 1613.750;   97.875;    0.000
803.911; 1669.750;  107.875;    0.000
804.101; 1604.750;  145.875;    0.000
804.290; 1723.750;  130.875;    0.000
804.479; 1547.750;  152.875;    0.000
804.668; 1723.750;  160.875;    0.000
804.857; 1549.750;  161.875;    0.000
805.047; 1466.750;  126.875;    0.000
805.236; 1760.750;  136.875;    0.000
805.425; 1794.750;  153.875;    0.000
805.614; 1676.750;  139.875;    0.000
805.803; 1629.750;  144.875;    0.000
805.992; 1667.750;  160.875;    0.000
806.181; 1668.750;  139.875;    0.000
806.370; 1729.750;  104.875;    0.000
806.559; 1610.750;  103.875;    0.000
806.748; 1691.750;  145.875;    0.000
806.937; 1720.750;  151.875;    0.000
807.126; 1852.750;  119.875;    0.000
807.315; 1767.750;  139.875;    0.000
807.504; 1679.750;  143.875;    0.000
807.693; 1788.750;  164.875;    0.000
807.882; 1746.750;  135.875;    0.000
808.071; 1728.750;  131.875;    0.000
808.260; 1722.750;  113.875;    0.000
808.448; 1782.750;  161.875;    0.000
808.637; 1894.750;  125.875;    0.000
808.826; 1811.750;  155.875;    0.000
809.015; 1854.750;  113.875;    0.000
809.203; 1985.750;  152.875;    0.000
809.392; 1999.750;   90.875;    0.000
809.581; 1947.750;  186.875;    0.000
809.770; 1902.750;   99.875;    0.000
809.958; 1949.750;  146.875;    0.000
810.147; 1757.750;  115.875;    0.000
810.335; 1960.750;  122.875;    0.000
810.524; 1956.750;  150.875;    0.000
810.713; 2077.750;  121.875;    0.000
810.901; 2051.750;  156.875;    0.000
811.090; 2169.750;  161.875;    0.000
811.278; 2098.750;  138.875;    0.000
811.467; 2288.750;  184.875;    0.000
811.655; 2215.750;  150.875;    0.000
811.844; 2080.750;  137.875;    0.000
812.032; 2325.750;  142.875;    0.000
812.220; 2299.750;  134.875;    0.000
812.409; 2326.750;  143.875;    0.000
812.597; 2208.750;  164.875;    0.000
812.785; 2382.750;  188.875;    0.000
812.974; 2413.750;  156.875;    0.000
813.162; 2368.750;  166.875;    0.000
813.350; 2439.750;  115.875;    0.000
813.539; 2488.750;  167.875;    0.000
813.727; 2441.750;  165.875;    0.000
813.915; 2619.750;  137.875;    0.000
814.103; 2650.750;  166.875;    0.000
814.291; 2806.750;  151.875;    0.000
814.479; 2718.750;  147.875;    0.000
814.668; 2737.750;  166.875;    0.000
814.856; 2744.750;  160.875;    0.000
815.044; 2871.750;  172.875;    0.000
815.232; 3021.750;  193.875;    0.000
815.420; 3159.750;  173.875;    0.000
815.608; 3315.750;  134.875;    0.000
815.796; 3302.750;  105.875;    0.000
815.984; 3322.750;  125.875;    0.000
816.172; 3509.750;  160.875;    0.000
816.360; 3880.750;  162.875;    0.000
816.548; 3830.750;  160.875;    0.000
816.736; 4273.750;  132.875;    0.000
816.924; 4873.750;  184.875;    0.000
817.111; 5111.750;  145.875;    0.000
817.299; 5592.750;  132.875;    0.000
817.487; 6293.750;  193.875;    0.000
817.675; 7433.750;  153.875;    0.000
817.863; 9081.750;  153.875;    0.000
818.050;12880.750;  172.875;    0.000
818.238;22374.750;  131.875;    0.000
818.426;30611.750;  160.875;    0.000
818.613;24229.750;  136.875;    0.000
818.801;18435.750;  162.875;    0.000
818.989;17470.750;  153.875;    0.000
819.176;18897.750;  181.875;    0.000
819.364;26180.750;  165.875;    0.000
819.552;35199.750;  111.875;    0.000
819.739;29500.750;  192.875;    0.000
819.927;22191.750;  146.875;    0.000
820.114;18037.750;  154.875;    0.000
820.302;14642.750;  144.875;    0.000
820.489;12382.750;  133.875;    0.000
820.677;11128.750;  135.875;    0.000
820.864;10172.750;  130.875;    0.000
821.052; 8973.750;   88.875;    0.000
821.239; 8353.750;  143.875;    0.000
821.426; 7729.750;  186.875;    0.000
821.614; 7796.750;  171.875;    0.000
821.801; 7726.750;   90.875;    0.000
821.988; 7137.750;  143.875;    0.000
822.176; 6817.750;   95.875;    0.000
822.363; 6427.750;  148.875;    0.000
822.550; 6018.750;  139.875;    0.000
822.737; 5845.750;  122.875;    0.000
822.924; 5217.750;  171.875;    0.000
823.112; 5153.750;  147.875;    0.000
823.299; 4736.750;  111.875;    0.000
823.486; 4459.750;  161.875;    0.000
823.673; 4485.750;  124.875;    0.000
823.860; 4161.750;  151.875;    0.000
824.047; 3771.750;  145.875;    0.000
824.234; 4366.750;  139.875;    0.000
824.421; 4130.750;  110.875;    0.000
824.608; 3989.750;  145.875;    0.000
824.795; 3485.750;  115.875;    0.000
824.982; 3498.750;  148.875;    0.000
825.169; 3307.750;  135.875;    0.000
825.356; 3125.750;  122.875;    0.000
825.543; 3097.750;  142.875;    0.000
825.730; 3033.750;   89.875;    0.000
825.917; 2947.750;  127.875;    0.000
826.104; 2760.750;  187.875;    0.000
826.290; 2897.750;  138.875;    0.000
826.477; 2589.750;  140.875;    0.000
826.664; 2539.750;  106.875;    0.000
826.851; 2432.750;  155.875;    0.000
827.038; 2478.750;  125.875;    0.000
827.224; 2491.750;  126.875;    0.000
827.411; 2465.750;  163.875;    0.000
827.598; 2334.750;  140.875;    0.000
827.784; 2276.750;  117.875;    0.000
827.971; 2261.750;  114.875;    0.000
828.157; 2200.750;  146.875;    0.000
828.344; 2183.750;  161.875;    0.000
828.531; 2135.750;  155.875;    0.000
828.717; 2010.750;  130.875;    0.000
828.904; 1991.750;  138.875;    0.000
829.090; 2056.750;  176.875;    0.000
829.277; 2130.750;  152.875;    0.000
829.463; 1932.750;  139.875;    0.000
829.650; 1971.750;  168.875;    0.000
829.836; 1814.750;  176.875;    0.000
830.022; 1906.750;  159.875;    0.000
830.209; 1973.750;  135.875;    0.000
830.395; 1960.750;  177.875;    0.000
830.581; 1930.750;  125.875;    0.000
830.768; 1747.750;  155.875;    0.000
830.954; 1797.750;  187.875;    0.000
831.140; 1871.750;  135.875;    0.000
831.327; 1720.750;  158.875;    0.000
831.513; 1741.750;  126.875;    0.000
831.699; 1740.750;  167.875;    0.000
831.885; 1659.750;  165.875;    0.000
832.071; 1828.750;  167.875;    0.000
832.257; 1566.750;  144.875;    0.000
832.444; 1703.750;  158.875;    0.000
832.630; 1694.750;  167.875;    0.000
832.816; 1630.750;  150.875;    0.000
833.002; 1500.750;  157.875;    0.000
833.188; 1527.750;  169.875;    0.000
833.374; 1496.750;  144.875;    0.000
833.560; 1495.750;  179.875;    0.000
833.746; 1459.750;  134.875;    0.000
833.932; 1456.750;  150.875;    0.000
834.118; 1386.750;   98.875;    0.000
834.303; 1462.750;  121.875;    0.000
834.489; 1394.750;  179.875;    0.000
834.675; 1440.750;  136.875;    0.000
834.861; 1490.750;  130.875;    0.000
835.047; 1553.750;  132.875;    0.000
835.233; 1261.750;  104.875;    0.000
835.418; 1511.750;  143.875;    0.000
835.604; 1384.750;  127.875;    0.000
835.790; 1467.750;  138.875;    0.000
835.976; 1335.750;  137.875;    0.000
836.161; 1537.750;  155.875;    0.000
836.347; 1386.750;  101.875;    0.000
836.533; 1272.750;  121.875;    0.000
836.718; 1410.750;  150.875;    0.000
836.904; 1452.750;  168.875;    0.000
837.089; 1367.750;  169.875;    0.000
837.275; 1333.750;  172.875;    0.000
837.460; 1354.750;  140.875;    0.000
837.646; 1407.750;  144.875;    0.000
837.831; 1356.750;  137.875;    0.000
838.017; 1328.750;  176.875;    0.000
838.202; 1353.750;  107.875;    0.000
838.388; 1457.750;  181.875;    0.000
838.573; 1310.750;  151.875;    0.000
838.759; 1262.750;  160.875;    0.000
838.944; 1396.750;  121.875;    0.000
839.129; 1347.750;  145.875;    0.000
839.315; 1369.750;  166.875;    0.000
839.500; 1333.750;  143.875;    0.000
839.685; 1377.750;   93.875;    0.000
839.870; 1406.750;  160.875;    0.000
840.056; 1292.750;  132.875;    0.000
840.241; 1385.750;  154.875;    0.000
840.426; 1253.750;  161.875;    0.000
840.611; 1367.750;  186.875;    0.000
840.796; 1239.750;  135.875;    0.000
840.981; 1378.750;  147.875;    0.000
841.166; 1411.750;  138.875;    0.000
841.352; 1275.750;  156.875;    0.000
841.537; 1334.750;  170.875;    0.000
841.722; 1380.750;  143.875;    0.000
841.907; 1329.750;  143.875;    0.000
842.092; 1306.750;  166.875;    0.000
842.277; 1466.750;  113.875;    0.000
842.461; 1477.750;  126.875;    0.000
842.646; 1618.750;  145.875;    0.000
842.831; 1403.750;  193.875;    0.000
843.016; 1437.750;  162.875;    0.000
843.201; 1441.750;  144.875;    0.000
843.386; 1511.750;  160.875;    0.000
843.571; 1581.750;  136.875;    0.000
843.755; 1694.750;  134.875;    0.000
843.940; 1807.750;  136.875;    0.000
844.125; 1929.750;  169.875;    0.000
844.310; 2176.750;  189.875;    0.000
844.494; 2687.750;  167.875;    0.000
844.679; 3751.750;  184.875;    0.000
844.864; 3994.750;  147.875;    0.000
845.048; 2951.750;  140.875;    0.000
845.233; 2720.750;  178.875;    0.000
845.418; 2280.750;  145.875;    0.000
845.602; 2144.750;  147.875;    0.000
845.787; 1871.750;  147.875;    0.000
845.971; 1902.750;  165.875;    0.000
846.156; 1632.750;  106.875;    0.000
846.340; 1534.750;  168.875;    0.000
846.525; 1536.750;  155.875;    0.000
846.709; 1436.750;  157.875;    0.000
846.893; 1589.750;  166.875;    0.000
847.078; 1432.750;  138.875;    0.000
847.262; 1411.750;  171.875;    0.000
847.447; 1408.750;  135.875;    0.000
847.631; 1368.750;  136.875;    0.000
847.815; 1271.750;  136.875;    0.000
848.000; 1220.750;  126.875;    0.000
848.184; 1384.750;  131.875;    0.000
848.368; 1170.750;  153.875;    0.000
848.552; 1228.750;  137.875;    0.000
848.736; 1302.750;  151.875;    0.000
848.921; 1234.750;  156.875;    0.000
849.105; 1136.750;  153.875;    0.000
849.289; 1215.750;  180.875;    0.000
849.473; 1078.750;  156.875;    0.000
849.657; 1215.750;  157.875;    0.000
849.841; 1171.750;  147.875;    0.000
850.025; 1142.750;  194.875;    0.000
850.209; 1048.750;  147.875;    0.000
850.393; 1153.750;  141.875;    0.000
850.577; 1126.750;  156.875;    0.000
850.761; 1024.750;  157.875;    0.000
850.945; 1103.750;  128.875;    0.000
851.129; 1128.750;  151.875;    0.000
851.313; 1163.750;  180.875;    0.000
851.497; 1157.750;  123.875;    0.000
851.680; 1084.750;  188.875;    0.000
851.864; 1072.750;  177.875;    0.000
852.048; 1188.750;  163.875;    0.000
852.232; 1208.750;  149.875;    0.000
852.416; 1065.750;  187.875;    0.000
852.599; 1060.750;  169.875;    0.000
852.783; 1010.750;  154.875;    0.000
852.967; 1080.750;  191.875;    0.000
853.150; 1136.750;  170.875;    0.000
853.334; 1065.750;  173.875;    0.000
853.518; 1132.750;  186.875;    0.000
853.701; 1063.750;  142.875;    0.000
853.885; 1072.750;  153.875;    0.000
854.068;  944.750;  132.875;    0.000
854.252; 1051.750;  184.875;    0.000
854.435; 1058.750;  152.875;    0.000
854.619; 1152.750;  152.875;    0.000
854.802; 1072.750;  164.875;    0.000
854.986; 1062.750;  151.875;    0.000
855.169; 1074.750;  153.875;    0.000
855.353; 1035.750;  183.875;    0.000
855.536; 1098.750;  113.875;    0.000
855.719; 1100.750;  181.875;    0.000
855.903; 1127.750;  159.875;    0.000
856.086; 1025.750;  142.875;    0.000
856.269; 1012.750;  171.875;    0.000
856.452; 1065.750;  132.875;    0.000
856.636; 1068.750;  140.875;    0.000
856.819; 1106.750;  165.875;    0.000
857.002; 1249.750;  170.875;    0.000
857.185; 1204.750;  173.875;    0.000
857.368; 1131.750;  129.875;    0.000
857.552; 1128.750;  151.875;    0.000
857.735; 1187.750;  146.875;    0.000
857.918; 1113.750;  114.875;    0.000
858.101; 1108.750;  152.875;    0.000
858.284; 1084.750;  164.875;    0.000
858.467; 1138.750;  147.875;    0.000
858.650; 1120.750;  146.875;    0.000
858.833; 1139.750;  118.875;    0.000
859.016; 1236.750;  161.875;    0.000
859.199; 1170.750;  135.875;    0.000
859.382; 1251.750;  157.875;    0.000
859.564; 1252.750;  124.875;    0.000
859.747; 1238.750;  154.875;    0.000
859.930; 1240.750;  138.875;    0.000
860.113; 1235.750;  153.875;    0.000
860.296; 1320.750;  180.875;    0.000
860.478; 1138.750;  145.875;    0.000
860.661; 1233.750;  160.875;    0.000
860.844; 1222.750;   96.875;    0.000
861.027; 1184.750;  128.875;    0.000
861.209; 1124.750;  127.875;    0.000
861.392; 1093.750;  126.875;    0.000
861.575; 1209.750;  155.875;    0.000
861.757; 1143.750;  141.875;    0.000
861.940; 1246.750;  181.875;    0.000
862.122; 1284.750;  145.875;    0.000
862.305; 1255.750;  124.875;    0.000
862.487; 1275.750;  151.875;    0.000
862.670; 1184.750;  132.875;    0.000
862.852; 1431.750;  112.875;    0.000
863.035; 1762.750;  116.875;    0.000
863.217; 1782.750;  131.875;    0.000
863.400; 1608.750;  145.875;    0.000
863.582; 1360.750;  147.875;    0.000
863.764; 1400.750;  163.875;    0.000
863.947; 1523.750;  129.875;    0.000
864.129; 1347.750;  159.875;    0.000
864.311; 1330.750;  144.875;    0.000
864.493; 1358.750;  141.875;    0.000
864.676; 1314.750;  159.875;    0.000
864.858; 1354.750;  146.875;    0.000
865.040; 1310.750;  163.875;    0.000
865.222; 1305.750;  133.875;    0.000
865.404; 1363.750;  148.875;    0.000
865.587; 1309.750;  177.875;    0.000
865.769; 1455.750;  172.875;    0.000
865.951; 1523.750;  145.875;    0.000
866.133; 1269.750;  168.875;    0.000
866.315; 1340.750;  147.875;    0.000
866.497; 1345.750;  164.875;    0.000
866.679; 1408.750;  143.875;    0.000
866.861; 1496.750;  170.875;    0.000
867.043; 1469.750;  185.875;    0.000
867.225; 1546.750;  149.875;    0.000
867.407; 1711.750;  143.875;    0.000
867.589; 1746.750;  169.875;    0.000
867.770; 2118.750;  166.875;    0.000
867.952; 2711.750;  158.875;    0.000
868.134; 3667.750;  170.875;    0.000
868.316; 3846.750;  157.875;    0.000
868.498; 3657.750;  186.875;    0.000
868.679; 3245.750;  158.875;    0.000
868.861; 2788.750;  180.875;    0.000
869.043; 2328.750;  164.875;    0.000
869.224; 2159.750;  156.875;    0.000
869.406; 1885.750;  176.875;    0.000
869.588; 1863.750;  152.875;    0.000
869.769; 1714.750;  131.875;    0.000
869.951; 1704.750;  203.875;    0.000
870.132; 1580.750;  143.875;    0.000
870.314; 1815.750;  129.875;    0.000
870.495; 1778.750;  175.875;    0.000
870.677; 1737.750;  165.875;    0.000
870.858; 1684.750;  151.875;    0.000
871.040; 1720.750;  155.875;    0.000
871.221; 2018.750;  144.875;    0.000
871.403; 2003.750;  131.875;    0.000
871.584; 1751.750;  174.875;    0.000
871.765; 1764.750;  169.875;    0.000
871.947; 1968.750;  187.875;    0.000
872.128; 1769.750;  181.875;    0.000
872.309; 1568.750;  129.875;    0.000
872.491; 1422.750;  142.875;    0.000
872.672; 1306.750;  158.875;    0.000
872.853; 1394.750;  179.875;    0.000
873.034; 1333.750;  164.875;    0.000
873.215; 1294.750;  168.875;    0.000
873.396; 1201.750;  114.875;    0.000
873.578; 1135.750;  126.875;    0.000
873.759; 1101.750;  177.875;    0.000
873.940; 1129.750;  169.875;    0.000
874.121; 1071.750;  133.875;    0.000
874.302; 1093.750;  164.875;    0.000
874.483;  970.750;  162.875;    0.000
874.664; 1013.750;  140.875;    0.000
874.845; 1087.750;  124.875;    0.000
875.026; 1102.750;  146.875;    0.000
875.207; 1055.750;  147.875;    0.000
875.388; 1043.750;  174.875;    0.000
875.568; 1059.750;  179.875;    0.000
875.749;  974.750;  155.875;    0.000
875.930; 1095.750;  166.875;    0.000
876.111; 1086.750;  153.875;    0.000
876.292; 1004.750;  146.875;    0.000
876.472; 1030.750;  167.875;    0.000
876.653;  967.750;  145.875;    0.000
876.834;  926.750;  172.875;    0.000
877.015; 1007.750;  184.875;    0.000
877.195;  996.750;  160.875;    0.000
877.376;  987.750;  163.875;    0.000
877.556;  938.750;  164.875;    0.000
877.737;  995.750;  179.875;    0.000
877.918;  952.750;  137.875;    0.000
878.098;  912.750;  117.875;    0.000
878.279;  948.750;  135.875;    0.000
878.459;  903.750;  149.875;    0.000
878.640;  970.750;  171.875;    0.000
878.820;  830.750;  142.875;    0.000
879.000;  952.750;  166.875;    0.000
879.181;  962.750;  177.875;    0.000
879.361;  908.750;  176.875;    0.000
879.542;  925.750;  159.875;    0.000
879.722;  909.750;  122.875;    0.000
879.902;  864.750;  166.875;    0.000
880.083;  897.750;  164.875;    0.000
880.263;  846.750;  139.875;    0.000
880.443;  941.750;  179.875;    0.000
880.623; 1057.750;  154.875;    0.000
880.803; 1202.750;  160.875;    0.000
880.984; 1077.750;  181.875;    0.000
881.164; 1019.750;  167.875;    0.000
881.344;  965.750;  141.875;    0.000
881.524; 1021.750;  190.875;    0.000
881.704;  983.750;  165.875;    0.000
881.884; 1019.750;  144.875;    0.000
882.064; 1034.750;  135.875;    0.000
882.244; 1079.750;  186.875;    0.000
882.424; 1027.750;  150.875;    0.000
882.604;  970.750;  168.875;    0.000
882.784;  986.750;  155.875;    0.000
882.964;  947.750;  137.875;    0.000
883.144;  864.750;  136.875;    0.000
883.324;  954.750;  200.875;    0.000
883.504;  905.750;  203.875;    0.000
883.683;  887.750;  149.875;    0.000
883.863;  904.750;  160.875;    0.000
884.043;  868.750;  161.875;    0.000
884.223;  911.750;  147.875;    0.000
884.402;  801.750;  175.875;    0.000
884.582;  860.750;  188.875;    0.000
884.762;  868.750;  173.875;    0.000
884.941;  908.750;  164.875;    0.000
885.121;  910.750;  147.875;    0.000
885.301;  771.750;  135.875;    0.000
885.480;  844.750;  145.875;    0.000
885.660;  836.750;  144.875;    0.000
885.839;  830.750;  155.875;    0.000
886.019;  847.750;  207.875;    0.000
886.198;  832.750;  165.875;    0.000
886.378;  864.750;  120.875;    0.000
886.557;  872.750;  133.875;    0.000
886.737;  769.750;  119.875;    0.000
886.916;  844.750;  129.875;    0.000
887.095;  818.750;  158.875;    0.000
887.275;  916.750;  169.875;    0.000
887.454;  850.750;  184.875;    0.000
887.633;  879.750;  143.875;    0.000
887.813;  806.750;  154.875;    0.000
887.992;  833.750;  188.875;    0.000
888.171;  836.750;  176.875;    0.000
888.350;  849.750;  161.875;    0.000
888.530;  860.750;  163.875;    0.000
888.709;  875.750;  136.875;    0.000
888.888;  813.750;  177.875;    0.000
889.067;  806.750;  169.875;    0.000
889.246;  903.750;  188.875;    0.000
889.425;  888.750;  187.875;    0.000
889.604;  926.750;  169.875;    0.000
889.783;  881.750;  182.875;    0.000
889.962;  799.750;  112.875;    0.000
890.141;  768.750;  231.875;    0.000
890.320;  826.750;  161.875;    0.000
890.499;  863.750;  164.875;    0.000
890.678;  785.750;  176.875;    0.000
890.857;  832.750;  163.875;    0.000
891.036;  862.750;  161.875;    0.000
891.214;  861.750;  156.875;    0.000
891.393;  810.750;  167.875;    0.000
891.572;  825.750;  163.875;    0.000
891.751;  782.750;  205.875;    0.000
891.930;  819.750;  162.875;    0.000
892.108;  823.750;  153.875;    0.000
892.287;  743.750;  153.875;    0.000
892.466;  769.750;  201.875;    0.000
892.644;  887.750;  158.875;    0.000
892.823;  800.750;  122.875;    0.000
893.001;  810.750;  148.875;    0.000
893.180;  824.750;  142.875;    0.000
893.359;  845.750;  192.875;    0.000
893.537;  848.750;  166.875;    0.000
893.716;  850.750;  144.875;    0.000
893.894;  867.750;  145.875;    0.000
894.073;  858.750;  180.875;    0.000
894.251;  831.750;  165.875;    0.000
894.429;  824.750;  182.875;    0.000
894.608;  857.750;  181.875;    0.000
894.786;  810.750;  180.875;    0.000
894.964;  801.750;  207.875;    0.000
895.143;  816.750;  190.875;    0.000
895.321;  770.750;  206.875;    0.000
895.499;  759.750;  164.875;    0.000
895.677;  883.750;  199.875;    0.000
895.856;  833.750;  203.875;    0.000
896.034;  870.750;  200.875;    0.000
896.212;  805.750;  198.875;    0.000
896.390;  850.750;  161.875;    0.000
896.568;  816.750;  205.875;    0.000
896.746;  791.750;  185.875;    0.000
896.924;  819.750;  179.875;    0.000
897.102;  907.750;  190.875;    0.000
897.280;  809.750;  160.875;    0.000
897.458;  802.750;  196.875;    0.000
897.636;  806.750;  168.875;    0.000
897.814;  870.750;  159.875;    0.000
897.992;  846.750;  216.875;    0.000
898.170;  869.750;  195.875;    0.000
898.348;  883.750;  185.875;    0.000
898.526;  891.750;  199.875;    0.000
898.704;  909.750;  215.875;    0.000
898.882;  857.750;  195.875;    0.000
899.059;  869.750;  197.875;    0.000
899.237;  796.750;  168.875;    0.000
899.415;  886.750;  221.875;    0.000
899.593;  863.750;  171.875;    0.000
899.770;  887.750;  191.875;    0.000
899.948;  817.750;  206.875;    0.000
900.125;  826.750;  175.875;    0.000
900.303;  815.750;  176.875;    0.000
900.481;  858.750;  199.875;    0.000
900.658;  874.750;  217.875;    0.000
900.836;  869.750;  192.875;    0.000
901.013;  911.750;  221.875;    0.000
901.191;  922.750;  203.875;    0.000
901.368;  813.750;  189.875;    0.000
901.546;  989.750;  212.875;    0.000
901.723;  863.750;  189.875;    0.000
901.901;  916.750;  198.875;    0.000
902.078;  875.750;  193.875;    0.000
902.255;  929.750;  176.875;    0.000
902.433;  901.750;  201.875;    0.000
902.610;  912.750;  170.875;    0.000
902.787;  886.750;  164.875;    0.000
902.964;  910.750;  216.875;    0.000
903.142;  841.750;  153.875;    0.000
903.319; 1031.750;  204.875;    0.000
903.496;  934.750;  188.875;    0.000
903.673; 1003.750;  209.875;    0.000
903.850; 1035.750;  173.875;    0.000
904.027; 1081.750;  186.875;    0.000
904.204; 1048.750;  241.875;    0.000
904.381; 1091.750;  187.875;    0.000
904.558; 1268.750;  196.875;    0.000
904.735; 1430.750;  206.875;    0.000
904.912; 1241.750;  228.875;    0.000
905.089; 1296.750;  172.875;    0.000
905.266; 1268.750;  175.875;    0.000
905.443; 1254.750;  239.875;    0.000
905.620; 1133.750;  176.875;    0.000
905.797; 1109.750;  205.875;    0.000
905.974; 1102.750;  187.875;    0.000
906.151; 1058.750;  135.875;    0.000
906.327; 1065.750;  209.875;    0.000
906.504; 1055.750;  145.875;    0.000
906.681; 1063.750;  178.875;    0.000
906.858; 1087.750;  179.875;    0.000
907.034; 1029.750;  221.875;    0.000
907.211;  889.750;  166.875;    0.000
907.388; 1060.750;  206.875;    0.000
907.564;  958.750;  150.875;    0.000
907.741;  980.750;  187.875;    0.000
907.917; 1011.750;  180.875;    0.000
908.094;  951.750;  206.875;    0.000
908.271;  888.750;  184.875;    0.000
908.447; 1025.750;  212.875;    0.000
908.623;  906.750;  193.875;    0.000
908.800;  958.750;  185.875;    0.000
908.976;  956.750;  202.875;    0.000
909.153;  882.750;  175.875;    0.000
909.329;  879.750;  193.875;    0.000
909.505;  845.750;  154.875;    0.000
909.682;  953.750;  188.875;    0.000
909.858;  896.750;  162.875;    0.000
910.034;  903.750;  181.875;    0.000
910.211;  888.750;  142.875;    0.000
910.387;  953.750;  200.875;    0.000
910.563;  881.750;  163.875;    0.000
910.739;  850.750;  156.875;    0.000
910.915;  886.750;  202.875;    0.000
911.091;  874.750;  186.875;    0.000
911.268;  883.750;  167.875;    0.000
911.444;  867.750;  193.875;    0.000
911.620;  861.750;  175.875;    0.000
911.796;  871.750;  168.875;    0.000
911.972;  785.750;  154.875;    0.000
912.148;  852.750;  201.875;    0.000
912.324;  890.750;  146.875;    0.000
912.500;  885.750;  185.875;    0.000
912.676;  822.750;  183.875;    0.000
912.851;  833.750;  204.875;    0.000
913.027;  812.750;  196.875;    0.000
913.203;  885.750;  174.875;    0.000
913.379;  825.750;  210.875;    0.000
913.555;  839.750;  197.875;    0.000
913.730;  891.750;  209.875;    0.000
913.906;  786.750;  169.875;    0.000
914.082;  881.750;  236.875;    0.000
914.258;  893.750;  216.875;    0.000
914.433;  846.750;  212.875;    0.000
914.609;  854.750;  180.875;    0.000
914.784;  863.750;  176.875;    0.000
914.960;  843.750;  227.875;    0.000
915.136;  813.750;  149.875;    0.000
915.311;  869.750;  165.875;    0.000
915.487;  831.750;  167.875;    0.000
915.662;  844.750;  225.875;    0.000
915.838;  846.750;  165.875;    0.000
916.013;  881.750;  188.875;    0.000
916.189;  805.750;  200.875;    0.000
916.364;  860.750;  201.875;    0.000
916.539;  918.750;  240.875;    0.000
916.715;  919.750;  180.875;    0.000
916.890;  941.750;  191.875;    0.000
917.065;  859.750;  211.875;    0.000
917.240;  864.750;  212.875;    0.000
917.416;  927.750;  207.875;    0.000
917.591;  838.750;  189.875;    0.000
917.766;  843.750;  205.875;    0.000
917.941;  910.750;  191.875;    0.000
918.116;  858.750;  195.875;    0.000
918.292;  812.750;  183.875;    0.000
918.467;  943.750;  206.875;    0.000
918.642;  902.750;  190.875;    0.000
918.817;  933.750;  193.875;    0.000
918.992;  771.750;  171.875;    0.000
919.167;  870.750;  191.875;    0.000
919.342;  944.750;  202.875;    0.000
919.517;  893.750;  182.875;    0.000
919.692;  983.750;  190.875;    0.000
919.867;  858.750;  221.875;    0.000
920.041;  913.750;  195.875;    0.000
920.216;  962.750;  226.875;    0.000
920.391; 1047.750;  230.875;    0.000
920.566;  974.750;  210.875;    0.000
920.741; 1085.750;  204.875;    0.000
920.915; 1061.750;  213.875;    0.000
921.090; 1139.750;  194.875;    0.000
921.265; 1382.750;  234.875;    0.000
921.439; 1721.750;  228.875;    0.000
921.614; 1515.750;  199.875;    0.000
921.789; 1193.750;  194.875;    0.000
921.963; 1200.750;  236.875;    0.000
922.138; 1031.750;  192.875;    0.000
922.312; 1189.750;  203.875;    0.000
922.487; 1076.750;  207.875;    0.000
922.661; 1197.750;  216.875;    0.000
922.836; 1324.750;  199.875;    0.000
923.010; 1456.750;  179.875;    0.000
923.185; 1365.750;  241.875;    0.000
923.359; 1162.750;  199.875;    0.000
923.534; 1281.750;  227.875;    0.000
923.708; 1258.750;  213.875;    0.000
923.882; 1396.750;  203.875;    0.000
924.057; 1253.750;  194.875;    0.000
924.231; 1225.750;  185.875;    0.000
924.405; 1055.750;  223.875;    0.000
924.579; 1127.750;  196.875;    0.000
924.753; 1126.750;  209.875;    0.000
924.928; 1013.750;  202.875;    0.000
925.102; 1079.750;  184.875;    0.000
925.276; 1060.750;  191.875;    0.000
925.450; 1048.750;  199.875;    0.000
925.624; 1031.750;  190.875;    0.000
925.798; 1033.750;  214.875;    0.000
925.972; 1120.750;  193.875;    0.000
926.146; 1144.750;  191.875;    0.000
926.320; 1252.750;  177.875;    0.000
926.494; 1294.750;  190.875;    0.000
926.668; 1361.750;  182.875;    0.000
926.842; 1360.750;  182.875;    0.000
927.016; 1368.750;  235.875;    0.000
927.190; 1486.750;  234.875;    0.000
927.363; 1349.750;  214.875;    0.000
927.537; 1159.750;  198.875;    0.000
927.711; 1254.750;  154.875;    0.000
927.885; 1220.750;  167.875;    0.000
928.058; 1231.750;  210.875;    0.000
928.232; 1207.750;  206.875;    0.000
928.406; 1186.750;  176.875;    0.000
928.579; 1063.750;  182.875;    0.000
928.753; 1210.750;  179.875;    0.000
928.927; 1076.750;  186.875;    0.000
929.100; 1118.750;  188.875;    0.000
929.274;  977.750;  167.875;    0.000
929.447; 1060.750;  152.875;    0.000
929.621; 1009.750;  195.875;    0.000
929.794; 1092.750;  200.875;    0.000
929.968; 1039.750;  203.875;    0.000
930.141;  997.750;  237.875;    0.000
930.315; 1018.750;  165.875;    0.000
930.488; 1001.750;  175.875;    0.000
930.661; 1008.750;  173.875;    0.000
930.835;  998.750;  171.875;    0.000
931.008; 1039.750;  210.875;    0.000
931.181;  969.750;  206.875;    0.000
931.354;  987.750;  195.875;    0.000
931.528;  992.750;  178.875;    0.000
931.701; 1033.750;  179.875;    0.000
931.874;  904.750;  150.875;    0.000
932.047;  917.750;  154.875;    0.000
932.220;  934.750;  185.875;    0.000
932.393;  904.750;  166.875;    0.000
932.566;  933.750;  171.875;    0.000
932.739;  898.750;  196.875;    0.000
932.912;  917.750;  212.875;    0.000
933.085;  871.750;  234.875;    0.000
933.258;  972.750;  212.875;    0.000
933.431;  747.750;  181.875;    0.000
933.604;  969.750;  201.875;    0.000
933.777;  939.750;  201.875;    0.000
933.950;  920.750;  176.875;    0.000
934.123;  826.750;  175.875;    0.000
934.296;  898.750;  174.875;    0.000
934.468;  857.750;  186.875;    0.000
934.641;  888.750;  192.875;    0.000
934.814;  890.750;  187.875;    0.000
934.987;  909.750;  165.875;    0.000
935.159;  885.750;  162.875;    0.000
935.332;  875.750;  210.875;    0.000
935.505;  952.750;  191.875;    0.000
935.677;  843.750;  159.875;    0.000
935.850;  853.750;  170.875;    0.000
936.022;  895.750;  172.875;    0.000
936.195;  888.750;  202.875;    0.000
936.367;  872.750;  179.875;    0.000
936.540;  908.750;  207.875;    0.000
936.712;  881.750;  200.875;    0.000
936.885;  882.750;  219.875;    0.000
937.057;  850.750;  150.875;    0.000
937.229;  994.750;  187.875;    0.000
937.402;  858.750;  169.875;    0.000
937.574;  999.750;  127.875;    0.000
937.746;  895.750;  171.875;    0.000
937.919;  923.750;  176.875;    0.000
938.091;  973.750;  193.875;    0.000
938.263; 1065.750;  200.875;    0.000
938.435; 1090.750;  181.875;    0.000
938.608; 1172.750;  191.875;    0.000
938.780; 1212.750;  173.875;    0.000
938.952; 1369.750;  184.875;    0.000
939.124; 1381.750;  171.875;    0.000
939.296; 1429.750;  156.875;    0.000
939.468; 1562.750;  147.875;    0.000
939.640; 1366.750;  186.875;    0.000
939.812; 1407.750;  217.875;    0.000
939.984; 1159.750;  155.875;    0.000
940.156; 1129.750;  191.875;    0.000
940.328; 1163.750;  201.875;    0.000
940.500; 1049.750;  176.875;    0.000
940.672; 1014.750;  190.875;    0.000
940.843;  982.750;  143.875;    0.000
941.015; 1055.750;  189.875;    0.000
941.187; 1024.750;  172.875;    0.000
941.359;  985.750;  175.875;    0.000
941.531; 1005.750;  154.875;    0.000
941.702;  901.750;  183.875;    0.000
941.874;  866.750;  140.875;    0.000
942.046;  890.750;  177.875;    0.000
942.217;  853.750;  147.875;    0.000
942.389; 1013.750;  196.875;    0.000
942.560;  937.750;  163.875;    0.000
942.732; 1031.750;  187.875;    0.000
942.904;  957.750;  226.875;    0.000
943.075;  841.750;  159.875;    0.000
943.247;  815.750;  209.875;    0.000
943.418;  843.750;  167.875;    0.000
943.589;  830.750;  195.875;    0.000
943.761;  881.750;  190.875;    0.000
943.932;  891.750;  187.875;    0.000
944.104;  848.750;  194.875;    0.000
944.275;  882.750;  177.875;    0.000
944.446;  859.750;  155.875;    0.000
944.617;  813.750;  176.875;    0.000
944.789;  838.750;  171.875;    0.000
944.960;  862.750;  172.875;    0.000
945.131;  823.750;  158.875;    0.000
945.302;  878.750;  201.875;    0.000
945.473;  757.750;  141.875;    0.000
945.645;  791.750;  197.875;    0.000
945.816;  863.750;  165.875;    0.000
945.987;  848.750;  190.875;    0.000
946.158;  891.750;  158.875;    0.000
946.329;  855.750;  160.875;    0.000
946.500;  766.750;  190.875;    0.000
946.671;  764.750;  152.875;    0.000
946.842;  756.750;  182.875;    0.000
947.013;  812.750;  160.875;    0.000
947.183;  826.750;  203.875;    0.000
947.354;  783.750;  174.875;    0.000
947.525;  782.750;  173.875;    0.000
947.696;  840.750;  170.875;    0.000
947.867;  854.750;  187.875;    0.000
948.037;  755.750;  165.875;    0.000
948.208;  768.750;  154.875;    0.000
948.379;  897.750;  176.875;    0.000
948.550;  764.750;  176.875;    0.000
948.720;  781.750;  169.875;    0.000
948.891;  846.750;  216.875;    0.000
949.061;  764.750;  200.875;    0.000
949.232;  743.750;  163.875;    0.000
949.403;  692.750;  157.875;    0.000
949.573;  789.750;  158.875;    0.000
949.744;  789.750;  213.875;    0.000
949.914;  736.750;  177.875;    0.000
950.085;  764.750;  195.875;    0.000
950.255;  822.750;  166.875;    0.000
950.425;  775.750;  196.875;    0.000
950.596;  851.750;  176.875;    0.000
950.766;  830.750;  228.875;    0.000
950.936;  726.750;  185.875;    0.000
951.107;  807.750;  178.875;    0.000
951.277;  810.750;  227.875;    0.000
951.447;  726.750;  219.875;    0.000
951.617;  777.750;  219.875;    0.000
951.788;  737.750;  198.875;    0.000
951.958;  808.750;  202.875;    0.000
952.128;  747.750;  197.875;    0.000
952.298;  775.750;  211.875;    0.000
952.468;  817.750;  233.875;    0.000
952.638;  771.750;  222.875;    0.000
952.808;  776.750;  210.875;    0.000
952.978;  758.750;  216.875;    0.000
953.148;  774.750;  203.875;    0.000
953.318;  737.750;  212.875;    0.000
953.488;  774.750;  156.875;    0.000
953.658;  768.750;  226.875;    0.000
953.828;  765.750;  223.875;    0.000
953.998;  795.750;  209.875;    0.000
954.167;  803.750;  203.875;    0.000
954.337;  771.750;  209.875;    0.000
954.507;  768.750;  252.875;    0.000
954.677;  729.750;  207.875;    0.000
954.846;  780.750;  240.875;    0.000
955.016;  720.750;  197.875;    0.000
955.186;  776.750;  208.875;    0.000
955.355;  758.750;  243.875;    0.000
955.525;  787.750;  211.875;    0.000
955.695;  770.750;  187.875;    0.000
955.864;  794.750;  204.875;    0.000
956.034;  730.750;  199.875;    0.000
956.203;  769.750;  257.875;    0.000
956.373;  704.750;  193.875;    0.000
956.542;  703.750;  187.875;    0.000
956.711;  767.750;  259.875;    0.000
956.881;  789.750;  227.875;    0.000
957.050;  701.750;  260.875;    0.000
957.220;  756.750;  246.875;    0.000
957.389;  730.750;  211.875;    0.000
957.558;  760.750;  197.875;    0.000
957.727;  773.750;  227.875;    0.000
957.897;  787.750;  219.875;    0.000
958.066;  686.750;  180.875;    0.000
958.235;  735.750;  179.875;    0.000
958.404;  774.750;  194.875;    0.000
958.573;  667.750;  235.875;    0.000
958.743;  704.750;  191.875;    0.000
958.912;  737.750;  181.875;    0.000
959.081;  754.750;  193.875;    0.000
959.250;  663.750;  180.875;    0.000
959.419;  762.750;  205.875;    0.000
959.588;  708.750;  241.875;    0.000
959.757;  729.750;  202.875;    0.000
959.926;  755.750;  212.875;    0.000
960.094;  714.750;  199.875;    0.000
960.263;  765.750;  226.875;    0.000
960.432;  738.750;  188.875;    0.000
960.601;  657.750;  200.875;    0.000
960.770;  650.750;  197.875;    0.000
960.939;  643.750;  195.875;    0.000
961.107;  751.750;  198.875;    0.000
961.276;  713.750;  151.875;    0.000
961.445;  745.750;  227.875;    0.000
961.613;  761.750;  186.875;    0.000
961.782;  758.750;  187.875;    0.000
961.951;  670.750;  194.875;    0.000
962.119;  685.750;  227.875;    0.000
962.288;  685.750;  181.875;    0.000
962.456;  751.750;  206.875;    0.000
962.625;  731.750;  181.875;    0.000
962.793;  705.750;  216.875;    0.000
962.962;  795.750;  237.875;    0.000
963.130;  687.750;  194.875;    0.000
963.298;  734.750;  190.875;    0.000
963.467;  746.750;  204.875;    0.000
963.635;  677.750;  159.875;    0.000
963.803;  702.750;  208.875;    0.000
963.972;  744.750;  206.875;    0.000
964.140;  685.750;  178.875;    0.000
964.308;  671.750;  185.875;    0.000
964.477;  731.750;  189.875;    0.000
964.645;  769.750;  201.875;    0.000
964.813;  750.750;  200.875;    0.000
964.981;  647.750;  160.875;    0.000
965.149;  694.750;  230.875;    0.000
965.317;  758.750;  214.875;    0.000
965.485;  711.750;  190.875;    0.000
965.653;  707.750;  239.875;    0.000
965.821;  700.750;  211.875;    0.000
965.989;  715.750;  216.875;    0.000
966.157;  661.750;  198.875;    0.000
966.325;  750.750;  200.875;    0.000
966.493;  708.750;  187.875;    0.000
966.661;  760.750;  181.875;    0.000
966.829;  732.750;  181.875;    0.000
966.996;  751.750;  220.875;    0.000
967.164;  717.750;  179.875;    0.000
967.332;  786.750;  203.875;    0.000
967.500;  724.750;  200.875;    0.000
967.667;  774.750;  196.875;    0.000
967.835;  744.750;  199.875;    0.000
968.003;  725.750;  191.875;    0.000
968.170;  755.750;  141.875;    0.000
968.338;  752.750;  185.875;    0.000
968.505;  749.750;  199.875;    0.000
968.673;  800.750;  191.875;    0.000
968.841;  663.750;  165.875;    0.000
969.008;  768.750;  192.875;    0.000
969.175;  684.750;  172.875;    0.000
969.343;  685.750;  191.875;    0.000
969.510;  714.750;  199.875;    0.000
969.678;  680.750;  156.875;    0.000
969.845;  686.750;  191.875;    0.000
970.012;  758.750;  205.875;    0.000
970.180;  783.750;  201.875;    0.000
970.347;  753.750;  229.875;    0.000
970.514;  718.750;  207.875;    0.000
970.681;  723.750;  169.875;    0.000
970.849;  669.750;  196.875;    0.000
971.016;  690.750;  212.875;    0.000
971.183;  711.750;  178.875;    0.000
971.350;  671.750;  193.875;    0.000
971.517;  702.750;  190.875;    0.000
971.684;  757.750;  261.875;    0.000
971.851;  757.750;  203.875;    0.000
972.018;  652.750;  184.875;    0.000
972.185;  716.750;  226.875;    0.000
972.352;  707.750;  180.875;    0.000
972.519;  767.750;  226.875;    0.000
972.686;  669.750;  233.875;    0.000
972.853;  784.750;  173.875;    0.000
973.020;  742.750;  208.875;    0.000
973.186;  694.750;  173.875;    0.000
973.353;  680.750;  218.875;    0.000
973.520;  719.750;  218.875;    0.000
973.687;  680.750;  176.875;    0.000
973.853;  723.750;  203.875;    0.000
974.020;  695.750;  196.875;    0.000
974.187;  660.750;  188.875;    0.000
974.353;  816.750;  230.875;    0.000
974.520;  736.750;  195.875;    0.000
974.687;  648.750;  209.875;    0.000
974.853;  728.750;  189.875;    0.000
975.020;  698.750;  179.875;    0.000
975.186;  704.750;  204.875;    0.000
975.353;  674.750;  201.875;    0.000
975.519;  734.750;  200.875;    0.000
975.685;  662.750;  176.875;    0.000
975.852;  745.750;  197.875;    0.000
976.018;  758.750;  201.875;    0.000
976.184;  731.750;  176.875;    0.000
976.351;  757.750;  221.875;    0.000
976.517;  759.750;  203.875;    0.000
976.683;  753.750;  236.875;    0.000
976.849;  739.750;  190.875;    0.000
977.016;  692.750;  173.875;    0.000
977.182;  813.750;  200.875;    0.000
977.348;  674.750;  179.875;    0.000
977.514;  647.750;  159.875;    0.000
977.680;  720.750;  200.875;    0.000
977.846;  688.750;  206.875;    0.000
978.012;  731.750;  219.875;    0.000
978.178;  655.750;  229.875;    0.000
978.344;  664.750;  195.875;    0.000
978.510;  780.750;  209.875;    0.000
978.676;  622.750;  190.875;    0.000
978.842;  772.750;  195.875;    0.000
979.008;  718.750;  186.875;    0.000
979.174;  776.750;  185.875;    0.000
979.340;  678.750;  198.875;    0.000
979.505;  703.750;  214.875;    0.000
979.671;  744.750;  159.875;    0.000
979.837;  701.750;  202.875;    0.000
980.003;  668.750;  190.875;    0.000
980.168;  765.750;  216.875;    0.000
980.334;  698.750;  194.875;    0.000
980.499;  702.750;  229.875;    0.000
980.665;  675.750;  240.875;    0.000
980.831;  744.750;  202.875;    0.000
980.996;  661.750;  179.875;    0.000
981.162;  751.750;  212.875;    0.000
981.327;  673.750;  202.875;    0.000
981.493;  730.750;  219.875;    0.000
981.658;  712.750;  218.875;    0.000
981.823;  703.750;  207.875;    0.000
981.989;  760.750;  207.875;    0.000
982.154;  691.750;  224.875;    0.000
982.319;  749.750;  217.875;    0.000
982.485;  692.750;  266.875;    0.000
982.650;  758.750;  245.875;    0.000
982.815;  718.750;  229.875;    0.000
982.980;  746.750;  203.875;    0.000
983.146;  665.750;  242.875;    0.000
983.311;  712.750;  144.875;    0.000
983.476;  663.750;  222.875;    0.000
983.641;  655.750;  206.875;    0.000
983.806;  621.750;  217.875;    0.000
983.971;  695.750;  254.875;    0.000
984.136;  770.750;  217.875;    0.000
984.301;  646.750;  202.875;    0.000
984.466;  686.750;  206.875;    0.000
984.631;  715.750;  224.875;    0.000
984.796;  700.750;  218.875;    0.000
984.961;  717.750;  202.875;    0.000
985.126;  715.750;  238.875;    0.000
985.291;  707.750;  220.875;    0.000
985.455;  702.750;  223.875;    0.000
985.620;  698.750;  218.875;    0.000
985.785;  687.750;  228.875;    0.000
985.950;  678.750;  212.875;    0.000
986.114;  712.750;  215.875;    0.000
986.279;  833.750;  243.875;    0.000
986.444;  751.750;  222.875;    0.000
986.608;  750.750;  243.875;    0.000
986.773;  687.750;  213.875;    0.000
986.937;  786.750;  267.875;    0.000
987.102;  765.750;  235.875;    0.000
987.266;  682.750;  210.875;    0.000
987.431;  737.750;  239.875;    0.000
987.595;  684.750;  230.875;    0.000
987.760;  665.750;  229.875;    0.000
987.924;  659.750;  217.875;    0.000
988.088;  701.750;  210.875;    0.000
988.253;  693.750;  215.875;    0.000
988.417;  766.750;  186.875;    0.000
988.581;  695.750;  214.875;    0.000
988.746;  708.750;  212.875;    0.000
988.910;  739.750;  192.875;    0.000
989.074;  707.750;  195.875;    0.000
989.238;  713.750;  226.875;    0.000
989.402;  748.750;  214.875;    0.000
989.566;  756.750;  201.875;    0.000
989.731;  774.750;  199.875;    0.000
989.895;  726.750;  205.875;    0.000
990.059;  681.750;  204.875;    0.000
990.223;  686.750;  182.875;    0.000
990.387;  670.750;  220.875;    0.000
990.551;  689.750;  199.875;    0.000
990.714;  771.750;  202.875;    0.000
990.878;  693.750;  201.875;    0.000
991.042;  691.750;  202.875;    0.000
991.206;  717.750;  215.875;    0.000
991.370;  775.750;  217.875;    0.000
991.534;  678.750;  152.875;    0.000
991.697;  717.750;  194.875;    0.000
991.861;  768.750;  208.875;    0.000
992.025;  697.750;  209.875;    0.000
992.188;  654.750;  182.875;    0.000
992.352;  733.750;  181.875;    0.000
992.516;  657.750;  192.875;    0.000
992.679;  680.750;  183.875;    0.000
992.843;  637.750;  156.875;    0.000
993.006;  727.750;  192.875;    0.000
993.170;  679.750;  172.875;    0.000
993.333;  747.750;  195.875;    0.000
993.497;  746.750;  185.875;    0.000
993.660;  641.750;  155.875;    0.000
993.824;  640.750;  199.875;    0.000
993.987;  684.750;  211.875;    0.000
994.150;  692.750;  173.875;    0.000
994.314;  681.750;  202.875;    0.000
994.477;  659.750;  171.875;    0.000
994.640;  650.750;  191.875;    0.000
994.803;  690.750;  203.875;    0.000
994.967;  694.750;  198.875;    0.000
995.130;  701.750;  192.875;    0.000
995.293;  656.750;  211.875;    0.000
995.456;  735.750;  207.875;    0.000
995.619;  687.750;  207.875;    0.000
995.782;  711.750;  186.875;    0.000
995.945;  681.750;  203.875;    0.000
996.108;  660.750;  195.875;    0.000
996.271;  686.750;  195.875;    0.000
996.434;  676.750;  179.875;    0.000
996.597;  670.750;  170.875;    0.000
996.760;  639.750;  161.875;    0.000
996.923;  702.750;  177.875;    0.000
997.086;  701.750;  199.875;    0.000
997.248;  706.750;  225.875;    0.000
997.411;  639.750;  194.875;    0.000
997.574;  702.750;  204.875;    0.000
997.737;  693.750;  236.875;    0.000
997.899;  725.750;  191.875;    0.000
998.062;  715.750;  178.875;    0.000
998.225;  618.750;  176.875;    0.000
998.387;  719.750;  203.875;    0.000
998.550;  661.750;  155.875;    0.000
998.712;  731.750;  169.875;    0.000
998.875;  722.750;  234.875;    0.000
999.037;  665.750;  211.875;    0.000
999.200;  706.750;  185.875;    0.000
999.362;  671.750;  199.875;    0.000
999.525;  666.750;  234.875;    0.000
999.687;  735.750;  194.875;    0.000
999.849;  765.750;  223.875;    0.000
1000.012;  669.750;  222.875;    0.000
1000.174;  690.750;  187.875;    0.000
1000.336;  705.750;  204.875;    0.000
1000.499;  690.750;  240.875;    0.000
1000.661;  751.750;  215.875;    0.000
1000.823;  713.750;  206.875;    0.000
1000.985;  685.750;  197.875;    0.000
1001.147;  735.750;  221.875;    0.000
1001.309;  691.750;  207.875;    0.000
1001.471;  750.750;  227.875;    0.000
1001.633;  697.750;  208.875;    0.000
1001.796;  671.750;  158.875;    0.000
1001.958;  670.750;  210.875;    0.000
1002.119;  662.750;  223.875;    0.000
1002.281;  721.750;  211.875;    0.000
1002.443;  705.750;  227.875;    0.000
1002.605;  844.750;  186.875;    0.000
1002.767;  757.750;  242.875;    0.000
1002.929;  909.750;  219.875;    0.000
1003.091;  831.750;  191.875;    0.000
1003.252;  869.750;  233.875;    0.000
1003.414;  886.750;  214.875;    0.000
1003.576;  791.750;  186.875;    0.000
1003.738;  941.750;  175.875;    0.000
1003.899; 1092.750;  237.875;    0.000
1004.061;  995.750;  220.875;    0.000
1004.222; 1093.750;  186.875;    0.000
1004.384; 1080.750;  216.875;    0.000
1004.546; 1135.750;  203.875;    0.000
1004.707; 1084.750;  216.875;    0.000
1004.869; 1142.750;  219.875;    0.000
1005.030; 1143.750;  188.875;    0.000
1005.191; 1186.750;  223.875;    0.000
1005.353; 1220.750;  227.875;    0.000
1005.514; 1028.750;  235.875;    0.000
1005.675; 1103.750;  201.875;    0.000
1005.837; 1010.750;  199.875;    0.000
1005.998; 1095.750;  219.875;    0.000
1006.159; 1054.750;  235.875;    0.000
1006.321;  948.750;  199.875;    0.000
1006.482; 1044.750;  222.875;    0.000
1006.643; 1039.750;  195.875;    0.000
1006.804; 1128.750;  205.875;    0.000
1006.965; 1015.750;  199.875;    0.000
1007.126; 1064.750;  231.875;    0.000
1007.287; 1012.750;  208.875;    0.000
1007.448; 1034.750;  205.875;    0.000
1007.609; 1104.750;  256.875;    0.000
1007.770; 1116.750;  231.875;    0.000
1007.931; 1064.750;  223.875;    0.000
1008.092; 1132.750;  217.875;    0.000
1008.253; 1089.750;  236.875;    0.000
1008.414; 1074.750;  197.875;    0.000
1008.575; 1120.750;  233.875;    0.000
1008.736; 1042.750;  193.875;    0.000
1008.896;  974.750;  238.875;    0.000
1009.057; 1095.750;  245.875;    0.000
1009.218; 1085.750;  240.875;    0.000
1009.379; 1182.750;  210.875;    0.000
1009.539; 1175.750;  234.875;    0.000
1009.700; 1045.750;  228.875;    0.000
1009.860; 1162.750;  238.875;    0.000
1010.021;  975.750;  199.875;    0.000
1010.182; 1069.750;  214.875;    0.000
1010.342; 1100.750;  216.875;    0.000
1010.503; 1203.750;  207.875;    0.000
1010.663; 1155.750;  258.875;    0.000
1010.823; 1136.750;  243.875;    0.000
1010.984; 1289.750;  268.875;    0.000
1011.144; 1132.750;  217.875;    0.000
1011.305; 1308.750;  237.875;    0.000
1011.465; 1214.750;  216.875;    0.000
1011.625; 1280.750;  195.875;    0.000
1011.785; 1221.750;  201.875;    0.000
1011.946; 1266.750;  200.875;    0.000
1012.106; 1388.750;  206.875;    0.000
1012.266; 1239.750;  227.875;    0.000
1012.426; 1304.750;  221.875;    0.000
1012.586; 1259.750;  198.875;    0.000
1012.746; 1275.750;  215.875;    0.000
1012.906; 1368.750;  226.875;    0.000
1013.066; 1304.750;  221.875;    0.000
1013.226; 1132.750;  202.875;    0.000
1013.386; 1344.750;  210.875;    0.000
1013.546; 1280.750;  243.875;    0.000
1013.706; 1232.750;  200.875;    0.000
1013.866; 1258.750;  232.875;    0.000
1014.026; 1248.750;  206.875;    0.000
1014.186; 1298.750;  222.875;    0.000
1014.346; 1348.750;  233.875;    0.000
1014.505; 1306.750;  241.875;    0.000
1014.665; 1363.750;  225.875;    0.000
1014.825; 1216.750;  196.875;    0.000
1014.985; 1323.750;  234.875;    0.000
1015.144; 1432.750;  232.875;    0.000
1015.304; 1369.750;  214.875;    0.000
1015.464; 1276.750;  210.875;    0.000
1015.623; 1380.750;  219.875;    0.000
1015.783; 1398.750;  216.875;    0.000
1015.942; 1398.750;  267.875;    0.000
1016.102; 1491.750;  234.875;    0.000
1016.261; 1392.750;  230.875;    0.000
1016.420; 1500.750;  225.875;    0.000
1016.580; 1691.750;  205.875;    0.000
1016.739; 1595.750;  199.875;    0.000
1016.899; 1652.750;  218.875;    0.000
1017.058; 1776.750;  204.875;    0.000
1017.217; 1788.750;  196.875;    0.000
1017.376; 1794.750;  204.875;    0.000
1017.536; 1784.750;  195.875;    0.000
1017.695; 1718.750;  216.875;    0.000
1017.854; 1698.750;  235.875;    0.000
1018.013; 1630.750;  189.875;    0.000
1018.172; 1441.750;  217.875;    0.000
1018.331; 1600.750;  215.875;    0.000
1018.490; 1649.750;  233.875;    0.000
1018.649; 1427.750;  211.875;    0.000
1018.808; 1613.750;  196.875;    0.000
1018.967; 1719.750;  222.875;    0.000
1019.126; 1808.750;  221.875;    0.000
1019.285; 1803.750;  212.875;    0.000
1019.444; 1778.750;  231.875;    0.000
1019.603; 1603.750;  227.875;    0.000
1019.762; 1618.750;  192.875;    0.000
1019.921; 1766.750;  240.875;    0.000
1020.079; 1668.750;  209.875;    0.000
1020.238; 1719.750;  211.875;    0.000
1020.397; 1872.750;  253.875;    0.000
1020.555; 1735.750;  179.875;    0.000
1020.714; 1739.750;  225.875;    0.000
1020.873; 1910.750;  232.875;    0.000
1021.031; 1816.750;  245.875;    0.000
1021.190; 1858.750;  230.875;    0.000
1021.348; 1752.750;  221.875;    0.000
1021.507; 1846.750;  212.875;    0.000
1021.665; 1783.750;  211.875;    0.000
1021.824; 1890.750;  206.875;    0.000
1021.982; 1691.750;  218.875;    0.000
1022.141; 1750.750;  232.875;    0.000
1022.299; 1913.750;  193.875;    0.000
1022.457; 1854.750;  217.875;    0.000
1022.616; 1775.750;  248.875;    0.000
1022.774; 1778.750;  222.875;    0.000
1022.932; 1869.750;  211.875;    0.000
1023.090; 1815.750;  288.875;    0.000
1023.249; 1949.750;  214.875;    0.000
1023.407; 1824.750;  233.875;    0.000
1023.565; 1763.750;  208.875;    0.000
1023.723; 1929.750;  217.875;    0.000
1023.881; 1902.750;  235.875;    0.000
1024.039; 1875.750;  228.875;    0.000
1024.197; 1820.750;  216.875;    0.000
1024.355; 1706.750;  251.875;    0.000
1024.513; 1863.750;  232.875;    0.000
1024.671; 2109.750;  217.875;    0.000
1024.829; 1998.750;  255.875;    0.000
1024.987; 1806.750;  203.875;    0.000
1025.145; 1937.750;  239.875;    0.000
1025.302; 1934.750;  209.875;    0.000
1025.460; 2081.750;  224.875;    0.000
1025.618; 2141.750;  193.875;    0.000
1025.776; 1807.750;  209.875;    0.000
1025.933; 1913.750;  229.875;    0.000
1026.091; 1985.750;  218.875;    0.000
1026.249; 2095.750;  269.875;    0.000
1026.406; 2063.750;  264.875;    0.000
1026.564; 1992.750;  230.875;    0.000
1026.721; 1947.750;  198.875;    0.000
1026.879; 1957.750;  216.875;    0.000
1027.036; 2088.750;  226.875;    0.000
1027.194; 2332.750;  245.875;    0.000
1027.351; 2026.750;  236.875;    0.000
1027.509; 2000.750;  262.875;    0.000
1027.666; 1873.750;  227.875;    0.000
1027.823; 2020.750;  214.875;    0.000
1027.981; 2480.750;  258.875;    0.000
1028.138; 2197.750;  239.875;    0.000
1028.295; 2108.750;  226.875;    0.000
1028.452; 1885.750;  225.875;    0.000
1028.609; 2024.750;  276.875;    0.000
1028.767; 2184.750;  228.875;    0.000
1028.924; 2347.750;  213.875;    0.000
1029.081; 2252.750;  232.875;    0.000
1029.238; 1965.750;  250.875;    0.000
1029.395; 1896.750;  255.875;    0.000
1029.552; 2112.750;  217.875;    0.000
1029.709; 2440.750;  210.875;    0.000
1029.866; 2402.750;  243.875;    0.000
1030.023; 2153.750;  202.875;    0.000
1030.180; 2016.750;  233.875;    0.000
1030.337; 1910.750;  234.875;    0.000
1030.494; 2124.750;  222.875;    0.000
1030.650; 2331.750;  241.875;    0.000
1030.807; 2399.750;  206.875;    0.000
1030.964; 2280.750;  206.875;    0.000
1031.121; 2197.750;  228.875;    0.000
1031.277; 2006.750;  228.875;    0.000
1031.434; 2200.750;  234.875;    0.000
1031.591; 2444.750;  250.875;    0.000
1031.747; 2508.750;  246.875;    0.000
1031.904; 2505.750;  201.875;    0.000
1032.060; 2137.750;  237.875;    0.000
1032.217; 2124.750;  232.875;    0.000
1032.373; 2134.750;  210.875;    0.000
1032.530; 2240.750;  246.875;    0.000
1032.686; 2741.750;  196.875;    0.000
1032.843; 2495.750;  212.875;    0.000
1032.999; 2332.750;  243.875;    0.000
1033.155; 2517.750;  234.875;    0.000
1033.312; 2454.750;  246.875;    0.000
1033.468; 2525.750;  233.875;    0.000
1033.624; 3116.750;  237.875;    0.000
1033.780; 3244.750;  263.875;    0.000
1033.937; 3285.750;  214.875;    0.000
1034.093; 3179.750;  230.875;    0.000
1034.249; 3377.750;  206.875;    0.000
1034.405; 3180.750;  238.875;    0.000
1034.561; 3282.750;  231.875;    0.000
1034.717; 3461.750;  228.875;    0.000
1034.873; 3476.750;  262.875;    0.000
1035.029; 3613.750;  252.875;    0.000
1035.185; 3306.750;  232.875;    0.000
1035.341; 3113.750;  245.875;    0.000
1035.497; 3381.750;  253.875;    0.000
1035.653; 3136.750;  252.875;    0.000
1035.809; 3923.750;  245.875;    0.000
1035.964; 4025.750;  229.875;    0.000
1036.120; 3905.750;  226.875;    0.000
1036.276; 3821.750;  236.875;    0.000
1036.432; 3596.750;  203.875;    0.000
1036.587; 3444.750;  228.875;    0.000
1036.743; 3729.750;  240.875;    0.000
1036.899; 3541.750;  220.875;    0.000
1037.054; 3693.750;  153.875;    0.000
1037.210; 4166.750;  219.875;    0.000
1037.365; 4268.750;  229.875;    0.000
1037.521; 4071.750;  257.875;    0.000
1037.676; 4209.750;  211.875;    0.000
1037.832; 3745.750;  234.875;    0.000
1037.987; 3833.750;  235.875;    0.000
1038.143; 3780.750;  176.875;    0.000
1038.298; 4224.750;  262.875;    0.000
1038.453; 4419.750;  209.875;    0.000
1038.609; 4575.750;  230.875;    0.000
1038.764; 4409.750;  253.875;    0.000
1038.919; 4432.750;  195.875;    0.000
1039.074; 4746.750;  234.875;    0.000
1039.229; 4102.750;  234.875;    0.000
1039.385; 4000.750;  266.875;    0.000
1039.540; 4361.750;  252.875;    0.000
1039.695; 4834.750;  231.875;    0.000
1039.850; 4941.750;  208.875;    0.000
1040.005; 4681.750;  232.875;    0.000
1040.160; 5180.750;  214.875;    0.000
1040.315; 5153.750;  221.875;    0.000
1040.470; 5205.750;  207.875;    0.000
1040.625; 4399.750;  249.875;    0.000
1040.780; 4553.750;  251.875;    0.000
1040.935; 4774.750;  254.875;    0.000
1041.089; 4675.750;  210.875;    0.000
1041.244; 5221.750;  225.875;    0.000
1041.399; 5130.750;  208.875;    0.000
1041.554; 5133.750;  249.875;    0.000
1041.708; 5533.750;  254.875;    0.000
1041.863; 5458.750;  248.875;    0.000
1042.018; 5915.750;  280.875;    0.000
1042.172; 5913.750;  233.875;    0.000
1042.327; 5195.750;  256.875;    0.000
1042.481; 5421.750;  210.875;    0.000
1042.636; 5427.750;  229.875;    0.000
1042.791; 6112.750;  215.875;    0.000
1042.945; 6175.750;  256.875;    0.000
1043.099; 5904.750;  251.875;    0.000
1043.254; 5757.750;  204.875;    0.000
1043.408; 6708.750;  278.875;    0.000
1043.563; 6854.750;  211.875;    0.000
1043.717; 6472.750;  259.875;    0.000
1043.871; 6132.750;  233.875;    0.000
1044.025; 6267.750;  221.875;    0.000
1044.180; 5792.750;  208.875;    0.000
1044.334; 6163.750;  255.875;    0.000
1044.488; 6064.750;  269.875;    0.000
1044.642; 6536.750;  228.875;    0.000
1044.796; 7612.750;  232.875;    0.000
1044.950; 7622.750;  249.875;    0.000
1045.104; 7108.750;  205.875;    0.000
1045.258; 7964.750;  206.875;    0.000
1045.412; 7822.750;  251.875;    0.000
1045.566; 7344.750;  249.875;    0.000
1045.720; 7621.750;  206.875;    0.000
1045.874; 6854.750;  232.875;    0.000
1046.028; 6894.750;  266.875;    0.000
1046.182; 6595.750;  217.875;    0.000
1046.336; 6910.750;  216.875;    0.000
1046.489; 7431.750;  236.875;    0.000
1046.643; 7657.750;  253.875;    0.000
1046.797; 7607.750;  244.875;    0.000
1046.951; 8118.750;  234.875;    0.000
1047.104; 8241.750;  281.875;    0.000
1047.258; 8252.750;  253.875;    0.000
1047.411; 8341.750;  228.875;    0.000
1047.565; 7888.750;  273.875;    0.000
1047.719; 8003.750;  232.875;    0.000
1047.872; 7587.750;  230.875;    0.000
1048.026; 7708.750;  282.875;    0.000
1048.179; 7883.750;  225.875;    0.000
1048.332; 7434.750;  234.875;    0.000
1048.486; 6888.750;  223.875;    0.000
1048.639; 7940.750;  248.875;    0.000
1048.792; 8500.750;  244.875;    0.000
1048.946; 8400.750;  210.875;    0.000
1049.099; 9573.750;  242.875;    0.000
1049.252; 9236.750;  269.875;    0.000
1049.406; 8782.750;  285.875;    0.000
1049.559; 9378.750;  277.875;    0.000
1049.712; 9476.750;  254.875;    0.000
1049.865; 9637.750;  252.875;    0.000
1050.018; 9282.750;  270.875;    0.000
1050.171; 8509.750;  230.875;    0.000
1050.324; 8529.750;  268.875;    0.000
1050.477; 8132.750;  262.875;    0.000
1050.630; 7843.750;  243.875;    0.000
1050.783; 8679.750;  216.875;    0.000
1050.936; 8905.750;  250.875;    0.000
1051.089; 8539.750;  247.875;    0.000
1051.242; 9330.750;  300.875;    0.000
1051.394; 9428.750;  233.875;    0.000
1051.547; 9388.750;  263.875;    0.000
1051.700; 9769.750;  238.875;    0.000
1051.853; 9856.750;  299.875;    0.000
1052.005;10539.750;  275.875;    0.000
1052.158;10402.750;  304.875;    0.000
1052.311;11652.750;  251.875;    0.000
1052.463;10281.750;  276.875;    0.000
1052.616;10160.750;  271.875;    0.000
1052.768; 9930.750;  285.875;    0.000
1052.921; 9963.750;  261.875;    0.000
1053.073;10396.750;  333.875;    0.000
1053.226; 9759.750;  271.875;    0.000
1053.378;10520.750;  309.875;    0.000
1053.531;10033.750;  266.875;    0.000
1053.683; 9944.750;  278.875;    0.000
1053.835; 9450.750;  274.875;    0.000
1053.988; 7606.750;  287.875;    0.000
1054.140; 2838.750;  350.875;    0.000
1054.292; 1053.750;  338.875;    0.000
1054.444;  760.750;  270.875;    0.000
1054.596;  793.750;  294.875;    0.000
1054.749;  629.750;  285.875;    0.000
1054.901;  619.750;  254.875;    0.000
1055.053;  667.750;  320.875;    0.000
1055.205;  648.750;  284.875;    0.000
1055.357;  599.750;  298.875;    0.000
1055.509;  599.750;  304.875;    0.000
1055.661;  608.750;  350.875;    0.000
1055.813;  618.750;  289.875;    0.000
1055.965;  570.750;  277.875;    0.000
1056.116;  630.750;  288.875;    0.000
1056.268;  638.750;  311.875;    0.000
1056.420;  620.750;  308.875;    0.000

