
Integration time [ms]:   0.300
Averaging Nr. [scans]: 1
Smoothing Nr. [pixels]: 0
Data measured with spectrometer [name]: UV1
Wave   ;Sample   ;Dark     ;Reference
[nm]   ;[counts] ;[counts] ;[counts] 

236.381;  133.000;  149.925;    0.000
236.451;  188.000;  206.925;    0.000
236.520;  178.000;  212.925;    0.000
236.590;  221.000;  189.925;    0.000
236.660;  207.000;  184.925;    0.000
236.730;  199.000;  186.925;    0.000
236.799;  178.000;  191.925;    0.000
236.869;  217.000;  184.925;    0.000
236.939;  169.000;  176.925;    0.000
237.009;  208.000;  184.925;    0.000
237.078;  198.000;  189.925;    0.000
237.148;  187.000;  217.925;    0.000
237.218;  209.000;  192.925;    0.000
237.287;  177.000;  182.925;    0.000
237.357;  186.000;  196.925;    0.000
237.427;  165.000;  144.925;    0.000
237.496;  374.000;  224.925;    0.000
237.566;  365.000;  210.925;    0.000
237.636;  371.000;  165.925;    0.000
237.705;  379.000;  214.925;    0.000
237.775;  355.000;  194.925;    0.000
237.845;  425.000;  214.925;    0.000
237.914;  369.000;  191.925;    0.000
237.984;  414.000;  218.925;    0.000
238.054;  376.000;  187.925;    0.000
238.123;  400.000;  179.925;    0.000
238.193;  367.000;  177.925;    0.000
238.263;  393.000;  225.925;    0.000
238.332;  407.000;  197.925;    0.000
238.402;  378.000;  183.925;    0.000
238.471;  370.000;  181.925;    0.000
238.541;  422.000;  200.925;    0.000
238.611;  355.000;  170.925;    0.000
238.680;  386.000;  170.925;    0.000
238.750;  373.000;  175.925;    0.000
238.819;  379.000;  180.925;    0.000
238.889;  357.000;  190.925;    0.000
238.958;  412.000;  207.925;    0.000
239.028;  391.000;  201.925;    0.000
239.097;  363.000;  181.925;    0.000
239.167;  398.000;  222.925;    0.000
239.237;  385.000;  221.925;    0.000
239.306;  370.000;  147.925;    0.000
239.376;  378.000;  188.925;    0.000
239.445;  366.000;  198.925;    0.000
239.515;  389.000;  191.925;    0.000
239.584;  365.000;  178.925;    0.000
239.654;  393.000;  147.925;    0.000
239.723;  429.000;  212.925;    0.000
239.793;  401.000;  185.925;    0.000
239.862;  375.000;  157.925;    0.000
239.932;  365.000;  181.925;    0.000
240.001;  339.000;  163.925;    0.000
240.070;  389.000;  194.925;    0.000
240.140;  381.000;  202.925;    0.000
240.209;  352.000;  180.925;    0.000
240.279;  387.000;  188.925;    0.000
240.348;  376.000;  189.925;    0.000
240.418;  367.000;  143.925;    0.000
240.487;  401.000;  195.925;    0.000
240.556;  364.000;  170.925;    0.000
240.626;  386.000;  172.925;    0.000
240.695;  402.000;  202.925;    0.000
240.765;  354.000;  191.925;    0.000
240.834;  389.000;  177.925;    0.000
240.903;  352.000;  189.925;    0.000
240.973;  335.000;  196.925;    0.000
241.042;  367.000;  183.925;    0.000
241.112;  395.000;  189.925;    0.000
241.181;  359.000;  186.925;    0.000
241.250;  388.000;  168.925;    0.000
241.320;  340.000;  200.925;    0.000
241.389;  386.000;  185.925;    0.000
241.458;  396.000;  194.925;    0.000
241.528;  366.000;  165.925;    0.000
241.597;  382.000;  200.925;    0.000
241.666;  384.000;  184.925;    0.000
241.736;  403.000;  176.925;    0.000
241.805;  374.000;  165.925;    0.000
241.874;  361.000;  200.925;    0.000
241.943;  371.000;  184.925;    0.000
242.013;  430.000;  212.925;    0.000
242.082;  352.000;  200.925;    0.000
242.151;  389.000;  196.925;    0.000
242.221;  383.000;  182.925;    0.000
242.290;  414.000;  222.925;    0.000
242.359;  335.000;  142.925;    0.000
242.428;  382.000;  180.925;    0.000
242.498;  313.000;  180.925;    0.000
242.567;  390.000;  181.925;    0.000
242.636;  351.000;  203.925;    0.000
242.705;  364.000;  209.925;    0.000
242.774;  359.000;  172.925;    0.000
242.844;  375.000;  218.925;    0.000
242.913;  389.000;  188.925;    0.000
242.982;  352.000;  193.925;    0.000
243.051;  354.000;  202.925;    0.000
243.120;  352.000;  174.925;    0.000
243.190;  360.000;  165.925;    0.000
243.259;  405.000;  206.925;    0.000
243.328;  356.000;  166.925;    0.000
243.397;  381.000;  167.925;    0.000
243.466;  376.000;  163.925;    0.000
243.535;  376.000;  162.925;    0.000
243.605;  361.000;  159.925;    0.000
243.674;  358.000;  171.925;    0.000
243.743;  389.000;  189.925;    0.000
243.812;  366.000;  169.925;    0.000
243.881;  354.000;  145.925;    0.000
243.950;  349.000;  197.925;    0.000
244.019;  387.000;  189.925;    0.000
244.088;  381.000;  200.925;    0.000
244.158;  393.000;  208.925;    0.000
244.227;  369.000;  154.925;    0.000
244.296;  349.000;  142.925;    0.000
244.365;  360.000;  198.925;    0.000
244.434;  313.000;  162.925;    0.000
244.503;  379.000;  186.925;    0.000
244.572;  329.000;  143.925;    0.000
244.641;  309.000;  145.925;    0.000
244.710;  388.000;  159.925;    0.000
244.779;  363.000;  175.925;    0.000
244.848;  340.000;  163.925;    0.000
244.917;  397.000;  157.925;    0.000
244.986;  333.000;  166.925;    0.000
245.055;  384.000;  211.925;    0.000
245.124;  336.000;  155.925;    0.000
245.193;  358.000;  187.925;    0.000
245.262;  313.000;  152.925;    0.000
245.331;  351.000;  177.925;    0.000
245.400;  316.000;  157.925;    0.000
245.469;  352.000;  195.925;    0.000
245.538;  333.000;  199.925;    0.000
245.607;  423.000;  194.925;    0.000
245.676;  368.000;  170.925;    0.000
245.745;  390.000;  208.925;    0.000
245.814;  360.000;  185.925;    0.000
245.883;  341.000;  165.925;    0.000
245.952;  356.000;  151.925;    0.000
246.021;  354.000;  171.925;    0.000
246.090;  345.000;  174.925;    0.000
246.159;  320.000;  192.925;    0.000
246.227;  339.000;  178.925;    0.000
246.296;  302.000;  159.925;    0.000
246.365;  337.000;  189.925;    0.000
246.434;  369.000;  205.925;    0.000
246.503;  330.000;  174.925;    0.000
246.572;  416.000;  203.925;    0.000
246.641;  365.000;  169.925;    0.000
246.710;  351.000;  186.925;    0.000
246.779;  377.000;  196.925;    0.000
246.847;  363.000;  209.925;    0.000
246.916;  354.000;  177.925;    0.000
246.985;  353.000;  188.925;    0.000
247.054;  294.000;  189.925;    0.000
247.123;  315.000;  196.925;    0.000
247.192;  380.000;  210.925;    0.000
247.260;  271.000;  164.925;    0.000
247.329;  355.000;  204.925;    0.000
247.398;  361.000;  204.925;    0.000
247.467;  342.000;  160.925;    0.000
247.536;  354.000;  193.925;    0.000
247.604;  352.000;  208.925;    0.000
247.673;  320.000;  168.925;    0.000
247.742;  345.000;  182.925;    0.000
247.811;  355.000;  186.925;    0.000
247.879;  305.000;  166.925;    0.000
247.948;  346.000;  192.925;    0.000
248.017;  348.000;  178.925;    0.000
248.086;  373.000;  193.925;    0.000
248.154;  344.000;  191.925;    0.000
248.223;  329.000;  207.925;    0.000
248.292;  349.000;  168.925;    0.000
248.361;  330.000;  211.925;    0.000
248.429;  333.000;  196.925;    0.000
248.498;  300.000;  163.925;    0.000
248.567;  333.000;  159.925;    0.000
248.635;  341.000;  194.925;    0.000
248.704;  365.000;  205.925;    0.000
248.773;  305.000;  190.925;    0.000
248.841;  308.000;  179.925;    0.000
248.910;  357.000;  193.925;    0.000
248.979;  317.000;  167.925;    0.000
249.047;  305.000;  166.925;    0.000
249.116;  325.000;  191.925;    0.000
249.185;  362.000;  203.925;    0.000
249.253;  327.000;  140.925;    0.000
249.322;  379.000;  173.925;    0.000
249.390;  353.000;  165.925;    0.000
249.459;  367.000;  173.925;    0.000
249.528;  371.000;  203.925;    0.000
249.596;  300.000;  204.925;    0.000
249.665;  314.000;  176.925;    0.000
249.733;  317.000;  178.925;    0.000
249.802;  312.000;  190.925;    0.000
249.871;  330.000;  171.925;    0.000
249.939;  356.000;  160.925;    0.000
250.008;  361.000;  220.925;    0.000
250.076;  347.000;  211.925;    0.000
250.145;  324.000;  145.925;    0.000
250.213;  301.000;  177.925;    0.000
250.282;  320.000;  186.925;    0.000
250.350;  313.000;  170.925;    0.000
250.419;  344.000;  195.925;    0.000
250.487;  336.000;  194.925;    0.000
250.556;  333.000;  178.925;    0.000
250.624;  340.000;  193.925;    0.000
250.693;  331.000;  167.925;    0.000
250.761;  378.000;  253.925;    0.000
250.830;  374.000;  241.925;    0.000
250.898;  315.000;  161.925;    0.000
250.967;  316.000;  178.925;    0.000
251.035;  332.000;  189.925;    0.000
251.104;  313.000;  166.925;    0.000
251.172;  313.000;  178.925;    0.000
251.241;  298.000;  174.925;    0.000
251.309;  336.000;  197.925;    0.000
251.378;  328.000;  172.925;    0.000
251.446;  341.000;  157.925;    0.000
251.514;  389.000;  197.925;    0.000
251.583;  353.000;  191.925;    0.000
251.651;  324.000;  154.925;    0.000
251.720;  332.000;  198.925;    0.000
251.788;  375.000;  226.925;    0.000
251.856;  285.000;  164.925;    0.000
251.925;  309.000;  181.925;    0.000
251.993;  340.000;  203.925;    0.000
252.062;  336.000;  211.925;    0.000
252.130;  308.000;  185.925;    0.000
252.198;  311.000;  190.925;    0.000
252.267;  311.000;  176.925;    0.000
252.335;  330.000;  179.925;    0.000
252.403;  360.000;  173.925;    0.000
252.472;  322.000;  172.925;    0.000
252.540;  274.000;  187.925;    0.000
252.608;  294.000;  204.925;    0.000
252.677;  297.000;  179.925;    0.000
252.745;  346.000;  192.925;    0.000
252.813;  333.000;  168.925;    0.000
252.881;  249.000;  157.925;    0.000
252.950;  311.000;  188.925;    0.000
253.018;  305.000;  191.925;    0.000
253.086;  273.000;  164.925;    0.000
253.155;  305.000;  172.925;    0.000
253.223;  281.000;  168.925;    0.000
253.291;  282.000;  190.925;    0.000
253.359;  297.000;  205.925;    0.000
253.428;  305.000;  228.925;    0.000
253.496;  279.000;  170.925;    0.000
253.564;  245.000;  164.925;    0.000
253.632;  281.000;  159.925;    0.000
253.700;  299.000;  166.925;    0.000
253.769;  283.000;  172.925;    0.000
253.837;  314.000;  157.925;    0.000
253.905;  327.000;  168.925;    0.000
253.973;  269.000;  179.925;    0.000
254.041;  308.000;  187.925;    0.000
254.110;  250.000;  186.925;    0.000
254.178;  235.000;  156.925;    0.000
254.246;  276.000;  132.925;    0.000
254.314;  251.000;  191.925;    0.000
254.382;  324.000;  189.925;    0.000
254.450;  265.000;  163.925;    0.000
254.518;  264.000;  172.925;    0.000
254.587;  260.000;  162.925;    0.000
254.655;  314.000;  191.925;    0.000
254.723;  268.000;  184.925;    0.000
254.791;  267.000;  169.925;    0.000
254.859;  264.000;  186.925;    0.000
254.927;  276.000;  207.925;    0.000
254.995;  249.000;  143.925;    0.000
255.063;  272.000;  198.925;    0.000
255.131;  244.000;  168.925;    0.000
255.199;  292.000;  183.925;    0.000
255.267;  270.000;  159.925;    0.000
255.336;  251.000;  197.925;    0.000
255.404;  280.000;  177.925;    0.000
255.472;  286.000;  204.925;    0.000
255.540;  290.000;  169.925;    0.000
255.608;  309.000;  141.925;    0.000
255.676;  246.000;  176.925;    0.000
255.744;  280.000;  184.925;    0.000
255.812;  301.000;  158.925;    0.000
255.880;  323.000;  202.925;    0.000
255.948;  293.000;  184.925;    0.000
256.016;  319.000;  192.925;    0.000
256.084;  300.000;  204.925;    0.000
256.152;  279.000;  191.925;    0.000
256.220;  280.000;  187.925;    0.000
256.288;  263.000;  176.925;    0.000
256.356;  282.000;  146.925;    0.000
256.424;  272.000;  164.925;    0.000
256.491;  262.000;  161.925;    0.000
256.559;  288.000;  167.925;    0.000
256.627;  296.000;  180.925;    0.000
256.695;  273.000;  159.925;    0.000
256.763;  334.000;  166.925;    0.000
256.831;  315.000;  166.925;    0.000
256.899;  296.000;  161.925;    0.000
256.967;  240.000;  116.925;    0.000
257.035;  309.000;  195.925;    0.000
257.103;  345.000;  227.925;    0.000
257.171;  272.000;  147.925;    0.000
257.238;  278.000;  158.925;    0.000
257.306;  300.000;  188.925;    0.000
257.374;  301.000;  153.925;    0.000
257.442;  265.000;  159.925;    0.000
257.510;  314.000;  201.925;    0.000
257.578;  291.000;  137.925;    0.000
257.646;  302.000;  172.925;    0.000
257.713;  299.000;  164.925;    0.000
257.781;  299.000;  163.925;    0.000
257.849;  337.000;  174.925;    0.000
257.917;  284.000;  164.925;    0.000
257.985;  277.000;  126.925;    0.000
258.052;  294.000;  158.925;    0.000
258.120;  296.000;  151.925;    0.000
258.188;  315.000;  169.925;    0.000
258.256;  290.000;  110.925;    0.000
258.324;  367.000;  193.925;    0.000
258.391;  301.000;  157.925;    0.000
258.459;  334.000;  193.925;    0.000
258.527;  290.000;  150.925;    0.000
258.595;  345.000;  173.925;    0.000
258.662;  324.000;  168.925;    0.000
258.730;  335.000;  190.925;    0.000
258.798;  269.000;  164.925;    0.000
258.865;  313.000;  165.925;    0.000
258.933;  327.000;  162.925;    0.000
259.001;  362.000;  174.925;    0.000
259.069;  322.000;  139.925;    0.000
259.136;  375.000;  160.925;    0.000
259.204;  381.000;  174.925;    0.000
259.272;  364.000;  161.925;    0.000
259.339;  315.000;  157.925;    0.000
259.407;  327.000;  159.925;    0.000
259.475;  350.000;  134.925;    0.000
259.542;  351.000;  179.925;    0.000
259.610;  336.000;  172.925;    0.000
259.677;  358.000;  152.925;    0.000
259.745;  336.000;  131.925;    0.000
259.813;  359.000;  185.925;    0.000
259.880;  398.000;  183.925;    0.000
259.948;  404.000;  168.925;    0.000
260.016;  345.000;  160.925;    0.000
260.083;  412.000;  163.925;    0.000
260.151;  362.000;  162.925;    0.000
260.218;  405.000;  171.925;    0.000
260.286;  416.000;  154.925;    0.000
260.353;  409.000;  182.925;    0.000
260.421;  372.000;  187.925;    0.000
260.489;  447.000;  185.925;    0.000
260.556;  403.000;  165.925;    0.000
260.624;  412.000;  185.925;    0.000
260.691;  407.000;  175.925;    0.000
260.759;  410.000;  201.925;    0.000
260.826;  352.000;  150.925;    0.000
260.894;  394.000;  142.925;    0.000
260.961;  378.000;  156.925;    0.000
261.029;  416.000;  161.925;    0.000
261.096;  387.000;  172.925;    0.000
261.164;  380.000;  149.925;    0.000
261.231;  387.000;  191.925;    0.000
261.299;  403.000;  182.925;    0.000
261.366;  452.000;  156.925;    0.000
261.434;  448.000;  188.925;    0.000
261.501;  438.000;  170.925;    0.000
261.568;  446.000;  167.925;    0.000
261.636;  438.000;  169.925;    0.000
261.703;  480.000;  200.925;    0.000
261.771;  424.000;  170.925;    0.000
261.838;  491.000;  175.925;    0.000
261.906;  433.000;  135.925;    0.000
261.973;  427.000;  184.925;    0.000
262.040;  482.000;  176.925;    0.000
262.108;  448.000;  201.925;    0.000
262.175;  448.000;  141.925;    0.000
262.243;  477.000;  175.925;    0.000
262.310;  408.000;  112.925;    0.000
262.377;  433.000;  158.925;    0.000
262.445;  492.000;  162.925;    0.000
262.512;  476.000;  184.925;    0.000
262.579;  481.000;  185.925;    0.000
262.647;  426.000;  158.925;    0.000
262.714;  511.000;  197.925;    0.000
262.781;  456.000;  133.925;    0.000
262.849;  424.000;  146.925;    0.000
262.916;  487.000;  204.925;    0.000
262.983;  501.000;  191.925;    0.000
263.051;  426.000;  140.925;    0.000
263.118;  538.000;  154.925;    0.000
263.185;  506.000;  169.925;    0.000
263.252;  478.000;  150.925;    0.000
263.320;  481.000;  145.925;    0.000
263.387;  493.000;  144.925;    0.000
263.454;  503.000;  193.925;    0.000
263.522;  485.000;  160.925;    0.000
263.589;  497.000;  153.925;    0.000
263.656;  499.000;  178.925;    0.000
263.723;  463.000;  136.925;    0.000
263.790;  492.000;  162.925;    0.000
263.858;  565.000;  164.925;    0.000
263.925;  533.000;  146.925;    0.000
263.992;  504.000;  191.925;    0.000
264.059;  544.000;  180.925;    0.000
264.126;  594.000;  183.925;    0.000
264.194;  571.000;  174.925;    0.000
264.261;  545.000;  187.925;    0.000
264.328;  558.000;  179.925;    0.000
264.395;  532.000;  166.925;    0.000
264.462;  573.000;  197.925;    0.000
264.529;  566.000;  209.925;    0.000
264.597;  549.000;  173.925;    0.000
264.664;  575.000;  193.925;    0.000
264.731;  588.000;  165.925;    0.000
264.798;  523.000;  148.925;    0.000
264.865;  615.000;  186.925;    0.000
264.932;  537.000;  152.925;    0.000
264.999;  536.000;  166.925;    0.000
265.066;  520.000;  186.925;    0.000
265.133;  548.000;  172.925;    0.000
265.201;  590.000;  159.925;    0.000
265.268;  541.000;  164.925;    0.000
265.335;  586.000;  161.925;    0.000
265.402;  566.000;  157.925;    0.000
265.469;  556.000;  134.925;    0.000
265.536;  581.000;  191.925;    0.000
265.603;  595.000;  170.925;    0.000
265.670;  623.000;  162.925;    0.000
265.737;  533.000;  172.925;    0.000
265.804;  580.000;  151.925;    0.000
265.871;  567.000;  191.925;    0.000
265.938;  556.000;  173.925;    0.000
266.005;  604.000;  201.925;    0.000
266.072;  549.000;  156.925;    0.000
266.139;  578.000;  191.925;    0.000
266.206;  570.000;  151.925;    0.000
266.273;  594.000;  194.925;    0.000
266.340;  476.000;  120.925;    0.000
266.407;  573.000;  130.925;    0.000
266.474;  583.000;  137.925;    0.000
266.541;  627.000;  139.925;    0.000
266.608;  597.000;  139.925;    0.000
266.675;  646.000;  198.925;    0.000
266.742;  601.000;  165.925;    0.000
266.808;  602.000;  174.925;    0.000
266.875;  604.000;  169.925;    0.000
266.942;  621.000;  137.925;    0.000
267.009;  619.000;  181.925;    0.000
267.076;  633.000;  204.925;    0.000
267.143;  631.000;  179.925;    0.000
267.210;  556.000;  160.925;    0.000
267.277;  651.000;  154.925;    0.000
267.344;  696.000;  178.925;    0.000
267.410;  625.000;  190.925;    0.000
267.477;  612.000;  193.925;    0.000
267.544;  598.000;  168.925;    0.000
267.611;  610.000;  177.925;    0.000
267.678;  626.000;  205.925;    0.000
267.745;  607.000;  205.925;    0.000
267.811;  614.000;  164.925;    0.000
267.878;  663.000;  166.925;    0.000
267.945;  625.000;  160.925;    0.000
268.012;  663.000;  172.925;    0.000
268.079;  648.000;  186.925;    0.000
268.145;  589.000;  188.925;    0.000
268.212;  614.000;  181.925;    0.000
268.279;  611.000;  158.925;    0.000
268.346;  586.000;  192.925;    0.000
268.412;  636.000;  159.925;    0.000
268.479;  637.000;  176.925;    0.000
268.546;  589.000;  170.925;    0.000
268.613;  686.000;  133.925;    0.000
268.679;  663.000;  170.925;    0.000
268.746;  682.000;  185.925;    0.000
268.813;  647.000;  170.925;    0.000
268.879;  653.000;  149.925;    0.000
268.946;  667.000;  176.925;    0.000
269.013;  606.000;  153.925;    0.000
269.079;  667.000;  156.925;    0.000
269.146;  634.000;  143.925;    0.000
269.213;  641.000;  170.925;    0.000
269.280;  696.000;  202.925;    0.000
269.346;  649.000;  180.925;    0.000
269.413;  638.000;  162.925;    0.000
269.479;  637.000;  175.925;    0.000
269.546;  627.000;  151.925;    0.000
269.613;  616.000;  159.925;    0.000
269.679;  677.000;  190.925;    0.000
269.746;  639.000;  159.925;    0.000
269.813;  675.000;  151.925;    0.000
269.879;  622.000;  169.925;    0.000
269.946;  618.000;  169.925;    0.000
270.012;  651.000;  185.925;    0.000
270.079;  630.000;  133.925;    0.000
270.145;  614.000;  161.925;    0.000
270.212;  659.000;  156.925;    0.000
270.279;  641.000;  176.925;    0.000
270.345;  570.000;  140.925;    0.000
270.412;  637.000;  162.925;    0.000
270.478;  569.000;  148.925;    0.000
270.545;  602.000;  146.925;    0.000
270.611;  653.000;  168.925;    0.000
270.678;  551.000;  164.925;    0.000
270.744;  647.000;  117.925;    0.000
270.811;  651.000;  196.925;    0.000
270.877;  619.000;  151.925;    0.000
270.944;  605.000;  174.925;    0.000
271.010;  630.000;  180.925;    0.000
271.077;  610.000;  162.925;    0.000
271.143;  692.000;  178.925;    0.000
271.210;  588.000;  159.925;    0.000
271.276;  679.000;  143.925;    0.000
271.342;  655.000;  196.925;    0.000
271.409;  589.000;  161.925;    0.000
271.475;  596.000;  153.925;    0.000
271.542;  620.000;  147.925;    0.000
271.608;  656.000;  175.925;    0.000
271.675;  600.000;  134.925;    0.000
271.741;  651.000;  182.925;    0.000
271.807;  644.000;  174.925;    0.000
271.874;  606.000;  169.925;    0.000
271.940;  644.000;  179.925;    0.000
272.007;  560.000;  173.925;    0.000
272.073;  608.000;  133.925;    0.000
272.139;  646.000;  191.925;    0.000
272.206;  637.000;  168.925;    0.000
272.272;  658.000;  179.925;    0.000
272.338;  660.000;  224.925;    0.000
272.405;  606.000;  156.925;    0.000
272.471;  597.000;  175.925;    0.000
272.537;  633.000;  190.925;    0.000
272.604;  609.000;  199.925;    0.000
272.670;  578.000;  156.925;    0.000
272.736;  645.000;  198.925;    0.000
272.802;  583.000;  169.925;    0.000
272.869;  569.000;  141.925;    0.000
272.935;  567.000;  145.925;    0.000
273.001;  599.000;  156.925;    0.000
273.068;  573.000;  157.925;    0.000
273.134;  608.000;  184.925;    0.000
273.200;  671.000;  158.925;    0.000
273.266;  640.000;  150.925;    0.000
273.333;  674.000;  176.925;    0.000
273.399;  543.000;  118.925;    0.000
273.465;  640.000;  184.925;    0.000
273.531;  562.000;  179.925;    0.000
273.597;  638.000;  167.925;    0.000
273.664;  673.000;  186.925;    0.000
273.730;  602.000;  137.925;    0.000
273.796;  586.000;  148.925;    0.000
273.862;  607.000;  183.925;    0.000
273.928;  663.000;  179.925;    0.000
273.995;  653.000;  189.925;    0.000
274.061;  651.000;  188.925;    0.000
274.127;  599.000;  132.925;    0.000
274.193;  556.000;  135.925;    0.000
274.259;  546.000;  177.925;    0.000
274.325;  655.000;  178.925;    0.000
274.391;  618.000;  140.925;    0.000
274.457;  672.000;  158.925;    0.000
274.524;  636.000;  175.925;    0.000
274.590;  619.000;  182.925;    0.000
274.656;  664.000;  165.925;    0.000
274.722;  613.000;  152.925;    0.000
274.788;  638.000;  159.925;    0.000
274.854;  720.000;  143.925;    0.000
274.920;  660.000;  117.925;    0.000
274.986;  604.000;  140.925;    0.000
275.052;  669.000;  174.925;    0.000
275.118;  653.000;  129.925;    0.000
275.184;  680.000;  173.925;    0.000
275.250;  752.000;  196.925;    0.000
275.316;  710.000;  142.925;    0.000
275.382;  621.000;  149.925;    0.000
275.448;  727.000;  178.925;    0.000
275.514;  680.000;  136.925;    0.000
275.580;  620.000;  140.925;    0.000
275.646;  645.000;  133.925;    0.000
275.712;  689.000;  162.925;    0.000
275.778;  696.000;  129.925;    0.000
275.844;  602.000;  156.925;    0.000
275.910;  718.000;  172.925;    0.000
275.976;  743.000;  158.925;    0.000
276.042;  701.000;  141.925;    0.000
276.108;  740.000;  212.925;    0.000
276.174;  753.000;  148.925;    0.000
276.240;  673.000;  134.925;    0.000
276.306;  692.000;  149.925;    0.000
276.372;  789.000;  126.925;    0.000
276.437;  702.000;  168.925;    0.000
276.503;  745.000;  158.925;    0.000
276.569;  773.000;  191.925;    0.000
276.635;  700.000;  130.925;    0.000
276.701;  785.000;  161.925;    0.000
276.767;  807.000;  148.925;    0.000
276.833;  769.000;  147.925;    0.000
276.899;  795.000;  149.925;    0.000
276.964;  870.000;  181.925;    0.000
277.030;  825.000;  186.925;    0.000
277.096;  806.000;  132.925;    0.000
277.162;  865.000;  181.925;    0.000
277.228;  836.000;  166.925;    0.000
277.293;  935.000;  154.925;    0.000
277.359;  903.000;  181.925;    0.000
277.425;  979.000;  184.925;    0.000
277.491; 1031.000;  150.925;    0.000
277.557; 1082.000;  159.925;    0.000
277.622; 1562.000;  129.925;    0.000
277.688; 1528.000;  184.925;    0.000
277.754; 1640.000;  182.925;    0.000
277.820; 1664.000;  149.925;    0.000
277.885; 1859.000;  185.925;    0.000
277.951; 2465.000;  164.925;    0.000
278.017; 2184.000;  162.925;    0.000
278.083; 1746.000;  189.925;    0.000
278.148; 1768.000;  184.925;    0.000
278.214; 1670.000;  188.925;    0.000
278.280; 1889.000;  206.925;    0.000
278.345; 1782.000;  187.925;    0.000
278.411; 1553.000;  174.925;    0.000
278.477; 1476.000;  190.925;    0.000
278.542; 1621.000;  154.925;    0.000
278.608; 1643.000;  191.925;    0.000
278.674; 1925.000;  243.925;    0.000
278.739; 1933.000;  141.925;    0.000
278.805; 2286.000;  171.925;    0.000
278.871; 2391.000;  181.925;    0.000
278.936; 3008.000;  191.925;    0.000
279.002; 3993.000;  201.925;    0.000
279.067; 5685.000;  174.925;    0.000
279.133; 5803.000;  165.925;    0.000
279.199; 4762.000;  122.925;    0.000
279.264; 5146.000;  159.925;    0.000
279.330; 5855.000;  170.925;    0.000
279.395; 7929.000;  173.925;    0.000
279.461;10932.000;  200.925;    0.000
279.527;12353.000;  199.925;    0.000
279.592;11001.000;  203.925;    0.000
279.658; 8874.000;  209.925;    0.000
279.723; 8219.000;  188.925;    0.000
279.789; 9482.000;  180.925;    0.000
279.854; 7531.000;  137.925;    0.000
279.920; 6481.000;  223.925;    0.000
279.985; 6035.000;  186.925;    0.000
280.051; 6030.000;  198.925;    0.000
280.116; 6897.000;  178.925;    0.000
280.182;10176.000;  176.925;    0.000
280.247;11621.000;  195.925;    0.000
280.313;10198.000;  165.925;    0.000
280.378; 6925.000;  153.925;    0.000
280.444; 5223.000;  181.925;    0.000
280.509; 3950.000;  188.925;    0.000
280.574; 3623.000;  149.925;    0.000
280.640; 3015.000;  164.925;    0.000
280.705; 2747.000;  166.925;    0.000
280.771; 2572.000;  188.925;    0.000
280.836; 2411.000;  188.925;    0.000
280.902; 2094.000;  168.925;    0.000
280.967; 2094.000;  202.925;    0.000
281.032; 2124.000;  197.925;    0.000
281.098; 1766.000;  138.925;    0.000
281.163; 1758.000;  160.925;    0.000
281.229; 1715.000;  212.925;    0.000
281.294; 1597.000;  227.925;    0.000
281.359; 1622.000;  200.925;    0.000
281.425; 1573.000;  189.925;    0.000
281.490; 1525.000;  176.925;    0.000
281.555; 1492.000;  182.925;    0.000
281.621; 1427.000;  169.925;    0.000
281.686; 1331.000;  182.925;    0.000
281.751; 1375.000;  208.925;    0.000
281.816; 1321.000;  166.925;    0.000
281.882; 1330.000;  181.925;    0.000
281.947; 1276.000;  178.925;    0.000
282.012; 1182.000;  167.925;    0.000
282.078; 1188.000;  170.925;    0.000
282.143; 1285.000;  157.925;    0.000
282.208; 1283.000;  158.925;    0.000
282.273; 1176.000;  187.925;    0.000
282.339; 1193.000;  185.925;    0.000
282.404; 1110.000;  201.925;    0.000
282.469; 1087.000;  202.925;    0.000
282.534; 1132.000;  185.925;    0.000
282.600; 1168.000;  125.925;    0.000
282.665; 1115.000;  162.925;    0.000
282.730; 1055.000;  174.925;    0.000
282.795; 1160.000;  179.925;    0.000
282.860; 1098.000;  190.925;    0.000
282.926; 1032.000;  200.925;    0.000
282.991; 1062.000;  161.925;    0.000
283.056; 1022.000;  175.925;    0.000
283.121; 1058.000;  181.925;    0.000
283.186; 1059.000;  221.925;    0.000
283.251;  950.000;  168.925;    0.000
283.316; 1105.000;  156.925;    0.000
283.382; 1135.000;  197.925;    0.000
283.447; 1023.000;  210.925;    0.000
283.512;  994.000;  164.925;    0.000
283.577; 1069.000;  212.925;    0.000
283.642; 1017.000;  186.925;    0.000
283.707;  928.000;  182.925;    0.000
283.772;  964.000;  127.925;    0.000
283.837; 1025.000;  160.925;    0.000
283.902; 1079.000;  162.925;    0.000
283.967; 1009.000;  151.925;    0.000
284.032; 1058.000;  175.925;    0.000
284.097;  976.000;  235.925;    0.000
284.163;  967.000;  136.925;    0.000
284.228; 1072.000;  209.925;    0.000
284.293; 1005.000;  163.925;    0.000
284.358; 1059.000;  169.925;    0.000
284.423; 1098.000;  145.925;    0.000
284.488; 1048.000;  134.925;    0.000
284.553; 1082.000;  158.925;    0.000
284.618; 1037.000;  163.925;    0.000
284.683; 1172.000;  168.925;    0.000
284.748; 1235.000;  170.925;    0.000
284.812; 1280.000;  151.925;    0.000
284.877; 1377.000;  169.925;    0.000
284.942; 1655.000;  179.925;    0.000
285.007; 2038.000;  202.925;    0.000
285.072; 2634.000;  171.925;    0.000
285.137; 3810.000;  173.925;    0.000
285.202; 5293.000;  196.925;    0.000
285.267; 4632.000;  193.925;    0.000
285.332; 3259.000;  151.925;    0.000
285.397; 2165.000;  183.925;    0.000
285.462; 1971.000;  168.925;    0.000
285.527; 1555.000;  166.925;    0.000
285.591; 1566.000;  124.925;    0.000
285.656; 1334.000;  145.925;    0.000
285.721; 1365.000;  155.925;    0.000
285.786; 1220.000;  170.925;    0.000
285.851; 1170.000;  175.925;    0.000
285.916; 1177.000;  186.925;    0.000
285.981; 1097.000;  204.925;    0.000
286.045; 1115.000;  237.925;    0.000
286.110; 1172.000;  197.925;    0.000
286.175; 1033.000;  143.925;    0.000
286.240; 1089.000;  167.925;    0.000
286.305; 1013.000;  202.925;    0.000
286.369; 1072.000;  214.925;    0.000
286.434; 1022.000;  206.925;    0.000
286.499; 1051.000;  177.925;    0.000
286.564; 1089.000;  201.925;    0.000
286.628;  935.000;  153.925;    0.000
286.693; 1018.000;  161.925;    0.000
286.758;  945.000;  181.925;    0.000
286.823;  980.000;  176.925;    0.000
286.887; 1003.000;  158.925;    0.000
286.952;  996.000;  198.925;    0.000
287.017; 1079.000;  196.925;    0.000
287.082;  969.000;  154.925;    0.000
287.146;  854.000;  178.925;    0.000
287.211;  962.000;  165.925;    0.000
287.276;  900.000;  165.925;    0.000
287.340;  956.000;  178.925;    0.000
287.405;  997.000;  177.925;    0.000
287.470;  897.000;  141.925;    0.000
287.534;  941.000;  224.925;    0.000
287.599;  860.000;  184.925;    0.000
287.663;  986.000;  177.925;    0.000
287.728;  973.000;  144.925;    0.000
287.793;  973.000;  210.925;    0.000
287.857;  915.000;  198.925;    0.000
287.922;  982.000;  168.925;    0.000
287.987;  957.000;  168.925;    0.000
288.051;  921.000;  200.925;    0.000
288.116;  981.000;  199.925;    0.000
288.180;  940.000;  211.925;    0.000
288.245;  883.000;  182.925;    0.000
288.309;  961.000;  180.925;    0.000
288.374;  913.000;  196.925;    0.000
288.439;  955.000;  187.925;    0.000
288.503;  930.000;  159.925;    0.000
288.568;  930.000;  207.925;    0.000
288.632;  913.000;  210.925;    0.000
288.697;  925.000;  196.925;    0.000
288.761;  934.000;  175.925;    0.000
288.826;  943.000;  159.925;    0.000
288.890;  969.000;  183.925;    0.000
288.955;  949.000;  149.925;    0.000
289.019;  973.000;  194.925;    0.000
289.084;  923.000;  171.925;    0.000
289.148;  924.000;  191.925;    0.000
289.212;  885.000;  217.925;    0.000
289.277;  885.000;  196.925;    0.000
289.341;  959.000;  211.925;    0.000
289.406;  944.000;  165.925;    0.000
289.470;  934.000;  197.925;    0.000
289.535;  875.000;  208.925;    0.000
289.599;  933.000;  192.925;    0.000
289.663;  886.000;  169.925;    0.000
289.728;  908.000;  168.925;    0.000
289.792;  945.000;  192.925;    0.000
289.857;  948.000;  202.925;    0.000
289.921;  939.000;  176.925;    0.000
289.985;  955.000;  164.925;    0.000
290.050;  894.000;  166.925;    0.000
290.114;  883.000;  192.925;    0.000
290.178;  884.000;  155.925;    0.000
290.243; 1002.000;  158.925;    0.000
290.307;  952.000;  192.925;    0.000
290.371;  879.000;  161.925;    0.000
290.436;  962.000;  182.925;    0.000
290.500;  998.000;  147.925;    0.000
290.564;  861.000;  209.925;    0.000
290.629;  836.000;  172.925;    0.000
290.693;  954.000;  192.925;    0.000
290.757;  999.000;  147.925;    0.000
290.821;  905.000;  139.925;    0.000
290.886;  815.000;  186.925;    0.000
290.950;  908.000;  196.925;    0.000
291.014; 1041.000;  166.925;    0.000
291.078;  916.000;  143.925;    0.000
291.143;  947.000;  171.925;    0.000
291.207; 1076.000;  187.925;    0.000
291.271;  886.000;  208.925;    0.000
291.335;  951.000;  195.925;    0.000
291.399;  974.000;  139.925;    0.000
291.464;  950.000;  139.925;    0.000
291.528;  996.000;  183.925;    0.000
291.592;  971.000;  152.925;    0.000
291.656;  972.000;  155.925;    0.000
291.720;  955.000;  191.925;    0.000
291.784; 1043.000;  185.925;    0.000
291.849;  932.000;  175.925;    0.000
291.913;  998.000;  152.925;    0.000
291.977;  950.000;  203.925;    0.000
292.041; 1014.000;  181.925;    0.000
292.105;  968.000;  168.925;    0.000
292.169;  862.000;  133.925;    0.000
292.233; 1001.000;  156.925;    0.000
292.297; 1013.000;  173.925;    0.000
292.361;  911.000;  124.925;    0.000
292.425;  988.000;  138.925;    0.000
292.490;  959.000;  110.925;    0.000
292.554;  971.000;  180.925;    0.000
292.618; 1137.000;  178.925;    0.000
292.682; 1130.000;  156.925;    0.000
292.746; 1064.000;  151.925;    0.000
292.810; 1398.000;  183.925;    0.000
292.874; 1612.000;  156.925;    0.000
292.938; 1667.000;  195.925;    0.000
293.002; 1641.000;  200.925;    0.000
293.066; 1386.000;  171.925;    0.000
293.130; 1363.000;  163.925;    0.000
293.194; 1312.000;  174.925;    0.000
293.258; 1328.000;  167.925;    0.000
293.322; 1261.000;  212.925;    0.000
293.386; 1317.000;  189.925;    0.000
293.450; 1278.000;  169.925;    0.000
293.514; 1490.000;  175.925;    0.000
293.577; 1660.000;  169.925;    0.000
293.641; 2255.000;  186.925;    0.000
293.705; 2349.000;  222.925;    0.000
293.769; 2133.000;  150.925;    0.000
293.833; 1885.000;  165.925;    0.000
293.897; 1578.000;  152.925;    0.000
293.961; 1528.000;  179.925;    0.000
294.025; 1449.000;  159.925;    0.000
294.089; 1477.000;  181.925;    0.000
294.152; 1399.000;  188.925;    0.000
294.216; 1327.000;  170.925;    0.000
294.280; 1318.000;  167.925;    0.000
294.344; 1195.000;  151.925;    0.000
294.408; 1195.000;  180.925;    0.000
294.472; 1118.000;  144.925;    0.000
294.536; 1100.000;  171.925;    0.000
294.599; 1129.000;  157.925;    0.000
294.663;  994.000;  139.925;    0.000
294.727; 1118.000;  208.925;    0.000
294.791; 1121.000;  152.925;    0.000
294.855; 1146.000;  181.925;    0.000
294.918; 1071.000;  136.925;    0.000
294.982; 1057.000;  155.925;    0.000
295.046; 1077.000;  200.925;    0.000
295.110;  935.000;  190.925;    0.000
295.173; 1001.000;  156.925;    0.000
295.237;  982.000;  160.925;    0.000
295.301;  931.000;  145.925;    0.000
295.364;  933.000;  166.925;    0.000
295.428; 1004.000;  125.925;    0.000
295.492;  947.000;  154.925;    0.000
295.556;  951.000;  172.925;    0.000
295.619;  974.000;  210.925;    0.000
295.683;  979.000;  181.925;    0.000
295.747;  884.000;  176.925;    0.000
295.810;  952.000;  181.925;    0.000
295.874;  952.000;  160.925;    0.000
295.938;  895.000;  119.925;    0.000
296.001;  878.000;  206.925;    0.000
296.065;  916.000;  136.925;    0.000
296.128;  858.000;  156.925;    0.000
296.192;  952.000;  174.925;    0.000
296.256;  880.000;  145.925;    0.000
296.319;  821.000;  167.925;    0.000
296.383;  920.000;  168.925;    0.000
296.447;  867.000;  190.925;    0.000
296.510;  852.000;  165.925;    0.000
296.574;  952.000;  184.925;    0.000
296.637;  923.000;  155.925;    0.000
296.701;  948.000;  168.925;    0.000
296.764;  944.000;  161.925;    0.000
296.828;  886.000;  218.925;    0.000
296.891;  928.000;  176.925;    0.000
296.955;  798.000;  169.925;    0.000
297.018;  886.000;  168.925;    0.000
297.082;  832.000;  176.925;    0.000
297.145;  875.000;  171.925;    0.000
297.209;  902.000;  196.925;    0.000
297.272;  871.000;  170.925;    0.000
297.336;  823.000;  156.925;    0.000
297.399;  834.000;  168.925;    0.000
297.463;  796.000;  203.925;    0.000
297.526;  881.000;  164.925;    0.000
297.590;  834.000;  175.925;    0.000
297.653;  920.000;  170.925;    0.000
297.717;  851.000;  156.925;    0.000
297.780;  824.000;  149.925;    0.000
297.843;  851.000;  156.925;    0.000
297.907;  845.000;  129.925;    0.000
297.970;  852.000;  163.925;    0.000
298.034;  844.000;  162.925;    0.000
298.097;  896.000;  182.925;    0.000
298.160;  812.000;  194.925;    0.000
298.224;  861.000;  178.925;    0.000
298.287;  844.000;  147.925;    0.000
298.350;  898.000;  187.925;    0.000
298.414;  880.000;  193.925;    0.000
298.477;  736.000;  127.925;    0.000
298.540;  777.000;  181.925;    0.000
298.604;  856.000;  163.925;    0.000
298.667;  799.000;  177.925;    0.000
298.730;  804.000;  192.925;    0.000
298.794;  820.000;  183.925;    0.000
298.857;  867.000;  194.925;    0.000
298.920;  778.000;  147.925;    0.000
298.984;  840.000;  184.925;    0.000
299.047;  828.000;  218.925;    0.000
299.110;  794.000;  171.925;    0.000
299.173;  726.000;  177.925;    0.000
299.237;  867.000;  181.925;    0.000
299.300;  762.000;  170.925;    0.000
299.363;  804.000;  185.925;    0.000
299.426;  843.000;  193.925;    0.000
299.489;  797.000;  184.925;    0.000
299.553;  768.000;  194.925;    0.000
299.616;  845.000;  171.925;    0.000
299.679;  820.000;  182.925;    0.000
299.742;  770.000;  138.925;    0.000
299.805;  737.000;  172.925;    0.000
299.868;  776.000;  191.925;    0.000
299.932;  787.000;  193.925;    0.000
299.995;  776.000;  201.925;    0.000
300.058;  807.000;  177.925;    0.000
300.121;  865.000;  178.925;    0.000
300.184;  756.000;  171.925;    0.000
300.247;  736.000;  184.925;    0.000
300.310;  758.000;  200.925;    0.000
300.374;  812.000;  172.925;    0.000
300.437;  771.000;  187.925;    0.000
300.500;  800.000;  211.925;    0.000
300.563;  798.000;  190.925;    0.000
300.626;  791.000;  196.925;    0.000
300.689;  800.000;  162.925;    0.000
300.752;  710.000;  163.925;    0.000
300.815;  828.000;  207.925;    0.000
300.878;  827.000;  221.925;    0.000
300.941;  852.000;  176.925;    0.000
301.004;  738.000;  193.925;    0.000
301.067;  745.000;  165.925;    0.000
301.130;  762.000;  179.925;    0.000
301.193;  748.000;  196.925;    0.000
301.256;  788.000;  210.925;    0.000
301.319;  845.000;  196.925;    0.000
301.382;  769.000;  162.925;    0.000
301.445;  763.000;  233.925;    0.000
301.508;  750.000;  176.925;    0.000
301.571;  788.000;  185.925;    0.000
301.634;  795.000;  202.925;    0.000
301.697;  719.000;  189.925;    0.000
301.760;  776.000;  224.925;    0.000
301.823;  811.000;  212.925;    0.000
301.885;  758.000;  196.925;    0.000
301.948;  790.000;  169.925;    0.000
302.011;  752.000;  160.925;    0.000
302.074;  772.000;  202.925;    0.000
302.137;  752.000;  130.925;    0.000
302.200;  755.000;  188.925;    0.000
302.263;  735.000;  196.925;    0.000
302.326;  738.000;  172.925;    0.000
302.388;  822.000;  197.925;    0.000
302.451;  806.000;  203.925;    0.000
302.514;  670.000;  164.925;    0.000
302.577;  806.000;  170.925;    0.000
302.640;  697.000;  156.925;    0.000
302.703;  787.000;  188.925;    0.000
302.765;  789.000;  213.925;    0.000
302.828;  839.000;  212.925;    0.000
302.891;  823.000;  203.925;    0.000
302.954;  825.000;  148.925;    0.000
303.016;  748.000;  168.925;    0.000
303.079;  809.000;  206.925;    0.000
303.142;  808.000;  210.925;    0.000
303.205;  704.000;  189.925;    0.000
303.267;  741.000;  174.925;    0.000
303.330;  746.000;  198.925;    0.000
303.393;  731.000;  207.925;    0.000
303.456;  778.000;  177.925;    0.000
303.518;  730.000;  192.925;    0.000
303.581;  631.000;  171.925;    0.000
303.644;  715.000;  193.925;    0.000
303.706;  750.000;  185.925;    0.000
303.769;  753.000;  198.925;    0.000
303.832;  725.000;  192.925;    0.000
303.894;  828.000;  199.925;    0.000
303.957;  760.000;  160.925;    0.000
304.020;  763.000;  184.925;    0.000
304.082;  785.000;  191.925;    0.000
304.145;  755.000;  216.925;    0.000
304.207;  854.000;  175.925;    0.000
304.270;  824.000;  192.925;    0.000
304.333;  752.000;  218.925;    0.000
304.395;  739.000;  195.925;    0.000
304.458;  802.000;  206.925;    0.000
304.520;  801.000;  229.925;    0.000
304.583;  780.000;  202.925;    0.000
304.646;  808.000;  159.925;    0.000
304.708;  730.000;  167.925;    0.000
304.771;  687.000;  141.925;    0.000
304.833;  771.000;  184.925;    0.000
304.896;  772.000;  197.925;    0.000
304.958;  808.000;  179.925;    0.000
305.021;  757.000;  175.925;    0.000
305.083;  784.000;  182.925;    0.000
305.146;  802.000;  182.925;    0.000
305.208;  782.000;  174.925;    0.000
305.271;  734.000;  157.925;    0.000
305.333;  841.000;  185.925;    0.000
305.396;  770.000;  199.925;    0.000
305.458;  809.000;  203.925;    0.000
305.520;  807.000;  195.925;    0.000
305.583;  781.000;  152.925;    0.000
305.645;  925.000;  200.925;    0.000
305.708;  715.000;  149.925;    0.000
305.770;  753.000;  211.925;    0.000
305.833;  782.000;  189.925;    0.000
305.895;  841.000;  200.925;    0.000
305.957;  795.000;  166.925;    0.000
306.020;  754.000;  186.925;    0.000
306.082;  775.000;  197.925;    0.000
306.144;  803.000;  200.925;    0.000
306.207;  747.000;  180.925;    0.000
306.269;  726.000;  209.925;    0.000
306.331;  847.000;  205.925;    0.000
306.394;  770.000;  176.925;    0.000
306.456;  812.000;  184.925;    0.000
306.518;  786.000;  210.925;    0.000
306.581;  723.000;  162.925;    0.000
306.643;  794.000;  196.925;    0.000
306.705;  755.000;  204.925;    0.000
306.768;  776.000;  158.925;    0.000
306.830;  775.000;  205.925;    0.000
306.892;  742.000;  189.925;    0.000
306.954;  791.000;  188.925;    0.000
307.017;  800.000;  180.925;    0.000
307.079;  748.000;  197.925;    0.000
307.141;  800.000;  184.925;    0.000
307.203;  799.000;  182.925;    0.000
307.266;  790.000;  166.925;    0.000
307.328;  822.000;  186.925;    0.000
307.390;  792.000;  176.925;    0.000
307.452;  794.000;  194.925;    0.000
307.514;  832.000;  225.925;    0.000
307.577;  809.000;  209.925;    0.000
307.639;  893.000;  203.925;    0.000
307.701;  844.000;  214.925;    0.000
307.763;  841.000;  203.925;    0.000
307.825;  922.000;  202.925;    0.000
307.887;  909.000;  244.925;    0.000
307.949;  829.000;  173.925;    0.000
308.012;  806.000;  219.925;    0.000
308.074;  793.000;  157.925;    0.000
308.136;  875.000;  215.925;    0.000
308.198;  805.000;  186.925;    0.000
308.260;  849.000;  186.925;    0.000
308.322;  859.000;  201.925;    0.000
308.384;  863.000;  218.925;    0.000
308.446;  822.000;  159.925;    0.000
308.508;  831.000;  191.925;    0.000
308.570;  907.000;  185.925;    0.000
308.632;  894.000;  208.925;    0.000
308.694;  910.000;  161.925;    0.000
308.756;  895.000;  169.925;    0.000
308.818;  872.000;  187.925;    0.000
308.880;  902.000;  192.925;    0.000
308.942;  881.000;  194.925;    0.000
309.004;  931.000;  206.925;    0.000
309.066;  896.000;  204.925;    0.000
309.128;  912.000;  181.925;    0.000
309.190;  931.000;  166.925;    0.000
309.252;  981.000;  213.925;    0.000
309.314;  956.000;  249.925;    0.000
309.376;  964.000;  238.925;    0.000
309.438;  936.000;  206.925;    0.000
309.500;  898.000;  185.925;    0.000
309.562;  963.000;  214.925;    0.000
309.624;  876.000;  216.925;    0.000
309.686;  932.000;  197.925;    0.000
309.747; 1010.000;  171.925;    0.000
309.809;  895.000;  198.925;    0.000
309.871;  916.000;  185.925;    0.000
309.933;  892.000;  172.925;    0.000
309.995;  924.000;  168.925;    0.000
310.057;  929.000;  177.925;    0.000
310.119;  916.000;  207.925;    0.000
310.180;  894.000;  180.925;    0.000
310.242;  936.000;  202.925;    0.000
310.304;  922.000;  200.925;    0.000
310.366;  919.000;  222.925;    0.000
310.428;  842.000;  179.925;    0.000
310.489;  865.000;  196.925;    0.000
310.551;  928.000;  203.925;    0.000
310.613;  901.000;  198.925;    0.000
310.675;  896.000;  203.925;    0.000
310.737;  843.000;  195.925;    0.000
310.798;  921.000;  204.925;    0.000
310.860;  938.000;  195.925;    0.000
310.922;  919.000;  195.925;    0.000
310.983;  852.000;  225.925;    0.000
311.045;  894.000;  203.925;    0.000
311.107;  941.000;  194.925;    0.000
311.169;  879.000;  185.925;    0.000
311.230;  848.000;  175.925;    0.000
311.292;  910.000;  220.925;    0.000
311.354;  899.000;  189.925;    0.000
311.415;  869.000;  187.925;    0.000
311.477;  844.000;  180.925;    0.000
311.539;  778.000;  175.925;    0.000
311.600;  829.000;  192.925;    0.000
311.662;  874.000;  212.925;    0.000
311.724;  893.000;  217.925;    0.000
311.785;  814.000;  218.925;    0.000
311.847;  823.000;  219.925;    0.000
311.908;  851.000;  202.925;    0.000
311.970;  891.000;  186.925;    0.000
312.032;  845.000;  212.925;    0.000
312.093;  879.000;  203.925;    0.000
312.155;  860.000;  165.925;    0.000
312.216;  866.000;  183.925;    0.000
312.278;  852.000;  167.925;    0.000
312.339;  833.000;  190.925;    0.000
312.401;  840.000;  219.925;    0.000
312.462;  862.000;  190.925;    0.000
312.524;  891.000;  203.925;    0.000
312.585;  870.000;  191.925;    0.000
312.647;  827.000;  197.925;    0.000
312.708;  864.000;  203.925;    0.000
312.770;  909.000;  203.925;    0.000
312.831;  862.000;  155.925;    0.000
312.893;  837.000;  189.925;    0.000
312.954;  912.000;  212.925;    0.000
313.016;  886.000;  179.925;    0.000
313.077;  947.000;  209.925;    0.000
313.139;  911.000;  185.925;    0.000
313.200;  933.000;  180.925;    0.000
313.261;  898.000;  220.925;    0.000
313.323;  901.000;  171.925;    0.000
313.384;  834.000;  180.925;    0.000
313.446;  896.000;  202.925;    0.000
313.507;  895.000;  172.925;    0.000
313.568;  831.000;  192.925;    0.000
313.630;  787.000;  191.925;    0.000
313.691;  857.000;  176.925;    0.000
313.752;  846.000;  175.925;    0.000
313.814;  882.000;  202.925;    0.000
313.875;  938.000;  186.925;    0.000
313.936;  822.000;  199.925;    0.000
313.998;  873.000;  164.925;    0.000
314.059;  907.000;  159.925;    0.000
314.120;  835.000;  175.925;    0.000
314.182;  853.000;  181.925;    0.000
314.243;  817.000;  157.925;    0.000
314.304;  829.000;  168.925;    0.000
314.365;  876.000;  203.925;    0.000
314.427;  898.000;  151.925;    0.000
314.488;  795.000;  174.925;    0.000
314.549;  895.000;  184.925;    0.000
314.610;  869.000;  198.925;    0.000
314.672;  858.000;  193.925;    0.000
314.733;  919.000;  171.925;    0.000
314.794;  894.000;  141.925;    0.000
314.855;  938.000;  184.925;    0.000
314.917;  893.000;  175.925;    0.000
314.978;  823.000;  190.925;    0.000
315.039;  846.000;  183.925;    0.000
315.100;  953.000;  204.925;    0.000
315.161;  801.000;  202.925;    0.000
315.222;  847.000;  177.925;    0.000
315.283;  832.000;  191.925;    0.000
315.345;  839.000;  185.925;    0.000
315.406;  825.000;  194.925;    0.000
315.467;  765.000;  167.925;    0.000
315.528;  932.000;  174.925;    0.000
315.589;  846.000;  197.925;    0.000
315.650;  850.000;  192.925;    0.000
315.711;  885.000;  181.925;    0.000
315.772;  883.000;  157.925;    0.000
315.833;  826.000;  189.925;    0.000
315.894;  891.000;  184.925;    0.000
315.955;  911.000;  202.925;    0.000
316.016;  853.000;  220.925;    0.000
316.078;  824.000;  180.925;    0.000
316.139;  923.000;  240.925;    0.000
316.200;  868.000;  190.925;    0.000
316.261;  810.000;  179.925;    0.000
316.322;  861.000;  176.925;    0.000
316.383;  820.000;  188.925;    0.000
316.444;  948.000;  228.925;    0.000
316.504;  882.000;  199.925;    0.000
316.565;  945.000;  221.925;    0.000
316.626;  877.000;  204.925;    0.000
316.687;  830.000;  192.925;    0.000
316.748;  878.000;  220.925;    0.000
316.809;  797.000;  175.925;    0.000
316.870;  871.000;  164.925;    0.000
316.931;  907.000;  208.925;    0.000
316.992;  851.000;  224.925;    0.000
317.053;  909.000;  204.925;    0.000
317.114;  873.000;  199.925;    0.000
317.175;  900.000;  230.925;    0.000
317.235;  798.000;  186.925;    0.000
317.296;  848.000;  224.925;    0.000
317.357;  819.000;  154.925;    0.000
317.418;  867.000;  219.925;    0.000
317.479;  908.000;  229.925;    0.000
317.540;  881.000;  201.925;    0.000
317.601;  922.000;  180.925;    0.000
317.661;  750.000;  179.925;    0.000
317.722;  868.000;  193.925;    0.000
317.783;  878.000;  164.925;    0.000
317.844;  915.000;  232.925;    0.000
317.904;  837.000;  222.925;    0.000
317.965;  873.000;  199.925;    0.000
318.026;  860.000;  200.925;    0.000
318.087;  879.000;  182.925;    0.000
318.148;  844.000;  216.925;    0.000
318.208;  821.000;  239.925;    0.000
318.269;  893.000;  163.925;    0.000
318.330;  882.000;  204.925;    0.000
318.390;  886.000;  191.925;    0.000
318.451;  798.000;  200.925;    0.000
318.512;  863.000;  181.925;    0.000
318.572;  859.000;  233.925;    0.000
318.633;  913.000;  220.925;    0.000
318.694;  871.000;  179.925;    0.000
318.754;  801.000;  214.925;    0.000
318.815;  872.000;  214.925;    0.000
318.876;  922.000;  220.925;    0.000
318.936;  949.000;  212.925;    0.000
318.997;  810.000;  201.925;    0.000
319.058;  901.000;  215.925;    0.000
319.118;  924.000;  251.925;    0.000
319.179;  809.000;  240.925;    0.000
319.239;  861.000;  240.925;    0.000
319.300;  963.000;  232.925;    0.000
319.361;  859.000;  211.925;    0.000
319.421;  802.000;  219.925;    0.000
319.482;  793.000;  228.925;    0.000
319.542;  933.000;  216.925;    0.000
319.603;  826.000;  190.925;    0.000
319.663;  846.000;  227.925;    0.000
319.724;  819.000;  191.925;    0.000
319.784;  851.000;  196.925;    0.000
319.845;  877.000;  190.925;    0.000
319.905;  897.000;  221.925;    0.000
319.966;  903.000;  219.925;    0.000
320.026;  896.000;  233.925;    0.000
320.087;  814.000;  204.925;    0.000
320.147;  877.000;  189.925;    0.000
320.208;  757.000;  200.925;    0.000
320.268;  856.000;  217.925;    0.000
320.329;  878.000;  216.925;    0.000
320.389;  803.000;  228.925;    0.000
320.449;  941.000;  236.925;    0.000
320.510;  883.000;  234.925;    0.000
320.570;  880.000;  176.925;    0.000
320.631;  895.000;  228.925;    0.000
320.691;  862.000;  228.925;    0.000
320.751;  879.000;  188.925;    0.000
320.812;  842.000;  223.925;    0.000
320.872;  898.000;  268.925;    0.000
320.932;  948.000;  226.925;    0.000
320.993;  875.000;  216.925;    0.000
321.053;  882.000;  236.925;    0.000
321.113;  841.000;  197.925;    0.000
321.174;  919.000;  218.925;    0.000
321.234;  862.000;  229.925;    0.000
321.294;  848.000;  208.925;    0.000
321.355;  897.000;  248.925;    0.000
321.415;  863.000;  218.925;    0.000
321.475;  814.000;  173.925;    0.000
321.535;  857.000;  234.925;    0.000
321.596;  834.000;  202.925;    0.000
321.656;  863.000;  246.925;    0.000
321.716;  898.000;  235.925;    0.000
321.776;  869.000;  210.925;    0.000
321.837;  953.000;  217.925;    0.000
321.897;  871.000;  215.925;    0.000
321.957;  970.000;  239.925;    0.000
322.017;  881.000;  173.925;    0.000
322.077;  895.000;  263.925;    0.000
322.138;  869.000;  232.925;    0.000
322.198;  836.000;  211.925;    0.000
322.258;  843.000;  213.925;    0.000
322.318;  869.000;  168.925;    0.000
322.378;  908.000;  251.925;    0.000
322.438;  937.000;  212.925;    0.000
322.499;  940.000;  265.925;    0.000
322.559;  848.000;  210.925;    0.000
322.619;  889.000;  242.925;    0.000
322.679;  798.000;  229.925;    0.000
322.739;  881.000;  216.925;    0.000
322.799;  866.000;  238.925;    0.000
322.859;  852.000;  249.925;    0.000
322.919;  841.000;  211.925;    0.000
322.979;  917.000;  244.925;    0.000
323.039;  803.000;  226.925;    0.000
323.099;  811.000;  223.925;    0.000
323.159;  870.000;  232.925;    0.000
323.219;  793.000;  203.925;    0.000
323.279;  875.000;  218.925;    0.000
323.339;  800.000;  231.925;    0.000
323.399;  884.000;  255.925;    0.000
323.459;  819.000;  244.925;    0.000
323.519;  829.000;  213.925;    0.000
323.579;  908.000;  193.925;    0.000
323.639;  872.000;  191.925;    0.000
323.699;  856.000;  199.925;    0.000
323.759;  890.000;  246.925;    0.000
323.819;  957.000;  206.925;    0.000
323.879;  892.000;  238.925;    0.000
323.939;  832.000;  229.925;    0.000
323.999;  810.000;  219.925;    0.000
324.059;  817.000;  177.925;    0.000
324.119;  859.000;  235.925;    0.000
324.178;  790.000;  211.925;    0.000
324.238;  872.000;  168.925;    0.000
324.298;  855.000;  205.925;    0.000
324.358;  795.000;  224.925;    0.000
324.418;  858.000;  235.925;    0.000
324.478;  835.000;  187.925;    0.000
324.538;  926.000;  230.925;    0.000
324.597;  836.000;  206.925;    0.000
324.657;  846.000;  180.925;    0.000
324.717;  849.000;  175.925;    0.000
324.777;  872.000;  169.925;    0.000
324.837;  861.000;  165.925;    0.000
324.896;  864.000;  205.925;    0.000
324.956;  823.000;  216.925;    0.000
325.016;  885.000;  197.925;    0.000
325.076;  894.000;  220.925;    0.000
325.135;  789.000;  242.925;    0.000
325.195;  892.000;  186.925;    0.000
325.255;  790.000;  160.925;    0.000
325.315;  883.000;  198.925;    0.000
325.374;  857.000;  208.925;    0.000
325.434;  871.000;  209.925;    0.000
325.494;  892.000;  191.925;    0.000
325.553;  905.000;  190.925;    0.000
325.613;  908.000;  229.925;    0.000
325.673;  821.000;  172.925;    0.000
325.732;  838.000;  160.925;    0.000
325.792;  892.000;  177.925;    0.000
325.852;  833.000;  201.925;    0.000
325.911;  822.000;  226.925;    0.000
325.971;  925.000;  224.925;    0.000
326.031;  891.000;  202.925;    0.000
326.090;  816.000;  232.925;    0.000
326.150;  887.000;  230.925;    0.000
326.209;  921.000;  201.925;    0.000
326.269;  895.000;  202.925;    0.000
326.328;  856.000;  203.925;    0.000
326.388;  854.000;  194.925;    0.000
326.448;  954.000;  233.925;    0.000
326.507;  845.000;  192.925;    0.000
326.567;  840.000;  163.925;    0.000
326.626;  882.000;  227.925;    0.000
326.686;  793.000;  177.925;    0.000
326.745;  877.000;  210.925;    0.000
326.805;  867.000;  198.925;    0.000
326.864;  868.000;  185.925;    0.000
326.924;  947.000;  255.925;    0.000
326.983;  821.000;  208.925;    0.000
327.043;  851.000;  241.925;    0.000
327.102;  900.000;  183.925;    0.000
327.161;  920.000;  210.925;    0.000
327.221;  832.000;  213.925;    0.000
327.280;  841.000;  194.925;    0.000
327.340;  882.000;  212.925;    0.000
327.399;  878.000;  209.925;    0.000
327.459;  842.000;  229.925;    0.000
327.518;  914.000;  196.925;    0.000
327.577;  791.000;  197.925;    0.000
327.637;  871.000;  210.925;    0.000
327.696;  843.000;  196.925;    0.000
327.755;  845.000;  216.925;    0.000
327.815;  841.000;  240.925;    0.000
327.874;  946.000;  250.925;    0.000
327.933;  872.000;  229.925;    0.000
327.993;  912.000;  202.925;    0.000
328.052;  821.000;  178.925;    0.000
328.111;  941.000;  230.925;    0.000
328.171;  881.000;  207.925;    0.000
328.230;  830.000;  170.925;    0.000
328.289;  922.000;  205.925;    0.000
328.349;  919.000;  235.925;    0.000
328.408;  919.000;  231.925;    0.000
328.467;  845.000;  217.925;    0.000
328.526;  879.000;  239.925;    0.000
328.586;  865.000;  214.925;    0.000
328.645;  902.000;  205.925;    0.000
328.704;  946.000;  211.925;    0.000
328.763;  823.000;  208.925;    0.000
328.822;  916.000;  251.925;    0.000
328.882;  885.000;  211.925;    0.000
328.941;  969.000;  232.925;    0.000
329.000;  905.000;  235.925;    0.000
329.059;  926.000;  222.925;    0.000
329.118;  862.000;  265.925;    0.000
329.177;  849.000;  237.925;    0.000
329.237;  873.000;  258.925;    0.000
329.296;  961.000;  225.925;    0.000
329.355;  887.000;  227.925;    0.000
329.414;  937.000;  212.925;    0.000
329.473;  913.000;  250.925;    0.000
329.532;  923.000;  263.925;    0.000
329.591;  947.000;  212.925;    0.000
329.650; 1018.000;  219.925;    0.000
329.709;  941.000;  218.925;    0.000
329.768; 1039.000;  195.925;    0.000
329.827; 1084.000;  223.925;    0.000
329.886; 1030.000;  230.925;    0.000
329.945; 1067.000;  211.925;    0.000
330.004; 1185.000;  247.925;    0.000
330.063; 1310.000;  193.925;    0.000
330.122; 1530.000;  229.925;    0.000
330.181; 1887.000;  223.925;    0.000
330.240; 1738.000;  199.925;    0.000
330.299; 1653.000;  211.925;    0.000
330.358; 1327.000;  198.925;    0.000
330.417; 1195.000;  190.925;    0.000
330.476; 1084.000;  237.925;    0.000
330.535; 1035.000;  239.925;    0.000
330.594; 1023.000;  207.925;    0.000
330.653;  934.000;  193.925;    0.000
330.712;  944.000;  225.925;    0.000
330.771;  976.000;  236.925;    0.000
330.830;  896.000;  219.925;    0.000
330.889;  902.000;  211.925;    0.000
330.948;  943.000;  194.925;    0.000
331.006;  838.000;  190.925;    0.000
331.065;  828.000;  192.925;    0.000
331.124;  930.000;  195.925;    0.000
331.183;  819.000;  191.925;    0.000
331.242;  872.000;  203.925;    0.000
331.301;  885.000;  183.925;    0.000
331.359;  872.000;  196.925;    0.000
331.418;  905.000;  209.925;    0.000
331.477;  910.000;  255.925;    0.000
331.536;  860.000;  237.925;    0.000
331.595;  831.000;  217.925;    0.000
331.653;  824.000;  198.925;    0.000
331.712;  813.000;  194.925;    0.000
331.771;  825.000;  229.925;    0.000
331.830;  812.000;  254.925;    0.000
331.888;  836.000;  218.925;    0.000
331.947;  810.000;  211.925;    0.000
332.006;  783.000;  261.925;    0.000
332.065;  779.000;  204.925;    0.000
332.123;  898.000;  225.925;    0.000
332.182;  870.000;  193.925;    0.000
332.241;  815.000;  201.925;    0.000
332.299;  782.000;  182.925;    0.000
332.358;  866.000;  244.925;    0.000
332.417;  873.000;  218.925;    0.000
332.475;  841.000;  218.925;    0.000
332.534;  824.000;  228.925;    0.000
332.592;  863.000;  199.925;    0.000
332.651;  827.000;  204.925;    0.000
332.710;  861.000;  217.925;    0.000
332.768;  939.000;  195.925;    0.000
332.827;  812.000;  182.925;    0.000
332.885;  846.000;  247.925;    0.000
332.944;  758.000;  170.925;    0.000
333.003;  829.000;  200.925;    0.000
333.061;  922.000;  243.925;    0.000
333.120;  876.000;  235.925;    0.000
333.178;  945.000;  195.925;    0.000
333.237;  823.000;  217.925;    0.000
333.295;  879.000;  252.925;    0.000
333.354;  787.000;  201.925;    0.000
333.412;  860.000;  181.925;    0.000
333.471;  785.000;  239.925;    0.000
333.529;  876.000;  214.925;    0.000
333.588;  920.000;  232.925;    0.000
333.646;  944.000;  202.925;    0.000
333.705;  890.000;  232.925;    0.000
333.763;  855.000;  215.925;    0.000
333.822;  846.000;  187.925;    0.000
333.880;  842.000;  186.925;    0.000
333.938;  926.000;  185.925;    0.000
333.997;  857.000;  234.925;    0.000
334.055;  888.000;  255.925;    0.000
334.114;  895.000;  225.925;    0.000
334.172;  759.000;  209.925;    0.000
334.230;  877.000;  194.925;    0.000
334.289;  889.000;  213.925;    0.000
334.347;  800.000;  235.925;    0.000
334.405;  910.000;  242.925;    0.000
334.464;  804.000;  208.925;    0.000
334.522;  857.000;  197.925;    0.000
334.580;  783.000;  204.925;    0.000
334.639;  858.000;  217.925;    0.000
334.697;  815.000;  183.925;    0.000
334.755;  770.000;  196.925;    0.000
334.814;  819.000;  216.925;    0.000
334.872;  836.000;  190.925;    0.000
334.930;  833.000;  162.925;    0.000
334.988;  854.000;  261.925;    0.000
335.047;  795.000;  220.925;    0.000
335.105;  862.000;  190.925;    0.000
335.163;  860.000;  201.925;    0.000
335.221;  821.000;  213.925;    0.000
335.280;  827.000;  202.925;    0.000
335.338;  882.000;  210.925;    0.000
335.396;  841.000;  255.925;    0.000
335.454;  878.000;  216.925;    0.000
335.512;  893.000;  242.925;    0.000
335.570;  886.000;  227.925;    0.000
335.629;  855.000;  225.925;    0.000
335.687;  843.000;  227.925;    0.000
335.745;  869.000;  194.925;    0.000
335.803;  945.000;  221.925;    0.000
335.861;  953.000;  217.925;    0.000
335.919;  818.000;  214.925;    0.000
335.977;  854.000;  209.925;    0.000
336.035;  913.000;  215.925;    0.000
336.094;  797.000;  198.925;    0.000
336.152;  915.000;  222.925;    0.000
336.210;  867.000;  225.925;    0.000
336.268;  897.000;  234.925;    0.000
336.326;  899.000;  209.925;    0.000
336.384;  855.000;  271.925;    0.000
336.442;  890.000;  207.925;    0.000
336.500;  862.000;  226.925;    0.000
336.558;  881.000;  219.925;    0.000
336.616;  950.000;  260.925;    0.000
336.674;  800.000;  205.925;    0.000
336.732;  785.000;  225.925;    0.000
336.790;  787.000;  191.925;    0.000
336.848;  879.000;  219.925;    0.000
336.906;  821.000;  230.925;    0.000
336.964;  866.000;  226.925;    0.000
337.022;  879.000;  266.925;    0.000
337.080;  898.000;  231.925;    0.000
337.138;  870.000;  249.925;    0.000
337.195;  827.000;  207.925;    0.000
337.253;  815.000;  207.925;    0.000
337.311;  948.000;  225.925;    0.000
337.369;  863.000;  211.925;    0.000
337.427;  833.000;  196.925;    0.000
337.485;  902.000;  269.925;    0.000
337.543;  876.000;  227.925;    0.000
337.601;  892.000;  260.925;    0.000
337.658;  852.000;  237.925;    0.000
337.716;  787.000;  222.925;    0.000
337.774;  801.000;  256.925;    0.000
337.832;  898.000;  223.925;    0.000
337.890;  800.000;  188.925;    0.000
337.947;  874.000;  212.925;    0.000
338.005;  872.000;  217.925;    0.000
338.063;  761.000;  200.925;    0.000
338.121;  883.000;  217.925;    0.000
338.178;  784.000;  236.925;    0.000
338.236;  841.000;  218.925;    0.000
338.294;  900.000;  238.925;    0.000
338.352;  827.000;  266.925;    0.000
338.409;  804.000;  240.925;    0.000
338.467;  856.000;  210.925;    0.000
338.525;  877.000;  255.925;    0.000
338.583;  846.000;  239.925;    0.000
338.640;  820.000;  243.925;    0.000
338.698;  782.000;  204.925;    0.000
338.756;  874.000;  219.925;    0.000
338.813;  891.000;  227.925;    0.000
338.871;  885.000;  227.925;    0.000
338.928;  806.000;  211.925;    0.000
338.986;  787.000;  254.925;    0.000
339.044;  909.000;  207.925;    0.000
339.101;  798.000;  229.925;    0.000
339.159;  863.000;  237.925;    0.000
339.216;  819.000;  231.925;    0.000
339.274;  814.000;  301.925;    0.000
339.332;  857.000;  259.925;    0.000
339.389;  845.000;  258.925;    0.000
339.447;  868.000;  226.925;    0.000
339.504;  904.000;  229.925;    0.000
339.562;  803.000;  244.925;    0.000
339.619;  855.000;  265.925;    0.000
339.677;  973.000;  253.925;    0.000
339.734;  824.000;  191.925;    0.000
339.792;  850.000;  238.925;    0.000
339.849;  862.000;  236.925;    0.000
339.907;  832.000;  254.925;    0.000
339.964;  811.000;  196.925;    0.000
340.022;  908.000;  247.925;    0.000
340.079;  903.000;  275.925;    0.000
340.137;  811.000;  248.925;    0.000
340.194;  852.000;  263.925;    0.000
340.252;  852.000;  266.925;    0.000
340.309;  824.000;  211.925;    0.000
340.366;  836.000;  237.925;    0.000
340.424;  872.000;  260.925;    0.000
340.481;  870.000;  255.925;    0.000
340.538;  836.000;  235.925;    0.000
340.596;  894.000;  225.925;    0.000
340.653;  882.000;  230.925;    0.000
340.711;  858.000;  272.925;    0.000
340.768;  913.000;  253.925;    0.000
340.825;  838.000;  201.925;    0.000
340.883;  867.000;  232.925;    0.000
340.940;  885.000;  247.925;    0.000
340.997;  795.000;  244.925;    0.000
341.054;  825.000;  244.925;    0.000
341.112;  815.000;  258.925;    0.000
341.169;  840.000;  238.925;    0.000
341.226;  817.000;  213.925;    0.000
341.284;  850.000;  240.925;    0.000
341.341;  823.000;  194.925;    0.000
341.398;  776.000;  191.925;    0.000
341.455;  844.000;  227.925;    0.000
341.512;  923.000;  238.925;    0.000
341.570;  855.000;  236.925;    0.000
341.627;  892.000;  241.925;    0.000
341.684;  840.000;  225.925;    0.000
341.741;  822.000;  299.925;    0.000
341.798;  884.000;  265.925;    0.000
341.856;  834.000;  230.925;    0.000
341.913;  880.000;  234.925;    0.000
341.970;  826.000;  260.925;    0.000
342.027;  859.000;  255.925;    0.000
342.084;  836.000;  260.925;    0.000
342.141;  897.000;  263.925;    0.000
342.198;  936.000;  245.925;    0.000
342.255;  869.000;  210.925;    0.000
342.313;  814.000;  251.925;    0.000
342.370;  858.000;  234.925;    0.000
342.427;  863.000;  249.925;    0.000
342.484;  860.000;  254.925;    0.000
342.541;  917.000;  229.925;    0.000
342.598;  951.000;  255.925;    0.000
342.655;  845.000;  225.925;    0.000
342.712;  890.000;  224.925;    0.000
342.769;  824.000;  215.925;    0.000
342.826;  811.000;  240.925;    0.000
342.883;  884.000;  233.925;    0.000
342.940;  803.000;  212.925;    0.000
342.997;  833.000;  236.925;    0.000
343.054;  824.000;  255.925;    0.000
343.111;  814.000;  228.925;    0.000
343.168;  926.000;  230.925;    0.000
343.225;  842.000;  258.925;    0.000
343.282;  789.000;  202.925;    0.000
343.339;  840.000;  253.925;    0.000
343.395;  835.000;  232.925;    0.000
343.452;  955.000;  253.925;    0.000
343.509;  837.000;  213.925;    0.000
343.566;  895.000;  259.925;    0.000
343.623;  834.000;  244.925;    0.000
343.680;  862.000;  232.925;    0.000
343.737;  814.000;  222.925;    0.000
343.794;  883.000;  204.925;    0.000
343.850;  876.000;  249.925;    0.000
343.907;  853.000;  212.925;    0.000
343.964;  955.000;  226.925;    0.000
344.021;  831.000;  251.925;    0.000
344.078;  898.000;  246.925;    0.000
344.134;  842.000;  218.925;    0.000
344.191;  947.000;  244.925;    0.000
344.248;  914.000;  211.925;    0.000
344.305;  864.000;  221.925;    0.000
344.361;  917.000;  247.925;    0.000
344.418;  899.000;  265.925;    0.000
344.475;  870.000;  254.925;    0.000
344.532;  959.000;  233.925;    0.000
344.588;  862.000;  236.925;    0.000
344.645;  941.000;  249.925;    0.000
344.702;  914.000;  220.925;    0.000
344.758;  909.000;  255.925;    0.000
344.815;  808.000;  236.925;    0.000
344.872;  857.000;  218.925;    0.000
344.928;  971.000;  230.925;    0.000
344.985;  913.000;  222.925;    0.000
345.042;  973.000;  199.925;    0.000
345.098;  886.000;  226.925;    0.000
345.155;  851.000;  245.925;    0.000
345.212;  904.000;  225.925;    0.000
345.268;  919.000;  237.925;    0.000
345.325;  923.000;  213.925;    0.000
345.381;  881.000;  267.925;    0.000
345.438;  972.000;  240.925;    0.000
345.495;  920.000;  254.925;    0.000
345.551;  994.000;  248.925;    0.000
345.608;  846.000;  196.925;    0.000
345.664;  897.000;  245.925;    0.000
345.721;  934.000;  252.925;    0.000
345.777;  886.000;  245.925;    0.000
345.834;  845.000;  210.925;    0.000
345.890;  899.000;  244.925;    0.000
345.947;  941.000;  238.925;    0.000
346.003;  899.000;  224.925;    0.000
346.060;  845.000;  206.925;    0.000
346.116;  919.000;  237.925;    0.000
346.173;  890.000;  242.925;    0.000
346.229;  913.000;  269.925;    0.000
346.285;  848.000;  262.925;    0.000
346.342;  949.000;  263.925;    0.000
346.398;  870.000;  224.925;    0.000
346.455;  957.000;  237.925;    0.000
346.511;  981.000;  216.925;    0.000
346.567;  928.000;  211.925;    0.000
346.624;  921.000;  225.925;    0.000
346.680;  939.000;  242.925;    0.000
346.737;  907.000;  244.925;    0.000
346.793;  939.000;  260.925;    0.000
346.849;  930.000;  251.925;    0.000
346.906;  949.000;  260.925;    0.000
346.962;  944.000;  267.925;    0.000
347.018;  976.000;  246.925;    0.000
347.074;  968.000;  272.925;    0.000
347.131;  929.000;  211.925;    0.000
347.187;  855.000;  240.925;    0.000
347.243;  966.000;  233.925;    0.000
347.300;  958.000;  225.925;    0.000
347.356;  930.000;  236.925;    0.000
347.412;  933.000;  237.925;    0.000
347.468;  920.000;  284.925;    0.000
347.524;  939.000;  252.925;    0.000
347.581;  923.000;  278.925;    0.000
347.637;  999.000;  262.925;    0.000
347.693;  901.000;  268.925;    0.000
347.749;  888.000;  260.925;    0.000
347.805;  838.000;  224.925;    0.000
347.862;  948.000;  243.925;    0.000
347.918;  966.000;  257.925;    0.000
347.974;  911.000;  248.925;    0.000
348.030;  910.000;  242.925;    0.000
348.086;  889.000;  234.925;    0.000
348.142;  894.000;  239.925;    0.000
348.198;  975.000;  260.925;    0.000
348.254;  954.000;  262.925;    0.000
348.311;  945.000;  263.925;    0.000
348.367;  889.000;  235.925;    0.000
348.423;  943.000;  205.925;    0.000
348.479;  930.000;  234.925;    0.000
348.535;  923.000;  257.925;    0.000
348.591;  849.000;  267.925;    0.000
348.647;  859.000;  243.925;    0.000
348.703;  910.000;  278.925;    0.000
348.759;  929.000;  259.925;    0.000
348.815;  938.000;  288.925;    0.000
348.871;  883.000;  269.925;    0.000
348.927;  898.000;  239.925;    0.000
348.983;  911.000;  289.925;    0.000
349.039;  873.000;  221.925;    0.000
349.095;  901.000;  252.925;    0.000
349.151;  942.000;  226.925;    0.000
349.207;  949.000;  263.925;    0.000
349.263;  950.000;  194.925;    0.000
349.319;  883.000;  212.925;    0.000
349.374;  933.000;  236.925;    0.000
349.430;  885.000;  229.925;    0.000
349.486;  947.000;  247.925;    0.000
349.542;  871.000;  263.925;    0.000
349.598;  974.000;  248.925;    0.000
349.654;  969.000;  252.925;    0.000
349.710;  959.000;  230.925;    0.000
349.766;  918.000;  201.925;    0.000
349.821;  918.000;  229.925;    0.000
349.877; 1005.000;  282.925;    0.000
349.933;  985.000;  240.925;    0.000
349.989;  952.000;  251.925;    0.000
350.045;  917.000;  240.925;    0.000
350.100;  921.000;  256.925;    0.000
350.156;  955.000;  243.925;    0.000
350.212;  897.000;  250.925;    0.000
350.268;  902.000;  251.925;    0.000
350.323;  899.000;  208.925;    0.000
350.379;  877.000;  244.925;    0.000
350.435;  916.000;  237.925;    0.000
350.491;  875.000;  201.925;    0.000
350.546;  981.000;  225.925;    0.000
350.602;  972.000;  260.925;    0.000
350.658;  983.000;  224.925;    0.000
350.713;  912.000;  264.925;    0.000
350.769;  878.000;  196.925;    0.000
350.825;  963.000;  202.925;    0.000
350.880;  938.000;  232.925;    0.000
350.936;  980.000;  242.925;    0.000
350.992;  872.000;  238.925;    0.000
351.047;  967.000;  242.925;    0.000
351.103;  846.000;  199.925;    0.000
351.158;  955.000;  242.925;    0.000
351.214;  890.000;  225.925;    0.000
351.270;  884.000;  197.925;    0.000
351.325;  988.000;  231.925;    0.000
351.381;  879.000;  215.925;    0.000
351.436;  932.000;  233.925;    0.000
351.492;  923.000;  216.925;    0.000
351.547;  960.000;  244.925;    0.000
351.603;  912.000;  249.925;    0.000
351.658;  846.000;  249.925;    0.000
351.714;  936.000;  222.925;    0.000
351.769; 1032.000;  222.925;    0.000
351.825; 1008.000;  226.925;    0.000
351.880;  884.000;  238.925;    0.000
351.936;  941.000;  230.925;    0.000
351.991;  954.000;  243.925;    0.000
352.047;  856.000;  201.925;    0.000
352.102;  918.000;  243.925;    0.000
352.158;  950.000;  193.925;    0.000
352.213;  855.000;  219.925;    0.000
352.268;  889.000;  205.925;    0.000
352.324;  890.000;  246.925;    0.000
352.379;  899.000;  247.925;    0.000
352.434;  993.000;  252.925;    0.000
352.490;  970.000;  205.925;    0.000
352.545;  935.000;  262.925;    0.000
352.601; 1017.000;  229.925;    0.000
352.656;  980.000;  207.925;    0.000
352.711;  935.000;  228.925;    0.000
352.767;  851.000;  216.925;    0.000
352.822;  860.000;  219.925;    0.000
352.877;  953.000;  234.925;    0.000
352.932;  960.000;  249.925;    0.000
352.988;  856.000;  196.925;    0.000
353.043;  954.000;  228.925;    0.000
353.098;  936.000;  231.925;    0.000
353.153;  905.000;  235.925;    0.000
353.209;  938.000;  250.925;    0.000
353.264;  940.000;  212.925;    0.000
353.319;  927.000;  234.925;    0.000
353.374;  912.000;  245.925;    0.000
353.430;  927.000;  261.925;    0.000
353.485;  991.000;  249.925;    0.000
353.540;  976.000;  260.925;    0.000
353.595;  980.000;  219.925;    0.000
353.650;  948.000;  242.925;    0.000
353.705;  896.000;  244.925;    0.000
353.761;  944.000;  242.925;    0.000
353.816;  892.000;  214.925;    0.000
353.871;  950.000;  237.925;    0.000
353.926;  984.000;  233.925;    0.000
353.981;  902.000;  250.925;    0.000
354.036;  900.000;  239.925;    0.000
354.091;  862.000;  289.925;    0.000
354.146;  939.000;  282.925;    0.000
354.201;  984.000;  244.925;    0.000
354.256;  967.000;  257.925;    0.000
354.311;  956.000;  305.925;    0.000
354.367;  917.000;  220.925;    0.000
354.422;  888.000;  261.925;    0.000
354.477;  904.000;  212.925;    0.000
354.532;  962.000;  254.925;    0.000
354.587;  926.000;  252.925;    0.000
354.642;  875.000;  210.925;    0.000
354.697;  928.000;  232.925;    0.000
354.751;  988.000;  254.925;    0.000
354.806;  979.000;  233.925;    0.000
354.861;  959.000;  244.925;    0.000
354.916; 1000.000;  235.925;    0.000
354.971;  828.000;  258.925;    0.000
355.026;  940.000;  251.925;    0.000
355.081;  970.000;  254.925;    0.000
355.136;  988.000;  212.925;    0.000
355.191;  866.000;  211.925;    0.000
355.246;  902.000;  237.925;    0.000
355.301;  950.000;  255.925;    0.000
355.355; 1025.000;  231.925;    0.000
355.410;  924.000;  224.925;    0.000
355.465;  885.000;  235.925;    0.000
355.520;  895.000;  244.925;    0.000
355.575;  897.000;  267.925;    0.000
355.630; 1019.000;  255.925;    0.000
355.684;  880.000;  254.925;    0.000
355.739;  871.000;  217.925;    0.000
355.794;  882.000;  206.925;    0.000
355.849;  847.000;  221.925;    0.000
355.904;  954.000;  257.925;    0.000
355.958;  902.000;  221.925;    0.000
356.013;  856.000;  192.925;    0.000
356.068;  967.000;  267.925;    0.000
356.123; 1000.000;  218.925;    0.000
356.177;  983.000;  236.925;    0.000
356.232;  971.000;  236.925;    0.000
356.287;  898.000;  246.925;    0.000
356.341;  956.000;  241.925;    0.000
356.396;  874.000;  219.925;    0.000
356.451;  980.000;  244.925;    0.000
356.505;  914.000;  248.925;    0.000
356.560;  947.000;  267.925;    0.000
356.615;  938.000;  258.925;    0.000
356.669;  991.000;  291.925;    0.000
356.724;  942.000;  272.925;    0.000
356.778;  845.000;  244.925;    0.000
356.833;  870.000;  223.925;    0.000
356.888;  955.000;  245.925;    0.000
356.942;  918.000;  221.925;    0.000
356.997;  981.000;  254.925;    0.000
357.051;  919.000;  244.925;    0.000
357.106;  957.000;  227.925;    0.000
357.160;  936.000;  176.925;    0.000
357.215;  915.000;  234.925;    0.000
357.269;  925.000;  233.925;    0.000
357.324;  914.000;  232.925;    0.000
357.378;  907.000;  211.925;    0.000
357.433;  896.000;  252.925;    0.000
357.487;  962.000;  227.925;    0.000
357.542;  919.000;  246.925;    0.000
357.596;  945.000;  260.925;    0.000
357.651;  950.000;  301.925;    0.000
357.705;  922.000;  230.925;    0.000
357.760;  961.000;  211.925;    0.000
357.814;  974.000;  265.925;    0.000
357.868;  941.000;  220.925;    0.000
357.923;  865.000;  220.925;    0.000
357.977;  943.000;  245.925;    0.000
358.032;  889.000;  247.925;    0.000
358.086;  869.000;  242.925;    0.000
358.140; 1011.000;  270.925;    0.000
358.195;  959.000;  242.925;    0.000
358.249;  900.000;  238.925;    0.000
358.303;  987.000;  285.925;    0.000
358.358;  873.000;  265.925;    0.000
358.412; 1008.000;  265.925;    0.000
358.466; 1028.000;  257.925;    0.000
358.521; 1014.000;  251.925;    0.000
358.575;  928.000;  254.925;    0.000
358.629;  845.000;  278.925;    0.000
358.683;  920.000;  288.925;    0.000
358.738; 1004.000;  302.925;    0.000
358.792;  941.000;  239.925;    0.000
358.846;  936.000;  293.925;    0.000
358.900;  953.000;  271.925;    0.000
358.954;  920.000;  300.925;    0.000
359.009;  896.000;  279.925;    0.000
359.063;  879.000;  249.925;    0.000
359.117;  928.000;  264.925;    0.000
359.171; 1021.000;  279.925;    0.000
359.225;  944.000;  276.925;    0.000
359.280;  920.000;  237.925;    0.000
359.334;  956.000;  280.925;    0.000
359.388;  898.000;  282.925;    0.000
359.442;  913.000;  243.925;    0.000
359.496;  824.000;  204.925;    0.000
359.550;  894.000;  308.925;    0.000
359.604;  996.000;  264.925;    0.000
359.658;  951.000;  247.925;    0.000
359.712;  939.000;  273.925;    0.000
359.766;  872.000;  212.925;    0.000
359.820;  897.000;  228.925;    0.000
359.875;  898.000;  248.925;    0.000
359.929;  976.000;  271.925;    0.000
359.983;  884.000;  274.925;    0.000
360.037;  936.000;  262.925;    0.000
360.091;  985.000;  302.925;    0.000
360.145;  917.000;  244.925;    0.000
360.199;  888.000;  253.925;    0.000
360.253;  878.000;  285.925;    0.000
360.306;  916.000;  287.925;    0.000
360.360;  921.000;  267.925;    0.000
360.414;  987.000;  250.925;    0.000
360.468;  972.000;  270.925;    0.000
360.522;  933.000;  276.925;    0.000
360.576;  902.000;  269.925;    0.000
360.630; 1013.000;  281.925;    0.000
360.684;  988.000;  291.925;    0.000
360.738; 1004.000;  325.925;    0.000
360.792;  929.000;  320.925;    0.000
360.846;  959.000;  276.925;    0.000
360.899;  957.000;  314.925;    0.000
360.953; 1024.000;  275.925;    0.000
361.007;  998.000;  292.925;    0.000
361.061;  917.000;  278.925;    0.000
361.115;  888.000;  264.925;    0.000
361.168;  961.000;  317.925;    0.000
361.222;  938.000;  277.925;    0.000
361.276;  977.000;  274.925;    0.000
361.330;  929.000;  269.925;    0.000
361.384;  972.000;  280.925;    0.000
361.437;  923.000;  304.925;    0.000
361.491;  921.000;  256.925;    0.000
361.545;  917.000;  293.925;    0.000
361.599;  905.000;  284.925;    0.000
361.652; 1000.000;  274.925;    0.000
361.706;  900.000;  284.925;    0.000
361.760;  897.000;  260.925;    0.000
361.813;  869.000;  272.925;    0.000
361.867;  989.000;  300.925;    0.000
361.921;  910.000;  275.925;    0.000
361.974;  960.000;  258.925;    0.000
362.028;  887.000;  248.925;    0.000
362.082;  953.000;  252.925;    0.000
362.135;  921.000;  240.925;    0.000
362.189;  929.000;  259.925;    0.000
362.242;  936.000;  267.925;    0.000
362.296;  920.000;  280.925;    0.000
362.350;  983.000;  282.925;    0.000
362.403;  947.000;  288.925;    0.000
362.457;  893.000;  253.925;    0.000
362.510;  944.000;  323.925;    0.000
362.564;  910.000;  286.925;    0.000
362.617;  962.000;  317.925;    0.000
362.671;  980.000;  286.925;    0.000
362.724;  901.000;  274.925;    0.000
362.778;  902.000;  295.925;    0.000
362.831;  989.000;  289.925;    0.000
362.885; 1037.000;  318.925;    0.000
362.938;  952.000;  271.925;    0.000
362.992;  309.000;  285.925;    0.000
363.045;  269.000;  291.925;    0.000
363.099;  287.000;  276.925;    0.000
363.152;  301.000;  309.925;    0.000
363.205;  310.000;  263.925;    0.000
363.259;  279.000;  288.925;    0.000
363.312;  337.000;  333.925;    0.000
363.366;  302.000;  328.925;    0.000
363.419;  289.000;  328.925;    0.000
363.472;  285.000;  295.925;    0.000
363.526;  290.000;  334.925;    0.000
363.579;  287.000;  312.925;    0.000
363.632;  297.000;  274.925;    0.000
363.686;  283.000;  282.925;    0.000
363.739;  289.000;  289.925;    0.000
363.792;  303.000;  287.925;    0.000

