
Integration time [ms]:   0.300
Averaging Nr. [scans]: 1
Smoothing Nr. [pixels]: 0
Data measured with spectrometer [name]: UV2
Wave   ;Sample   ;Dark     ;Reference
[nm]   ;[counts] ;[counts] ;[counts] 

353.533;  215.825;  235.675;    0.000
353.597;  236.825;  239.675;    0.000
353.660;  211.825;  203.675;    0.000
353.723;  196.825;  225.675;    0.000
353.786;  204.825;  178.675;    0.000
353.850;  205.825;  199.675;    0.000
353.913;  192.825;  179.675;    0.000
353.976;  211.825;  209.675;    0.000
354.039;  176.825;  188.675;    0.000
354.102;  200.825;  219.675;    0.000
354.166;  204.825;  237.675;    0.000
354.229;  200.825;  179.675;    0.000
354.292;  175.825;  210.675;    0.000
354.355;  184.825;  214.675;    0.000
354.418;  192.825;  173.675;    0.000
354.481;  220.825;  170.675;    0.000
354.545;  392.825;  229.675;    0.000
354.608;  417.825;  233.675;    0.000
354.671;  446.825;  183.675;    0.000
354.734;  362.825;  208.675;    0.000
354.797;  420.825;  263.675;    0.000
354.860;  366.825;  208.675;    0.000
354.923;  402.825;  202.675;    0.000
354.986;  359.825;  207.675;    0.000
355.050;  421.825;  180.675;    0.000
355.113;  420.825;  189.675;    0.000
355.176;  423.825;  214.675;    0.000
355.239;  457.825;  199.675;    0.000
355.302;  427.825;  229.675;    0.000
355.365;  512.825;  220.675;    0.000
355.428;  470.825;  196.675;    0.000
355.491;  455.825;  243.675;    0.000
355.554;  420.825;  191.675;    0.000
355.617;  435.825;  200.675;    0.000
355.680;  424.825;  190.675;    0.000
355.743;  431.825;  236.675;    0.000
355.806;  435.825;  193.675;    0.000
355.869;  460.825;  223.675;    0.000
355.932;  419.825;  208.675;    0.000
355.995;  462.825;  231.675;    0.000
356.058;  477.825;  202.675;    0.000
356.121;  497.825;  198.675;    0.000
356.184;  486.825;  209.675;    0.000
356.247;  459.825;  224.675;    0.000
356.310;  475.825;  149.675;    0.000
356.373;  436.825;  211.675;    0.000
356.436;  492.825;  195.675;    0.000
356.498;  473.825;  176.675;    0.000
356.561;  443.825;  186.675;    0.000
356.624;  455.825;  184.675;    0.000
356.687;  472.825;  179.675;    0.000
356.750;  472.825;  213.675;    0.000
356.813;  448.825;  172.675;    0.000
356.876;  447.825;  189.675;    0.000
356.939;  487.825;  204.675;    0.000
357.001;  498.825;  195.675;    0.000
357.064;  460.825;  202.675;    0.000
357.127;  508.825;  176.675;    0.000
357.190;  487.825;  186.675;    0.000
357.253;  507.825;  178.675;    0.000
357.316;  539.825;  187.675;    0.000
357.378;  442.825;  181.675;    0.000
357.441;  486.825;  142.675;    0.000
357.504;  485.825;  161.675;    0.000
357.567;  491.825;  113.675;    0.000
357.629;  453.825;  193.675;    0.000
357.692;  481.825;  144.675;    0.000
357.755;  457.825;  177.675;    0.000
357.818;  444.825;  144.675;    0.000
357.880;  509.825;  182.675;    0.000
357.943;  496.825;  166.675;    0.000
358.006;  468.825;  184.675;    0.000
358.069;  502.825;  200.675;    0.000
358.131;  504.825;  148.675;    0.000
358.194;  468.825;  155.675;    0.000
358.257;  480.825;  173.675;    0.000
358.319;  460.825;  178.675;    0.000
358.382;  525.825;  184.675;    0.000
358.445;  512.825;  156.675;    0.000
358.507;  524.825;  199.675;    0.000
358.570;  462.825;  182.675;    0.000
358.633;  468.825;  167.675;    0.000
358.695;  508.825;  124.675;    0.000
358.758;  530.825;  164.675;    0.000
358.821;  466.825;  147.675;    0.000
358.883;  509.825;  153.675;    0.000
358.946;  502.825;  171.675;    0.000
359.008;  484.825;  196.675;    0.000
359.071;  503.825;  178.675;    0.000
359.134;  481.825;  123.675;    0.000
359.196;  490.825;  166.675;    0.000
359.259;  487.825;  173.675;    0.000
359.321;  486.825;  164.675;    0.000
359.384;  487.825;  155.675;    0.000
359.446;  504.825;  157.675;    0.000
359.509;  479.825;  153.675;    0.000
359.571;  479.825;  184.675;    0.000
359.634;  465.825;  138.675;    0.000
359.696;  475.825;  169.675;    0.000
359.759;  518.825;  152.675;    0.000
359.821;  503.825;  150.675;    0.000
359.884;  491.825;  166.675;    0.000
359.946;  524.825;  165.675;    0.000
360.009;  523.825;  176.675;    0.000
360.071;  471.825;  148.675;    0.000
360.134;  507.825;  193.675;    0.000
360.196;  477.825;  151.675;    0.000
360.259;  494.825;  182.675;    0.000
360.321;  539.825;  168.675;    0.000
360.384;  493.825;  176.675;    0.000
360.446;  581.825;  156.675;    0.000
360.508;  508.825;  183.675;    0.000
360.571;  521.825;  193.675;    0.000
360.633;  487.825;  184.675;    0.000
360.696;  520.825;  136.675;    0.000
360.758;  526.825;  186.675;    0.000
360.820;  508.825;  127.675;    0.000
360.883;  506.825;  146.675;    0.000
360.945;  511.825;  144.675;    0.000
361.007;  510.825;  160.675;    0.000
361.070;  543.825;  175.675;    0.000
361.132;  574.825;  195.675;    0.000
361.194;  561.825;  167.675;    0.000
361.257;  511.825;  140.675;    0.000
361.319;  509.825;  154.675;    0.000
361.381;  515.825;  181.675;    0.000
361.443;  491.825;  137.675;    0.000
361.506;  552.825;  159.675;    0.000
361.568;  553.825;  144.675;    0.000
361.630;  498.825;  189.675;    0.000
361.693;  543.825;  162.675;    0.000
361.755;  499.825;  156.675;    0.000
361.817;  588.825;  225.675;    0.000
361.879;  532.825;  172.675;    0.000
361.941;  499.825;  138.675;    0.000
362.004;  557.825;  163.675;    0.000
362.066;  531.825;  164.675;    0.000
362.128;  516.825;  160.675;    0.000
362.190;  540.825;  168.675;    0.000
362.252;  593.825;  177.675;    0.000
362.315;  566.825;  169.675;    0.000
362.377;  521.825;  188.675;    0.000
362.439;  542.825;  158.675;    0.000
362.501;  502.825;  168.675;    0.000
362.563;  580.825;  168.675;    0.000
362.625;  539.825;  188.675;    0.000
362.688;  524.825;  162.675;    0.000
362.750;  597.825;  209.675;    0.000
362.812;  539.825;  154.675;    0.000
362.874;  578.825;  190.675;    0.000
362.936;  577.825;  190.675;    0.000
362.998;  538.825;  143.675;    0.000
363.060;  604.825;  186.675;    0.000
363.122;  581.825;  167.675;    0.000
363.184;  553.825;  163.675;    0.000
363.246;  596.825;  169.675;    0.000
363.308;  551.825;  165.675;    0.000
363.370;  550.825;  177.675;    0.000
363.432;  508.825;  139.675;    0.000
363.494;  520.825;  177.675;    0.000
363.556;  598.825;  164.675;    0.000
363.618;  557.825;  170.675;    0.000
363.680;  557.825;  146.675;    0.000
363.742;  606.825;  179.675;    0.000
363.804;  628.825;  188.675;    0.000
363.866;  619.825;  186.675;    0.000
363.928;  534.825;  147.675;    0.000
363.990;  586.825;  185.675;    0.000
364.052;  565.825;  197.675;    0.000
364.114;  542.825;  150.675;    0.000
364.176;  583.825;  217.675;    0.000
364.238;  601.825;  159.675;    0.000
364.300;  575.825;  192.675;    0.000
364.362;  566.825;  130.675;    0.000
364.424;  549.825;  131.675;    0.000
364.486;  579.825;  178.675;    0.000
364.548;  588.825;  203.675;    0.000
364.609;  595.825;  192.675;    0.000
364.671;  557.825;  169.675;    0.000
364.733;  536.825;  169.675;    0.000
364.795;  563.825;  157.675;    0.000
364.857;  588.825;  171.675;    0.000
364.919;  587.825;  134.675;    0.000
364.981;  562.825;  162.675;    0.000
365.042;  606.825;  136.675;    0.000
365.104;  547.825;  152.675;    0.000
365.166;  534.825;  149.675;    0.000
365.228;  573.825;  195.675;    0.000
365.290;  527.825;  147.675;    0.000
365.351;  589.825;  138.675;    0.000
365.413;  613.825;  168.675;    0.000
365.475;  595.825;  150.675;    0.000
365.537;  538.825;  179.675;    0.000
365.598;  599.825;  177.675;    0.000
365.660;  586.825;  149.675;    0.000
365.722;  602.825;  160.675;    0.000
365.784;  551.825;  175.675;    0.000
365.845;  563.825;  149.675;    0.000
365.907;  529.825;  154.675;    0.000
365.969;  573.825;  128.675;    0.000
366.030;  589.825;  176.675;    0.000
366.092;  599.825;  181.675;    0.000
366.154;  543.825;  194.675;    0.000
366.215;  594.825;  149.675;    0.000
366.277;  584.825;  144.675;    0.000
366.339;  622.825;  160.675;    0.000
366.400;  641.825;  144.675;    0.000
366.462;  559.825;  145.675;    0.000
366.524;  639.825;  148.675;    0.000
366.585;  608.825;  128.675;    0.000
366.647;  623.825;  156.675;    0.000
366.708;  564.825;  128.675;    0.000
366.770;  623.825;  188.675;    0.000
366.832;  607.825;  170.675;    0.000
366.893;  620.825;  158.675;    0.000
366.955;  601.825;  150.675;    0.000
367.016;  618.825;  160.675;    0.000
367.078;  535.825;  144.675;    0.000
367.139;  603.825;  109.675;    0.000
367.201;  558.825;  155.675;    0.000
367.262;  644.825;  165.675;    0.000
367.324;  565.825;  180.675;    0.000
367.385;  581.825;  150.675;    0.000
367.447;  657.825;  164.675;    0.000
367.508;  613.825;  137.675;    0.000
367.570;  568.825;  174.675;    0.000
367.631;  564.825;  126.675;    0.000
367.693;  554.825;  153.675;    0.000
367.754;  588.825;  194.675;    0.000
367.816;  616.825;  154.675;    0.000
367.877;  630.825;  183.675;    0.000
367.939;  622.825;  179.675;    0.000
368.000;  599.825;  142.675;    0.000
368.062;  628.825;  147.675;    0.000
368.123;  640.825;  155.675;    0.000
368.184;  619.825;  169.675;    0.000
368.246;  563.825;  145.675;    0.000
368.307;  621.825;  165.675;    0.000
368.369;  598.825;  177.675;    0.000
368.430;  560.825;  161.675;    0.000
368.491;  613.825;  156.675;    0.000
368.553;  555.825;  156.675;    0.000
368.614;  604.825;  186.675;    0.000
368.675;  609.825;  154.675;    0.000
368.737;  560.825;  162.675;    0.000
368.798;  626.825;  202.675;    0.000
368.859;  667.825;  162.675;    0.000
368.921;  550.825;  171.675;    0.000
368.982;  630.825;  193.675;    0.000
369.043;  572.825;  207.675;    0.000
369.104;  595.825;  143.675;    0.000
369.166;  659.825;  203.675;    0.000
369.227;  615.825;  125.675;    0.000
369.288;  625.825;  154.675;    0.000
369.349;  608.825;  187.675;    0.000
369.411;  697.825;  191.675;    0.000
369.472;  625.825;  175.675;    0.000
369.533;  591.825;  180.675;    0.000
369.594;  556.825;  161.675;    0.000
369.656;  622.825;  169.675;    0.000
369.717;  638.825;  103.675;    0.000
369.778;  616.825;  159.675;    0.000
369.839;  663.825;  146.675;    0.000
369.900;  686.825;  218.675;    0.000
369.961;  595.825;  200.675;    0.000
370.023;  615.825;  177.675;    0.000
370.084;  616.825;  149.675;    0.000
370.145;  625.825;  179.675;    0.000
370.206;  625.825;  179.675;    0.000
370.267;  609.825;  166.675;    0.000
370.328;  627.825;  164.675;    0.000
370.389;  636.825;  162.675;    0.000
370.451;  682.825;  179.675;    0.000
370.512;  642.825;  181.675;    0.000
370.573;  624.825;  173.675;    0.000
370.634;  645.825;  162.675;    0.000
370.695;  612.825;  167.675;    0.000
370.756;  637.825;  177.675;    0.000
370.817;  527.825;  178.675;    0.000
370.878;  644.825;  152.675;    0.000
370.939;  634.825;  185.675;    0.000
371.000;  572.825;  173.675;    0.000
371.061;  618.825;  176.675;    0.000
371.122;  631.825;  169.675;    0.000
371.183;  590.825;  116.675;    0.000
371.244;  663.825;  174.675;    0.000
371.305;  644.825;  152.675;    0.000
371.366;  655.825;  168.675;    0.000
371.427;  561.825;  188.675;    0.000
371.488;  669.825;  180.675;    0.000
371.549;  613.825;  145.675;    0.000
371.610;  654.825;  160.675;    0.000
371.671;  569.825;  164.675;    0.000
371.732;  558.825;  158.675;    0.000
371.793;  612.825;  162.675;    0.000
371.853;  650.825;  130.675;    0.000
371.914;  671.825;  172.675;    0.000
371.975;  620.825;   98.675;    0.000
372.036;  669.825;  161.675;    0.000
372.097;  646.825;  143.675;    0.000
372.158;  609.825;  175.675;    0.000
372.219;  619.825;  196.675;    0.000
372.280;  612.825;  175.675;    0.000
372.340;  596.825;  160.675;    0.000
372.401;  669.825;  163.675;    0.000
372.462;  630.825;  147.675;    0.000
372.523;  629.825;  146.675;    0.000
372.584;  666.825;  173.675;    0.000
372.645;  632.825;  126.675;    0.000
372.705;  694.825;  179.675;    0.000
372.766;  693.825;  173.675;    0.000
372.827;  662.825;  171.675;    0.000
372.888;  625.825;  134.675;    0.000
372.948;  640.825;  167.675;    0.000
373.009;  587.825;  167.675;    0.000
373.070;  660.825;  152.675;    0.000
373.131;  641.825;  177.675;    0.000
373.191;  732.825;  225.675;    0.000
373.252;  646.825;  165.675;    0.000
373.313;  707.825;  171.675;    0.000
373.373;  604.825;  160.675;    0.000
373.434;  726.825;  172.675;    0.000
373.495;  666.825;  150.675;    0.000
373.555;  657.825;  130.675;    0.000
373.616;  689.825;  155.675;    0.000
373.677;  650.825;  212.675;    0.000
373.737;  673.825;  188.675;    0.000
373.798;  653.825;  203.675;    0.000
373.859;  678.825;  169.675;    0.000
373.919;  676.825;  197.675;    0.000
373.980;  645.825;  134.675;    0.000
374.041;  640.825;  186.675;    0.000
374.101;  648.825;  207.675;    0.000
374.162;  733.825;  190.675;    0.000
374.222;  636.825;  182.675;    0.000
374.283;  690.825;  213.675;    0.000
374.343;  666.825;  191.675;    0.000
374.404;  670.825;  181.675;    0.000
374.465;  690.825;  193.675;    0.000
374.525;  660.825;  153.675;    0.000
374.586;  613.825;  190.675;    0.000
374.646;  649.825;  173.675;    0.000
374.707;  683.825;  210.675;    0.000
374.767;  683.825;  218.675;    0.000
374.828;  646.825;  174.675;    0.000
374.888;  634.825;  197.675;    0.000
374.949;  640.825;  196.675;    0.000
375.009;  647.825;  169.675;    0.000
375.070;  675.825;  157.675;    0.000
375.130;  707.825;  203.675;    0.000
375.190;  623.825;  174.675;    0.000
375.251;  714.825;  230.675;    0.000
375.311;  643.825;  198.675;    0.000
375.372;  677.825;  160.675;    0.000
375.432;  687.825;  169.675;    0.000
375.493;  663.825;  159.675;    0.000
375.553;  643.825;  179.675;    0.000
375.613;  633.825;  157.675;    0.000
375.674;  688.825;  174.675;    0.000
375.734;  681.825;  180.675;    0.000
375.794;  667.825;  175.675;    0.000
375.855;  645.825;  193.675;    0.000
375.915;  736.825;  148.675;    0.000
375.975;  672.825;  183.675;    0.000
376.036;  664.825;  144.675;    0.000
376.096;  633.825;  195.675;    0.000
376.156;  668.825;  200.675;    0.000
376.217;  658.825;  160.675;    0.000
376.277;  720.825;  193.675;    0.000
376.337;  670.825;  168.675;    0.000
376.398;  690.825;  183.675;    0.000
376.458;  668.825;  168.675;    0.000
376.518;  643.825;  184.675;    0.000
376.578;  622.825;  176.675;    0.000
376.639;  643.825;  158.675;    0.000
376.699;  717.825;  157.675;    0.000
376.759;  698.825;  184.675;    0.000
376.819;  651.825;  166.675;    0.000
376.880;  705.825;  220.675;    0.000
376.940;  673.825;  195.675;    0.000
377.000;  632.825;  178.675;    0.000
377.060;  717.825;  212.675;    0.000
377.120;  661.825;  161.675;    0.000
377.180;  670.825;  168.675;    0.000
377.241;  630.825;  167.675;    0.000
377.301;  660.825;  171.675;    0.000
377.361;  698.825;  174.675;    0.000
377.421;  662.825;  216.675;    0.000
377.481;  663.825;  164.675;    0.000
377.541;  637.825;  163.675;    0.000
377.601;  702.825;  197.675;    0.000
377.661;  745.825;  175.675;    0.000
377.722;  727.825;  196.675;    0.000
377.782;  655.825;  162.675;    0.000
377.842;  742.825;  179.675;    0.000
377.902;  703.825;  140.675;    0.000
377.962;  640.825;  121.675;    0.000
378.022;  733.825;  174.675;    0.000
378.082;  711.825;  167.675;    0.000
378.142;  683.825;  151.675;    0.000
378.202;  723.825;  174.675;    0.000
378.262;  712.825;  168.675;    0.000
378.322;  756.825;  183.675;    0.000
378.382;  671.825;  159.675;    0.000
378.442;  731.825;  177.675;    0.000
378.502;  669.825;  137.675;    0.000
378.562;  676.825;  140.675;    0.000
378.622;  666.825;  197.675;    0.000
378.682;  743.825;  205.675;    0.000
378.742;  727.825;  160.675;    0.000
378.802;  696.825;  132.675;    0.000
378.862;  792.825;  222.675;    0.000
378.921;  723.825;  178.675;    0.000
378.981;  741.825;  160.675;    0.000
379.041;  717.825;  136.675;    0.000
379.101;  722.825;  184.675;    0.000
379.161;  712.825;  147.675;    0.000
379.221;  663.825;  139.675;    0.000
379.281;  756.825;  204.675;    0.000
379.341;  724.825;  142.675;    0.000
379.401;  675.825;  136.675;    0.000
379.460;  740.825;  161.675;    0.000
379.520;  717.825;  171.675;    0.000
379.580;  776.825;  168.675;    0.000
379.640;  740.825;  183.675;    0.000
379.700;  755.825;  182.675;    0.000
379.759;  760.825;  190.675;    0.000
379.819;  758.825;  149.675;    0.000
379.879;  708.825;  140.675;    0.000
379.939;  746.825;  155.675;    0.000
379.999;  725.825;  199.675;    0.000
380.058;  764.825;  163.675;    0.000
380.118;  789.825;  190.675;    0.000
380.178;  740.825;  220.675;    0.000
380.237;  791.825;  181.675;    0.000
380.297;  794.825;  187.675;    0.000
380.357;  790.825;  193.675;    0.000
380.417;  794.825;  157.675;    0.000
380.476;  774.825;  176.675;    0.000
380.536;  749.825;  180.675;    0.000
380.596;  797.825;  191.675;    0.000
380.655;  759.825;  190.675;    0.000
380.715;  755.825;  180.675;    0.000
380.775;  791.825;  202.675;    0.000
380.834;  834.825;  190.675;    0.000
380.894;  796.825;  163.675;    0.000
380.954;  755.825;  181.675;    0.000
381.013;  865.825;  218.675;    0.000
381.073;  779.825;  181.675;    0.000
381.132;  801.825;  193.675;    0.000
381.192;  836.825;  209.675;    0.000
381.252;  773.825;  206.675;    0.000
381.311;  876.825;  173.675;    0.000
381.371;  775.825;  188.675;    0.000
381.430;  792.825;  162.675;    0.000
381.490;  770.825;  168.675;    0.000
381.549;  776.825;  213.675;    0.000
381.609;  768.825;  194.675;    0.000
381.668;  797.825;  190.675;    0.000
381.728;  806.825;  183.675;    0.000
381.787;  863.825;  172.675;    0.000
381.847;  788.825;  198.675;    0.000
381.906;  892.825;  197.675;    0.000
381.966;  814.825;  201.675;    0.000
382.025;  841.825;  219.675;    0.000
382.085;  949.825;  194.675;    0.000
382.144;  922.825;  187.675;    0.000
382.204;  848.825;  196.675;    0.000
382.263;  851.825;  168.675;    0.000
382.323;  860.825;  135.675;    0.000
382.382;  904.825;  173.675;    0.000
382.441;  861.825;  155.675;    0.000
382.501;  910.825;  168.675;    0.000
382.560;  933.825;  200.675;    0.000
382.619;  966.825;  155.675;    0.000
382.679; 1044.825;  198.675;    0.000
382.738; 1038.825;  211.675;    0.000
382.798; 1129.825;  214.675;    0.000
382.857; 1192.825;  146.675;    0.000
382.916; 1255.825;  183.675;    0.000
382.976; 1336.825;  173.675;    0.000
383.035; 1285.825;  165.675;    0.000
383.094; 1252.825;  173.675;    0.000
383.154; 1370.825;  143.675;    0.000
383.213; 1653.825;  173.675;    0.000
383.272; 1522.825;  166.675;    0.000
383.331; 1382.825;  154.675;    0.000
383.391; 1282.825;  232.675;    0.000
383.450; 1215.825;  185.675;    0.000
383.509; 1286.825;  204.675;    0.000
383.568; 1197.825;  197.675;    0.000
383.628; 1233.825;  171.675;    0.000
383.687; 1439.825;  202.675;    0.000
383.746; 1493.825;  116.675;    0.000
383.805; 1797.825;  156.675;    0.000
383.864; 1878.825;  150.675;    0.000
383.924; 1656.825;  195.675;    0.000
383.983; 1301.825;  157.675;    0.000
384.042; 1180.825;  184.675;    0.000
384.101; 1120.825;  210.675;    0.000
384.160; 1059.825;  123.675;    0.000
384.219;  970.825;  191.675;    0.000
384.279; 1046.825;  184.675;    0.000
384.338;  950.825;  172.675;    0.000
384.397;  924.825;  153.675;    0.000
384.456;  889.825;  181.675;    0.000
384.515;  911.825;  171.675;    0.000
384.574;  829.825;  172.675;    0.000
384.633;  923.825;  174.675;    0.000
384.692;  884.825;  178.675;    0.000
384.751;  894.825;  180.675;    0.000
384.810;  875.825;  161.675;    0.000
384.869;  888.825;  162.675;    0.000
384.929;  809.825;  157.675;    0.000
384.988;  882.825;  153.675;    0.000
385.047;  863.825;  178.675;    0.000
385.106;  879.825;  164.675;    0.000
385.165;  826.825;  127.675;    0.000
385.224;  842.825;  156.675;    0.000
385.283;  791.825;  178.675;    0.000
385.342;  825.825;  177.675;    0.000
385.401;  807.825;  178.675;    0.000
385.459;  889.825;  177.675;    0.000
385.518;  885.825;  152.675;    0.000
385.577;  797.825;  133.675;    0.000
385.636;  930.825;  204.675;    0.000
385.695;  833.825;  161.675;    0.000
385.754;  908.825;  190.675;    0.000
385.813;  882.825;  160.675;    0.000
385.872;  822.825;  138.675;    0.000
385.931;  833.825;  192.675;    0.000
385.990;  860.825;  158.675;    0.000
386.049;  860.825;  187.675;    0.000
386.107;  851.825;  140.675;    0.000
386.166;  811.825;  139.675;    0.000
386.225;  876.825;  182.675;    0.000
386.284;  782.825;  123.675;    0.000
386.343;  832.825;  207.675;    0.000
386.402;  889.825;  150.675;    0.000
386.460;  943.825;  185.675;    0.000
386.519;  802.825;  145.675;    0.000
386.578;  855.825;  153.675;    0.000
386.637;  804.825;  153.675;    0.000
386.696;  806.825;  189.675;    0.000
386.754;  805.825;  128.675;    0.000
386.813;  863.825;  202.675;    0.000
386.872;  809.825;  152.675;    0.000
386.931;  884.825;  166.675;    0.000
386.989;  879.825;  194.675;    0.000
387.048;  890.825;  176.675;    0.000
387.107;  891.825;  203.675;    0.000
387.165;  816.825;  136.675;    0.000
387.224;  822.825;  193.675;    0.000
387.283;  785.825;  157.675;    0.000
387.342;  865.825;  194.675;    0.000
387.400;  837.825;  191.675;    0.000
387.459;  840.825;  142.675;    0.000
387.517;  795.825;  202.675;    0.000
387.576;  802.825;  164.675;    0.000
387.635;  868.825;  147.675;    0.000
387.693;  858.825;  199.675;    0.000
387.752;  918.825;  181.675;    0.000
387.811;  857.825;  161.675;    0.000
387.869;  801.825;  184.675;    0.000
387.928;  868.825;  175.675;    0.000
387.986;  859.825;  143.675;    0.000
388.045;  769.825;  146.675;    0.000
388.103;  856.825;  164.675;    0.000
388.162;  816.825;  170.675;    0.000
388.221;  846.825;  169.675;    0.000
388.279;  823.825;  151.675;    0.000
388.338;  924.825;  175.675;    0.000
388.396;  824.825;  170.675;    0.000
388.455;  904.825;  193.675;    0.000
388.513;  795.825;  134.675;    0.000
388.572;  817.825;  201.675;    0.000
388.630;  814.825;  181.675;    0.000
388.689;  824.825;  165.675;    0.000
388.747;  918.825;  164.675;    0.000
388.806;  805.825;  155.675;    0.000
388.864;  832.825;  172.675;    0.000
388.922;  827.825;  190.675;    0.000
388.981;  770.825;  170.675;    0.000
389.039;  791.825;  142.675;    0.000
389.098;  890.825;  177.675;    0.000
389.156;  868.825;  184.675;    0.000
389.214;  837.825;  197.675;    0.000
389.273;  797.825;  141.675;    0.000
389.331;  791.825;  145.675;    0.000
389.390;  827.825;  160.675;    0.000
389.448;  876.825;  142.675;    0.000
389.506;  828.825;  192.675;    0.000
389.565;  808.825;  176.675;    0.000
389.623;  835.825;  174.675;    0.000
389.681;  885.825;  184.675;    0.000
389.740;  888.825;  193.675;    0.000
389.798;  800.825;  130.675;    0.000
389.856;  898.825;  224.675;    0.000
389.914;  821.825;  223.675;    0.000
389.973;  844.825;  164.675;    0.000
390.031;  772.825;  198.675;    0.000
390.089;  856.825;  177.675;    0.000
390.147;  847.825;  158.675;    0.000
390.206;  838.825;  213.675;    0.000
390.264;  840.825;  178.675;    0.000
390.322;  848.825;  181.675;    0.000
390.380;  830.825;  148.675;    0.000
390.439;  869.825;  185.675;    0.000
390.497;  869.825;  208.675;    0.000
390.555;  792.825;  175.675;    0.000
390.613;  808.825;  178.675;    0.000
390.671;  841.825;  190.675;    0.000
390.729;  786.825;  172.675;    0.000
390.788;  856.825;  194.675;    0.000
390.846;  832.825;  187.675;    0.000
390.904;  888.825;  207.675;    0.000
390.962;  854.825;  211.675;    0.000
391.020;  907.825;  218.675;    0.000
391.078;  848.825;  179.675;    0.000
391.136;  820.825;  223.675;    0.000
391.194;  910.825;  209.675;    0.000
391.253;  867.825;  217.675;    0.000
391.311;  889.825;  217.675;    0.000
391.369;  866.825;  217.675;    0.000
391.427;  880.825;  253.675;    0.000
391.485;  857.825;  176.675;    0.000
391.543;  883.825;  252.675;    0.000
391.601;  880.825;  168.675;    0.000
391.659;  791.825;  206.675;    0.000
391.717;  870.825;  172.675;    0.000
391.775;  854.825;  170.675;    0.000
391.833;  873.825;  196.675;    0.000
391.891;  834.825;  180.675;    0.000
391.949;  871.825;  201.675;    0.000
392.007;  861.825;  196.675;    0.000
392.065;  863.825;  191.675;    0.000
392.123;  842.825;  158.675;    0.000
392.180;  941.825;  192.675;    0.000
392.238;  865.825;  186.675;    0.000
392.296;  856.825;  150.675;    0.000
392.354;  903.825;  175.675;    0.000
392.412;  837.825;  219.675;    0.000
392.470;  918.825;  200.675;    0.000
392.528;  868.825;  177.675;    0.000
392.586;  858.825;  169.675;    0.000
392.644;  839.825;  155.675;    0.000
392.701;  900.825;  215.675;    0.000
392.759;  923.825;  218.675;    0.000
392.817;  862.825;  178.675;    0.000
392.875;  875.825;  190.675;    0.000
392.933;  873.825;  197.675;    0.000
392.991;  894.825;  179.675;    0.000
393.048;  857.825;  205.675;    0.000
393.106;  893.825;  229.675;    0.000
393.164;  839.825;  167.675;    0.000
393.222;  862.825;  156.675;    0.000
393.279;  911.825;  203.675;    0.000
393.337;  986.825;  216.675;    0.000
393.395;  974.825;  180.675;    0.000
393.453;  891.825;  163.675;    0.000
393.510;  873.825;  194.675;    0.000
393.568;  873.825;  207.675;    0.000
393.626;  885.825;  200.675;    0.000
393.684;  899.825;  234.675;    0.000
393.741;  905.825;  197.675;    0.000
393.799;  868.825;  201.675;    0.000
393.857;  868.825;  185.675;    0.000
393.914;  874.825;  200.675;    0.000
393.972;  883.825;  181.675;    0.000
394.030;  862.825;  188.675;    0.000
394.087;  866.825;  202.675;    0.000
394.145;  896.825;  214.675;    0.000
394.202;  921.825;  204.675;    0.000
394.260;  939.825;  178.675;    0.000
394.318;  893.825;  208.675;    0.000
394.375;  899.825;  183.675;    0.000
394.433;  878.825;  175.675;    0.000
394.490;  904.825;  170.675;    0.000
394.548;  977.825;  161.675;    0.000
394.605;  922.825;  196.675;    0.000
394.663;  935.825;  191.675;    0.000
394.720;  887.825;  179.675;    0.000
394.778;  832.825;  193.675;    0.000
394.836;  884.825;  160.675;    0.000
394.893;  817.825;  152.675;    0.000
394.951;  881.825;  179.675;    0.000
395.008;  939.825;  185.675;    0.000
395.065;  930.825;  154.675;    0.000
395.123;  904.825;  176.675;    0.000
395.180;  872.825;  202.675;    0.000
395.238;  864.825;  135.675;    0.000
395.295;  901.825;  178.675;    0.000
395.353;  907.825;  181.675;    0.000
395.410;  984.825;  160.675;    0.000
395.468;  944.825;  179.675;    0.000
395.525;  934.825;  187.675;    0.000
395.582;  954.825;  221.675;    0.000
395.640;  989.825;  220.675;    0.000
395.697;  874.825;  174.675;    0.000
395.754;  866.825;  177.675;    0.000
395.812;  953.825;  193.675;    0.000
395.869;  939.825;  220.675;    0.000
395.927;  952.825;  206.675;    0.000
395.984; 1049.825;  213.675;    0.000
396.041;  929.825;  194.675;    0.000
396.098;  880.825;  144.675;    0.000
396.156;  917.825;  168.675;    0.000
396.213;  994.825;  181.675;    0.000
396.270; 1004.825;  186.675;    0.000
396.328;  876.825;  165.675;    0.000
396.385;  918.825;  192.675;    0.000
396.442;  932.825;  196.675;    0.000
396.499;  857.825;  162.675;    0.000
396.557;  910.825;  177.675;    0.000
396.614;  892.825;  184.675;    0.000
396.671;  919.825;  180.675;    0.000
396.728;  982.825;  194.675;    0.000
396.785;  966.825;  173.675;    0.000
396.843;  909.825;  154.675;    0.000
396.900; 1006.825;  200.675;    0.000
396.957;  971.825;  158.675;    0.000
397.014; 1003.825;  203.675;    0.000
397.071;  963.825;  178.675;    0.000
397.128;  922.825;  201.675;    0.000
397.186;  933.825;  200.675;    0.000
397.243;  959.825;  187.675;    0.000
397.300;  973.825;  173.675;    0.000
397.357;  963.825;  189.675;    0.000
397.414;  943.825;  202.675;    0.000
397.471;  928.825;  156.675;    0.000
397.528;  919.825;  197.675;    0.000
397.585;  962.825;  174.675;    0.000
397.642;  915.825;  202.675;    0.000
397.699; 1051.825;  197.675;    0.000
397.756;  982.825;  188.675;    0.000
397.814;  911.825;  210.675;    0.000
397.871;  955.825;  203.675;    0.000
397.928; 1065.825;  189.675;    0.000
397.985;  911.825;  192.675;    0.000
398.042;  913.825;  198.675;    0.000
398.099; 1001.825;  181.675;    0.000
398.156;  983.825;  201.675;    0.000
398.212; 1002.825;  216.675;    0.000
398.269;  981.825;  206.675;    0.000
398.326; 1018.825;  213.675;    0.000
398.383; 1022.825;  168.675;    0.000
398.440;  969.825;  184.675;    0.000
398.497;  983.825;  194.675;    0.000
398.554; 1036.825;  219.675;    0.000
398.611; 1069.825;  190.675;    0.000
398.668;  963.825;  138.675;    0.000
398.725; 1026.825;  170.675;    0.000
398.782; 1015.825;  223.675;    0.000
398.839; 1002.825;  211.675;    0.000
398.895; 1080.825;  173.675;    0.000
398.952; 1079.825;  207.675;    0.000
399.009;  955.825;  173.675;    0.000
399.066;  995.825;  171.675;    0.000
399.123;  995.825;  189.675;    0.000
399.180; 1112.825;  170.675;    0.000
399.236; 1031.825;  193.675;    0.000
399.293; 1069.825;  222.675;    0.000
399.350; 1067.825;  195.675;    0.000
399.407; 1075.825;  214.675;    0.000
399.463;  988.825;  181.675;    0.000
399.520; 1039.825;  168.675;    0.000
399.577; 1086.825;  231.675;    0.000
399.634; 1111.825;  215.675;    0.000
399.690; 1047.825;  177.675;    0.000
399.747; 1162.825;  212.675;    0.000
399.804; 1129.825;  208.675;    0.000
399.861; 1135.825;  225.675;    0.000
399.917; 1111.825;  191.675;    0.000
399.974; 1057.825;  182.675;    0.000
400.031; 1097.825;  218.675;    0.000
400.087; 1006.825;  202.675;    0.000
400.144; 1053.825;  192.675;    0.000
400.201; 1087.825;  187.675;    0.000
400.257; 1026.825;  193.675;    0.000
400.314; 1064.825;  185.675;    0.000
400.370; 1071.825;  201.675;    0.000
400.427; 1064.825;  208.675;    0.000
400.484; 1059.825;  201.675;    0.000
400.540; 1105.825;  204.675;    0.000
400.597; 1048.825;  210.675;    0.000
400.653; 1023.825;  224.675;    0.000
400.710; 1038.825;  196.675;    0.000
400.766; 1043.825;  224.675;    0.000
400.823; 1050.825;  210.675;    0.000
400.879; 1064.825;  213.675;    0.000
400.936;  987.825;  182.675;    0.000
400.993; 1003.825;  184.675;    0.000
401.049; 1149.825;  216.675;    0.000
401.105; 1043.825;  235.675;    0.000
401.162; 1094.825;  196.675;    0.000
401.218; 1023.825;  221.675;    0.000
401.275; 1045.825;  216.675;    0.000
401.331;  998.825;  198.675;    0.000
401.388;  999.825;  205.675;    0.000
401.444; 1013.825;  154.675;    0.000
401.501; 1087.825;  208.675;    0.000
401.557; 1102.825;  162.675;    0.000
401.614;  987.825;  157.675;    0.000
401.670; 1093.825;  198.675;    0.000
401.726; 1060.825;  195.675;    0.000
401.783;  965.825;  186.675;    0.000
401.839; 1031.825;  205.675;    0.000
401.895; 1143.825;  202.675;    0.000
401.952; 1120.825;  143.675;    0.000
402.008; 1040.825;  177.675;    0.000
402.064;  990.825;  177.675;    0.000
402.121; 1077.825;  194.675;    0.000
402.177; 1011.825;  181.675;    0.000
402.233; 1094.825;  205.675;    0.000
402.290; 1138.825;  190.675;    0.000
402.346; 1071.825;  190.675;    0.000
402.402; 1030.825;  151.675;    0.000
402.458; 1009.825;  194.675;    0.000
402.515;  993.825;  212.675;    0.000
402.571; 1039.825;  209.675;    0.000
402.627; 1087.825;  199.675;    0.000
402.683; 1035.825;  213.675;    0.000
402.740; 1018.825;  165.675;    0.000
402.796; 1038.825;  168.675;    0.000
402.852; 1057.825;  200.675;    0.000
402.908; 1065.825;  193.675;    0.000
402.964; 1001.825;  166.675;    0.000
403.021;  985.825;  196.675;    0.000
403.077; 1097.825;  212.675;    0.000
403.133; 1060.825;  186.675;    0.000
403.189; 1130.825;  206.675;    0.000
403.245; 1008.825;  207.675;    0.000
403.301; 1062.825;  204.675;    0.000
403.357; 1098.825;  246.675;    0.000
403.414;  984.825;  227.675;    0.000
403.470; 1055.825;  207.675;    0.000
403.526;  984.825;  171.675;    0.000
403.582; 1127.825;  200.675;    0.000
403.638; 1211.825;  213.675;    0.000
403.694; 1060.825;  239.675;    0.000
403.750; 1053.825;  221.675;    0.000
403.806; 1102.825;  197.675;    0.000
403.862; 1085.825;  222.675;    0.000
403.918; 1109.825;  174.675;    0.000
403.974; 1050.825;  183.675;    0.000
404.030; 1118.825;  184.675;    0.000
404.086; 1105.825;  170.675;    0.000
404.142; 1036.825;  215.675;    0.000
404.198; 1036.825;  189.675;    0.000
404.254; 1079.825;  195.675;    0.000
404.310; 1155.825;  206.675;    0.000
404.366; 1110.825;  179.675;    0.000
404.422; 1100.825;  197.675;    0.000
404.478; 1182.825;  176.675;    0.000
404.534; 1049.825;  165.675;    0.000
404.590; 1051.825;  203.675;    0.000
404.646; 1159.825;  195.675;    0.000
404.701; 1030.825;  180.675;    0.000
404.757; 1085.825;  218.675;    0.000
404.813; 1136.825;  160.675;    0.000
404.869; 1095.825;  213.675;    0.000
404.925; 1063.825;  171.675;    0.000
404.981; 1077.825;  194.675;    0.000
405.037; 1082.825;  211.675;    0.000
405.092; 1026.825;  158.675;    0.000
405.148; 1075.825;  140.675;    0.000
405.204; 1143.825;  161.675;    0.000
405.260; 1052.825;  161.675;    0.000
405.316; 1115.825;  155.675;    0.000
405.371; 1093.825;  151.675;    0.000
405.427; 1189.825;  186.675;    0.000
405.483; 1081.825;  206.675;    0.000
405.539; 1044.825;  162.675;    0.000
405.594; 1193.825;  205.675;    0.000
405.650; 1028.825;  153.675;    0.000
405.706; 1122.825;  185.675;    0.000
405.761; 1136.825;  205.675;    0.000
405.817; 1164.825;  185.675;    0.000
405.873; 1178.825;  160.675;    0.000
405.928; 1136.825;  182.675;    0.000
405.984; 1157.825;  206.675;    0.000
406.040; 1116.825;  200.675;    0.000
406.095; 1050.825;  138.675;    0.000
406.151; 1061.825;  178.675;    0.000
406.207; 1162.825;  225.675;    0.000
406.262; 1122.825;  161.675;    0.000
406.318; 1158.825;  186.675;    0.000
406.374; 1057.825;  173.675;    0.000
406.429; 1078.825;  197.675;    0.000
406.485; 1189.825;  260.675;    0.000
406.540; 1115.825;  184.675;    0.000
406.596; 1145.825;  193.675;    0.000
406.651; 1150.825;  176.675;    0.000
406.707; 1161.825;  158.675;    0.000
406.763; 1118.825;  174.675;    0.000
406.818; 1219.825;  188.675;    0.000
406.874; 1102.825;  176.675;    0.000
406.929; 1205.825;  220.675;    0.000
406.985; 1234.825;  167.675;    0.000
407.040; 1123.825;  191.675;    0.000
407.095; 1171.825;  190.675;    0.000
407.151; 1207.825;  196.675;    0.000
407.206; 1242.825;  184.675;    0.000
407.262; 1145.825;  167.675;    0.000
407.317; 1297.825;  199.675;    0.000
407.373; 1295.825;  211.675;    0.000
407.428; 1333.825;  202.675;    0.000
407.484; 1219.825;  172.675;    0.000
407.539; 1252.825;  171.675;    0.000
407.594; 1276.825;  219.675;    0.000
407.650; 1231.825;  179.675;    0.000
407.705; 1192.825;  141.675;    0.000
407.760; 1221.825;  182.675;    0.000
407.816; 1220.825;  203.675;    0.000
407.871; 1264.825;  219.675;    0.000
407.926; 1233.825;  197.675;    0.000
407.982; 1248.825;  176.675;    0.000
408.037; 1190.825;  187.675;    0.000
408.092; 1264.825;  161.675;    0.000
408.148; 1300.825;  185.675;    0.000
408.203; 1198.825;  196.675;    0.000
408.258; 1158.825;  188.675;    0.000
408.314; 1317.825;  225.675;    0.000
408.369; 1154.825;  172.675;    0.000
408.424; 1186.825;  204.675;    0.000
408.479; 1253.825;  182.675;    0.000
408.534; 1289.825;  220.675;    0.000
408.590; 1198.825;  196.675;    0.000
408.645; 1239.825;  170.675;    0.000
408.700; 1209.825;  204.675;    0.000
408.755; 1268.825;  219.675;    0.000
408.810; 1174.825;  174.675;    0.000
408.866; 1167.825;  212.675;    0.000
408.921; 1291.825;  233.675;    0.000
408.976; 1262.825;  198.675;    0.000
409.031; 1236.825;  179.675;    0.000
409.086; 1155.825;  181.675;    0.000
409.141; 1215.825;  192.675;    0.000
409.196; 1171.825;  172.675;    0.000
409.252; 1181.825;  199.675;    0.000
409.307; 1226.825;  159.675;    0.000
409.362; 1251.825;  158.675;    0.000
409.417; 1243.825;  164.675;    0.000
409.472; 1233.825;  186.675;    0.000
409.527; 1238.825;  215.675;    0.000
409.582; 1231.825;  227.675;    0.000
409.637; 1199.825;  211.675;    0.000
409.692; 1287.825;  224.675;    0.000
409.747; 1180.825;  147.675;    0.000
409.802; 1219.825;  203.675;    0.000
409.857; 1189.825;  203.675;    0.000
409.912; 1243.825;  219.675;    0.000
409.967; 1161.825;  200.675;    0.000
410.022; 1198.825;  199.675;    0.000
410.077; 1173.825;  171.675;    0.000
410.132; 1224.825;  193.675;    0.000
410.187; 1091.825;  167.675;    0.000
410.242; 1252.825;  188.675;    0.000
410.297; 1195.825;  195.675;    0.000
410.351; 1226.825;  225.675;    0.000
410.406; 1324.825;  188.675;    0.000
410.461; 1189.825;  197.675;    0.000
410.516; 1194.825;  212.675;    0.000
410.571; 1235.825;  173.675;    0.000
410.626; 1277.825;  180.675;    0.000
410.681; 1176.825;  198.675;    0.000
410.736; 1214.825;  190.675;    0.000
410.790; 1179.825;  204.675;    0.000
410.845; 1317.825;  214.675;    0.000
410.900; 1286.825;  184.675;    0.000
410.955; 1268.825;  231.675;    0.000
411.010; 1211.825;  211.675;    0.000
411.064; 1149.825;  204.675;    0.000
411.119; 1192.825;  219.675;    0.000
411.174; 1213.825;  208.675;    0.000
411.229; 1300.825;  207.675;    0.000
411.283; 1161.825;  199.675;    0.000
411.338; 1258.825;  198.675;    0.000
411.393; 1214.825;  155.675;    0.000
411.447; 1162.825;  200.675;    0.000
411.502; 1264.825;  229.675;    0.000
411.557; 1286.825;  197.675;    0.000
411.612; 1187.825;  171.675;    0.000
411.666; 1169.825;  201.675;    0.000
411.721; 1171.825;  174.675;    0.000
411.776; 1252.825;  222.675;    0.000
411.830; 1235.825;  150.675;    0.000
411.885; 1265.825;  169.675;    0.000
411.939; 1294.825;  216.675;    0.000
411.994; 1237.825;  215.675;    0.000
412.049; 1274.825;  219.675;    0.000
412.103; 1271.825;  225.675;    0.000
412.158; 1216.825;  216.675;    0.000
412.212; 1213.825;  218.675;    0.000
412.267; 1236.825;  219.675;    0.000
412.322; 1251.825;  235.675;    0.000
412.376; 1137.825;  208.675;    0.000
412.431; 1222.825;  232.675;    0.000
412.485; 1278.825;  223.675;    0.000
412.540; 1224.825;  217.675;    0.000
412.594; 1305.825;  195.675;    0.000
412.649; 1244.825;  236.675;    0.000
412.703; 1261.825;  216.675;    0.000
412.758; 1235.825;  201.675;    0.000
412.812; 1178.825;  176.675;    0.000
412.866; 1182.825;  179.675;    0.000
412.921; 1154.825;  196.675;    0.000
412.975; 1236.825;  238.675;    0.000
413.030; 1225.825;  272.675;    0.000
413.084; 1257.825;  208.675;    0.000
413.139; 1277.825;  201.675;    0.000
413.193; 1249.825;  198.675;    0.000
413.247; 1300.825;  213.675;    0.000
413.302; 1134.825;  202.675;    0.000
413.356; 1294.825;  184.675;    0.000
413.410; 1228.825;  202.675;    0.000
413.465; 1264.825;  145.675;    0.000
413.519; 1236.825;  200.675;    0.000
413.573; 1187.825;  197.675;    0.000
413.628; 1249.825;  224.675;    0.000
413.682; 1294.825;  211.675;    0.000
413.736; 1174.825;  202.675;    0.000
413.791; 1108.825;  228.675;    0.000
413.845; 1233.825;  184.675;    0.000
413.899; 1226.825;  226.675;    0.000
413.953; 1189.825;  213.675;    0.000
414.008; 1157.825;  175.675;    0.000
414.062; 1220.825;  216.675;    0.000
414.116; 1270.825;  206.675;    0.000
414.170; 1177.825;  229.675;    0.000
414.225; 1312.825;  196.675;    0.000
414.279; 1276.825;  199.675;    0.000
414.333; 1230.825;  220.675;    0.000
414.387; 1343.825;  217.675;    0.000
414.441; 1222.825;  206.675;    0.000
414.496; 1232.825;  264.675;    0.000
414.550; 1216.825;  217.675;    0.000
414.604; 1259.825;  224.675;    0.000
414.658; 1161.825;  156.675;    0.000
414.712; 1329.825;  203.675;    0.000
414.766; 1288.825;  216.675;    0.000
414.820; 1222.825;  218.675;    0.000
414.874; 1257.825;  240.675;    0.000
414.928; 1214.825;  204.675;    0.000
414.982; 1206.825;  195.675;    0.000
415.037; 1196.825;  212.675;    0.000
415.091; 1247.825;  211.675;    0.000
415.145; 1270.825;  230.675;    0.000
415.199; 1207.825;  208.675;    0.000
415.253; 1241.825;  213.675;    0.000
415.307; 1224.825;  208.675;    0.000
415.361; 1291.825;  193.675;    0.000
415.415; 1231.825;  207.675;    0.000
415.469; 1253.825;  214.675;    0.000
415.523; 1352.825;  226.675;    0.000
415.577; 1228.825;  194.675;    0.000
415.631; 1277.825;  258.675;    0.000
415.684; 1281.825;  239.675;    0.000
415.738; 1224.825;  191.675;    0.000
415.792; 1218.825;  185.675;    0.000
415.846; 1270.825;  239.675;    0.000
415.900; 1198.825;  209.675;    0.000
415.954; 1244.825;  215.675;    0.000
416.008; 1272.825;  229.675;    0.000
416.062; 1215.825;  200.675;    0.000
416.116; 1197.825;  195.675;    0.000
416.169; 1283.825;  238.675;    0.000
416.223; 1306.825;  271.675;    0.000
416.277; 1202.825;  232.675;    0.000
416.331; 1215.825;  226.675;    0.000
416.385; 1260.825;  207.675;    0.000
416.439; 1189.825;  221.675;    0.000
416.492; 1269.825;  269.675;    0.000
416.546; 1235.825;  254.675;    0.000
416.600; 1233.825;  225.675;    0.000
416.654; 1230.825;  269.675;    0.000
416.707; 1204.825;  232.675;    0.000
416.761; 1240.825;  226.675;    0.000
416.815; 1247.825;  219.675;    0.000
416.869; 1334.825;  234.675;    0.000
416.922; 1271.825;  230.675;    0.000
416.976; 1240.825;  216.675;    0.000
417.030; 1256.825;  271.675;    0.000
417.083; 1161.825;  229.675;    0.000
417.137; 1245.825;  249.675;    0.000
417.191; 1221.825;  241.675;    0.000
417.244; 1250.825;  230.675;    0.000
417.298; 1258.825;  215.675;    0.000
417.352; 1260.825;  188.675;    0.000
417.405; 1242.825;  248.675;    0.000
417.459; 1204.825;  256.675;    0.000
417.512; 1303.825;  263.675;    0.000
417.566; 1225.825;  227.675;    0.000
417.620; 1296.825;  270.675;    0.000
417.673; 1289.825;  216.675;    0.000
417.727; 1240.825;  234.675;    0.000
417.780; 1291.825;  215.675;    0.000
417.834; 1288.825;  203.675;    0.000
417.887; 1308.825;  257.675;    0.000
417.941; 1358.825;  216.675;    0.000
417.994; 1290.825;  245.675;    0.000
418.048; 1237.825;  209.675;    0.000
418.101; 1252.825;  207.675;    0.000
418.155; 1312.825;  204.675;    0.000
418.208; 1297.825;  270.675;    0.000
418.262; 1265.825;  228.675;    0.000
418.315; 1282.825;  254.675;    0.000
418.369; 1282.825;  245.675;    0.000
418.422; 1264.825;  224.675;    0.000
418.476; 1236.825;  221.675;    0.000
418.529; 1202.825;  234.675;    0.000
418.582; 1187.825;  249.675;    0.000
418.636; 1245.825;  224.675;    0.000
418.689; 1224.825;  228.675;    0.000
418.743; 1248.825;  240.675;    0.000
418.796; 1239.825;  197.675;    0.000
418.849; 1193.825;  220.675;    0.000
418.903; 1266.825;  246.675;    0.000
418.956; 1272.825;  250.675;    0.000
419.009; 1186.825;  276.675;    0.000
419.063; 1267.825;  232.675;    0.000
419.116; 1214.825;  228.675;    0.000
419.169; 1237.825;  249.675;    0.000
419.222; 1298.825;  215.675;    0.000
419.276; 1233.825;  228.675;    0.000
419.329; 1217.825;  246.675;    0.000
419.382; 1163.825;  188.675;    0.000
419.435; 1302.825;  240.675;    0.000
419.489; 1153.825;  261.675;    0.000
419.542; 1256.825;  224.675;    0.000
419.595; 1302.825;  251.675;    0.000
419.648; 1273.825;  236.675;    0.000
419.701; 1283.825;  244.675;    0.000
419.755; 1212.825;  242.675;    0.000
419.808; 1214.825;  242.675;    0.000
419.861; 1193.825;  189.675;    0.000
419.914; 1264.825;  258.675;    0.000
419.967; 1197.825;  230.675;    0.000
420.020; 1226.825;  223.675;    0.000
420.073; 1185.825;  221.675;    0.000
420.127; 1256.825;  252.675;    0.000
420.180; 1232.825;  219.675;    0.000
420.233; 1122.825;  201.675;    0.000
420.286; 1181.825;  221.675;    0.000
420.339; 1228.825;  250.675;    0.000
420.392; 1182.825;  268.675;    0.000
420.445; 1264.825;  223.675;    0.000
420.498; 1247.825;  240.675;    0.000
420.551; 1182.825;  220.675;    0.000
420.604; 1164.825;  231.675;    0.000
420.657; 1127.825;  228.675;    0.000
420.710; 1192.825;  219.675;    0.000
420.763; 1211.825;  280.675;    0.000
420.816; 1203.825;  202.675;    0.000
420.869; 1216.825;  219.675;    0.000
420.922; 1205.825;  218.675;    0.000
420.975; 1208.825;  237.675;    0.000
421.028; 1193.825;  242.675;    0.000
421.081; 1247.825;  247.675;    0.000
421.134; 1152.825;  239.675;    0.000
421.187; 1192.825;  229.675;    0.000
421.239; 1238.825;  200.675;    0.000
421.292; 1058.825;  205.675;    0.000
421.345; 1237.825;  219.675;    0.000
421.398; 1128.825;  187.675;    0.000
421.451; 1226.825;  226.675;    0.000
421.504; 1175.825;  206.675;    0.000
421.557; 1119.825;  226.675;    0.000
421.609; 1158.825;  209.675;    0.000
421.662; 1208.825;  229.675;    0.000
421.715; 1211.825;  231.675;    0.000
421.768; 1203.825;  215.675;    0.000
421.821; 1159.825;  211.675;    0.000
421.873; 1197.825;  220.675;    0.000
421.926; 1168.825;  212.675;    0.000
421.979; 1163.825;  209.675;    0.000
422.032; 1147.825;  203.675;    0.000
422.084; 1193.825;  213.675;    0.000
422.137; 1132.825;  196.675;    0.000
422.190; 1146.825;  246.675;    0.000
422.243; 1217.825;  194.675;    0.000
422.295; 1163.825;  225.675;    0.000
422.348; 1166.825;  248.675;    0.000
422.401; 1146.825;  252.675;    0.000
422.453; 1285.825;  249.675;    0.000
422.506; 1162.825;  233.675;    0.000
422.559; 1165.825;  228.675;    0.000
422.611; 1167.825;  224.675;    0.000
422.664; 1241.825;  226.675;    0.000
422.716; 1204.825;  226.675;    0.000
422.769; 1123.825;  216.675;    0.000
422.822; 1184.825;  256.675;    0.000
422.874; 1139.825;  206.675;    0.000
422.927; 1166.825;  257.675;    0.000
422.979; 1144.825;  209.675;    0.000
423.032; 1153.825;  244.675;    0.000
423.084; 1252.825;  244.675;    0.000
423.137; 1223.825;  213.675;    0.000
423.189; 1161.825;  208.675;    0.000
423.242; 1110.825;  226.675;    0.000
423.294; 1196.825;  250.675;    0.000
423.347; 1178.825;  206.675;    0.000
423.399; 1167.825;  268.675;    0.000
423.452; 1132.825;  262.675;    0.000
423.504; 1195.825;  237.675;    0.000
423.557; 1104.825;  245.675;    0.000
423.609; 1153.825;  211.675;    0.000
423.662; 1151.825;  222.675;    0.000
423.714; 1120.825;  219.675;    0.000
423.766; 1173.825;  250.675;    0.000
423.819; 1204.825;  220.675;    0.000
423.871; 1178.825;  229.675;    0.000
423.923; 1235.825;  219.675;    0.000
423.976; 1130.825;  221.675;    0.000
424.028; 1136.825;  211.675;    0.000
424.081; 1142.825;  254.675;    0.000
424.133; 1119.825;  230.675;    0.000
424.185; 1101.825;  241.675;    0.000
424.238; 1097.825;  182.675;    0.000
424.290; 1172.825;  215.675;    0.000
424.342; 1103.825;  235.675;    0.000
424.394; 1101.825;  225.675;    0.000
424.447; 1156.825;  264.675;    0.000
424.499; 1220.825;  225.675;    0.000
424.551; 1198.825;  237.675;    0.000
424.603; 1123.825;  219.675;    0.000
424.656; 1122.825;  240.675;    0.000
424.708; 1152.825;  266.675;    0.000
424.760; 1130.825;  230.675;    0.000
424.812; 1263.825;  284.675;    0.000
424.864; 1139.825;  189.675;    0.000
424.917; 1119.825;  226.675;    0.000
424.969; 1156.825;  253.675;    0.000
425.021; 1193.825;  233.675;    0.000
425.073; 1125.825;  246.675;    0.000
425.125; 1153.825;  238.675;    0.000
425.177; 1133.825;  253.675;    0.000
425.229; 1122.825;  254.675;    0.000
425.282; 1170.825;  252.675;    0.000
425.334; 1086.825;  261.675;    0.000
425.386; 1200.825;  227.675;    0.000
425.438; 1096.825;  246.675;    0.000
425.490; 1121.825;  249.675;    0.000
425.542; 1159.825;  236.675;    0.000
425.594; 1075.825;  236.675;    0.000
425.646; 1160.825;  237.675;    0.000
425.698; 1052.825;  271.675;    0.000
425.750; 1180.825;  240.675;    0.000
425.802; 1145.825;  238.675;    0.000
425.854; 1113.825;  256.675;    0.000
425.906; 1130.825;  230.675;    0.000
425.958; 1090.825;  231.675;    0.000
426.010; 1064.825;  268.675;    0.000
426.062; 1150.825;  227.675;    0.000
426.114; 1080.825;  234.675;    0.000
426.166; 1109.825;  239.675;    0.000
426.218; 1085.825;  255.675;    0.000
426.270; 1110.825;  196.675;    0.000
426.321; 1071.825;  231.675;    0.000
426.373; 1120.825;  199.675;    0.000
426.425; 1144.825;  245.675;    0.000
426.477; 1084.825;  259.675;    0.000
426.529; 1073.825;  274.675;    0.000
426.581; 1121.825;  221.675;    0.000
426.633; 1080.825;  231.675;    0.000
426.684; 1084.825;  248.675;    0.000
426.736; 1060.825;  237.675;    0.000
426.788; 1086.825;  191.675;    0.000
426.840; 1092.825;  180.675;    0.000
426.892; 1140.825;  259.675;    0.000
426.943; 1046.825;  256.675;    0.000
426.995; 1010.825;  212.675;    0.000
427.047;  981.825;  233.675;    0.000
427.099; 1068.825;  222.675;    0.000
427.150; 1086.825;  203.675;    0.000
427.202; 1035.825;  218.675;    0.000
427.254; 1085.825;  198.675;    0.000
427.306; 1058.825;  248.675;    0.000
427.357; 1088.825;  239.675;    0.000
427.409; 1165.825;  193.675;    0.000
427.461; 1081.825;  215.675;    0.000
427.512; 1098.825;  251.675;    0.000
427.564; 1141.825;  210.675;    0.000
427.616; 1108.825;  251.675;    0.000
427.667; 1130.825;  246.675;    0.000
427.719; 1122.825;  227.675;    0.000
427.770;  995.825;  247.675;    0.000
427.822; 1098.825;  261.675;    0.000
427.874; 1050.825;  231.675;    0.000
427.925; 1061.825;  231.675;    0.000
427.977; 1075.825;  243.675;    0.000
428.028;  975.825;  249.675;    0.000
428.080; 1139.825;  224.675;    0.000
428.131; 1037.825;  247.675;    0.000
428.183; 1058.825;  213.675;    0.000
428.234; 1017.825;  213.675;    0.000
428.286; 1079.825;  224.675;    0.000
428.337; 1073.825;  212.675;    0.000
428.389; 1118.825;  231.675;    0.000
428.440; 1035.825;  248.675;    0.000
428.492; 1028.825;  242.675;    0.000
428.543; 1075.825;  220.675;    0.000
428.595; 1032.825;  212.675;    0.000
428.646; 1065.825;  231.675;    0.000
428.697; 1023.825;  232.675;    0.000
428.749; 1046.825;  231.675;    0.000
428.800; 1139.825;  270.675;    0.000
428.852; 1060.825;  266.675;    0.000
428.903;  968.825;  215.675;    0.000
428.954; 1051.825;  200.675;    0.000
429.006;  979.825;  247.675;    0.000
429.057; 1085.825;  247.675;    0.000
429.108; 1126.825;  193.675;    0.000
429.160; 1094.825;  249.675;    0.000
429.211; 1093.825;  228.675;    0.000
429.262; 1009.825;  243.675;    0.000
429.314; 1102.825;  227.675;    0.000
429.365; 1073.825;  242.675;    0.000
429.416; 1085.825;  240.675;    0.000
429.467; 1092.825;  222.675;    0.000
429.519;  976.825;  233.675;    0.000
429.570; 1179.825;  223.675;    0.000
429.621; 1086.825;  257.675;    0.000
429.672; 1018.825;  220.675;    0.000
429.724; 1008.825;  203.675;    0.000
429.775; 1058.825;  242.675;    0.000
429.826;  999.825;  195.675;    0.000
429.877; 1017.825;  248.675;    0.000
429.928; 1085.825;  226.675;    0.000
429.980; 1024.825;  189.675;    0.000
430.031; 1053.825;  223.675;    0.000
430.082;  979.825;  217.675;    0.000
430.133; 1036.825;  210.675;    0.000
430.184;  990.825;  271.675;    0.000
430.235; 1018.825;  190.675;    0.000
430.286; 1042.825;  233.675;    0.000
430.337; 1003.825;  232.675;    0.000
430.388; 1000.825;  221.675;    0.000
430.439;  983.825;  221.675;    0.000
430.490; 1035.825;  229.675;    0.000
430.542; 1011.825;  196.675;    0.000
430.593;  985.825;  214.675;    0.000
430.644; 1010.825;  224.675;    0.000
430.695;  989.825;  216.675;    0.000
430.746; 1029.825;  228.675;    0.000
430.797; 1073.825;  190.675;    0.000
430.848; 1008.825;  231.675;    0.000
430.898; 1027.825;  232.675;    0.000
430.949;  994.825;  224.675;    0.000
431.000; 1030.825;  236.675;    0.000
431.051; 1088.825;  251.675;    0.000
431.102;  940.825;  205.675;    0.000
431.153; 1039.825;  212.675;    0.000
431.204; 1037.825;  200.675;    0.000
431.255;  971.825;  220.675;    0.000
431.306; 1116.825;  223.675;    0.000
431.357;  986.825;  240.675;    0.000
431.408; 1049.825;  232.675;    0.000
431.458;  994.825;  204.675;    0.000
431.509;  989.825;  196.675;    0.000
431.560; 1002.825;  243.675;    0.000
431.611; 1027.825;  222.675;    0.000
431.662; 1072.825;  246.675;    0.000
431.713; 1025.825;  188.675;    0.000
431.763; 1054.825;  226.675;    0.000
431.814; 1041.825;  239.675;    0.000
431.865; 1039.825;  245.675;    0.000
431.916; 1020.825;  173.675;    0.000
431.966; 1002.825;  220.675;    0.000
432.017;  989.825;  247.675;    0.000
432.068; 1028.825;  241.675;    0.000
432.118; 1061.825;  220.675;    0.000
432.169; 1068.825;  244.675;    0.000
432.220; 1041.825;  246.675;    0.000
432.271; 1014.825;  203.675;    0.000
432.321; 1022.825;  244.675;    0.000
432.372; 1000.825;  254.675;    0.000
432.423;  980.825;  224.675;    0.000
432.473; 1056.825;  211.675;    0.000
432.524; 1005.825;  227.675;    0.000
432.574;  981.825;  228.675;    0.000
432.625;  956.825;  223.675;    0.000
432.676; 1020.825;  220.675;    0.000
432.726; 1094.825;  257.675;    0.000
432.777;  938.825;  257.675;    0.000
432.827; 1072.825;  240.675;    0.000
432.878;  970.825;  219.675;    0.000
432.928; 1034.825;  234.675;    0.000
432.979; 1033.825;  226.675;    0.000
433.029;  957.825;  216.675;    0.000
433.080; 1024.825;  232.675;    0.000
433.130; 1045.825;  257.675;    0.000
433.181; 1107.825;  243.675;    0.000
433.231; 1008.825;  239.675;    0.000
433.282; 1002.825;  232.675;    0.000
433.332; 1010.825;  256.675;    0.000
433.383; 1096.825;  268.675;    0.000
433.433; 1025.825;  291.675;    0.000
433.484; 1038.825;  263.675;    0.000
433.534; 1029.825;  248.675;    0.000
433.585; 1021.825;  244.675;    0.000
433.635; 1046.825;  242.675;    0.000
433.685; 1030.825;  243.675;    0.000
433.736; 1047.825;  283.675;    0.000
433.786; 1070.825;  264.675;    0.000
433.836; 1108.825;  282.675;    0.000
433.887; 1009.825;  265.675;    0.000
433.937; 1083.825;  255.675;    0.000
433.987;  955.825;  245.675;    0.000
434.038; 1067.825;  276.675;    0.000
434.088;  994.825;  249.675;    0.000
434.138; 1024.825;  260.675;    0.000
434.189;  993.825;  241.675;    0.000
434.239; 1035.825;  232.675;    0.000
434.289; 1001.825;  272.675;    0.000
434.339;  991.825;  288.675;    0.000
434.389; 1004.825;  258.675;    0.000
434.440; 1062.825;  244.675;    0.000
434.490; 1063.825;  288.675;    0.000
434.540; 1084.825;  252.675;    0.000
434.590; 1083.825;  256.675;    0.000
434.640; 1038.825;  259.675;    0.000
434.691; 1015.825;  220.675;    0.000
434.741; 1095.825;  238.675;    0.000
434.791; 1020.825;  276.675;    0.000
434.841; 1049.825;  256.675;    0.000
434.891; 1059.825;  297.675;    0.000
434.941; 1101.825;  290.675;    0.000
434.991; 1073.825;  261.675;    0.000
435.042; 1074.825;  300.675;    0.000
435.092; 1060.825;  248.675;    0.000
435.142; 1037.825;  246.675;    0.000
435.192; 1002.825;  201.675;    0.000
435.242; 1088.825;  234.675;    0.000
435.292; 1033.825;  266.675;    0.000
435.342;  918.825;  250.675;    0.000
435.392; 1054.825;  279.675;    0.000
435.442;  973.825;  242.675;    0.000
435.492; 1088.825;  265.675;    0.000
435.542;  976.825;  243.675;    0.000
435.592; 1003.825;  243.675;    0.000
435.642;  995.825;  241.675;    0.000
435.692;  974.825;  263.675;    0.000
435.742; 1042.825;  264.675;    0.000
435.792; 1008.825;  291.675;    0.000
435.842;  923.825;  257.675;    0.000
435.891;  981.825;  224.675;    0.000
435.941;  989.825;  243.675;    0.000
435.991;  951.825;  300.675;    0.000
436.041; 1062.825;  197.675;    0.000
436.091; 1003.825;  238.675;    0.000
436.141; 1034.825;  222.675;    0.000
436.191;  978.825;  249.675;    0.000
436.241;  967.825;  208.675;    0.000
436.290; 1047.825;  282.675;    0.000
436.340;  963.825;  233.675;    0.000
436.390; 1067.825;  223.675;    0.000
436.440;  923.825;  252.675;    0.000
436.490;  997.825;  254.675;    0.000
436.539;  991.825;  271.675;    0.000
436.589;  981.825;  248.675;    0.000
436.639;  985.825;  235.675;    0.000
436.689;  941.825;  238.675;    0.000
436.738;  968.825;  267.675;    0.000
436.788;  969.825;  239.675;    0.000
436.838;  982.825;  244.675;    0.000
436.887; 1032.825;  265.675;    0.000
436.937;  946.825;  261.675;    0.000
436.987;  920.825;  235.675;    0.000
437.036;  986.825;  267.675;    0.000
437.086;  983.825;  258.675;    0.000
437.136; 1028.825;  250.675;    0.000
437.185;  873.825;  214.675;    0.000
437.235;  954.825;  257.675;    0.000
437.285;  927.825;  259.675;    0.000
437.334;  927.825;  241.675;    0.000
437.384;  950.825;  231.675;    0.000
437.433;  970.825;  239.675;    0.000
437.483;  979.825;  260.675;    0.000
437.532;  951.825;  277.675;    0.000
437.582;  933.825;  268.675;    0.000
437.631;  975.825;  239.675;    0.000
437.681;  937.825;  251.675;    0.000
437.730;  931.825;  246.675;    0.000
437.780;  841.825;  226.675;    0.000
437.829;  930.825;  256.675;    0.000
437.879;  895.825;  239.675;    0.000
437.928;  888.825;  253.675;    0.000
437.978;  983.825;  245.675;    0.000
438.027;  964.825;  277.675;    0.000
438.077;  885.825;  248.675;    0.000
438.126;  977.825;  201.675;    0.000
438.176;  930.825;  220.675;    0.000
438.225;  915.825;  250.675;    0.000
438.274;  936.825;  234.675;    0.000
438.324;  966.825;  276.675;    0.000
438.373;  924.825;  226.675;    0.000
438.422;  929.825;  228.675;    0.000
438.472;  891.825;  225.675;    0.000
438.521;  934.825;  227.675;    0.000
438.570;  939.825;  242.675;    0.000
438.620;  970.825;  277.675;    0.000
438.669;  928.825;  256.675;    0.000
438.718;  919.825;  248.675;    0.000
438.768;  857.825;  225.675;    0.000
438.817;  885.825;  229.675;    0.000
438.866;  893.825;  218.675;    0.000
438.915;  976.825;  256.675;    0.000
438.965; 1043.825;  242.675;    0.000
439.014;  962.825;  260.675;    0.000
439.063; 1002.825;  238.675;    0.000
439.112;  932.825;  209.675;    0.000
439.162;  974.825;  258.675;    0.000
439.211;  977.825;  275.675;    0.000
439.260;  997.825;  238.675;    0.000
439.309;  945.825;  237.675;    0.000
439.358;  990.825;  252.675;    0.000
439.407;  947.825;  239.675;    0.000
439.456;  904.825;  211.675;    0.000
439.506;  926.825;  261.675;    0.000
439.555;  974.825;  274.675;    0.000
439.604;  953.825;  262.675;    0.000
439.653;  905.825;  245.675;    0.000
439.702;  934.825;  247.675;    0.000
439.751;  865.825;  228.675;    0.000
439.800;  919.825;  253.675;    0.000
439.849; 1012.825;  219.675;    0.000
439.898;  914.825;  246.675;    0.000
439.947;  869.825;  229.675;    0.000
439.996;  922.825;  274.675;    0.000
440.045;  913.825;  224.675;    0.000
440.094;  920.825;  225.675;    0.000
440.143;  969.825;  277.675;    0.000
440.192;  940.825;  252.675;    0.000
440.241;  959.825;  253.675;    0.000
440.290;  916.825;  242.675;    0.000
440.339;  878.825;  220.675;    0.000
440.388;  924.825;  244.675;    0.000
440.437;  964.825;  268.675;    0.000
440.486;  961.825;  242.675;    0.000
440.535;  946.825;  269.675;    0.000
440.583;  931.825;  258.675;    0.000
440.632;  994.825;  286.675;    0.000
440.681;  930.825;  238.675;    0.000
440.730;  984.825;  271.675;    0.000
440.779;  935.825;  226.675;    0.000
440.828;  955.825;  213.675;    0.000
440.876;  869.825;  207.675;    0.000
440.925;  897.825;  247.675;    0.000
440.974;  896.825;  229.675;    0.000
441.023; 1025.825;  227.675;    0.000
441.072;  941.825;  222.675;    0.000
441.120;  928.825;  273.675;    0.000
441.169; 1002.825;  263.675;    0.000
441.218;  956.825;  264.675;    0.000
441.267;  938.825;  287.675;    0.000
441.315;  920.825;  251.675;    0.000
441.364;  914.825;  252.675;    0.000
441.413;  953.825;  227.675;    0.000
441.461;  892.825;  198.675;    0.000
441.510;  943.825;  273.675;    0.000
441.559; 1028.825;  245.675;    0.000
441.607;  965.825;  218.675;    0.000
441.656;  968.825;  261.675;    0.000
441.705; 1004.825;  259.675;    0.000
441.753;  995.825;  272.675;    0.000
441.802;  976.825;  246.675;    0.000
441.850;  990.825;  255.675;    0.000
441.899;  990.825;  236.675;    0.000
441.948;  962.825;  267.675;    0.000
441.996;  953.825;  246.675;    0.000
442.045; 1000.825;  279.675;    0.000
442.093;  963.825;  251.675;    0.000
442.142;  975.825;  274.675;    0.000
442.190;  951.825;  279.675;    0.000
442.239; 1004.825;  295.675;    0.000
442.287;  978.825;  229.675;    0.000
442.336; 1077.825;  265.675;    0.000
442.384;  945.825;  219.675;    0.000
442.433;  969.825;  287.675;    0.000
442.481;  988.825;  271.675;    0.000
442.529;  971.825;  262.675;    0.000
442.578;  978.825;  282.675;    0.000
442.626;  974.825;  245.675;    0.000
442.675;  934.825;  283.675;    0.000
442.723;  928.825;  247.675;    0.000
442.771;  923.825;  221.675;    0.000
442.820;  953.825;  253.675;    0.000
442.868;  923.825;  204.675;    0.000
442.917;  977.825;  263.675;    0.000
442.965;  950.825;  255.675;    0.000
443.013;  893.825;  282.675;    0.000
443.062;  924.825;  258.675;    0.000
443.110; 1013.825;  268.675;    0.000
443.158;  986.825;  247.675;    0.000
443.206;  949.825;  243.675;    0.000
443.255;  972.825;  271.675;    0.000
443.303;  944.825;  279.675;    0.000
443.351;  906.825;  264.675;    0.000
443.399;  997.825;  245.675;    0.000
443.448;  962.825;  259.675;    0.000
443.496;  916.825;  281.675;    0.000
443.544;  922.825;  213.675;    0.000
443.592;  953.825;  290.675;    0.000
443.640;  972.825;  270.675;    0.000
443.689;  905.825;  229.675;    0.000
443.737;  974.825;  254.675;    0.000
443.785;  945.825;  234.675;    0.000
443.833; 1002.825;  287.675;    0.000
443.881;  944.825;  229.675;    0.000
443.929;  936.825;  260.675;    0.000
443.977;  945.825;  265.675;    0.000
444.025;  956.825;  257.675;    0.000
444.074;  973.825;  245.675;    0.000
444.122;  962.825;  282.675;    0.000
444.170;  960.825;  240.675;    0.000
444.218;  968.825;  270.675;    0.000
444.266;  990.825;  254.675;    0.000
444.314; 1014.825;  264.675;    0.000
444.362;  997.825;  287.675;    0.000
444.410; 1004.825;  236.675;    0.000
444.458;  994.825;  273.675;    0.000
444.506;  933.825;  235.675;    0.000
444.554; 1009.825;  242.675;    0.000
444.602; 1104.825;  283.675;    0.000
444.650;  972.825;  266.675;    0.000
444.698;  971.825;  248.675;    0.000
444.746;  924.825;  247.675;    0.000
444.793;  920.825;  211.675;    0.000
444.841;  950.825;  259.675;    0.000
444.889; 1008.825;  253.675;    0.000
444.937;  953.825;  248.675;    0.000
444.985; 1010.825;  233.675;    0.000
445.033;  908.825;  245.675;    0.000
445.081; 1031.825;  243.675;    0.000
445.129;  922.825;  238.675;    0.000
445.176; 1004.825;  204.675;    0.000
445.224;  943.825;  262.675;    0.000
445.272;  898.825;  256.675;    0.000
445.320;  903.825;  235.675;    0.000
445.368; 1021.825;  251.675;    0.000
445.415; 1002.825;  250.675;    0.000
445.463;  893.825;  225.675;    0.000
445.511;  963.825;  226.675;    0.000
445.559;  975.825;  251.675;    0.000
445.606;  950.825;  213.675;    0.000
445.654;  961.825;  261.675;    0.000
445.702;  994.825;  222.675;    0.000
445.749;  969.825;  257.675;    0.000
445.797; 1007.825;  263.675;    0.000
445.845;  987.825;  218.675;    0.000
445.892; 1010.825;  228.675;    0.000
445.940;  991.825;  249.675;    0.000
445.988;  946.825;  276.675;    0.000
446.035;  987.825;  229.675;    0.000
446.083;  987.825;  255.675;    0.000
446.130;  857.825;  200.675;    0.000
446.178;  939.825;  256.675;    0.000
446.226;  939.825;  238.675;    0.000
446.273;  995.825;  250.675;    0.000
446.321;  959.825;  233.675;    0.000
446.368;  980.825;  244.675;    0.000
446.416;  921.825;  214.675;    0.000
446.463;  939.825;  225.675;    0.000
446.511;  945.825;  253.675;    0.000
446.558;  913.825;  246.675;    0.000
446.606;  970.825;  238.675;    0.000
446.653; 1036.825;  215.675;    0.000
446.701;  993.825;  248.675;    0.000
446.748;  974.825;  258.675;    0.000
446.796; 1016.825;  259.675;    0.000
446.843; 1025.825;  269.675;    0.000
446.891;  902.825;  259.675;    0.000
446.938;  976.825;  226.675;    0.000
446.985; 1023.825;  225.675;    0.000
447.033; 1018.825;  269.675;    0.000
447.080; 1014.825;  258.675;    0.000
447.128;  939.825;  225.675;    0.000
447.175; 1024.825;  259.675;    0.000
447.222;  975.825;  238.675;    0.000
447.270;  987.825;  250.675;    0.000
447.317; 1053.825;  217.675;    0.000
447.364; 1011.825;  262.675;    0.000
447.411;  968.825;  269.675;    0.000
447.459;  989.825;  251.675;    0.000
447.506;  967.825;  227.675;    0.000
447.553; 1046.825;  250.675;    0.000
447.601; 1051.825;  251.675;    0.000
447.648; 1038.825;  276.675;    0.000
447.695; 1066.825;  229.675;    0.000
447.742; 1059.825;  245.675;    0.000
447.789; 1039.825;  243.675;    0.000
447.837; 1063.825;  267.675;    0.000
447.884; 1003.825;  246.675;    0.000
447.931; 1115.825;  266.675;    0.000
447.978; 1027.825;  242.675;    0.000
448.025; 1081.825;  267.675;    0.000
448.072;  991.825;  257.675;    0.000
448.120; 1145.825;  279.675;    0.000
448.167; 1171.825;  275.675;    0.000
448.214; 1161.825;  241.675;    0.000
448.261; 1070.825;  271.675;    0.000
448.308; 1143.825;  256.675;    0.000
448.355; 1078.825;  253.675;    0.000
448.402; 1135.825;  267.675;    0.000
448.449;  996.825;  252.675;    0.000
448.496; 1111.825;  241.675;    0.000
448.543; 1023.825;  250.675;    0.000
448.590; 1041.825;  288.675;    0.000
448.637; 1025.825;  255.675;    0.000
448.684; 1062.825;  284.675;    0.000
448.731; 1051.825;  244.675;    0.000
448.778; 1023.825;  257.675;    0.000
448.825; 1038.825;  252.675;    0.000
448.872;  986.825;  205.675;    0.000
448.919;  979.825;  244.675;    0.000
448.966; 1007.825;  278.675;    0.000
449.013; 1023.825;  262.675;    0.000
449.060; 1025.825;  278.675;    0.000
449.107;  955.825;  248.675;    0.000
449.154;  953.825;  230.675;    0.000
449.200;  917.825;  211.675;    0.000
449.247;  897.825;  283.675;    0.000
449.294;  972.825;  251.675;    0.000
449.341;  915.825;  280.675;    0.000
449.388;  964.825;  247.675;    0.000
449.435;  970.825;  267.675;    0.000
449.481;  980.825;  303.675;    0.000
449.528;  946.825;  279.675;    0.000
449.575;  911.825;  226.675;    0.000
449.622;  974.825;  263.675;    0.000
449.668;  965.825;  249.675;    0.000
449.715;  954.825;  257.675;    0.000
449.762;  937.825;  251.675;    0.000
449.809;  953.825;  289.675;    0.000
449.855;  951.825;  239.675;    0.000
449.902;  950.825;  262.675;    0.000
449.949;  923.825;  262.675;    0.000
449.995;  998.825;  265.675;    0.000
450.042;  994.825;  280.675;    0.000
450.089;  949.825;  277.675;    0.000
450.135;  979.825;  285.675;    0.000
450.182;  909.825;  275.675;    0.000
450.229;  939.825;  278.675;    0.000
450.275; 1001.825;  288.675;    0.000
450.322;  886.825;  238.675;    0.000
450.368;  917.825;  276.675;    0.000
450.415;  986.825;  295.675;    0.000
450.462;  961.825;  283.675;    0.000
450.508;  976.825;  264.675;    0.000
450.555;  933.825;  275.675;    0.000
450.601; 1006.825;  278.675;    0.000
450.648;  965.825;  251.675;    0.000
450.694;  924.825;  237.675;    0.000
450.741; 1002.825;  280.675;    0.000
450.787;  936.825;  279.675;    0.000
450.834;  883.825;  287.675;    0.000
450.880;  926.825;  265.675;    0.000
450.927;  972.825;  270.675;    0.000
450.973;  929.825;  308.675;    0.000
451.019;  930.825;  253.675;    0.000
451.066;  903.825;  261.675;    0.000
451.112;  929.825;  276.675;    0.000
451.159;  930.825;  235.675;    0.000
451.205;  892.825;  284.675;    0.000
451.251;  981.825;  264.675;    0.000
451.298;  925.825;  262.675;    0.000
451.344;  896.825;  278.675;    0.000
451.390;  941.825;  273.675;    0.000
451.437;  884.825;  272.675;    0.000
451.483;  932.825;  302.675;    0.000
451.529;  902.825;  255.675;    0.000
451.576;  956.825;  287.675;    0.000
451.622;  920.825;  254.675;    0.000
451.668;  930.825;  260.675;    0.000
451.714;  926.825;  289.675;    0.000
451.761;  847.825;  273.675;    0.000
451.807;  942.825;  307.675;    0.000
451.853; 1004.825;  281.675;    0.000
451.899;  935.825;  246.675;    0.000
451.945;  919.825;  258.675;    0.000
451.992;  929.825;  276.675;    0.000
452.038;  871.825;  287.675;    0.000
452.084;  936.825;  288.675;    0.000
452.130;  879.825;  259.675;    0.000
452.176;  963.825;  265.675;    0.000
452.222;  920.825;  222.675;    0.000
452.268;  939.825;  271.675;    0.000
452.315;  856.825;  258.675;    0.000
452.361;  911.825;  233.675;    0.000
452.407;  947.825;  270.675;    0.000
452.453;  882.825;  261.675;    0.000
452.499;  883.825;  279.675;    0.000
452.545;  912.825;  269.675;    0.000
452.591;  843.825;  288.675;    0.000
452.637;  847.825;  279.675;    0.000
452.683;  799.825;  232.675;    0.000
452.729;  997.825;  285.675;    0.000
452.775;  932.825;  280.675;    0.000
452.821;  819.825;  260.675;    0.000
452.867;  817.825;  239.675;    0.000
452.913;  883.825;  240.675;    0.000
452.959;  958.825;  214.675;    0.000
453.005;  882.825;  266.675;    0.000
453.051;  911.825;  258.675;    0.000
453.097;  964.825;  253.675;    0.000
453.142;  957.825;  244.675;    0.000
453.188;  867.825;  241.675;    0.000
453.234;  843.825;  257.675;    0.000
453.280;  907.825;  231.675;    0.000
453.326;  896.825;  240.675;    0.000
453.372;  880.825;  208.675;    0.000
453.418;  903.825;  266.675;    0.000
453.463;  853.825;  232.675;    0.000
453.509;  863.825;  221.675;    0.000
453.555;  848.825;  268.675;    0.000
453.601;  830.825;  242.675;    0.000
453.647;  899.825;  283.675;    0.000
453.692;  880.825;  242.675;    0.000
453.738;  909.825;  294.675;    0.000
453.784;  880.825;  256.675;    0.000
453.829;  855.825;  267.675;    0.000
453.875;  863.825;  233.675;    0.000
453.921;  892.825;  247.675;    0.000
453.967;  858.825;  249.675;    0.000
454.012;  872.825;  274.675;    0.000
454.058;  891.825;  249.675;    0.000
454.104;  937.825;  272.675;    0.000
454.149;  872.825;  277.675;    0.000
454.195;  839.825;  256.675;    0.000
454.240;  880.825;  263.675;    0.000
454.286;  809.825;  276.675;    0.000
454.332;  948.825;  290.675;    0.000
454.377;  876.825;  274.675;    0.000
454.423;  867.825;  282.675;    0.000
454.468;  866.825;  275.675;    0.000
454.514;  904.825;  270.675;    0.000
454.559;  892.825;  249.675;    0.000
454.605;  876.825;  241.675;    0.000
454.650;  971.825;  269.675;    0.000
454.696;  835.825;  253.675;    0.000
454.741;  908.825;  279.675;    0.000
454.787;  908.825;  252.675;    0.000
454.832;  816.825;  246.675;    0.000
454.878;  909.825;  264.675;    0.000
454.923;  895.825;  268.675;    0.000
454.969;  938.825;  253.675;    0.000
455.014;  904.825;  264.675;    0.000
455.060;  928.825;  265.675;    0.000
455.105;  856.825;  270.675;    0.000
455.150;  923.825;  284.675;    0.000
455.196;  879.825;  278.675;    0.000
455.241;  886.825;  248.675;    0.000
455.286;  842.825;  274.675;    0.000
455.332;  888.825;  269.675;    0.000
455.377;  831.825;  218.675;    0.000
455.422;  893.825;  261.675;    0.000
455.468;  841.825;  278.675;    0.000
455.513;  819.825;  235.675;    0.000
455.558;  848.825;  232.675;    0.000
455.604;  925.825;  285.675;    0.000
455.649;  868.825;  264.675;    0.000
455.694;  860.825;  235.675;    0.000
455.739;  843.825;  265.675;    0.000
455.785;  848.825;  266.675;    0.000
455.830;  816.825;  272.675;    0.000
455.875;  898.825;  256.675;    0.000
455.920;  840.825;  191.675;    0.000
455.965;  893.825;  280.675;    0.000
456.010;  894.825;  267.675;    0.000
456.056;  848.825;  270.675;    0.000
456.101;  881.825;  248.675;    0.000
456.146;  912.825;  287.675;    0.000
456.191;  904.825;  280.675;    0.000
456.236;  925.825;  229.675;    0.000
456.281;  906.825;  241.675;    0.000
456.326;  872.825;  248.675;    0.000
456.371;  890.825;  233.675;    0.000
456.416;  920.825;  284.675;    0.000
456.461;  854.825;  256.675;    0.000
456.507;  847.825;  250.675;    0.000
456.552;  934.825;  290.675;    0.000
456.597;  819.825;  260.675;    0.000
456.642;  888.825;  252.675;    0.000
456.687;  935.825;  272.675;    0.000
456.732;  845.825;  303.675;    0.000
456.776;  919.825;  269.675;    0.000
456.821;  943.825;  256.675;    0.000
456.866;  914.825;  278.675;    0.000
456.911;  811.825;  230.675;    0.000
456.956;  858.825;  275.675;    0.000
457.001;  855.825;  248.675;    0.000
457.046;  919.825;  222.675;    0.000
457.091;  903.825;  251.675;    0.000
457.136;  857.825;  231.675;    0.000
457.181;  871.825;  245.675;    0.000
457.225;  927.825;  262.675;    0.000
457.270;  897.825;  277.675;    0.000
457.315;  911.825;  235.675;    0.000
457.360;  824.825;  231.675;    0.000
457.405;  861.825;  214.675;    0.000
457.450;  901.825;  255.675;    0.000
457.494;  870.825;  220.675;    0.000
457.539;  841.825;  257.675;    0.000
457.584;  842.825;  279.675;    0.000
457.629;  912.825;  249.675;    0.000
457.673;  894.825;  237.675;    0.000
457.718;  861.825;  232.675;    0.000
457.763;  892.825;  278.675;    0.000
457.807;  875.825;  279.675;    0.000
457.852;  844.825;  246.675;    0.000
457.897;  891.825;  284.675;    0.000
457.941;  878.825;  272.675;    0.000
457.986;  910.825;  285.675;    0.000
458.031;  951.825;  235.675;    0.000
458.075;  922.825;  299.675;    0.000
458.120;  845.825;  284.675;    0.000
458.165;  871.825;  212.675;    0.000
458.209;  907.825;  254.675;    0.000
458.254;  847.825;  257.675;    0.000
458.298;  903.825;  265.675;    0.000
458.343;  888.825;  278.675;    0.000
458.387;  991.825;  316.675;    0.000
458.432;  961.825;  279.675;    0.000
458.476;  925.825;  272.675;    0.000
458.521;  867.825;  240.675;    0.000
458.565;  892.825;  307.675;    0.000
458.610;  925.825;  246.675;    0.000
458.654;  900.825;  275.675;    0.000
458.699;  888.825;  288.675;    0.000
458.743;  863.825;  244.675;    0.000
458.788;  974.825;  245.675;    0.000
458.832;  902.825;  277.675;    0.000
458.877;  924.825;  285.675;    0.000
458.921;  938.825;  216.675;    0.000
458.965;  881.825;  260.675;    0.000
459.010;  875.825;  284.675;    0.000
459.054;  947.825;  272.675;    0.000
459.099;  912.825;  262.675;    0.000
459.143;  935.825;  276.675;    0.000
459.187;  906.825;  258.675;    0.000
459.231;  929.825;  278.675;    0.000
459.276;  931.825;  262.675;    0.000
459.320;  916.825;  291.675;    0.000
459.364;  915.825;  294.675;    0.000
459.409;  953.825;  269.675;    0.000
459.453;  958.825;  257.675;    0.000
459.497;  967.825;  283.675;    0.000
459.541;  942.825;  275.675;    0.000
459.586;  919.825;  261.675;    0.000
459.630;  932.825;  284.675;    0.000
459.674;  863.825;  244.675;    0.000
459.718;  933.825;  309.675;    0.000
459.762;  933.825;  281.675;    0.000
459.807;  873.825;  250.675;    0.000
459.851;  920.825;  286.675;    0.000
459.895;  895.825;  230.675;    0.000
459.939;  988.825;  262.675;    0.000
459.983;  944.825;  250.675;    0.000
460.027;  918.825;  275.675;    0.000
460.071;  926.825;  301.675;    0.000
460.115;  951.825;  279.675;    0.000
460.159;  946.825;  301.675;    0.000
460.204;  886.825;  287.675;    0.000
460.248;  987.825;  293.675;    0.000
460.292;  929.825;  310.675;    0.000
460.336;  961.825;  263.675;    0.000
460.380;  949.825;  268.675;    0.000
460.424;  977.825;  281.675;    0.000
460.468;  923.825;  310.675;    0.000
460.512;  948.825;  273.675;    0.000
460.556; 1006.825;  291.675;    0.000
460.599;  980.825;  240.675;    0.000
460.643;  922.825;  260.675;    0.000
460.687;  949.825;  283.675;    0.000
460.731;  934.825;  254.675;    0.000
460.775;  913.825;  265.675;    0.000
460.819;  898.825;  280.675;    0.000
460.863;  985.825;  316.675;    0.000
460.907;  894.825;  231.675;    0.000
460.951;  947.825;  275.675;    0.000
460.995;  974.825;  290.675;    0.000
461.038;  969.825;  284.675;    0.000
461.082;  960.825;  278.675;    0.000
461.126;  971.825;  321.675;    0.000
461.170;  947.825;  273.675;    0.000
461.214;  987.825;  289.675;    0.000
461.257;  936.825;  296.675;    0.000
461.301;  900.825;  287.675;    0.000
461.345;  905.825;  290.675;    0.000
461.389;  959.825;  260.675;    0.000
461.432;  937.825;  262.675;    0.000
461.476;  930.825;  254.675;    0.000
461.520;  928.825;  305.675;    0.000
461.563;  968.825;  289.675;    0.000
461.607;  945.825;  286.675;    0.000
461.651; 1024.825;  271.675;    0.000
461.694;  917.825;  245.675;    0.000
461.738;  912.825;  278.675;    0.000
461.782;  944.825;  284.675;    0.000
461.825;  956.825;  305.675;    0.000
461.869;  932.825;  293.675;    0.000
461.913;  966.825;  280.675;    0.000
461.956;  916.825;  237.675;    0.000
462.000;  976.825;  288.675;    0.000
462.043;  964.825;  282.675;    0.000
462.087;  982.825;  268.675;    0.000
462.130; 1009.825;  286.675;    0.000
462.174;  988.825;  312.675;    0.000
462.217; 1056.825;  270.675;    0.000
462.261;  992.825;  281.675;    0.000
462.304;  997.825;  248.675;    0.000
462.348;  928.825;  267.675;    0.000
462.391;  970.825;  270.675;    0.000
462.435;  972.825;  287.675;    0.000
462.478;  900.825;  290.675;    0.000
462.522;  994.825;  296.675;    0.000
462.565; 1048.825;  275.675;    0.000
462.608;  999.825;  325.675;    0.000
462.652;  986.825;  303.675;    0.000
462.695; 1030.825;  355.675;    0.000
462.739; 1011.825;  272.675;    0.000
462.782;  970.825;  295.675;    0.000
462.825; 1039.825;  300.675;    0.000
462.869;  969.825;  319.675;    0.000
462.912; 1031.825;  363.675;    0.000
462.955;  987.825;  298.675;    0.000
462.998; 1009.825;  321.675;    0.000
463.042; 1053.825;  310.675;    0.000
463.085;  986.825;  305.675;    0.000
463.128; 1051.825;  345.675;    0.000
463.172;  989.825;  341.675;    0.000
463.215;  326.825;  300.675;    0.000
463.258;  302.825;  287.675;    0.000
463.301;  255.825;  290.675;    0.000
463.344;  337.825;  320.675;    0.000
463.388;  310.825;  340.675;    0.000
463.431;  299.825;  278.675;    0.000
463.474;  339.825;  353.675;    0.000
463.517;  315.825;  295.675;    0.000
463.560;  344.825;  328.675;    0.000
463.603;  323.825;  316.675;    0.000
463.646;  337.825;  295.675;    0.000
463.690;  311.825;  334.675;    0.000
463.733;  355.825;  343.675;    0.000
463.776;  306.825;  300.675;    0.000
463.819;  345.825;  368.675;    0.000
463.862;  306.825;  327.675;    0.000

