
Integration time [ms]:   0.300
Averaging Nr. [scans]: 1
Smoothing Nr. [pixels]: 0
Data measured with spectrometer [name]: NIR
Wave   ;Sample   ;Dark     ;Reference
[nm]   ;[counts] ;[counts] ;[counts] 

691.496;   54.900;  102.875;    0.000
691.696;  114.900;  181.875;    0.000
691.896;   91.900;  138.875;    0.000
692.096;  106.900;  182.875;    0.000
692.296;   22.900;  145.875;    0.000
692.496;  120.900;  154.875;    0.000
692.695;   34.900;  108.875;    0.000
692.895;   91.900;  176.875;    0.000
693.095;   72.900;  138.875;    0.000
693.295;   90.900;  192.875;    0.000
693.495;   63.900;  170.875;    0.000
693.695;   80.900;  147.875;    0.000
693.894;   83.900;  191.875;    0.000
694.094;   55.900;  148.875;    0.000
694.294;   68.900;  147.875;    0.000
694.494;  279.900;  140.875;    0.000
694.693; 2037.900;  137.875;    0.000
694.893; 2201.900;  141.875;    0.000
695.093; 2231.900;  105.875;    0.000
695.293; 2237.900;  115.875;    0.000
695.492; 2217.900;   81.875;    0.000
695.692; 2206.900;  162.875;    0.000
695.891; 2368.900;  162.875;    0.000
696.091; 2401.900;  166.875;    0.000
696.291; 2364.900;  143.875;    0.000
696.490; 2310.900;  170.875;    0.000
696.690; 2246.900;  142.875;    0.000
696.889; 2237.900;  186.875;    0.000
697.089; 2298.900;  120.875;    0.000
697.288; 2343.900;  215.875;    0.000
697.488; 2498.900;  178.875;    0.000
697.687; 2254.900;  170.875;    0.000
697.887; 2290.900;  140.875;    0.000
698.086; 2362.900;  131.875;    0.000
698.286; 2191.900;  117.875;    0.000
698.485; 2262.900;  136.875;    0.000
698.684; 2270.900;  126.875;    0.000
698.884; 2318.900;  161.875;    0.000
699.083; 2344.900;   95.875;    0.000
699.282; 2487.900;  120.875;    0.000
699.482; 2558.900;  131.875;    0.000
699.681; 2198.900;  168.875;    0.000
699.880; 2286.900;  154.875;    0.000
700.080; 2423.900;  149.875;    0.000
700.279; 2303.900;   99.875;    0.000
700.478; 2318.900;  157.875;    0.000
700.677; 2352.900;  111.875;    0.000
700.877; 2260.900;  126.875;    0.000
701.076; 2397.900;  142.875;    0.000
701.275; 2299.900;  107.875;    0.000
701.474; 2326.900;   72.875;    0.000
701.673; 2431.900;   87.875;    0.000
701.872; 2325.900;  170.875;    0.000
702.071; 2390.900;  136.875;    0.000
702.271; 2407.900;  121.875;    0.000
702.470; 2426.900;  139.875;    0.000
702.669; 2275.900;  121.875;    0.000
702.868; 2578.900;  146.875;    0.000
703.067; 2406.900;  159.875;    0.000
703.266; 2595.900;  122.875;    0.000
703.465; 2504.900;  121.875;    0.000
703.664; 2483.900;  144.875;    0.000
703.863; 2446.900;  140.875;    0.000
704.062; 2468.900;  109.875;    0.000
704.260; 2399.900;  164.875;    0.000
704.459; 2399.900;  124.875;    0.000
704.658; 2451.900;  109.875;    0.000
704.857; 2382.900;  149.875;    0.000
705.056; 2313.900;  112.875;    0.000
705.255; 2389.900;   95.875;    0.000
705.454; 2417.900;  105.875;    0.000
705.652; 2405.900;  134.875;    0.000
705.851; 2544.900;   92.875;    0.000
706.050; 2684.900;  127.875;    0.000
706.249; 2368.900;  111.875;    0.000
706.447; 2426.900;   98.875;    0.000
706.646; 2398.900;  108.875;    0.000
706.845; 2693.900;   95.875;    0.000
707.043; 2603.900;   95.875;    0.000
707.242; 2455.900;   97.875;    0.000
707.441; 2578.900;  142.875;    0.000
707.639; 2478.900;  121.875;    0.000
707.838; 2424.900;  141.875;    0.000
708.037; 2419.900;  125.875;    0.000
708.235; 2519.900;  100.875;    0.000
708.434; 2422.900;  106.875;    0.000
708.632; 2446.900;   86.875;    0.000
708.831; 2571.900;  138.875;    0.000
709.029; 2309.900;   86.875;    0.000
709.228; 2607.900;  103.875;    0.000
709.426; 2564.900;  146.875;    0.000
709.625; 2468.900;  136.875;    0.000
709.823; 2417.900;  114.875;    0.000
710.022; 2414.900;  144.875;    0.000
710.220; 2479.900;  109.875;    0.000
710.418; 2663.900;  116.875;    0.000
710.617; 2375.900;   67.875;    0.000
710.815; 2492.900;  104.875;    0.000
711.013; 2608.900;  109.875;    0.000
711.212; 2555.900;  106.875;    0.000
711.410; 2563.900;   95.875;    0.000
711.608; 2555.900;  155.875;    0.000
711.807; 2581.900;  103.875;    0.000
712.005; 2487.900;  104.875;    0.000
712.203; 2573.900;   94.875;    0.000
712.401; 2579.900;  125.875;    0.000
712.599; 2655.900;  127.875;    0.000
712.798; 2800.900;  141.875;    0.000
712.996; 2455.900;   85.875;    0.000
713.194; 2690.900;   96.875;    0.000
713.392; 2649.900;   54.875;    0.000
713.590; 2675.900;  123.875;    0.000
713.788; 2509.900;  130.875;    0.000
713.986; 2711.900;  104.875;    0.000
714.184; 2716.900;   91.875;    0.000
714.382; 2716.900;  120.875;    0.000
714.580; 2573.900;   71.875;    0.000
714.778; 2816.900;   92.875;    0.000
714.976; 2695.900;  129.875;    0.000
715.174; 2681.900;   99.875;    0.000
715.372; 2981.900;  119.875;    0.000
715.570; 3174.900;   95.875;    0.000
715.768; 3509.900;  113.875;    0.000
715.966; 3489.900;   64.875;    0.000
716.164; 3492.900;  135.875;    0.000
716.362; 3286.900;  125.875;    0.000
716.560; 3176.900;  135.875;    0.000
716.758; 2880.900;   84.875;    0.000
716.955; 2970.900;  109.875;    0.000
717.153; 3071.900;   73.875;    0.000
717.351; 2890.900;  110.875;    0.000
717.549; 2895.900;  149.875;    0.000
717.746; 2919.900;  121.875;    0.000
717.944; 2814.900;  128.875;    0.000
718.142; 2805.900;  124.875;    0.000
718.340; 2808.900;   96.875;    0.000
718.537; 3009.900;  138.875;    0.000
718.735; 2971.900;  144.875;    0.000
718.933; 2880.900;   97.875;    0.000
719.130; 2998.900;  109.875;    0.000
719.328; 2861.900;  123.875;    0.000
719.525; 2806.900;  118.875;    0.000
719.723; 2771.900;  117.875;    0.000
719.920; 2771.900;   72.875;    0.000
720.118; 2874.900;   92.875;    0.000
720.316; 2922.900;  141.875;    0.000
720.513; 2908.900;   98.875;    0.000
720.711; 2833.900;  146.875;    0.000
720.908; 2871.900;  113.875;    0.000
721.105; 2810.900;  157.875;    0.000
721.303; 2838.900;  106.875;    0.000
721.500; 2761.900;   88.875;    0.000
721.698; 2788.900;   88.875;    0.000
721.895; 2843.900;   94.875;    0.000
722.092; 2754.900;   82.875;    0.000
722.290; 2802.900;  136.875;    0.000
722.487; 2924.900;   67.875;    0.000
722.684; 3121.900;  115.875;    0.000
722.882; 2877.900;  104.875;    0.000
723.079; 2788.900;  122.875;    0.000
723.276; 2902.900;   91.875;    0.000
723.473; 2837.900;   89.875;    0.000
723.671; 2876.900;   97.875;    0.000
723.868; 2884.900;  117.875;    0.000
724.065; 2919.900;  102.875;    0.000
724.262; 2804.900;  137.875;    0.000
724.459; 3002.900;   48.875;    0.000
724.656; 2799.900;  122.875;    0.000
724.854; 2985.900;   96.875;    0.000
725.051; 2929.900;  120.875;    0.000
725.248; 2839.900;  146.875;    0.000
725.445; 2712.900;  117.875;    0.000
725.642; 2825.900;  106.875;    0.000
725.839; 2948.900;  143.875;    0.000
726.036; 2808.900;   79.875;    0.000
726.233; 2895.900;   90.875;    0.000
726.430; 2893.900;  124.875;    0.000
726.627; 2972.900;   98.875;    0.000
726.824; 2909.900;   91.875;    0.000
727.021; 2949.900;  131.875;    0.000
727.218; 2697.900;  110.875;    0.000
727.414; 3078.900;   83.875;    0.000
727.611; 2773.900;   86.875;    0.000
727.808; 2822.900;  131.875;    0.000
728.005; 2982.900;  105.875;    0.000
728.202; 2880.900;  128.875;    0.000
728.399; 2944.900;  113.875;    0.000
728.595; 2858.900;  102.875;    0.000
728.792; 2820.900;   91.875;    0.000
728.989; 2818.900;  122.875;    0.000
729.186; 2991.900;  103.875;    0.000
729.382; 3069.900;  106.875;    0.000
729.579; 2994.900;  114.875;    0.000
729.776; 3043.900;  115.875;    0.000
729.972; 2910.900;  108.875;    0.000
730.169; 3069.900;  111.875;    0.000
730.366; 2906.900;  100.875;    0.000
730.562; 3012.900;   86.875;    0.000
730.759; 2907.900;   93.875;    0.000
730.955; 2978.900;  127.875;    0.000
731.152; 2960.900;   99.875;    0.000
731.348; 2942.900;   97.875;    0.000
731.545; 2995.900;   98.875;    0.000
731.741; 3025.900;  130.875;    0.000
731.938; 3046.900;  115.875;    0.000
732.134; 3097.900;  107.875;    0.000
732.331; 3066.900;   80.875;    0.000
732.527; 3027.900;  108.875;    0.000
732.724; 3084.900;  104.875;    0.000
732.920; 3058.900;  109.875;    0.000
733.116; 2854.900;  117.875;    0.000
733.313; 2976.900;   81.875;    0.000
733.509; 3123.900;   87.875;    0.000
733.705; 2931.900;  143.875;    0.000
733.902; 3054.900;   74.875;    0.000
734.098; 2946.900;   90.875;    0.000
734.294; 2945.900;  104.875;    0.000
734.490; 2929.900;  139.875;    0.000
734.687; 2979.900;  113.875;    0.000
734.883; 2876.900;   72.875;    0.000
735.079; 3228.900;  100.875;    0.000
735.275; 2958.900;  113.875;    0.000
735.471; 2854.900;   55.875;    0.000
735.667; 2983.900;  106.875;    0.000
735.863; 3127.900;  131.875;    0.000
736.060; 3067.900;  127.875;    0.000
736.256; 3146.900;   76.875;    0.000
736.452; 2900.900;  127.875;    0.000
736.648; 3221.900;  136.875;    0.000
736.844; 3079.900;  113.875;    0.000
737.040; 3187.900;  125.875;    0.000
737.236; 3106.900;   99.875;    0.000
737.432; 3191.900;   75.875;    0.000
737.628; 3022.900;  155.875;    0.000
737.824; 3271.900;  116.875;    0.000
738.019; 2955.900;   92.875;    0.000
738.215; 3040.900;  113.875;    0.000
738.411; 3159.900;  135.875;    0.000
738.607; 3044.900;   53.875;    0.000
738.803; 3221.900;   79.875;    0.000
738.999; 3219.900;  117.875;    0.000
739.195; 3131.900;  106.875;    0.000
739.390; 3115.900;  125.875;    0.000
739.586; 3083.900;  102.875;    0.000
739.782; 3060.900;  125.875;    0.000
739.978; 3217.900;  124.875;    0.000
740.173; 3387.900;   96.875;    0.000
740.369; 3219.900;  118.875;    0.000
740.565; 3299.900;  128.875;    0.000
740.760; 3265.900;  118.875;    0.000
740.956; 3348.900;  109.875;    0.000
741.152; 3263.900;  151.875;    0.000
741.347; 3445.900;  112.875;    0.000
741.543; 3353.900;  113.875;    0.000
741.738; 3614.900;  128.875;    0.000
741.934; 3671.900;  144.875;    0.000
742.129; 3767.900;  105.875;    0.000
742.325; 4550.900;  137.875;    0.000
742.520; 5260.900;  128.875;    0.000
742.716; 4506.900;  121.875;    0.000
742.911; 4529.900;   75.875;    0.000
743.107; 4179.900;  100.875;    0.000
743.302; 4110.900;   72.875;    0.000
743.498; 4221.900;  137.875;    0.000
743.693; 4176.900;  124.875;    0.000
743.888; 4482.900;  121.875;    0.000
744.084; 5309.900;   93.875;    0.000
744.279; 7144.900;   75.875;    0.000
744.474; 7382.900;  136.875;    0.000
744.670; 6005.900;  109.875;    0.000
744.865; 5076.900;  142.875;    0.000
745.060; 4764.900;   84.875;    0.000
745.255; 4573.900;  149.875;    0.000
745.451; 4726.900;  101.875;    0.000
745.646; 4458.900;  132.875;    0.000
745.841; 4375.900;  126.875;    0.000
746.036; 4391.900;  125.875;    0.000
746.231; 4548.900;  150.875;    0.000
746.426; 4804.900;  118.875;    0.000
746.622; 6054.900;  135.875;    0.000
746.817; 8265.900;  122.875;    0.000
747.012; 9719.900;  134.875;    0.000
747.207; 8305.900;  124.875;    0.000
747.402; 6673.900;  122.875;    0.000
747.597; 6070.900;   95.875;    0.000
747.792; 5786.900;  168.875;    0.000
747.987; 5549.900;  110.875;    0.000
748.182; 5186.900;  119.875;    0.000
748.377; 5074.900;   70.875;    0.000
748.572; 4710.900;  113.875;    0.000
748.767; 4330.900;  123.875;    0.000
748.961; 4310.900;  110.875;    0.000
749.156; 4438.900;  135.875;    0.000
749.351; 4100.900;   98.875;    0.000
749.546; 4158.900;  126.875;    0.000
749.741; 3764.900;  129.875;    0.000
749.936; 3996.900;   86.875;    0.000
750.130; 3880.900;   97.875;    0.000
750.325; 4031.900;  110.875;    0.000
750.520; 3840.900;  120.875;    0.000
750.715; 4013.900;  122.875;    0.000
750.909; 3935.900;  120.875;    0.000
751.104; 3703.900;  118.875;    0.000
751.299; 3809.900;  122.875;    0.000
751.493; 3741.900;  129.875;    0.000
751.688; 3882.900;  138.875;    0.000
751.882; 3687.900;   87.875;    0.000
752.077; 3745.900;  142.875;    0.000
752.272; 3634.900;  110.875;    0.000
752.466; 3690.900;  154.875;    0.000
752.661; 3570.900;   96.875;    0.000
752.855; 3457.900;   93.875;    0.000
753.050; 3602.900;  122.875;    0.000
753.244; 3694.900;  110.875;    0.000
753.439; 3482.900;  116.875;    0.000
753.633; 3572.900;  131.875;    0.000
753.828; 3518.900;  130.875;    0.000
754.022; 3408.900;   96.875;    0.000
754.216; 3482.900;  114.875;    0.000
754.411; 3464.900;  145.875;    0.000
754.605; 3465.900;   65.875;    0.000
754.799; 3258.900;  116.875;    0.000
754.994; 3447.900;  117.875;    0.000
755.188; 3662.900;  124.875;    0.000
755.382; 3473.900;   80.875;    0.000
755.576; 3558.900;   90.875;    0.000
755.771; 3424.900;  115.875;    0.000
755.965; 3375.900;  106.875;    0.000
756.159; 3308.900;   87.875;    0.000
756.353; 3494.900;  125.875;    0.000
756.547; 3410.900;  146.875;    0.000
756.742; 3403.900;  111.875;    0.000
756.936; 3341.900;  108.875;    0.000
757.130; 3289.900;  101.875;    0.000
757.324; 3422.900;  114.875;    0.000
757.518; 3330.900;  136.875;    0.000
757.712; 3465.900;  123.875;    0.000
757.906; 3520.900;  115.875;    0.000
758.100; 3518.900;  186.875;    0.000
758.294; 3648.900;  118.875;    0.000
758.488; 3344.900;  167.875;    0.000
758.682; 3368.900;  137.875;    0.000
758.876; 3383.900;  135.875;    0.000
759.070; 3318.900;  132.875;    0.000
759.264; 3457.900;  118.875;    0.000
759.458; 3377.900;  111.875;    0.000
759.651; 3265.900;  142.875;    0.000
759.845; 3235.900;  105.875;    0.000
760.039; 3436.900;   73.875;    0.000
760.233; 3580.900;  156.875;    0.000
760.427; 3396.900;  119.875;    0.000
760.620; 3364.900;  136.875;    0.000
760.814; 3303.900;  126.875;    0.000
761.008; 3309.900;  126.875;    0.000
761.202; 3449.900;  123.875;    0.000
761.395; 3465.900;  141.875;    0.000
761.589; 3367.900;  107.875;    0.000
761.783; 3373.900;  122.875;    0.000
761.976; 3382.900;  120.875;    0.000
762.170; 3440.900;  147.875;    0.000
762.363; 3538.900;  144.875;    0.000
762.557; 3551.900;  119.875;    0.000
762.750; 3482.900;  118.875;    0.000
762.944; 3344.900;  145.875;    0.000
763.138; 3505.900;  123.875;    0.000
763.331; 3344.900;  129.875;    0.000
763.524; 3527.900;  109.875;    0.000
763.718; 3524.900;  150.875;    0.000
763.911; 3593.900;  140.875;    0.000
764.105; 3396.900;   97.875;    0.000
764.298; 3319.900;  128.875;    0.000
764.492; 3595.900;  132.875;    0.000
764.685; 3509.900;   92.875;    0.000
764.878; 3314.900;  111.875;    0.000
765.072; 3517.900;  116.875;    0.000
765.265; 3431.900;  135.875;    0.000
765.458; 3415.900;   69.875;    0.000
765.651; 3360.900;  145.875;    0.000
765.845; 3436.900;   95.875;    0.000
766.038; 3634.900;  147.875;    0.000
766.231; 4065.900;  119.875;    0.000
766.424; 6765.900;  126.875;    0.000
766.617; 8037.900;   92.875;    0.000
766.811; 4131.900;  109.875;    0.000
767.004; 3468.900;  107.875;    0.000
767.197; 3684.900;  171.875;    0.000
767.390; 3488.900;  114.875;    0.000
767.583; 3460.900;  109.875;    0.000
767.776; 3701.900;  130.875;    0.000
767.969; 3471.900;  103.875;    0.000
768.162; 3519.900;  139.875;    0.000
768.355; 3609.900;  142.875;    0.000
768.548; 3749.900;  140.875;    0.000
768.741; 3596.900;   82.875;    0.000
768.934; 3651.900;  107.875;    0.000
769.127; 3747.900;  121.875;    0.000
769.320; 3696.900;  106.875;    0.000
769.513; 3996.900;  145.875;    0.000
769.706; 4151.900;  120.875;    0.000
769.898; 6671.900;  135.875;    0.000
770.091; 5493.900;  146.875;    0.000
770.284; 3811.900;  108.875;    0.000
770.477; 3807.900;  148.875;    0.000
770.670; 3775.900;  163.875;    0.000
770.862; 3909.900;   97.875;    0.000
771.055; 3732.900;  116.875;    0.000
771.248; 3783.900;  143.875;    0.000
771.441; 3675.900;  125.875;    0.000
771.633; 3909.900;  125.875;    0.000
771.826; 4122.900;  132.875;    0.000
772.018; 3883.900;  123.875;    0.000
772.211; 4061.900;  143.875;    0.000
772.404; 4125.900;  144.875;    0.000
772.596; 3906.900;  130.875;    0.000
772.789; 4144.900;  109.875;    0.000
772.981; 4237.900;  151.875;    0.000
773.174; 4056.900;  119.875;    0.000
773.366; 4192.900;  179.875;    0.000
773.559; 4290.900;  106.875;    0.000
773.751; 4537.900;  120.875;    0.000
773.944; 4430.900;  159.875;    0.000
774.136; 4589.900;  131.875;    0.000
774.329; 4499.900;  141.875;    0.000
774.521; 4522.900;  114.875;    0.000
774.713; 5034.900;  169.875;    0.000
774.906; 4896.900;  151.875;    0.000
775.098; 5248.900;   99.875;    0.000
775.290; 5321.900;  166.875;    0.000
775.483; 5682.900;  146.875;    0.000
775.675; 6072.900;  106.875;    0.000
775.867; 6299.900;   91.875;    0.000
776.059; 6699.900;  137.875;    0.000
776.251; 8002.900;  124.875;    0.000
776.444; 8630.900;  168.875;    0.000
776.636;10157.900;  138.875;    0.000
776.828;13259.900;  155.875;    0.000
777.020;20223.900;  160.875;    0.000
777.212;33366.898;  153.875;    0.000
777.404;39468.898;  135.875;    0.000
777.596;35582.898;  144.875;    0.000
777.788;24049.900;  127.875;    0.000
777.980;16299.900;  141.875;    0.000
778.172;13016.900;  138.875;    0.000
778.364;10521.900;  143.875;    0.000
778.556; 9260.900;  123.875;    0.000
778.748; 8662.900;  103.875;    0.000
778.940; 7665.900;  176.875;    0.000
779.132; 6997.900;  144.875;    0.000
779.324; 6380.900;   75.875;    0.000
779.516; 6317.900;  117.875;    0.000
779.708; 5620.900;  151.875;    0.000
779.900; 5714.900;  127.875;    0.000
780.091; 5228.900;  155.875;    0.000
780.283; 4927.900;  157.875;    0.000
780.475; 4916.900;  140.875;    0.000
780.667; 4907.900;  141.875;    0.000
780.859; 4660.900;  113.875;    0.000
781.050; 4391.900;  153.875;    0.000
781.242; 4307.900;  118.875;    0.000
781.434; 4185.900;  121.875;    0.000
781.625; 4253.900;  146.875;    0.000
781.817; 4131.900;  154.875;    0.000
782.008; 4045.900;  144.875;    0.000
782.200; 3933.900;  152.875;    0.000
782.392; 3896.900;  160.875;    0.000
782.583; 3970.900;  122.875;    0.000
782.775; 3953.900;  144.875;    0.000
782.966; 3840.900;  143.875;    0.000
783.158; 3710.900;  125.875;    0.000
783.349; 3835.900;  173.875;    0.000
783.541; 3576.900;  166.875;    0.000
783.732; 3814.900;  163.875;    0.000
783.924; 3767.900;  157.875;    0.000
784.115; 3616.900;  158.875;    0.000
784.306; 3719.900;  160.875;    0.000
784.498; 3957.900;  132.875;    0.000
784.689; 3704.900;  181.875;    0.000
784.880; 3717.900;  156.875;    0.000
785.072; 3765.900;  134.875;    0.000
785.263; 3569.900;  155.875;    0.000
785.454; 3678.900;  141.875;    0.000
785.645; 3611.900;  114.875;    0.000
785.837; 3664.900;  137.875;    0.000
786.028; 3354.900;  158.875;    0.000
786.219; 3526.900;  135.875;    0.000
786.410; 3518.900;  152.875;    0.000
786.601; 3441.900;  132.875;    0.000
786.792; 3617.900;  152.875;    0.000
786.984; 3498.900;  162.875;    0.000
787.175; 3666.900;   97.875;    0.000
787.366; 3486.900;  129.875;    0.000
787.557; 3384.900;  135.875;    0.000
787.748; 3410.900;  127.875;    0.000
787.939; 3462.900;  152.875;    0.000
788.130; 3382.900;  182.875;    0.000
788.321; 3662.900;  130.875;    0.000
788.512; 3639.900;  161.875;    0.000
788.703; 3460.900;  127.875;    0.000
788.894; 3702.900;  121.875;    0.000
789.084; 3624.900;  134.875;    0.000
789.275; 3518.900;  108.875;    0.000
789.466; 3459.900;  152.875;    0.000
789.657; 3577.900;  115.875;    0.000
789.848; 3620.900;  150.875;    0.000
790.039; 3587.900;  132.875;    0.000
790.229; 3602.900;  169.875;    0.000
790.420; 3707.900;  159.875;    0.000
790.611; 3460.900;  123.875;    0.000
790.801; 3641.900;  144.875;    0.000
790.992; 3501.900;  177.875;    0.000
791.183; 3390.900;  128.875;    0.000
791.373; 3445.900;  123.875;    0.000
791.564; 3305.900;  131.875;    0.000
791.755; 3524.900;  103.875;    0.000
791.945; 3686.900;  104.875;    0.000
792.136; 3498.900;  115.875;    0.000
792.326; 3636.900;   99.875;    0.000
792.517; 3594.900;  139.875;    0.000
792.707; 3607.900;  155.875;    0.000
792.898; 3580.900;  139.875;    0.000
793.088; 3814.900;  153.875;    0.000
793.279; 3517.900;  137.875;    0.000
793.469; 3860.900;  109.875;    0.000
793.660; 3679.900;  119.875;    0.000
793.850; 3907.900;  119.875;    0.000
794.040; 4020.900;  132.875;    0.000
794.231; 4290.900;  122.875;    0.000
794.421; 4677.900;  124.875;    0.000
794.611; 5305.900;  151.875;    0.000
794.802; 6525.900;  121.875;    0.000
794.992; 7317.900;  139.875;    0.000
795.182; 7192.900;  132.875;    0.000
795.372; 6168.900;  149.875;    0.000
795.563; 5638.900;  153.875;    0.000
795.753; 5074.900;  120.875;    0.000
795.943; 4720.900;  121.875;    0.000
796.133; 4281.900;   97.875;    0.000
796.323; 4325.900;  122.875;    0.000
796.513; 3854.900;  142.875;    0.000
796.703; 4050.900;  125.875;    0.000
796.893; 3767.900;  126.875;    0.000
797.083; 3690.900;  150.875;    0.000
797.273; 3846.900;  108.875;    0.000
797.463; 3788.900;  156.875;    0.000
797.653; 3574.900;   80.875;    0.000
797.843; 3543.900;   88.875;    0.000
798.033; 3396.900;   96.875;    0.000
798.223; 3454.900;  159.875;    0.000
798.413; 3595.900;  155.875;    0.000
798.603; 3412.900;  125.875;    0.000
798.793; 3275.900;  141.875;    0.000
798.983; 3125.900;  113.875;    0.000
799.172; 3382.900;   85.875;    0.000
799.362; 3095.900;  141.875;    0.000
799.552; 3267.900;  122.875;    0.000
799.742; 3217.900;  124.875;    0.000
799.932; 3208.900;  102.875;    0.000
800.121; 3246.900;  146.875;    0.000
800.311; 3045.900;  122.875;    0.000
800.501; 3061.900;  120.875;    0.000
800.690; 3232.900;  141.875;    0.000
800.880; 3297.900;  146.875;    0.000
801.070; 3044.900;  122.875;    0.000
801.259; 3078.900;  138.875;    0.000
801.449; 3210.900;  115.875;    0.000
801.638; 3325.900;  132.875;    0.000
801.828; 2910.900;   92.875;    0.000
802.017; 3243.900;  150.875;    0.000
802.207; 3298.900;  134.875;    0.000
802.396; 3166.900;  133.875;    0.000
802.586; 3222.900;  117.875;    0.000
802.775; 3018.900;  155.875;    0.000
802.965; 3279.900;  132.875;    0.000
803.154; 3096.900;  176.875;    0.000
803.343; 2964.900;  106.875;    0.000
803.533; 3202.900;  154.875;    0.000
803.722; 3076.900;   97.875;    0.000
803.911; 3141.900;  107.875;    0.000
804.101; 3137.900;  145.875;    0.000
804.290; 3199.900;  130.875;    0.000
804.479; 3122.900;  152.875;    0.000
804.668; 3231.900;  160.875;    0.000
804.857; 2876.900;  161.875;    0.000
805.047; 2938.900;  126.875;    0.000
805.236; 3295.900;  136.875;    0.000
805.425; 3212.900;  153.875;    0.000
805.614; 3181.900;  139.875;    0.000
805.803; 3055.900;  144.875;    0.000
805.992; 3114.900;  160.875;    0.000
806.181; 3235.900;  139.875;    0.000
806.370; 3173.900;  104.875;    0.000
806.559; 3122.900;  103.875;    0.000
806.748; 3067.900;  145.875;    0.000
806.937; 3202.900;  151.875;    0.000
807.126; 3295.900;  119.875;    0.000
807.315; 3188.900;  139.875;    0.000
807.504; 3068.900;  143.875;    0.000
807.693; 3275.900;  164.875;    0.000
807.882; 3242.900;  135.875;    0.000
808.071; 3203.900;  131.875;    0.000
808.260; 3113.900;  113.875;    0.000
808.448; 3293.900;  161.875;    0.000
808.637; 3429.900;  125.875;    0.000
808.826; 3304.900;  155.875;    0.000
809.015; 3289.900;  113.875;    0.000
809.203; 3454.900;  152.875;    0.000
809.392; 3578.900;   90.875;    0.000
809.581; 3406.900;  186.875;    0.000
809.770; 3401.900;   99.875;    0.000
809.958; 3502.900;  146.875;    0.000
810.147; 3328.900;  115.875;    0.000
810.335; 3448.900;  122.875;    0.000
810.524; 3588.900;  150.875;    0.000
810.713; 3674.900;  121.875;    0.000
810.901; 3546.900;  156.875;    0.000
811.090; 3825.900;  161.875;    0.000
811.278; 3663.900;  138.875;    0.000
811.467; 3861.900;  184.875;    0.000
811.655; 3944.900;  150.875;    0.000
811.844; 3826.900;  137.875;    0.000
812.032; 3968.900;  142.875;    0.000
812.220; 3849.900;  134.875;    0.000
812.409; 3976.900;  143.875;    0.000
812.597; 3897.900;  164.875;    0.000
812.785; 4012.900;  188.875;    0.000
812.974; 4023.900;  156.875;    0.000
813.162; 3986.900;  166.875;    0.000
813.350; 4073.900;  115.875;    0.000
813.539; 4244.900;  167.875;    0.000
813.727; 3981.900;  165.875;    0.000
813.915; 4185.900;  137.875;    0.000
814.103; 4206.900;  166.875;    0.000
814.291; 4520.900;  151.875;    0.000
814.479; 4411.900;  147.875;    0.000
814.668; 4332.900;  166.875;    0.000
814.856; 4488.900;  160.875;    0.000
815.044; 4544.900;  172.875;    0.000
815.232; 4695.900;  193.875;    0.000
815.420; 5003.900;  173.875;    0.000
815.608; 5133.900;  134.875;    0.000
815.796; 5079.900;  105.875;    0.000
815.984; 5091.900;  125.875;    0.000
816.172; 5443.900;  160.875;    0.000
816.360; 6027.900;  162.875;    0.000
816.548; 5896.900;  160.875;    0.000
816.736; 6463.900;  132.875;    0.000
816.924; 7071.900;  184.875;    0.000
817.111; 7573.900;  145.875;    0.000
817.299; 8001.900;  132.875;    0.000
817.487; 8879.900;  193.875;    0.000
817.675;10317.900;  153.875;    0.000
817.863;12693.900;  153.875;    0.000
818.050;18638.900;  172.875;    0.000
818.238;36820.898;  131.875;    0.000
818.426;57403.898;  160.875;    0.000
818.613;41724.898;  136.875;    0.000
818.801;30596.900;  162.875;    0.000
818.989;28362.900;  153.875;    0.000
819.176;29953.900;  181.875;    0.000
819.364;46133.898;  165.875;    0.000
819.552;65234.898;  111.875;    0.000
819.739;54967.898;  192.875;    0.000
819.927;37238.898;  146.875;    0.000
820.114;29006.900;  154.875;    0.000
820.302;23596.900;  144.875;    0.000
820.489;19722.900;  133.875;    0.000
820.677;17665.900;  135.875;    0.000
820.864;16410.900;  130.875;    0.000
821.052;15038.900;   88.875;    0.000
821.239;14659.900;  143.875;    0.000
821.426;14436.900;  186.875;    0.000
821.614;16690.900;  171.875;    0.000
821.801;17650.900;   90.875;    0.000
821.988;14966.900;  143.875;    0.000
822.176;13871.900;   95.875;    0.000
822.363;13991.900;  148.875;    0.000
822.550;12848.900;  139.875;    0.000
822.737;11348.900;  122.875;    0.000
822.924; 9930.900;  171.875;    0.000
823.112; 9691.900;  147.875;    0.000
823.299; 8927.900;  111.875;    0.000
823.486; 8315.900;  161.875;    0.000
823.673; 8017.900;  124.875;    0.000
823.860; 7468.900;  151.875;    0.000
824.047; 7477.900;  145.875;    0.000
824.234; 8909.900;  139.875;    0.000
824.421; 9069.900;  110.875;    0.000
824.608; 7874.900;  145.875;    0.000
824.795; 6789.900;  115.875;    0.000
824.982; 6376.900;  148.875;    0.000
825.169; 5934.900;  135.875;    0.000
825.356; 5520.900;  122.875;    0.000
825.543; 5400.900;  142.875;    0.000
825.730; 5230.900;   89.875;    0.000
825.917; 5035.900;  127.875;    0.000
826.104; 4628.900;  187.875;    0.000
826.290; 4915.900;  138.875;    0.000
826.477; 4399.900;  140.875;    0.000
826.664; 4260.900;  106.875;    0.000
826.851; 4193.900;  155.875;    0.000
827.038; 4323.900;  125.875;    0.000
827.224; 4165.900;  126.875;    0.000
827.411; 4057.900;  163.875;    0.000
827.598; 3931.900;  140.875;    0.000
827.784; 3904.900;  117.875;    0.000
827.971; 3833.900;  114.875;    0.000
828.157; 3700.900;  146.875;    0.000
828.344; 3726.900;  161.875;    0.000
828.531; 3595.900;  155.875;    0.000
828.717; 3573.900;  130.875;    0.000
828.904; 3398.900;  138.875;    0.000
829.090; 3427.900;  176.875;    0.000
829.277; 3722.900;  152.875;    0.000
829.463; 3243.900;  139.875;    0.000
829.650; 3274.900;  168.875;    0.000
829.836; 3258.900;  176.875;    0.000
830.022; 3269.900;  159.875;    0.000
830.209; 3318.900;  135.875;    0.000
830.395; 3219.900;  177.875;    0.000
830.581; 3282.900;  125.875;    0.000
830.768; 3038.900;  155.875;    0.000
830.954; 3020.900;  187.875;    0.000
831.140; 3098.900;  135.875;    0.000
831.327; 3047.900;  158.875;    0.000
831.513; 2986.900;  126.875;    0.000
831.699; 3002.900;  167.875;    0.000
831.885; 2839.900;  165.875;    0.000
832.071; 3058.900;  167.875;    0.000
832.257; 2785.900;  144.875;    0.000
832.444; 2796.900;  158.875;    0.000
832.630; 2856.900;  167.875;    0.000
832.816; 2847.900;  150.875;    0.000
833.002; 2682.900;  157.875;    0.000
833.188; 2782.900;  169.875;    0.000
833.374; 2661.900;  144.875;    0.000
833.560; 2743.900;  179.875;    0.000
833.746; 2671.900;  134.875;    0.000
833.932; 2726.900;  150.875;    0.000
834.118; 2620.900;   98.875;    0.000
834.303; 2550.900;  121.875;    0.000
834.489; 2659.900;  179.875;    0.000
834.675; 2573.900;  136.875;    0.000
834.861; 2594.900;  130.875;    0.000
835.047; 2689.900;  132.875;    0.000
835.233; 2502.900;  104.875;    0.000
835.418; 2767.900;  143.875;    0.000
835.604; 2528.900;  127.875;    0.000
835.790; 2502.900;  138.875;    0.000
835.976; 2382.900;  137.875;    0.000
836.161; 2722.900;  155.875;    0.000
836.347; 2509.900;  101.875;    0.000
836.533; 2409.900;  121.875;    0.000
836.718; 2492.900;  150.875;    0.000
836.904; 2468.900;  168.875;    0.000
837.089; 2604.900;  169.875;    0.000
837.275; 2464.900;  172.875;    0.000
837.460; 2432.900;  140.875;    0.000
837.646; 2499.900;  144.875;    0.000
837.831; 2483.900;  137.875;    0.000
838.017; 2441.900;  176.875;    0.000
838.202; 2481.900;  107.875;    0.000
838.388; 2463.900;  181.875;    0.000
838.573; 2447.900;  151.875;    0.000
838.759; 2327.900;  160.875;    0.000
838.944; 2534.900;  121.875;    0.000
839.129; 2436.900;  145.875;    0.000
839.315; 2445.900;  166.875;    0.000
839.500; 2423.900;  143.875;    0.000
839.685; 2439.900;   93.875;    0.000
839.870; 2466.900;  160.875;    0.000
840.056; 2559.900;  132.875;    0.000
840.241; 2500.900;  154.875;    0.000
840.426; 2377.900;  161.875;    0.000
840.611; 2569.900;  186.875;    0.000
840.796; 2456.900;  135.875;    0.000
840.981; 2511.900;  147.875;    0.000
841.166; 2699.900;  138.875;    0.000
841.352; 2578.900;  156.875;    0.000
841.537; 2594.900;  170.875;    0.000
841.722; 2561.900;  143.875;    0.000
841.907; 2709.900;  143.875;    0.000
842.092; 2619.900;  166.875;    0.000
842.277; 2716.900;  113.875;    0.000
842.461; 2738.900;  126.875;    0.000
842.646; 2936.900;  145.875;    0.000
842.831; 2884.900;  193.875;    0.000
843.016; 2919.900;  162.875;    0.000
843.201; 2993.900;  144.875;    0.000
843.386; 3196.900;  160.875;    0.000
843.571; 3283.900;  136.875;    0.000
843.755; 3529.900;  134.875;    0.000
843.940; 3837.900;  136.875;    0.000
844.125; 4326.900;  169.875;    0.000
844.310; 5205.900;  189.875;    0.000
844.494; 7557.900;  167.875;    0.000
844.679;11900.900;  184.875;    0.000
844.864;12170.900;  147.875;    0.000
845.048; 8316.900;  140.875;    0.000
845.233; 6912.900;  178.875;    0.000
845.418; 5512.900;  145.875;    0.000
845.602; 4855.900;  147.875;    0.000
845.787; 4168.900;  147.875;    0.000
845.971; 4045.900;  165.875;    0.000
846.156; 3563.900;  106.875;    0.000
846.340; 3335.900;  168.875;    0.000
846.525; 3257.900;  155.875;    0.000
846.709; 3025.900;  157.875;    0.000
846.893; 3094.900;  166.875;    0.000
847.078; 2847.900;  138.875;    0.000
847.262; 2807.900;  171.875;    0.000
847.447; 2682.900;  135.875;    0.000
847.631; 2730.900;  136.875;    0.000
847.815; 2614.900;  136.875;    0.000
848.000; 2563.900;  126.875;    0.000
848.184; 2575.900;  131.875;    0.000
848.368; 2446.900;  153.875;    0.000
848.552; 2350.900;  137.875;    0.000
848.736; 2404.900;  151.875;    0.000
848.921; 2377.900;  156.875;    0.000
849.105; 2139.900;  153.875;    0.000
849.289; 2330.900;  180.875;    0.000
849.473; 2232.900;  156.875;    0.000
849.657; 2209.900;  157.875;    0.000
849.841; 2374.900;  147.875;    0.000
850.025; 2291.900;  194.875;    0.000
850.209; 2070.900;  147.875;    0.000
850.393; 2133.900;  141.875;    0.000
850.577; 2178.900;  156.875;    0.000
850.761; 2080.900;  157.875;    0.000
850.945; 2127.900;  128.875;    0.000
851.129; 2132.900;  151.875;    0.000
851.313; 2164.900;  180.875;    0.000
851.497; 2126.900;  123.875;    0.000
851.680; 2031.900;  188.875;    0.000
851.864; 2107.900;  177.875;    0.000
852.048; 2151.900;  163.875;    0.000
852.232; 2183.900;  149.875;    0.000
852.416; 2146.900;  187.875;    0.000
852.599; 2063.900;  169.875;    0.000
852.783; 2073.900;  154.875;    0.000
852.967; 2065.900;  191.875;    0.000
853.150; 2131.900;  170.875;    0.000
853.334; 2072.900;  173.875;    0.000
853.518; 2099.900;  186.875;    0.000
853.701; 2008.900;  142.875;    0.000
853.885; 2042.900;  153.875;    0.000
854.068; 2189.900;  132.875;    0.000
854.252; 2745.900;  184.875;    0.000
854.435; 2553.900;  152.875;    0.000
854.619; 2207.900;  152.875;    0.000
854.802; 2044.900;  164.875;    0.000
854.986; 2104.900;  151.875;    0.000
855.169; 2048.900;  153.875;    0.000
855.353; 2098.900;  183.875;    0.000
855.536; 2099.900;  113.875;    0.000
855.719; 2213.900;  181.875;    0.000
855.903; 2193.900;  159.875;    0.000
856.086; 2047.900;  142.875;    0.000
856.269; 2062.900;  171.875;    0.000
856.452; 2151.900;  132.875;    0.000
856.636; 2370.900;  140.875;    0.000
856.819; 2412.900;  165.875;    0.000
857.002; 2669.900;  170.875;    0.000
857.185; 2518.900;  173.875;    0.000
857.368; 2431.900;  129.875;    0.000
857.552; 2380.900;  151.875;    0.000
857.735; 2393.900;  146.875;    0.000
857.918; 2292.900;  114.875;    0.000
858.101; 2260.900;  152.875;    0.000
858.284; 2219.900;  164.875;    0.000
858.467; 2249.900;  147.875;    0.000
858.650; 2284.900;  146.875;    0.000
858.833; 2431.900;  118.875;    0.000
859.016; 2463.900;  161.875;    0.000
859.199; 2585.900;  135.875;    0.000
859.382; 2884.900;  157.875;    0.000
859.564; 3281.900;  124.875;    0.000
859.747; 3107.900;  154.875;    0.000
859.930; 2865.900;  138.875;    0.000
860.113; 2706.900;  153.875;    0.000
860.296; 2953.900;  180.875;    0.000
860.478; 2484.900;  145.875;    0.000
860.661; 2475.900;  160.875;    0.000
860.844; 2456.900;   96.875;    0.000
861.027; 2464.900;  128.875;    0.000
861.209; 2366.900;  127.875;    0.000
861.392; 2409.900;  126.875;    0.000
861.575; 2503.900;  155.875;    0.000
861.757; 2425.900;  141.875;    0.000
861.940; 2565.900;  181.875;    0.000
862.122; 2674.900;  145.875;    0.000
862.305; 2688.900;  124.875;    0.000
862.487; 2871.900;  151.875;    0.000
862.670; 2846.900;  132.875;    0.000
862.852; 3810.900;  112.875;    0.000
863.035; 5020.900;  116.875;    0.000
863.217; 4959.900;  131.875;    0.000
863.400; 4037.900;  145.875;    0.000
863.582; 3608.900;  147.875;    0.000
863.764; 3336.900;  163.875;    0.000
863.947; 3503.900;  129.875;    0.000
864.129; 3021.900;  159.875;    0.000
864.311; 2920.900;  144.875;    0.000
864.493; 3071.900;  141.875;    0.000
864.676; 2911.900;  159.875;    0.000
864.858; 2835.900;  146.875;    0.000
865.040; 2762.900;  163.875;    0.000
865.222; 2831.900;  133.875;    0.000
865.404; 3055.900;  148.875;    0.000
865.587; 3085.900;  177.875;    0.000
865.769; 3377.900;  172.875;    0.000
865.951; 3234.900;  145.875;    0.000
866.133; 3183.900;  168.875;    0.000
866.315; 3279.900;  147.875;    0.000
866.497; 3232.900;  164.875;    0.000
866.679; 3230.900;  143.875;    0.000
866.861; 3384.900;  170.875;    0.000
867.043; 3501.900;  185.875;    0.000
867.225; 3719.900;  149.875;    0.000
867.407; 4141.900;  143.875;    0.000
867.589; 4578.900;  169.875;    0.000
867.770; 5665.900;  166.875;    0.000
867.952; 8440.900;  158.875;    0.000
868.134;12631.900;  170.875;    0.000
868.316;12522.900;  157.875;    0.000
868.498;11742.900;  186.875;    0.000
868.679; 9860.900;  158.875;    0.000
868.861; 7913.900;  180.875;    0.000
869.043; 6143.900;  164.875;    0.000
869.224; 5310.900;  156.875;    0.000
869.406; 4658.900;  176.875;    0.000
869.588; 4461.900;  152.875;    0.000
869.769; 4100.900;  131.875;    0.000
869.951; 4095.900;  203.875;    0.000
870.132; 3992.900;  143.875;    0.000
870.314; 4836.900;  129.875;    0.000
870.495; 5100.900;  175.875;    0.000
870.677; 4351.900;  165.875;    0.000
870.858; 4081.900;  151.875;    0.000
871.040; 4411.900;  155.875;    0.000
871.221; 5431.900;  144.875;    0.000
871.403; 5315.900;  131.875;    0.000
871.584; 4481.900;  174.875;    0.000
871.765; 4296.900;  169.875;    0.000
871.947; 4887.900;  187.875;    0.000
872.128; 4439.900;  181.875;    0.000
872.309; 3821.900;  129.875;    0.000
872.491; 3276.900;  142.875;    0.000
872.672; 2881.900;  158.875;    0.000
872.853; 3045.900;  179.875;    0.000
873.034; 2923.900;  164.875;    0.000
873.215; 2800.900;  168.875;    0.000
873.396; 2593.900;  114.875;    0.000
873.578; 2460.900;  126.875;    0.000
873.759; 2368.900;  177.875;    0.000
873.940; 2243.900;  169.875;    0.000
874.121; 2203.900;  133.875;    0.000
874.302; 2262.900;  164.875;    0.000
874.483; 2013.900;  162.875;    0.000
874.664; 2093.900;  140.875;    0.000
874.845; 2291.900;  124.875;    0.000
875.026; 2197.900;  146.875;    0.000
875.207; 2058.900;  147.875;    0.000
875.388; 2048.900;  174.875;    0.000
875.568; 1956.900;  179.875;    0.000
875.749; 1945.900;  155.875;    0.000
875.930; 2006.900;  166.875;    0.000
876.111; 2060.900;  153.875;    0.000
876.292; 1807.900;  146.875;    0.000
876.472; 1869.900;  167.875;    0.000
876.653; 1780.900;  145.875;    0.000
876.834; 1770.900;  172.875;    0.000
877.015; 1861.900;  184.875;    0.000
877.195; 1779.900;  160.875;    0.000
877.376; 1718.900;  163.875;    0.000
877.556; 1773.900;  164.875;    0.000
877.737; 1782.900;  179.875;    0.000
877.918; 1696.900;  137.875;    0.000
878.098; 1677.900;  117.875;    0.000
878.279; 1776.900;  135.875;    0.000
878.459; 1652.900;  149.875;    0.000
878.640; 1836.900;  171.875;    0.000
878.820; 1543.900;  142.875;    0.000
879.000; 1790.900;  166.875;    0.000
879.181; 1629.900;  177.875;    0.000
879.361; 1677.900;  176.875;    0.000
879.542; 1659.900;  159.875;    0.000
879.722; 1649.900;  122.875;    0.000
879.902; 1744.900;  166.875;    0.000
880.083; 1654.900;  164.875;    0.000
880.263; 1632.900;  139.875;    0.000
880.443; 1817.900;  179.875;    0.000
880.623; 2134.900;  154.875;    0.000
880.803; 2399.900;  160.875;    0.000
880.984; 2098.900;  181.875;    0.000
881.164; 1909.900;  167.875;    0.000
881.344; 1842.900;  141.875;    0.000
881.524; 1850.900;  190.875;    0.000
881.704; 1835.900;  165.875;    0.000
881.884; 1920.900;  144.875;    0.000
882.064; 2170.900;  135.875;    0.000
882.244; 2196.900;  186.875;    0.000
882.424; 2094.900;  150.875;    0.000
882.604; 1843.900;  168.875;    0.000
882.784; 1813.900;  155.875;    0.000
882.964; 1760.900;  137.875;    0.000
883.144; 1679.900;  136.875;    0.000
883.324; 1672.900;  200.875;    0.000
883.504; 1683.900;  203.875;    0.000
883.683; 1626.900;  149.875;    0.000
883.863; 1591.900;  160.875;    0.000
884.043; 1583.900;  161.875;    0.000
884.223; 1579.900;  147.875;    0.000
884.402; 1523.900;  175.875;    0.000
884.582; 1594.900;  188.875;    0.000
884.762; 1549.900;  173.875;    0.000
884.941; 1581.900;  164.875;    0.000
885.121; 1645.900;  147.875;    0.000
885.301; 1495.900;  135.875;    0.000
885.480; 1582.900;  145.875;    0.000
885.660; 1548.900;  144.875;    0.000
885.839; 1652.900;  155.875;    0.000
886.019; 1646.900;  207.875;    0.000
886.198; 1525.900;  165.875;    0.000
886.378; 1592.900;  120.875;    0.000
886.557; 1507.900;  133.875;    0.000
886.737; 1443.900;  119.875;    0.000
886.916; 1620.900;  129.875;    0.000
887.095; 1438.900;  158.875;    0.000
887.275; 1551.900;  169.875;    0.000
887.454; 1485.900;  184.875;    0.000
887.633; 1499.900;  143.875;    0.000
887.813; 1437.900;  154.875;    0.000
887.992; 1418.900;  188.875;    0.000
888.171; 1547.900;  176.875;    0.000
888.350; 1510.900;  161.875;    0.000
888.530; 1499.900;  163.875;    0.000
888.709; 1488.900;  136.875;    0.000
888.888; 1476.900;  177.875;    0.000
889.067; 1417.900;  169.875;    0.000
889.246; 1520.900;  188.875;    0.000
889.425; 1537.900;  187.875;    0.000
889.604; 1571.900;  169.875;    0.000
889.783; 1461.900;  182.875;    0.000
889.962; 1406.900;  112.875;    0.000
890.141; 1407.900;  231.875;    0.000
890.320; 1454.900;  161.875;    0.000
890.499; 1507.900;  164.875;    0.000
890.678; 1372.900;  176.875;    0.000
890.857; 1490.900;  163.875;    0.000
891.036; 1535.900;  161.875;    0.000
891.214; 1462.900;  156.875;    0.000
891.393; 1415.900;  167.875;    0.000
891.572; 1487.900;  163.875;    0.000
891.751; 1516.900;  205.875;    0.000
891.930; 1513.900;  162.875;    0.000
892.108; 1438.900;  153.875;    0.000
892.287; 1413.900;  153.875;    0.000
892.466; 1391.900;  201.875;    0.000
892.644; 1493.900;  158.875;    0.000
892.823; 1384.900;  122.875;    0.000
893.001; 1420.900;  148.875;    0.000
893.180; 1442.900;  142.875;    0.000
893.359; 1439.900;  192.875;    0.000
893.537; 1464.900;  166.875;    0.000
893.716; 1539.900;  144.875;    0.000
893.894; 1457.900;  145.875;    0.000
894.073; 1398.900;  180.875;    0.000
894.251; 1449.900;  165.875;    0.000
894.429; 1335.900;  182.875;    0.000
894.608; 1513.900;  181.875;    0.000
894.786; 1494.900;  180.875;    0.000
894.964; 1370.900;  207.875;    0.000
895.143; 1380.900;  190.875;    0.000
895.321; 1355.900;  206.875;    0.000
895.499; 1490.900;  164.875;    0.000
895.677; 1432.900;  199.875;    0.000
895.856; 1452.900;  203.875;    0.000
896.034; 1451.900;  200.875;    0.000
896.212; 1443.900;  198.875;    0.000
896.390; 1440.900;  161.875;    0.000
896.568; 1385.900;  205.875;    0.000
896.746; 1427.900;  185.875;    0.000
896.924; 1481.900;  179.875;    0.000
897.102; 1561.900;  190.875;    0.000
897.280; 1457.900;  160.875;    0.000
897.458; 1474.900;  196.875;    0.000
897.636; 1439.900;  168.875;    0.000
897.814; 1456.900;  159.875;    0.000
897.992; 1516.900;  216.875;    0.000
898.170; 1448.900;  195.875;    0.000
898.348; 1444.900;  185.875;    0.000
898.526; 1549.900;  199.875;    0.000
898.704; 1561.900;  215.875;    0.000
898.882; 1455.900;  195.875;    0.000
899.059; 1523.900;  197.875;    0.000
899.237; 1435.900;  168.875;    0.000
899.415; 1638.900;  221.875;    0.000
899.593; 1450.900;  171.875;    0.000
899.770; 1525.900;  191.875;    0.000
899.948; 1543.900;  206.875;    0.000
900.125; 1437.900;  175.875;    0.000
900.303; 1478.900;  176.875;    0.000
900.481; 1544.900;  199.875;    0.000
900.658; 1606.900;  217.875;    0.000
900.836; 1619.900;  192.875;    0.000
901.013; 1522.900;  221.875;    0.000
901.191; 1612.900;  203.875;    0.000
901.368; 1553.900;  189.875;    0.000
901.546; 1724.900;  212.875;    0.000
901.723; 1647.900;  189.875;    0.000
901.901; 1668.900;  198.875;    0.000
902.078; 1693.900;  193.875;    0.000
902.255; 1850.900;  176.875;    0.000
902.433; 1783.900;  201.875;    0.000
902.610; 1735.900;  170.875;    0.000
902.787; 1833.900;  164.875;    0.000
902.964; 1792.900;  216.875;    0.000
903.142; 1904.900;  153.875;    0.000
903.319; 2027.900;  204.875;    0.000
903.496; 1963.900;  188.875;    0.000
903.673; 1988.900;  209.875;    0.000
903.850; 1975.900;  173.875;    0.000
904.027; 2109.900;  186.875;    0.000
904.204; 2133.900;  241.875;    0.000
904.381; 2405.900;  187.875;    0.000
904.558; 3033.900;  196.875;    0.000
904.735; 3603.900;  206.875;    0.000
904.912; 3216.900;  228.875;    0.000
905.089; 3416.900;  172.875;    0.000
905.266; 3236.900;  175.875;    0.000
905.443; 2912.900;  239.875;    0.000
905.620; 2489.900;  176.875;    0.000
905.797; 2319.900;  205.875;    0.000
905.974; 2303.900;  187.875;    0.000
906.151; 2279.900;  135.875;    0.000
906.327; 2413.900;  209.875;    0.000
906.504; 2340.900;  145.875;    0.000
906.681; 2369.900;  178.875;    0.000
906.858; 2229.900;  179.875;    0.000
907.034; 2085.900;  221.875;    0.000
907.211; 1980.900;  166.875;    0.000
907.388; 1945.900;  206.875;    0.000
907.564; 1942.900;  150.875;    0.000
907.741; 1814.900;  187.875;    0.000
907.917; 1976.900;  180.875;    0.000
908.094; 1835.900;  206.875;    0.000
908.271; 1768.900;  184.875;    0.000
908.447; 1862.900;  212.875;    0.000
908.623; 1692.900;  193.875;    0.000
908.800; 1751.900;  185.875;    0.000
908.976; 1835.900;  202.875;    0.000
909.153; 1661.900;  175.875;    0.000
909.329; 1746.900;  193.875;    0.000
909.505; 1691.900;  154.875;    0.000
909.682; 1885.900;  188.875;    0.000
909.858; 1721.900;  162.875;    0.000
910.034; 1684.900;  181.875;    0.000
910.211; 1580.900;  142.875;    0.000
910.387; 1701.900;  200.875;    0.000
910.563; 1696.900;  163.875;    0.000
910.739; 1614.900;  156.875;    0.000
910.915; 1603.900;  202.875;    0.000
911.091; 1619.900;  186.875;    0.000
911.268; 1610.900;  167.875;    0.000
911.444; 1545.900;  193.875;    0.000
911.620; 1480.900;  175.875;    0.000
911.796; 1675.900;  168.875;    0.000
911.972; 1519.900;  154.875;    0.000
912.148; 1576.900;  201.875;    0.000
912.324; 1588.900;  146.875;    0.000
912.500; 1613.900;  185.875;    0.000
912.676; 1589.900;  183.875;    0.000
912.851; 1535.900;  204.875;    0.000
913.027; 1447.900;  196.875;    0.000
913.203; 1551.900;  174.875;    0.000
913.379; 1454.900;  210.875;    0.000
913.555; 1590.900;  197.875;    0.000
913.730; 1613.900;  209.875;    0.000
913.906; 1469.900;  169.875;    0.000
914.082; 1539.900;  236.875;    0.000
914.258; 1570.900;  216.875;    0.000
914.433; 1518.900;  212.875;    0.000
914.609; 1536.900;  180.875;    0.000
914.784; 1428.900;  176.875;    0.000
914.960; 1461.900;  227.875;    0.000
915.136; 1486.900;  149.875;    0.000
915.311; 1596.900;  165.875;    0.000
915.487; 1505.900;  167.875;    0.000
915.662; 1559.900;  225.875;    0.000
915.838; 1660.900;  165.875;    0.000
916.013; 1562.900;  188.875;    0.000
916.189; 1513.900;  200.875;    0.000
916.364; 1528.900;  201.875;    0.000
916.539; 1591.900;  240.875;    0.000
916.715; 1605.900;  180.875;    0.000
916.890; 1612.900;  191.875;    0.000
917.065; 1596.900;  211.875;    0.000
917.240; 1495.900;  212.875;    0.000
917.416; 1563.900;  207.875;    0.000
917.591; 1488.900;  189.875;    0.000
917.766; 1513.900;  205.875;    0.000
917.941; 1595.900;  191.875;    0.000
918.116; 1589.900;  195.875;    0.000
918.292; 1529.900;  183.875;    0.000
918.467; 1661.900;  206.875;    0.000
918.642; 1604.900;  190.875;    0.000
918.817; 1605.900;  193.875;    0.000
918.992; 1428.900;  171.875;    0.000
919.167; 1486.900;  191.875;    0.000
919.342; 1554.900;  202.875;    0.000
919.517; 1619.900;  182.875;    0.000
919.692; 1578.900;  190.875;    0.000
919.867; 1617.900;  221.875;    0.000
920.041; 1652.900;  195.875;    0.000
920.216; 1650.900;  226.875;    0.000
920.391; 1747.900;  230.875;    0.000
920.566; 1718.900;  210.875;    0.000
920.741; 1794.900;  204.875;    0.000
920.915; 1769.900;  213.875;    0.000
921.090; 2076.900;  194.875;    0.000
921.265; 2661.900;  234.875;    0.000
921.439; 3422.900;  228.875;    0.000
921.614; 2664.900;  199.875;    0.000
921.789; 2298.900;  194.875;    0.000
921.963; 2067.900;  236.875;    0.000
922.138; 1994.900;  192.875;    0.000
922.312; 2020.900;  203.875;    0.000
922.487; 1943.900;  207.875;    0.000
922.661; 2138.900;  216.875;    0.000
922.836; 2635.900;  199.875;    0.000
923.010; 2732.900;  179.875;    0.000
923.185; 2457.900;  241.875;    0.000
923.359; 2165.900;  199.875;    0.000
923.534; 2166.900;  227.875;    0.000
923.708; 2293.900;  213.875;    0.000
923.882; 2505.900;  203.875;    0.000
924.057; 2430.900;  194.875;    0.000
924.231; 2148.900;  185.875;    0.000
924.405; 2068.900;  223.875;    0.000
924.579; 1990.900;  196.875;    0.000
924.753; 2040.900;  209.875;    0.000
924.928; 1920.900;  202.875;    0.000
925.102; 2065.900;  184.875;    0.000
925.276; 1925.900;  191.875;    0.000
925.450; 2050.900;  199.875;    0.000
925.624; 2045.900;  190.875;    0.000
925.798; 2195.900;  214.875;    0.000
925.972; 2376.900;  193.875;    0.000
926.146; 2548.900;  191.875;    0.000
926.320; 2946.900;  177.875;    0.000
926.494; 3254.900;  190.875;    0.000
926.668; 3389.900;  182.875;    0.000
926.842; 3501.900;  182.875;    0.000
927.016; 3541.900;  235.875;    0.000
927.190; 3440.900;  234.875;    0.000
927.363; 3324.900;  214.875;    0.000
927.537; 2946.900;  198.875;    0.000
927.711; 2782.900;  154.875;    0.000
927.885; 2858.900;  167.875;    0.000
928.058; 2603.900;  210.875;    0.000
928.232; 2567.900;  206.875;    0.000
928.406; 2462.900;  176.875;    0.000
928.579; 2438.900;  182.875;    0.000
928.753; 2482.900;  179.875;    0.000
928.927; 2369.900;  186.875;    0.000
929.100; 2235.900;  188.875;    0.000
929.274; 2088.900;  167.875;    0.000
929.447; 2134.900;  152.875;    0.000
929.621; 2052.900;  195.875;    0.000
929.794; 2116.900;  200.875;    0.000
929.968; 2027.900;  203.875;    0.000
930.141; 2003.900;  237.875;    0.000
930.315; 1952.900;  165.875;    0.000
930.488; 1887.900;  175.875;    0.000
930.661; 1869.900;  173.875;    0.000
930.835; 1833.900;  171.875;    0.000
931.008; 1887.900;  210.875;    0.000
931.181; 1839.900;  206.875;    0.000
931.354; 1749.900;  195.875;    0.000
931.528; 1760.900;  178.875;    0.000
931.701; 1676.900;  179.875;    0.000
931.874; 1683.900;  150.875;    0.000
932.047; 1651.900;  154.875;    0.000
932.220; 1638.900;  185.875;    0.000
932.393; 1615.900;  166.875;    0.000
932.566; 1691.900;  171.875;    0.000
932.739; 1637.900;  196.875;    0.000
932.912; 1683.900;  212.875;    0.000
933.085; 1552.900;  234.875;    0.000
933.258; 1653.900;  212.875;    0.000
933.431; 1437.900;  181.875;    0.000
933.604; 1602.900;  201.875;    0.000
933.777; 1567.900;  201.875;    0.000
933.950; 1529.900;  176.875;    0.000
934.123; 1502.900;  175.875;    0.000
934.296; 1526.900;  174.875;    0.000
934.468; 1572.900;  186.875;    0.000
934.641; 1483.900;  192.875;    0.000
934.814; 1506.900;  187.875;    0.000
934.987; 1448.900;  165.875;    0.000
935.159; 1518.900;  162.875;    0.000
935.332; 1525.900;  210.875;    0.000
935.505; 1537.900;  191.875;    0.000
935.677; 1468.900;  159.875;    0.000
935.850; 1549.900;  170.875;    0.000
936.022; 1536.900;  172.875;    0.000
936.195; 1522.900;  202.875;    0.000
936.367; 1494.900;  179.875;    0.000
936.540; 1581.900;  207.875;    0.000
936.712; 1598.900;  200.875;    0.000
936.885; 1537.900;  219.875;    0.000
937.057; 1570.900;  150.875;    0.000
937.229; 1652.900;  187.875;    0.000
937.402; 1588.900;  169.875;    0.000
937.574; 1652.900;  127.875;    0.000
937.746; 1670.900;  171.875;    0.000
937.919; 1754.900;  176.875;    0.000
938.091; 1887.900;  193.875;    0.000
938.263; 2051.900;  200.875;    0.000
938.435; 2243.900;  181.875;    0.000
938.608; 2686.900;  191.875;    0.000
938.780; 3166.900;  173.875;    0.000
938.952; 3463.900;  184.875;    0.000
939.124; 3361.900;  171.875;    0.000
939.296; 3947.900;  156.875;    0.000
939.468; 4356.900;  147.875;    0.000
939.640; 3478.900;  186.875;    0.000
939.812; 3231.900;  217.875;    0.000
939.984; 2544.900;  155.875;    0.000
940.156; 2417.900;  191.875;    0.000
940.328; 2311.900;  201.875;    0.000
940.500; 2106.900;  176.875;    0.000
940.672; 2161.900;  190.875;    0.000
940.843; 2041.900;  143.875;    0.000
941.015; 2012.900;  189.875;    0.000
941.187; 1831.900;  172.875;    0.000
941.359; 1888.900;  175.875;    0.000
941.531; 1828.900;  154.875;    0.000
941.702; 1720.900;  183.875;    0.000
941.874; 1609.900;  140.875;    0.000
942.046; 1559.900;  177.875;    0.000
942.217; 1631.900;  147.875;    0.000
942.389; 1703.900;  196.875;    0.000
942.560; 1607.900;  163.875;    0.000
942.732; 1646.900;  187.875;    0.000
942.904; 1493.900;  226.875;    0.000
943.075; 1427.900;  159.875;    0.000
943.247; 1357.900;  209.875;    0.000
943.418; 1397.900;  167.875;    0.000
943.589; 1486.900;  195.875;    0.000
943.761; 1402.900;  190.875;    0.000
943.932; 1485.900;  187.875;    0.000
944.104; 1402.900;  194.875;    0.000
944.275; 1468.900;  177.875;    0.000
944.446; 1394.900;  155.875;    0.000
944.617; 1396.900;  176.875;    0.000
944.789; 1372.900;  171.875;    0.000
944.960; 1280.900;  172.875;    0.000
945.131; 1355.900;  158.875;    0.000
945.302; 1334.900;  201.875;    0.000
945.473; 1233.900;  141.875;    0.000
945.645; 1363.900;  197.875;    0.000
945.816; 1337.900;  165.875;    0.000
945.987; 1321.900;  190.875;    0.000
946.158; 1460.900;  158.875;    0.000
946.329; 1434.900;  160.875;    0.000
946.500; 1375.900;  190.875;    0.000
946.671; 1352.900;  152.875;    0.000
946.842; 1342.900;  182.875;    0.000
947.013; 1297.900;  160.875;    0.000
947.183; 1354.900;  203.875;    0.000
947.354; 1307.900;  174.875;    0.000
947.525; 1301.900;  173.875;    0.000
947.696; 1310.900;  170.875;    0.000
947.867; 1350.900;  187.875;    0.000
948.037; 1260.900;  165.875;    0.000
948.208; 1337.900;  154.875;    0.000
948.379; 1360.900;  176.875;    0.000
948.550; 1262.900;  176.875;    0.000
948.720; 1280.900;  169.875;    0.000
948.891; 1329.900;  216.875;    0.000
949.061; 1240.900;  200.875;    0.000
949.232; 1267.900;  163.875;    0.000
949.403; 1258.900;  157.875;    0.000
949.573; 1257.900;  158.875;    0.000
949.744; 1254.900;  213.875;    0.000
949.914; 1225.900;  177.875;    0.000
950.085; 1241.900;  195.875;    0.000
950.255; 1316.900;  166.875;    0.000
950.425; 1238.900;  196.875;    0.000
950.596; 1258.900;  176.875;    0.000
950.766; 1316.900;  228.875;    0.000
950.936; 1144.900;  185.875;    0.000
951.107; 1215.900;  178.875;    0.000
951.277; 1230.900;  227.875;    0.000
951.447; 1242.900;  219.875;    0.000
951.617; 1247.900;  219.875;    0.000
951.788; 1155.900;  198.875;    0.000
951.958; 1169.900;  202.875;    0.000
952.128; 1160.900;  197.875;    0.000
952.298; 1216.900;  211.875;    0.000
952.468; 1271.900;  233.875;    0.000
952.638; 1131.900;  222.875;    0.000
952.808; 1188.900;  210.875;    0.000
952.978; 1197.900;  216.875;    0.000
953.148; 1137.900;  203.875;    0.000
953.318; 1135.900;  212.875;    0.000
953.488; 1171.900;  156.875;    0.000
953.658; 1145.900;  226.875;    0.000
953.828; 1118.900;  223.875;    0.000
953.998; 1216.900;  209.875;    0.000
954.167; 1181.900;  203.875;    0.000
954.337; 1185.900;  209.875;    0.000
954.507; 1122.900;  252.875;    0.000
954.677; 1140.900;  207.875;    0.000
954.846; 1159.900;  240.875;    0.000
955.016; 1044.900;  197.875;    0.000
955.186; 1096.900;  208.875;    0.000
955.355; 1070.900;  243.875;    0.000
955.525; 1091.900;  211.875;    0.000
955.695; 1161.900;  187.875;    0.000
955.864; 1101.900;  204.875;    0.000
956.034; 1065.900;  199.875;    0.000
956.203; 1060.900;  257.875;    0.000
956.373; 1041.900;  193.875;    0.000
956.542; 1062.900;  187.875;    0.000
956.711; 1112.900;  259.875;    0.000
956.881; 1044.900;  227.875;    0.000
957.050; 1125.900;  260.875;    0.000
957.220; 1084.900;  246.875;    0.000
957.389;  998.900;  211.875;    0.000
957.558; 1059.900;  197.875;    0.000
957.727; 1045.900;  227.875;    0.000
957.897; 1078.900;  219.875;    0.000
958.066;  985.900;  180.875;    0.000
958.235;  992.900;  179.875;    0.000
958.404; 1055.900;  194.875;    0.000
958.573; 1008.900;  235.875;    0.000
958.743; 1008.900;  191.875;    0.000
958.912; 1114.900;  181.875;    0.000
959.081; 1051.900;  193.875;    0.000
959.250;  933.900;  180.875;    0.000
959.419; 1079.900;  205.875;    0.000
959.588; 1037.900;  241.875;    0.000
959.757;  956.900;  202.875;    0.000
959.926; 1079.900;  212.875;    0.000
960.094;  950.900;  199.875;    0.000
960.263; 1049.900;  226.875;    0.000
960.432;  990.900;  188.875;    0.000
960.601;  955.900;  200.875;    0.000
960.770;  929.900;  197.875;    0.000
960.939;  914.900;  195.875;    0.000
961.107; 1036.900;  198.875;    0.000
961.276; 1044.900;  151.875;    0.000
961.445;  991.900;  227.875;    0.000
961.613; 1050.900;  186.875;    0.000
961.782; 1068.900;  187.875;    0.000
961.951;  947.900;  194.875;    0.000
962.119; 1031.900;  227.875;    0.000
962.288;  931.900;  181.875;    0.000
962.456;  986.900;  206.875;    0.000
962.625; 1023.900;  181.875;    0.000
962.793; 1001.900;  216.875;    0.000
962.962;  955.900;  237.875;    0.000
963.130; 1003.900;  194.875;    0.000
963.298;  984.900;  190.875;    0.000
963.467; 1007.900;  204.875;    0.000
963.635;  938.900;  159.875;    0.000
963.803;  993.900;  208.875;    0.000
963.972;  967.900;  206.875;    0.000
964.140;  999.900;  178.875;    0.000
964.308;  911.900;  185.875;    0.000
964.477;  982.900;  189.875;    0.000
964.645;  978.900;  201.875;    0.000
964.813; 1033.900;  200.875;    0.000
964.981; 1011.900;  160.875;    0.000
965.149; 1047.900;  230.875;    0.000
965.317; 1056.900;  214.875;    0.000
965.485; 1010.900;  190.875;    0.000
965.653; 1046.900;  239.875;    0.000
965.821; 1023.900;  211.875;    0.000
965.989; 1029.900;  216.875;    0.000
966.157; 1007.900;  198.875;    0.000
966.325; 1030.900;  200.875;    0.000
966.493; 1016.900;  187.875;    0.000
966.661; 1035.900;  181.875;    0.000
966.829;  978.900;  181.875;    0.000
966.996;  999.900;  220.875;    0.000
967.164; 1018.900;  179.875;    0.000
967.332; 1051.900;  203.875;    0.000
967.500;  995.900;  200.875;    0.000
967.667; 1070.900;  196.875;    0.000
967.835; 1007.900;  199.875;    0.000
968.003; 1040.900;  191.875;    0.000
968.170; 1039.900;  141.875;    0.000
968.338;  983.900;  185.875;    0.000
968.505; 1020.900;  199.875;    0.000
968.673;  971.900;  191.875;    0.000
968.841;  935.900;  165.875;    0.000
969.008; 1027.900;  192.875;    0.000
969.175;  955.900;  172.875;    0.000
969.343;  967.900;  191.875;    0.000
969.510;  989.900;  199.875;    0.000
969.678;  969.900;  156.875;    0.000
969.845;  983.900;  191.875;    0.000
970.012;  963.900;  205.875;    0.000
970.180; 1031.900;  201.875;    0.000
970.347;  914.900;  229.875;    0.000
970.514;  922.900;  207.875;    0.000
970.681;  933.900;  169.875;    0.000
970.849;  911.900;  196.875;    0.000
971.016;  923.900;  212.875;    0.000
971.183;  914.900;  178.875;    0.000
971.350;  954.900;  193.875;    0.000
971.517;  962.900;  190.875;    0.000
971.684;  997.900;  261.875;    0.000
971.851;  995.900;  203.875;    0.000
972.018;  874.900;  184.875;    0.000
972.185;  966.900;  226.875;    0.000
972.352;  958.900;  180.875;    0.000
972.519;  974.900;  226.875;    0.000
972.686;  909.900;  233.875;    0.000
972.853;  978.900;  173.875;    0.000
973.020;  938.900;  208.875;    0.000
973.186;  956.900;  173.875;    0.000
973.353;  904.900;  218.875;    0.000
973.520;  946.900;  218.875;    0.000
973.687;  880.900;  176.875;    0.000
973.853;  964.900;  203.875;    0.000
974.020;  935.900;  196.875;    0.000
974.187;  879.900;  188.875;    0.000
974.353; 1024.900;  230.875;    0.000
974.520;  895.900;  195.875;    0.000
974.687;  887.900;  209.875;    0.000
974.853;  901.900;  189.875;    0.000
975.020;  891.900;  179.875;    0.000
975.186;  915.900;  204.875;    0.000
975.353;  941.900;  201.875;    0.000
975.519;  903.900;  200.875;    0.000
975.685;  862.900;  176.875;    0.000
975.852;  949.900;  197.875;    0.000
976.018;  983.900;  201.875;    0.000
976.184;  922.900;  176.875;    0.000
976.351;  949.900;  221.875;    0.000
976.517; 1006.900;  203.875;    0.000
976.683;  986.900;  236.875;    0.000
976.849;  939.900;  190.875;    0.000
977.016;  940.900;  173.875;    0.000
977.182;  942.900;  200.875;    0.000
977.348;  934.900;  179.875;    0.000
977.514;  838.900;  159.875;    0.000
977.680;  951.900;  200.875;    0.000
977.846;  921.900;  206.875;    0.000
978.012;  914.900;  219.875;    0.000
978.178;  898.900;  229.875;    0.000
978.344;  910.900;  195.875;    0.000
978.510;  963.900;  209.875;    0.000
978.676;  870.900;  190.875;    0.000
978.842;  890.900;  195.875;    0.000
979.008;  926.900;  186.875;    0.000
979.174;  906.900;  185.875;    0.000
979.340;  939.900;  198.875;    0.000
979.505;  934.900;  214.875;    0.000
979.671;  926.900;  159.875;    0.000
979.837;  922.900;  202.875;    0.000
980.003;  926.900;  190.875;    0.000
980.168;  927.900;  216.875;    0.000
980.334;  958.900;  194.875;    0.000
980.499;  932.900;  229.875;    0.000
980.665;  968.900;  240.875;    0.000
980.831;  982.900;  202.875;    0.000
980.996;  939.900;  179.875;    0.000
981.162;  960.900;  212.875;    0.000
981.327;  943.900;  202.875;    0.000
981.493;  989.900;  219.875;    0.000
981.658;  922.900;  218.875;    0.000
981.823;  955.900;  207.875;    0.000
981.989;  949.900;  207.875;    0.000
982.154;  907.900;  224.875;    0.000
982.319;  930.900;  217.875;    0.000
982.485;  938.900;  266.875;    0.000
982.650; 1055.900;  245.875;    0.000
982.815;  962.900;  229.875;    0.000
982.980;  979.900;  203.875;    0.000
983.146;  918.900;  242.875;    0.000
983.311;  882.900;  144.875;    0.000
983.476;  871.900;  222.875;    0.000
983.641;  902.900;  206.875;    0.000
983.806;  863.900;  217.875;    0.000
983.971;  970.900;  254.875;    0.000
984.136;  932.900;  217.875;    0.000
984.301;  869.900;  202.875;    0.000
984.466;  910.900;  206.875;    0.000
984.631;  909.900;  224.875;    0.000
984.796;  874.900;  218.875;    0.000
984.961;  899.900;  202.875;    0.000
985.126;  928.900;  238.875;    0.000
985.291;  952.900;  220.875;    0.000
985.455;  926.900;  223.875;    0.000
985.620;  922.900;  218.875;    0.000
985.785;  887.900;  228.875;    0.000
985.950;  967.900;  212.875;    0.000
986.114; 1001.900;  215.875;    0.000
986.279;  982.900;  243.875;    0.000
986.444;  978.900;  222.875;    0.000
986.608;  963.900;  243.875;    0.000
986.773;  979.900;  213.875;    0.000
986.937; 1046.900;  267.875;    0.000
987.102;  990.900;  235.875;    0.000
987.266;  962.900;  210.875;    0.000
987.431;  975.900;  239.875;    0.000
987.595; 1011.900;  230.875;    0.000
987.760;  952.900;  229.875;    0.000
987.924;  940.900;  217.875;    0.000
988.088;  930.900;  210.875;    0.000
988.253;  943.900;  215.875;    0.000
988.417;  977.900;  186.875;    0.000
988.581;  967.900;  214.875;    0.000
988.746;  947.900;  212.875;    0.000
988.910;  928.900;  192.875;    0.000
989.074;  995.900;  195.875;    0.000
989.238;  876.900;  226.875;    0.000
989.402;  953.900;  214.875;    0.000
989.566;  927.900;  201.875;    0.000
989.731;  945.900;  199.875;    0.000
989.895;  907.900;  205.875;    0.000
990.059;  899.900;  204.875;    0.000
990.223;  884.900;  182.875;    0.000
990.387;  923.900;  220.875;    0.000
990.551;  830.900;  199.875;    0.000
990.714;  907.900;  202.875;    0.000
990.878;  843.900;  201.875;    0.000
991.042;  871.900;  202.875;    0.000
991.206;  819.900;  215.875;    0.000
991.370;  944.900;  217.875;    0.000
991.534;  833.900;  152.875;    0.000
991.697;  887.900;  194.875;    0.000
991.861;  889.900;  208.875;    0.000
992.025;  859.900;  209.875;    0.000
992.188;  831.900;  182.875;    0.000
992.352;  842.900;  181.875;    0.000
992.516;  743.900;  192.875;    0.000
992.679;  822.900;  183.875;    0.000
992.843;  789.900;  156.875;    0.000
993.006;  847.900;  192.875;    0.000
993.170;  854.900;  172.875;    0.000
993.333;  879.900;  195.875;    0.000
993.497;  876.900;  185.875;    0.000
993.660;  870.900;  155.875;    0.000
993.824;  823.900;  199.875;    0.000
993.987;  842.900;  211.875;    0.000
994.150;  795.900;  173.875;    0.000
994.314;  865.900;  202.875;    0.000
994.477;  794.900;  171.875;    0.000
994.640;  799.900;  191.875;    0.000
994.803;  874.900;  203.875;    0.000
994.967;  865.900;  198.875;    0.000
995.130;  780.900;  192.875;    0.000
995.293;  802.900;  211.875;    0.000
995.456;  847.900;  207.875;    0.000
995.619;  848.900;  207.875;    0.000
995.782;  798.900;  186.875;    0.000
995.945;  801.900;  203.875;    0.000
996.108;  850.900;  195.875;    0.000
996.271;  875.900;  195.875;    0.000
996.434;  789.900;  179.875;    0.000
996.597;  806.900;  170.875;    0.000
996.760;  766.900;  161.875;    0.000
996.923;  856.900;  177.875;    0.000
997.086;  777.900;  199.875;    0.000
997.248;  902.900;  225.875;    0.000
997.411;  802.900;  194.875;    0.000
997.574;  784.900;  204.875;    0.000
997.737;  855.900;  236.875;    0.000
997.899;  832.900;  191.875;    0.000
998.062;  874.900;  178.875;    0.000
998.225;  774.900;  176.875;    0.000
998.387;  797.900;  203.875;    0.000
998.550;  813.900;  155.875;    0.000
998.712;  825.900;  169.875;    0.000
998.875;  846.900;  234.875;    0.000
999.037;  768.900;  211.875;    0.000
999.200;  826.900;  185.875;    0.000
999.362;  854.900;  199.875;    0.000
999.525;  752.900;  234.875;    0.000
999.687;  856.900;  194.875;    0.000
999.849;  839.900;  223.875;    0.000
1000.012;  802.900;  222.875;    0.000
1000.174;  846.900;  187.875;    0.000
1000.336;  811.900;  204.875;    0.000
1000.499;  855.900;  240.875;    0.000
1000.661;  901.900;  215.875;    0.000
1000.823;  810.900;  206.875;    0.000
1000.985;  820.900;  197.875;    0.000
1001.147;  831.900;  221.875;    0.000
1001.309;  827.900;  207.875;    0.000
1001.471;  872.900;  227.875;    0.000
1001.633;  824.900;  208.875;    0.000
1001.796;  855.900;  158.875;    0.000
1001.958;  823.900;  210.875;    0.000
1002.119;  845.900;  223.875;    0.000
1002.281;  949.900;  211.875;    0.000
1002.443;  881.900;  227.875;    0.000
1002.605;  875.900;  186.875;    0.000
1002.767;  881.900;  242.875;    0.000
1002.929;  958.900;  219.875;    0.000
1003.091;  938.900;  191.875;    0.000
1003.252; 1024.900;  233.875;    0.000
1003.414;  919.900;  214.875;    0.000
1003.576;  996.900;  186.875;    0.000
1003.738; 1000.900;  175.875;    0.000
1003.899; 1126.900;  237.875;    0.000
1004.061; 1175.900;  220.875;    0.000
1004.222; 1213.900;  186.875;    0.000
1004.384; 1195.900;  216.875;    0.000
1004.546; 1161.900;  203.875;    0.000
1004.707; 1080.900;  216.875;    0.000
1004.869; 1175.900;  219.875;    0.000
1005.030; 1270.900;  188.875;    0.000
1005.191; 1209.900;  223.875;    0.000
1005.353; 1262.900;  227.875;    0.000
1005.514; 1161.900;  235.875;    0.000
1005.675; 1215.900;  201.875;    0.000
1005.837; 1160.900;  199.875;    0.000
1005.998; 1188.900;  219.875;    0.000
1006.159; 1132.900;  235.875;    0.000
1006.321; 1102.900;  199.875;    0.000
1006.482; 1169.900;  222.875;    0.000
1006.643; 1059.900;  195.875;    0.000
1006.804; 1179.900;  205.875;    0.000
1006.965; 1091.900;  199.875;    0.000
1007.126; 1132.900;  231.875;    0.000
1007.287; 1074.900;  208.875;    0.000
1007.448; 1183.900;  205.875;    0.000
1007.609; 1189.900;  256.875;    0.000
1007.770; 1175.900;  231.875;    0.000
1007.931; 1151.900;  223.875;    0.000
1008.092; 1200.900;  217.875;    0.000
1008.253; 1179.900;  236.875;    0.000
1008.414; 1218.900;  197.875;    0.000
1008.575; 1217.900;  233.875;    0.000
1008.736; 1147.900;  193.875;    0.000
1008.896; 1143.900;  238.875;    0.000
1009.057; 1189.900;  245.875;    0.000
1009.218; 1208.900;  240.875;    0.000
1009.379; 1288.900;  210.875;    0.000
1009.539; 1275.900;  234.875;    0.000
1009.700; 1229.900;  228.875;    0.000
1009.860; 1324.900;  238.875;    0.000
1010.021; 1195.900;  199.875;    0.000
1010.182; 1277.900;  214.875;    0.000
1010.342; 1343.900;  216.875;    0.000
1010.503; 1400.900;  207.875;    0.000
1010.663; 1377.900;  258.875;    0.000
1010.823; 1487.900;  243.875;    0.000
1010.984; 1634.900;  268.875;    0.000
1011.144; 1567.900;  217.875;    0.000
1011.305; 1783.900;  237.875;    0.000
1011.465; 1730.900;  216.875;    0.000
1011.625; 1899.900;  195.875;    0.000
1011.785; 1834.900;  201.875;    0.000
1011.946; 1907.900;  200.875;    0.000
1012.106; 1955.900;  206.875;    0.000
1012.266; 1702.900;  227.875;    0.000
1012.426; 1819.900;  221.875;    0.000
1012.586; 1678.900;  198.875;    0.000
1012.746; 1673.900;  215.875;    0.000
1012.906; 1757.900;  226.875;    0.000
1013.066; 1696.900;  221.875;    0.000
1013.226; 1503.900;  202.875;    0.000
1013.386; 1662.900;  210.875;    0.000
1013.546; 1590.900;  243.875;    0.000
1013.706; 1546.900;  200.875;    0.000
1013.866; 1477.900;  232.875;    0.000
1014.026; 1465.900;  206.875;    0.000
1014.186; 1562.900;  222.875;    0.000
1014.346; 1578.900;  233.875;    0.000
1014.505; 1536.900;  241.875;    0.000
1014.665; 1508.900;  225.875;    0.000
1014.825; 1430.900;  196.875;    0.000
1014.985; 1558.900;  234.875;    0.000
1015.144; 1586.900;  232.875;    0.000
1015.304; 1607.900;  214.875;    0.000
1015.464; 1443.900;  210.875;    0.000
1015.623; 1450.900;  219.875;    0.000
1015.783; 1570.900;  216.875;    0.000
1015.942; 1574.900;  267.875;    0.000
1016.102; 1571.900;  234.875;    0.000
1016.261; 1517.900;  230.875;    0.000
1016.420; 1616.900;  225.875;    0.000
1016.580; 1816.900;  205.875;    0.000
1016.739; 1748.900;  199.875;    0.000
1016.899; 1757.900;  218.875;    0.000
1017.058; 1808.900;  204.875;    0.000
1017.217; 1919.900;  196.875;    0.000
1017.376; 1765.900;  204.875;    0.000
1017.536; 1765.900;  195.875;    0.000
1017.695; 1802.900;  216.875;    0.000
1017.854; 1797.900;  235.875;    0.000
1018.013; 1651.900;  189.875;    0.000
1018.172; 1552.900;  217.875;    0.000
1018.331; 1642.900;  215.875;    0.000
1018.490; 1728.900;  233.875;    0.000
1018.649; 1440.900;  211.875;    0.000
1018.808; 1615.900;  196.875;    0.000
1018.967; 1783.900;  222.875;    0.000
1019.126; 1818.900;  221.875;    0.000
1019.285; 1735.900;  212.875;    0.000
1019.444; 1683.900;  231.875;    0.000
1019.603; 1627.900;  227.875;    0.000
1019.762; 1789.900;  192.875;    0.000
1019.921; 1804.900;  240.875;    0.000
1020.079; 1685.900;  209.875;    0.000
1020.238; 1671.900;  211.875;    0.000
1020.397; 1807.900;  253.875;    0.000
1020.555; 1786.900;  179.875;    0.000
1020.714; 1745.900;  225.875;    0.000
1020.873; 1802.900;  232.875;    0.000
1021.031; 1767.900;  245.875;    0.000
1021.190; 1715.900;  230.875;    0.000
1021.348; 1782.900;  221.875;    0.000
1021.507; 1732.900;  212.875;    0.000
1021.665; 1784.900;  211.875;    0.000
1021.824; 1909.900;  206.875;    0.000
1021.982; 1633.900;  218.875;    0.000
1022.141; 1682.900;  232.875;    0.000
1022.299; 1827.900;  193.875;    0.000
1022.457; 1825.900;  217.875;    0.000
1022.616; 1724.900;  248.875;    0.000
1022.774; 1766.900;  222.875;    0.000
1022.932; 1830.900;  211.875;    0.000
1023.090; 1859.900;  288.875;    0.000
1023.249; 1888.900;  214.875;    0.000
1023.407; 1777.900;  233.875;    0.000
1023.565; 1796.900;  208.875;    0.000
1023.723; 1880.900;  217.875;    0.000
1023.881; 1941.900;  235.875;    0.000
1024.039; 1853.900;  228.875;    0.000
1024.197; 1820.900;  216.875;    0.000
1024.355; 1783.900;  251.875;    0.000
1024.513; 1839.900;  232.875;    0.000
1024.671; 2044.900;  217.875;    0.000
1024.829; 1858.900;  255.875;    0.000
1024.987; 1721.900;  203.875;    0.000
1025.145; 1813.900;  239.875;    0.000
1025.302; 1853.900;  209.875;    0.000
1025.460; 1875.900;  224.875;    0.000
1025.618; 2040.900;  193.875;    0.000
1025.776; 1736.900;  209.875;    0.000
1025.933; 1710.900;  229.875;    0.000
1026.091; 1896.900;  218.875;    0.000
1026.249; 1947.900;  269.875;    0.000
1026.406; 2005.900;  264.875;    0.000
1026.564; 1901.900;  230.875;    0.000
1026.721; 1820.900;  198.875;    0.000
1026.879; 1793.900;  216.875;    0.000
1027.036; 2041.900;  226.875;    0.000
1027.194; 2166.900;  245.875;    0.000
1027.351; 1870.900;  236.875;    0.000
1027.509; 1791.900;  262.875;    0.000
1027.666; 1746.900;  227.875;    0.000
1027.823; 1908.900;  214.875;    0.000
1027.981; 2272.900;  258.875;    0.000
1028.138; 2146.900;  239.875;    0.000
1028.295; 1959.900;  226.875;    0.000
1028.452; 1772.900;  225.875;    0.000
1028.609; 1899.900;  276.875;    0.000
1028.767; 2173.900;  228.875;    0.000
1028.924; 2208.900;  213.875;    0.000
1029.081; 2155.900;  232.875;    0.000
1029.238; 1871.900;  250.875;    0.000
1029.395; 1819.900;  255.875;    0.000
1029.552; 1950.900;  217.875;    0.000
1029.709; 2261.900;  210.875;    0.000
1029.866; 2353.900;  243.875;    0.000
1030.023; 2103.900;  202.875;    0.000
1030.180; 1857.900;  233.875;    0.000
1030.337; 1750.900;  234.875;    0.000
1030.494; 1918.900;  222.875;    0.000
1030.650; 2140.900;  241.875;    0.000
1030.807; 2305.900;  206.875;    0.000
1030.964; 2168.900;  206.875;    0.000
1031.121; 2018.900;  228.875;    0.000
1031.277; 1932.900;  228.875;    0.000
1031.434; 2025.900;  234.875;    0.000
1031.591; 2158.900;  250.875;    0.000
1031.747; 2321.900;  246.875;    0.000
1031.904; 2258.900;  201.875;    0.000
1032.060; 2079.900;  237.875;    0.000
1032.217; 1964.900;  232.875;    0.000
1032.373; 2002.900;  210.875;    0.000
1032.530; 2146.900;  246.875;    0.000
1032.686; 2504.900;  196.875;    0.000
1032.843; 2401.900;  212.875;    0.000
1032.999; 2251.900;  243.875;    0.000
1033.155; 2292.900;  234.875;    0.000
1033.312; 2184.900;  246.875;    0.000
1033.468; 2327.900;  233.875;    0.000
1033.624; 2826.900;  237.875;    0.000
1033.780; 3049.900;  263.875;    0.000
1033.937; 3047.900;  214.875;    0.000
1034.093; 2939.900;  230.875;    0.000
1034.249; 3093.900;  206.875;    0.000
1034.405; 2884.900;  238.875;    0.000
1034.561; 3020.900;  231.875;    0.000
1034.717; 3223.900;  228.875;    0.000
1034.873; 3279.900;  262.875;    0.000
1035.029; 3326.900;  252.875;    0.000
1035.185; 3039.900;  232.875;    0.000
1035.341; 2849.900;  245.875;    0.000
1035.497; 3039.900;  253.875;    0.000
1035.653; 3043.900;  252.875;    0.000
1035.809; 3606.900;  245.875;    0.000
1035.964; 3707.900;  229.875;    0.000
1036.120; 3558.900;  226.875;    0.000
1036.276; 3509.900;  236.875;    0.000
1036.432; 3479.900;  203.875;    0.000
1036.587; 3278.900;  228.875;    0.000
1036.743; 3387.900;  240.875;    0.000
1036.899; 3526.900;  220.875;    0.000
1037.054; 3420.900;  153.875;    0.000
1037.210; 3903.900;  219.875;    0.000
1037.365; 4026.900;  229.875;    0.000
1037.521; 3803.900;  257.875;    0.000
1037.676; 3898.900;  211.875;    0.000
1037.832; 3345.900;  234.875;    0.000
1037.987; 3441.900;  235.875;    0.000
1038.143; 3384.900;  176.875;    0.000
1038.298; 3993.900;  262.875;    0.000
1038.453; 4072.900;  209.875;    0.000
1038.609; 4354.900;  230.875;    0.000
1038.764; 4320.900;  253.875;    0.000
1038.919; 4147.900;  195.875;    0.000
1039.074; 4182.900;  234.875;    0.000
1039.229; 3805.900;  234.875;    0.000
1039.385; 3594.900;  266.875;    0.000
1039.540; 4031.900;  252.875;    0.000
1039.695; 4513.900;  231.875;    0.000
1039.850; 4678.900;  208.875;    0.000
1040.005; 4518.900;  232.875;    0.000
1040.160; 5124.900;  214.875;    0.000
1040.315; 4987.900;  221.875;    0.000
1040.470; 4548.900;  207.875;    0.000
1040.625; 3986.900;  249.875;    0.000
1040.780; 4190.900;  251.875;    0.000
1040.935; 4309.900;  254.875;    0.000
1041.089; 4415.900;  210.875;    0.000
1041.244; 4845.900;  225.875;    0.000
1041.399; 4948.900;  208.875;    0.000
1041.554; 5084.900;  249.875;    0.000
1041.708; 5242.900;  254.875;    0.000
1041.863; 5319.900;  248.875;    0.000
1042.018; 5468.900;  280.875;    0.000
1042.172; 5503.900;  233.875;    0.000
1042.327; 4881.900;  256.875;    0.000
1042.481; 5082.900;  210.875;    0.000
1042.636; 5415.900;  229.875;    0.000
1042.791; 5787.900;  215.875;    0.000
1042.945; 5859.900;  256.875;    0.000
1043.099; 6046.900;  251.875;    0.000
1043.254; 5890.900;  204.875;    0.000
1043.408; 6487.900;  278.875;    0.000
1043.563; 6751.900;  211.875;    0.000
1043.717; 6467.900;  259.875;    0.000
1043.871; 5880.900;  233.875;    0.000
1044.025; 6140.900;  221.875;    0.000
1044.180; 5727.900;  208.875;    0.000
1044.334; 5847.900;  255.875;    0.000
1044.488; 6067.900;  269.875;    0.000
1044.642; 6489.900;  228.875;    0.000
1044.796; 7755.900;  232.875;    0.000
1044.950; 8377.900;  249.875;    0.000
1045.104; 7209.900;  205.875;    0.000
1045.258; 7749.900;  206.875;    0.000
1045.412; 7738.900;  251.875;    0.000
1045.566; 7047.900;  249.875;    0.000
1045.720; 7096.900;  206.875;    0.000
1045.874; 6652.900;  232.875;    0.000
1046.028; 6550.900;  266.875;    0.000
1046.182; 6228.900;  217.875;    0.000
1046.336; 6999.900;  216.875;    0.000
1046.489; 7595.900;  236.875;    0.000
1046.643; 7727.900;  253.875;    0.000
1046.797; 7686.900;  244.875;    0.000
1046.951; 8263.900;  234.875;    0.000
1047.104; 8507.900;  281.875;    0.000
1047.258; 8593.900;  253.875;    0.000
1047.411; 8273.900;  228.875;    0.000
1047.565; 8082.900;  273.875;    0.000
1047.719; 8217.900;  232.875;    0.000
1047.872; 7665.900;  230.875;    0.000
1048.026; 7656.900;  282.875;    0.000
1048.179; 7710.900;  225.875;    0.000
1048.332; 7388.900;  234.875;    0.000
1048.486; 6890.900;  223.875;    0.000
1048.639; 7788.900;  248.875;    0.000
1048.792; 8961.900;  244.875;    0.000
1048.946; 9152.900;  210.875;    0.000
1049.099;10015.900;  242.875;    0.000
1049.252; 9576.900;  269.875;    0.000
1049.406; 9299.900;  285.875;    0.000
1049.559; 9818.900;  277.875;    0.000
1049.712;10061.900;  254.875;    0.000
1049.865; 9927.900;  252.875;    0.000
1050.018; 9629.900;  270.875;    0.000
1050.171; 8863.900;  230.875;    0.000
1050.324; 8866.900;  268.875;    0.000
1050.477; 8474.900;  262.875;    0.000
1050.630; 8113.900;  243.875;    0.000
1050.783; 8924.900;  216.875;    0.000
1050.936; 9315.900;  250.875;    0.000
1051.089; 9102.900;  247.875;    0.000
1051.242; 9738.900;  300.875;    0.000
1051.394; 9744.900;  233.875;    0.000
1051.547; 9769.900;  263.875;    0.000
1051.700;10703.900;  238.875;    0.000
1051.853;10744.900;  299.875;    0.000
1052.005;11884.900;  275.875;    0.000
1052.158;11383.900;  304.875;    0.000
1052.311;12404.900;  251.875;    0.000
1052.463;11133.900;  276.875;    0.000
1052.616;10707.900;  271.875;    0.000
1052.768;10745.900;  285.875;    0.000
1052.921;10935.900;  261.875;    0.000
1053.073;11411.900;  333.875;    0.000
1053.226;10970.900;  271.875;    0.000
1053.378;11173.900;  309.875;    0.000
1053.531;10552.900;  266.875;    0.000
1053.683;10843.900;  278.875;    0.000
1053.835;10141.900;  274.875;    0.000
1053.988; 8104.900;  287.875;    0.000
1054.140; 2540.900;  350.875;    0.000
1054.292;  763.900;  338.875;    0.000
1054.444;  649.900;  270.875;    0.000
1054.596;  624.900;  294.875;    0.000
1054.749;  565.900;  285.875;    0.000
1054.901;  525.900;  254.875;    0.000
1055.053;  555.900;  320.875;    0.000
1055.205;  558.900;  284.875;    0.000
1055.357;  527.900;  298.875;    0.000
1055.509;  514.900;  304.875;    0.000
1055.661;  530.900;  350.875;    0.000
1055.813;  503.900;  289.875;    0.000
1055.965;  510.900;  277.875;    0.000
1056.116;  455.900;  288.875;    0.000
1056.268;  504.900;  311.875;    0.000
1056.420;  534.900;  308.875;    0.000

