
Integration time [ms]:   1.000
Averaging Nr. [scans]: 1
Smoothing Nr. [pixels]: 0
Data measured with spectrometer [name]: UV1
Wave   ;Sample   ;Dark     ;Reference
[nm]   ;[counts] ;[counts] ;[counts] 

236.381;  153.625;    0.000;    0.000
236.451;  178.625;    0.000;    0.000
236.520;  148.625;    0.000;    0.000
236.590;  208.625;    0.000;    0.000
236.660;  135.625;    0.000;    0.000
236.730;  176.625;    0.000;    0.000
236.799;  205.625;    0.000;    0.000
236.869;  220.625;    0.000;    0.000
236.939;  182.625;    0.000;    0.000
237.009;  187.625;    0.000;    0.000
237.078;  180.625;    0.000;    0.000
237.148;  176.625;    0.000;    0.000
237.218;  188.625;    0.000;    0.000
237.287;  175.625;    0.000;    0.000
237.357;  171.625;    0.000;    0.000
237.427;  152.625;    0.000;    0.000
237.496;  532.625;    0.000;    0.000
237.566;  460.625;    0.000;    0.000
237.636;  433.625;    0.000;    0.000
237.705;  531.625;    0.000;    0.000
237.775;  476.625;    0.000;    0.000
237.845;  456.625;    0.000;    0.000
237.914;  458.625;    0.000;    0.000
237.984;  496.625;    0.000;    0.000
238.054;  461.625;    0.000;    0.000
238.123;  474.625;    0.000;    0.000
238.193;  442.625;    0.000;    0.000
238.263;  455.625;    0.000;    0.000
238.332;  474.625;    0.000;    0.000
238.402;  428.625;    0.000;    0.000
238.471;  429.625;    0.000;    0.000
238.541;  461.625;    0.000;    0.000
238.611;  471.625;    0.000;    0.000
238.680;  421.625;    0.000;    0.000
238.750;  500.625;    0.000;    0.000
238.819;  456.625;    0.000;    0.000
238.889;  440.625;    0.000;    0.000
238.958;  451.625;    0.000;    0.000
239.028;  488.625;    0.000;    0.000
239.097;  468.625;    0.000;    0.000
239.167;  498.625;    0.000;    0.000
239.237;  492.625;    0.000;    0.000
239.306;  451.625;    0.000;    0.000
239.376;  486.625;    0.000;    0.000
239.445;  498.625;    0.000;    0.000
239.515;  447.625;    0.000;    0.000
239.584;  446.625;    0.000;    0.000
239.654;  471.625;    0.000;    0.000
239.723;  485.625;    0.000;    0.000
239.793;  449.625;    0.000;    0.000
239.862;  463.625;    0.000;    0.000
239.932;  405.625;    0.000;    0.000
240.001;  445.625;    0.000;    0.000
240.070;  504.625;    0.000;    0.000
240.140;  480.625;    0.000;    0.000
240.209;  451.625;    0.000;    0.000
240.279;  438.625;    0.000;    0.000
240.348;  480.625;    0.000;    0.000
240.418;  458.625;    0.000;    0.000
240.487;  452.625;    0.000;    0.000
240.556;  459.625;    0.000;    0.000
240.626;  455.625;    0.000;    0.000
240.695;  462.625;    0.000;    0.000
240.765;  475.625;    0.000;    0.000
240.834;  480.625;    0.000;    0.000
240.903;  467.625;    0.000;    0.000
240.973;  469.625;    0.000;    0.000
241.042;  459.625;    0.000;    0.000
241.112;  463.625;    0.000;    0.000
241.181;  486.625;    0.000;    0.000
241.250;  437.625;    0.000;    0.000
241.320;  460.625;    0.000;    0.000
241.389;  447.625;    0.000;    0.000
241.458;  479.625;    0.000;    0.000
241.528;  451.625;    0.000;    0.000
241.597;  448.625;    0.000;    0.000
241.666;  442.625;    0.000;    0.000
241.736;  477.625;    0.000;    0.000
241.805;  457.625;    0.000;    0.000
241.874;  451.625;    0.000;    0.000
241.943;  494.625;    0.000;    0.000
242.013;  509.625;    0.000;    0.000
242.082;  436.625;    0.000;    0.000
242.151;  474.625;    0.000;    0.000
242.221;  433.625;    0.000;    0.000
242.290;  487.625;    0.000;    0.000
242.359;  448.625;    0.000;    0.000
242.428;  498.625;    0.000;    0.000
242.498;  425.625;    0.000;    0.000
242.567;  452.625;    0.000;    0.000
242.636;  475.625;    0.000;    0.000
242.705;  444.625;    0.000;    0.000
242.774;  493.625;    0.000;    0.000
242.844;  428.625;    0.000;    0.000
242.913;  402.625;    0.000;    0.000
242.982;  465.625;    0.000;    0.000
243.051;  428.625;    0.000;    0.000
243.120;  484.625;    0.000;    0.000
243.190;  402.625;    0.000;    0.000
243.259;  445.625;    0.000;    0.000
243.328;  438.625;    0.000;    0.000
243.397;  438.625;    0.000;    0.000
243.466;  448.625;    0.000;    0.000
243.535;  379.625;    0.000;    0.000
243.605;  420.625;    0.000;    0.000
243.674;  475.625;    0.000;    0.000
243.743;  479.625;    0.000;    0.000
243.812;  416.625;    0.000;    0.000
243.881;  461.625;    0.000;    0.000
243.950;  460.625;    0.000;    0.000
244.019;  497.625;    0.000;    0.000
244.088;  467.625;    0.000;    0.000
244.158;  454.625;    0.000;    0.000
244.227;  426.625;    0.000;    0.000
244.296;  450.625;    0.000;    0.000
244.365;  444.625;    0.000;    0.000
244.434;  429.625;    0.000;    0.000
244.503;  439.625;    0.000;    0.000
244.572;  439.625;    0.000;    0.000
244.641;  421.625;    0.000;    0.000
244.710;  472.625;    0.000;    0.000
244.779;  442.625;    0.000;    0.000
244.848;  441.625;    0.000;    0.000
244.917;  463.625;    0.000;    0.000
244.986;  462.625;    0.000;    0.000
245.055;  486.625;    0.000;    0.000
245.124;  485.625;    0.000;    0.000
245.193;  456.625;    0.000;    0.000
245.262;  403.625;    0.000;    0.000
245.331;  455.625;    0.000;    0.000
245.400;  417.625;    0.000;    0.000
245.469;  468.625;    0.000;    0.000
245.538;  430.625;    0.000;    0.000
245.607;  473.625;    0.000;    0.000
245.676;  437.625;    0.000;    0.000
245.745;  468.625;    0.000;    0.000
245.814;  466.625;    0.000;    0.000
245.883;  457.625;    0.000;    0.000
245.952;  432.625;    0.000;    0.000
246.021;  454.625;    0.000;    0.000
246.090;  444.625;    0.000;    0.000
246.159;  439.625;    0.000;    0.000
246.227;  452.625;    0.000;    0.000
246.296;  446.625;    0.000;    0.000
246.365;  415.625;    0.000;    0.000
246.434;  524.625;    0.000;    0.000
246.503;  447.625;    0.000;    0.000
246.572;  436.625;    0.000;    0.000
246.641;  469.625;    0.000;    0.000
246.710;  445.625;    0.000;    0.000
246.779;  482.625;    0.000;    0.000
246.847;  477.625;    0.000;    0.000
246.916;  474.625;    0.000;    0.000
246.985;  428.625;    0.000;    0.000
247.054;  458.625;    0.000;    0.000
247.123;  439.625;    0.000;    0.000
247.192;  474.625;    0.000;    0.000
247.260;  425.625;    0.000;    0.000
247.329;  436.625;    0.000;    0.000
247.398;  463.625;    0.000;    0.000
247.467;  391.625;    0.000;    0.000
247.536;  507.625;    0.000;    0.000
247.604;  478.625;    0.000;    0.000
247.673;  428.625;    0.000;    0.000
247.742;  421.625;    0.000;    0.000
247.811;  457.625;    0.000;    0.000
247.879;  447.625;    0.000;    0.000
247.948;  479.625;    0.000;    0.000
248.017;  442.625;    0.000;    0.000
248.086;  456.625;    0.000;    0.000
248.154;  434.625;    0.000;    0.000
248.223;  497.625;    0.000;    0.000
248.292;  425.625;    0.000;    0.000
248.361;  515.625;    0.000;    0.000
248.429;  464.625;    0.000;    0.000
248.498;  433.625;    0.000;    0.000
248.567;  472.625;    0.000;    0.000
248.635;  482.625;    0.000;    0.000
248.704;  477.625;    0.000;    0.000
248.773;  456.625;    0.000;    0.000
248.841;  452.625;    0.000;    0.000
248.910;  462.625;    0.000;    0.000
248.979;  473.625;    0.000;    0.000
249.047;  444.625;    0.000;    0.000
249.116;  414.625;    0.000;    0.000
249.185;  484.625;    0.000;    0.000
249.253;  429.625;    0.000;    0.000
249.322;  452.625;    0.000;    0.000
249.390;  424.625;    0.000;    0.000
249.459;  449.625;    0.000;    0.000
249.528;  408.625;    0.000;    0.000
249.596;  424.625;    0.000;    0.000
249.665;  418.625;    0.000;    0.000
249.733;  400.625;    0.000;    0.000
249.802;  410.625;    0.000;    0.000
249.871;  426.625;    0.000;    0.000
249.939;  398.625;    0.000;    0.000
250.008;  443.625;    0.000;    0.000
250.076;  456.625;    0.000;    0.000
250.145;  389.625;    0.000;    0.000
250.213;  403.625;    0.000;    0.000
250.282;  407.625;    0.000;    0.000
250.350;  401.625;    0.000;    0.000
250.419;  408.625;    0.000;    0.000
250.487;  454.625;    0.000;    0.000
250.556;  419.625;    0.000;    0.000
250.624;  423.625;    0.000;    0.000
250.693;  358.625;    0.000;    0.000
250.761;  386.625;    0.000;    0.000
250.830;  425.625;    0.000;    0.000
250.898;  415.625;    0.000;    0.000
250.967;  383.625;    0.000;    0.000
251.035;  379.625;    0.000;    0.000
251.104;  375.625;    0.000;    0.000
251.172;  376.625;    0.000;    0.000
251.241;  375.625;    0.000;    0.000
251.309;  405.625;    0.000;    0.000
251.378;  395.625;    0.000;    0.000
251.446;  337.625;    0.000;    0.000
251.514;  394.625;    0.000;    0.000
251.583;  373.625;    0.000;    0.000
251.651;  356.625;    0.000;    0.000
251.720;  367.625;    0.000;    0.000
251.788;  416.625;    0.000;    0.000
251.856;  359.625;    0.000;    0.000
251.925;  380.625;    0.000;    0.000
251.993;  354.625;    0.000;    0.000
252.062;  373.625;    0.000;    0.000
252.130;  364.625;    0.000;    0.000
252.198;  399.625;    0.000;    0.000
252.267;  378.625;    0.000;    0.000
252.335;  345.625;    0.000;    0.000
252.403;  418.625;    0.000;    0.000
252.472;  358.625;    0.000;    0.000
252.540;  377.625;    0.000;    0.000
252.608;  367.625;    0.000;    0.000
252.677;  360.625;    0.000;    0.000
252.745;  383.625;    0.000;    0.000
252.813;  313.625;    0.000;    0.000
252.881;  320.625;    0.000;    0.000
252.950;  369.625;    0.000;    0.000
253.018;  320.625;    0.000;    0.000
253.086;  333.625;    0.000;    0.000
253.155;  362.625;    0.000;    0.000
253.223;  326.625;    0.000;    0.000
253.291;  338.625;    0.000;    0.000
253.359;  320.625;    0.000;    0.000
253.428;  392.625;    0.000;    0.000
253.496;  317.625;    0.000;    0.000
253.564;  269.625;    0.000;    0.000
253.632;  355.625;    0.000;    0.000
253.700;  326.625;    0.000;    0.000
253.769;  312.625;    0.000;    0.000
253.837;  342.625;    0.000;    0.000
253.905;  334.625;    0.000;    0.000
253.973;  339.625;    0.000;    0.000
254.041;  343.625;    0.000;    0.000
254.110;  298.625;    0.000;    0.000
254.178;  301.625;    0.000;    0.000
254.246;  293.625;    0.000;    0.000
254.314;  325.625;    0.000;    0.000
254.382;  303.625;    0.000;    0.000
254.450;  329.625;    0.000;    0.000
254.518;  286.625;    0.000;    0.000
254.587;  342.625;    0.000;    0.000
254.655;  332.625;    0.000;    0.000
254.723;  341.625;    0.000;    0.000
254.791;  352.625;    0.000;    0.000
254.859;  341.625;    0.000;    0.000
254.927;  357.625;    0.000;    0.000
254.995;  324.625;    0.000;    0.000
255.063;  346.625;    0.000;    0.000
255.131;  320.625;    0.000;    0.000
255.199;  284.625;    0.000;    0.000
255.267;  338.625;    0.000;    0.000
255.336;  330.625;    0.000;    0.000
255.404;  275.625;    0.000;    0.000
255.472;  368.625;    0.000;    0.000
255.540;  330.625;    0.000;    0.000
255.608;  331.625;    0.000;    0.000
255.676;  297.625;    0.000;    0.000
255.744;  285.625;    0.000;    0.000
255.812;  336.625;    0.000;    0.000
255.880;  357.625;    0.000;    0.000
255.948;  307.625;    0.000;    0.000
256.016;  312.625;    0.000;    0.000
256.084;  314.625;    0.000;    0.000
256.152;  342.625;    0.000;    0.000
256.220;  344.625;    0.000;    0.000
256.288;  293.625;    0.000;    0.000
256.356;  294.625;    0.000;    0.000
256.424;  251.625;    0.000;    0.000
256.491;  311.625;    0.000;    0.000
256.559;  348.625;    0.000;    0.000
256.627;  322.625;    0.000;    0.000
256.695;  283.625;    0.000;    0.000
256.763;  315.625;    0.000;    0.000
256.831;  309.625;    0.000;    0.000
256.899;  328.625;    0.000;    0.000
256.967;  349.625;    0.000;    0.000
257.035;  331.625;    0.000;    0.000
257.103;  315.625;    0.000;    0.000
257.171;  294.625;    0.000;    0.000
257.238;  332.625;    0.000;    0.000
257.306;  332.625;    0.000;    0.000
257.374;  323.625;    0.000;    0.000
257.442;  329.625;    0.000;    0.000
257.510;  331.625;    0.000;    0.000
257.578;  348.625;    0.000;    0.000
257.646;  338.625;    0.000;    0.000
257.713;  311.625;    0.000;    0.000
257.781;  316.625;    0.000;    0.000
257.849;  371.625;    0.000;    0.000
257.917;  328.625;    0.000;    0.000
257.985;  281.625;    0.000;    0.000
258.052;  353.625;    0.000;    0.000
258.120;  354.625;    0.000;    0.000
258.188;  311.625;    0.000;    0.000
258.256;  332.625;    0.000;    0.000
258.324;  320.625;    0.000;    0.000
258.391;  384.625;    0.000;    0.000
258.459;  389.625;    0.000;    0.000
258.527;  305.625;    0.000;    0.000
258.595;  336.625;    0.000;    0.000
258.662;  324.625;    0.000;    0.000
258.730;  404.625;    0.000;    0.000
258.798;  304.625;    0.000;    0.000
258.865;  326.625;    0.000;    0.000
258.933;  382.625;    0.000;    0.000
259.001;  388.625;    0.000;    0.000
259.069;  332.625;    0.000;    0.000
259.136;  360.625;    0.000;    0.000
259.204;  371.625;    0.000;    0.000
259.272;  363.625;    0.000;    0.000
259.339;  310.625;    0.000;    0.000
259.407;  392.625;    0.000;    0.000
259.475;  382.625;    0.000;    0.000
259.542;  381.625;    0.000;    0.000
259.610;  345.625;    0.000;    0.000
259.677;  365.625;    0.000;    0.000
259.745;  346.625;    0.000;    0.000
259.813;  357.625;    0.000;    0.000
259.880;  408.625;    0.000;    0.000
259.948;  402.625;    0.000;    0.000
260.016;  382.625;    0.000;    0.000
260.083;  451.625;    0.000;    0.000
260.151;  386.625;    0.000;    0.000
260.218;  398.625;    0.000;    0.000
260.286;  407.625;    0.000;    0.000
260.353;  441.625;    0.000;    0.000
260.421;  413.625;    0.000;    0.000
260.489;  419.625;    0.000;    0.000
260.556;  457.625;    0.000;    0.000
260.624;  465.625;    0.000;    0.000
260.691;  448.625;    0.000;    0.000
260.759;  432.625;    0.000;    0.000
260.826;  429.625;    0.000;    0.000
260.894;  436.625;    0.000;    0.000
260.961;  450.625;    0.000;    0.000
261.029;  444.625;    0.000;    0.000
261.096;  446.625;    0.000;    0.000
261.164;  468.625;    0.000;    0.000
261.231;  516.625;    0.000;    0.000
261.299;  463.625;    0.000;    0.000
261.366;  478.625;    0.000;    0.000
261.434;  463.625;    0.000;    0.000
261.501;  488.625;    0.000;    0.000
261.568;  508.625;    0.000;    0.000
261.636;  495.625;    0.000;    0.000
261.703;  503.625;    0.000;    0.000
261.771;  471.625;    0.000;    0.000
261.838;  528.625;    0.000;    0.000
261.906;  480.625;    0.000;    0.000
261.973;  511.625;    0.000;    0.000
262.040;  539.625;    0.000;    0.000
262.108;  507.625;    0.000;    0.000
262.175;  488.625;    0.000;    0.000
262.243;  538.625;    0.000;    0.000
262.310;  551.625;    0.000;    0.000
262.377;  527.625;    0.000;    0.000
262.445;  573.625;    0.000;    0.000
262.512;  490.625;    0.000;    0.000
262.579;  557.625;    0.000;    0.000
262.647;  577.625;    0.000;    0.000
262.714;  583.625;    0.000;    0.000
262.781;  538.625;    0.000;    0.000
262.849;  513.625;    0.000;    0.000
262.916;  560.625;    0.000;    0.000
262.983;  556.625;    0.000;    0.000
263.051;  545.625;    0.000;    0.000
263.118;  539.625;    0.000;    0.000
263.185;  532.625;    0.000;    0.000
263.252;  584.625;    0.000;    0.000
263.320;  540.625;    0.000;    0.000
263.387;  580.625;    0.000;    0.000
263.454;  643.625;    0.000;    0.000
263.522;  640.625;    0.000;    0.000
263.589;  572.625;    0.000;    0.000
263.656;  580.625;    0.000;    0.000
263.723;  626.625;    0.000;    0.000
263.790;  615.625;    0.000;    0.000
263.858;  620.625;    0.000;    0.000
263.925;  680.625;    0.000;    0.000
263.992;  638.625;    0.000;    0.000
264.059;  665.625;    0.000;    0.000
264.126;  695.625;    0.000;    0.000
264.194;  630.625;    0.000;    0.000
264.261;  672.625;    0.000;    0.000
264.328;  623.625;    0.000;    0.000
264.395;  660.625;    0.000;    0.000
264.462;  661.625;    0.000;    0.000
264.529;  651.625;    0.000;    0.000
264.597;  636.625;    0.000;    0.000
264.664;  655.625;    0.000;    0.000
264.731;  714.625;    0.000;    0.000
264.798;  608.625;    0.000;    0.000
264.865;  695.625;    0.000;    0.000
264.932;  652.625;    0.000;    0.000
264.999;  719.625;    0.000;    0.000
265.066;  623.625;    0.000;    0.000
265.133;  724.625;    0.000;    0.000
265.201;  693.625;    0.000;    0.000
265.268;  692.625;    0.000;    0.000
265.335;  727.625;    0.000;    0.000
265.402;  637.625;    0.000;    0.000
265.469;  698.625;    0.000;    0.000
265.536;  690.625;    0.000;    0.000
265.603;  724.625;    0.000;    0.000
265.670;  707.625;    0.000;    0.000
265.737;  698.625;    0.000;    0.000
265.804;  715.625;    0.000;    0.000
265.871;  741.625;    0.000;    0.000
265.938;  714.625;    0.000;    0.000
266.005;  771.625;    0.000;    0.000
266.072;  727.625;    0.000;    0.000
266.139;  737.625;    0.000;    0.000
266.206;  714.625;    0.000;    0.000
266.273;  759.625;    0.000;    0.000
266.340;  763.625;    0.000;    0.000
266.407;  769.625;    0.000;    0.000
266.474;  736.625;    0.000;    0.000
266.541;  747.625;    0.000;    0.000
266.608;  723.625;    0.000;    0.000
266.675;  805.625;    0.000;    0.000
266.742;  792.625;    0.000;    0.000
266.808;  796.625;    0.000;    0.000
266.875;  811.625;    0.000;    0.000
266.942;  777.625;    0.000;    0.000
267.009;  762.625;    0.000;    0.000
267.076;  794.625;    0.000;    0.000
267.143;  846.625;    0.000;    0.000
267.210;  731.625;    0.000;    0.000
267.277;  764.625;    0.000;    0.000
267.344;  709.625;    0.000;    0.000
267.410;  807.625;    0.000;    0.000
267.477;  779.625;    0.000;    0.000
267.544;  789.625;    0.000;    0.000
267.611;  888.625;    0.000;    0.000
267.678;  778.625;    0.000;    0.000
267.745;  823.625;    0.000;    0.000
267.811;  801.625;    0.000;    0.000
267.878;  844.625;    0.000;    0.000
267.945;  824.625;    0.000;    0.000
268.012;  799.625;    0.000;    0.000
268.079;  789.625;    0.000;    0.000
268.145;  790.625;    0.000;    0.000
268.212;  768.625;    0.000;    0.000
268.279;  792.625;    0.000;    0.000
268.346;  789.625;    0.000;    0.000
268.412;  762.625;    0.000;    0.000
268.479;  821.625;    0.000;    0.000
268.546;  838.625;    0.000;    0.000
268.613;  808.625;    0.000;    0.000
268.679;  810.625;    0.000;    0.000
268.746;  805.625;    0.000;    0.000
268.813;  840.625;    0.000;    0.000
268.879;  803.625;    0.000;    0.000
268.946;  820.625;    0.000;    0.000
269.013;  823.625;    0.000;    0.000
269.079;  792.625;    0.000;    0.000
269.146;  758.625;    0.000;    0.000
269.213;  825.625;    0.000;    0.000
269.280;  818.625;    0.000;    0.000
269.346;  817.625;    0.000;    0.000
269.413;  756.625;    0.000;    0.000
269.479;  793.625;    0.000;    0.000
269.546;  878.625;    0.000;    0.000
269.613;  817.625;    0.000;    0.000
269.679;  788.625;    0.000;    0.000
269.746;  798.625;    0.000;    0.000
269.813;  816.625;    0.000;    0.000
269.879;  797.625;    0.000;    0.000
269.946;  802.625;    0.000;    0.000
270.012;  844.625;    0.000;    0.000
270.079;  793.625;    0.000;    0.000
270.145;  848.625;    0.000;    0.000
270.212;  808.625;    0.000;    0.000
270.279;  867.625;    0.000;    0.000
270.345;  810.625;    0.000;    0.000
270.412;  826.625;    0.000;    0.000
270.478;  796.625;    0.000;    0.000
270.545;  820.625;    0.000;    0.000
270.611;  821.625;    0.000;    0.000
270.678;  801.625;    0.000;    0.000
270.744;  817.625;    0.000;    0.000
270.811;  796.625;    0.000;    0.000
270.877;  794.625;    0.000;    0.000
270.944;  824.625;    0.000;    0.000
271.010;  796.625;    0.000;    0.000
271.077;  814.625;    0.000;    0.000
271.143;  826.625;    0.000;    0.000
271.210;  767.625;    0.000;    0.000
271.276;  794.625;    0.000;    0.000
271.342;  822.625;    0.000;    0.000
271.409;  815.625;    0.000;    0.000
271.475;  779.625;    0.000;    0.000
271.542;  815.625;    0.000;    0.000
271.608;  785.625;    0.000;    0.000
271.675;  787.625;    0.000;    0.000
271.741;  853.625;    0.000;    0.000
271.807;  813.625;    0.000;    0.000
271.874;  873.625;    0.000;    0.000
271.940;  816.625;    0.000;    0.000
272.007;  825.625;    0.000;    0.000
272.073;  812.625;    0.000;    0.000
272.139;  854.625;    0.000;    0.000
272.206;  790.625;    0.000;    0.000
272.272;  854.625;    0.000;    0.000
272.338;  856.625;    0.000;    0.000
272.405;  850.625;    0.000;    0.000
272.471;  831.625;    0.000;    0.000
272.537;  855.625;    0.000;    0.000
272.604;  765.625;    0.000;    0.000
272.670;  848.625;    0.000;    0.000
272.736;  851.625;    0.000;    0.000
272.802;  855.625;    0.000;    0.000
272.869;  819.625;    0.000;    0.000
272.935;  842.625;    0.000;    0.000
273.001;  854.625;    0.000;    0.000
273.068;  825.625;    0.000;    0.000
273.134;  839.625;    0.000;    0.000
273.200;  853.625;    0.000;    0.000
273.266;  839.625;    0.000;    0.000
273.333;  829.625;    0.000;    0.000
273.399;  798.625;    0.000;    0.000
273.465;  875.625;    0.000;    0.000
273.531;  802.625;    0.000;    0.000
273.597;  909.625;    0.000;    0.000
273.664;  868.625;    0.000;    0.000
273.730;  877.625;    0.000;    0.000
273.796;  885.625;    0.000;    0.000
273.862;  855.625;    0.000;    0.000
273.928;  950.625;    0.000;    0.000
273.995;  924.625;    0.000;    0.000
274.061;  896.625;    0.000;    0.000
274.127;  860.625;    0.000;    0.000
274.193;  847.625;    0.000;    0.000
274.259;  913.625;    0.000;    0.000
274.325;  952.625;    0.000;    0.000
274.391;  902.625;    0.000;    0.000
274.457;  866.625;    0.000;    0.000
274.524;  957.625;    0.000;    0.000
274.590;  914.625;    0.000;    0.000
274.656;  928.625;    0.000;    0.000
274.722;  909.625;    0.000;    0.000
274.788;  889.625;    0.000;    0.000
274.854;  928.625;    0.000;    0.000
274.920;  903.625;    0.000;    0.000
274.986;  920.625;    0.000;    0.000
275.052;  904.625;    0.000;    0.000
275.118;  976.625;    0.000;    0.000
275.184;  984.625;    0.000;    0.000
275.250;  923.625;    0.000;    0.000
275.316;  980.625;    0.000;    0.000
275.382;  968.625;    0.000;    0.000
275.448;  990.625;    0.000;    0.000
275.514;  944.625;    0.000;    0.000
275.580; 1001.625;    0.000;    0.000
275.646;  980.625;    0.000;    0.000
275.712; 1050.625;    0.000;    0.000
275.778; 1007.625;    0.000;    0.000
275.844;  970.625;    0.000;    0.000
275.910; 1012.625;    0.000;    0.000
275.976; 1062.625;    0.000;    0.000
276.042; 1047.625;    0.000;    0.000
276.108; 1049.625;    0.000;    0.000
276.174; 1051.625;    0.000;    0.000
276.240; 1052.625;    0.000;    0.000
276.306; 1127.625;    0.000;    0.000
276.372; 1113.625;    0.000;    0.000
276.437; 1114.625;    0.000;    0.000
276.503; 1151.625;    0.000;    0.000
276.569; 1196.625;    0.000;    0.000
276.635; 1151.625;    0.000;    0.000
276.701; 1192.625;    0.000;    0.000
276.767; 1155.625;    0.000;    0.000
276.833; 1183.625;    0.000;    0.000
276.899; 1262.625;    0.000;    0.000
276.964; 1383.625;    0.000;    0.000
277.030; 1322.625;    0.000;    0.000
277.096; 1353.625;    0.000;    0.000
277.162; 1417.625;    0.000;    0.000
277.228; 1385.625;    0.000;    0.000
277.293; 1441.625;    0.000;    0.000
277.359; 1497.625;    0.000;    0.000
277.425; 1614.625;    0.000;    0.000
277.491; 1686.625;    0.000;    0.000
277.557; 1710.625;    0.000;    0.000
277.622; 2414.625;    0.000;    0.000
277.688; 2600.625;    0.000;    0.000
277.754; 2385.625;    0.000;    0.000
277.820; 2761.625;    0.000;    0.000
277.885; 3017.625;    0.000;    0.000
277.951; 3835.625;    0.000;    0.000
278.017; 3678.625;    0.000;    0.000
278.083; 3142.625;    0.000;    0.000
278.148; 2968.625;    0.000;    0.000
278.214; 2868.625;    0.000;    0.000
278.280; 3155.625;    0.000;    0.000
278.345; 3061.625;    0.000;    0.000
278.411; 2711.625;    0.000;    0.000
278.477; 2762.625;    0.000;    0.000
278.542; 2848.625;    0.000;    0.000
278.608; 3233.625;    0.000;    0.000
278.674; 3512.625;    0.000;    0.000
278.739; 3843.625;    0.000;    0.000
278.805; 4299.625;    0.000;    0.000
278.871; 4932.625;    0.000;    0.000
278.936; 5848.625;    0.000;    0.000
279.002; 7812.625;    0.000;    0.000
279.067;10967.625;    0.000;    0.000
279.133;11569.625;    0.000;    0.000
279.199;10532.625;    0.000;    0.000
279.264;10312.625;    0.000;    0.000
279.330;11398.625;    0.000;    0.000
279.395;13633.625;    0.000;    0.000
279.461;16992.625;    0.000;    0.000
279.527;18608.625;    0.000;    0.000
279.592;18580.625;    0.000;    0.000
279.658;17085.625;    0.000;    0.000
279.723;16006.625;    0.000;    0.000
279.789;16874.625;    0.000;    0.000
279.854;15760.625;    0.000;    0.000
279.920;13402.625;    0.000;    0.000
279.985;12042.625;    0.000;    0.000
280.051;11785.625;    0.000;    0.000
280.116;13161.625;    0.000;    0.000
280.182;16152.625;    0.000;    0.000
280.247;17989.625;    0.000;    0.000
280.313;17515.625;    0.000;    0.000
280.378;13920.625;    0.000;    0.000
280.444;10672.625;    0.000;    0.000
280.509; 8420.625;    0.000;    0.000
280.574; 6962.625;    0.000;    0.000
280.640; 6067.625;    0.000;    0.000
280.705; 5492.625;    0.000;    0.000
280.771; 5048.625;    0.000;    0.000
280.836; 4598.625;    0.000;    0.000
280.902; 4291.625;    0.000;    0.000
280.967; 3993.625;    0.000;    0.000
281.032; 3706.625;    0.000;    0.000
281.098; 3374.625;    0.000;    0.000
281.163; 3261.625;    0.000;    0.000
281.229; 3225.625;    0.000;    0.000
281.294; 3010.625;    0.000;    0.000
281.359; 2923.625;    0.000;    0.000
281.425; 2835.625;    0.000;    0.000
281.490; 2618.625;    0.000;    0.000
281.555; 2632.625;    0.000;    0.000
281.621; 2513.625;    0.000;    0.000
281.686; 2439.625;    0.000;    0.000
281.751; 2349.625;    0.000;    0.000
281.816; 2231.625;    0.000;    0.000
281.882; 2222.625;    0.000;    0.000
281.947; 2140.625;    0.000;    0.000
282.012; 2129.625;    0.000;    0.000
282.078; 2124.625;    0.000;    0.000
282.143; 2075.625;    0.000;    0.000
282.208; 1989.625;    0.000;    0.000
282.273; 1974.625;    0.000;    0.000
282.339; 1888.625;    0.000;    0.000
282.404; 1894.625;    0.000;    0.000
282.469; 1875.625;    0.000;    0.000
282.534; 1842.625;    0.000;    0.000
282.600; 1775.625;    0.000;    0.000
282.665; 1816.625;    0.000;    0.000
282.730; 1783.625;    0.000;    0.000
282.795; 1725.625;    0.000;    0.000
282.860; 1761.625;    0.000;    0.000
282.926; 1723.625;    0.000;    0.000
282.991; 1652.625;    0.000;    0.000
283.056; 1613.625;    0.000;    0.000
283.121; 1614.625;    0.000;    0.000
283.186; 1618.625;    0.000;    0.000
283.251; 1617.625;    0.000;    0.000
283.316; 1610.625;    0.000;    0.000
283.382; 1602.625;    0.000;    0.000
283.447; 1601.625;    0.000;    0.000
283.512; 1473.625;    0.000;    0.000
283.577; 1556.625;    0.000;    0.000
283.642; 1487.625;    0.000;    0.000
283.707; 1469.625;    0.000;    0.000
283.772; 1528.625;    0.000;    0.000
283.837; 1476.625;    0.000;    0.000
283.902; 1494.625;    0.000;    0.000
283.967; 1477.625;    0.000;    0.000
284.032; 1442.625;    0.000;    0.000
284.097; 1572.625;    0.000;    0.000
284.163; 1518.625;    0.000;    0.000
284.228; 1541.625;    0.000;    0.000
284.293; 1510.625;    0.000;    0.000
284.358; 1659.625;    0.000;    0.000
284.423; 1582.625;    0.000;    0.000
284.488; 1643.625;    0.000;    0.000
284.553; 1646.625;    0.000;    0.000
284.618; 1697.625;    0.000;    0.000
284.683; 1671.625;    0.000;    0.000
284.748; 1791.625;    0.000;    0.000
284.812; 1915.625;    0.000;    0.000
284.877; 2039.625;    0.000;    0.000
284.942; 2260.625;    0.000;    0.000
285.007; 2613.625;    0.000;    0.000
285.072; 3261.625;    0.000;    0.000
285.137; 4675.625;    0.000;    0.000
285.202; 6687.625;    0.000;    0.000
285.267; 6648.625;    0.000;    0.000
285.332; 5028.625;    0.000;    0.000
285.397; 3674.625;    0.000;    0.000
285.462; 3009.625;    0.000;    0.000
285.527; 2525.625;    0.000;    0.000
285.591; 2236.625;    0.000;    0.000
285.656; 2056.625;    0.000;    0.000
285.721; 2045.625;    0.000;    0.000
285.786; 1874.625;    0.000;    0.000
285.851; 1764.625;    0.000;    0.000
285.916; 1810.625;    0.000;    0.000
285.981; 1650.625;    0.000;    0.000
286.045; 1680.625;    0.000;    0.000
286.110; 1595.625;    0.000;    0.000
286.175; 1586.625;    0.000;    0.000
286.240; 1469.625;    0.000;    0.000
286.305; 1559.625;    0.000;    0.000
286.369; 1508.625;    0.000;    0.000
286.434; 1533.625;    0.000;    0.000
286.499; 1453.625;    0.000;    0.000
286.564; 1460.625;    0.000;    0.000
286.628; 1449.625;    0.000;    0.000
286.693; 1442.625;    0.000;    0.000
286.758; 1420.625;    0.000;    0.000
286.823; 1422.625;    0.000;    0.000
286.887; 1394.625;    0.000;    0.000
286.952; 1446.625;    0.000;    0.000
287.017; 1433.625;    0.000;    0.000
287.082; 1446.625;    0.000;    0.000
287.146; 1387.625;    0.000;    0.000
287.211; 1441.625;    0.000;    0.000
287.276; 1323.625;    0.000;    0.000
287.340; 1340.625;    0.000;    0.000
287.405; 1427.625;    0.000;    0.000
287.470; 1375.625;    0.000;    0.000
287.534; 1434.625;    0.000;    0.000
287.599; 1419.625;    0.000;    0.000
287.663; 1430.625;    0.000;    0.000
287.728; 1307.625;    0.000;    0.000
287.793; 1393.625;    0.000;    0.000
287.857; 1391.625;    0.000;    0.000
287.922; 1321.625;    0.000;    0.000
287.987; 1335.625;    0.000;    0.000
288.051; 1359.625;    0.000;    0.000
288.116; 1316.625;    0.000;    0.000
288.180; 1367.625;    0.000;    0.000
288.245; 1376.625;    0.000;    0.000
288.309; 1363.625;    0.000;    0.000
288.374; 1333.625;    0.000;    0.000
288.439; 1336.625;    0.000;    0.000
288.503; 1339.625;    0.000;    0.000
288.568; 1298.625;    0.000;    0.000
288.632; 1379.625;    0.000;    0.000
288.697; 1362.625;    0.000;    0.000
288.761; 1308.625;    0.000;    0.000
288.826; 1261.625;    0.000;    0.000
288.890; 1343.625;    0.000;    0.000
288.955; 1345.625;    0.000;    0.000
289.019; 1319.625;    0.000;    0.000
289.084; 1278.625;    0.000;    0.000
289.148; 1326.625;    0.000;    0.000
289.212; 1325.625;    0.000;    0.000
289.277; 1346.625;    0.000;    0.000
289.341; 1357.625;    0.000;    0.000
289.406; 1345.625;    0.000;    0.000
289.470; 1363.625;    0.000;    0.000
289.535; 1406.625;    0.000;    0.000
289.599; 1371.625;    0.000;    0.000
289.663; 1360.625;    0.000;    0.000
289.728; 1300.625;    0.000;    0.000
289.792; 1317.625;    0.000;    0.000
289.857; 1383.625;    0.000;    0.000
289.921; 1347.625;    0.000;    0.000
289.985; 1296.625;    0.000;    0.000
290.050; 1288.625;    0.000;    0.000
290.114; 1342.625;    0.000;    0.000
290.178; 1369.625;    0.000;    0.000
290.243; 1305.625;    0.000;    0.000
290.307; 1374.625;    0.000;    0.000
290.371; 1318.625;    0.000;    0.000
290.436; 1365.625;    0.000;    0.000
290.500; 1334.625;    0.000;    0.000
290.564; 1424.625;    0.000;    0.000
290.629; 1373.625;    0.000;    0.000
290.693; 1327.625;    0.000;    0.000
290.757; 1364.625;    0.000;    0.000
290.821; 1347.625;    0.000;    0.000
290.886; 1410.625;    0.000;    0.000
290.950; 1400.625;    0.000;    0.000
291.014; 1401.625;    0.000;    0.000
291.078; 1484.625;    0.000;    0.000
291.143; 1429.625;    0.000;    0.000
291.207; 1529.625;    0.000;    0.000
291.271; 1436.625;    0.000;    0.000
291.335; 1416.625;    0.000;    0.000
291.399; 1546.625;    0.000;    0.000
291.464; 1604.625;    0.000;    0.000
291.528; 1674.625;    0.000;    0.000
291.592; 1678.625;    0.000;    0.000
291.656; 1582.625;    0.000;    0.000
291.720; 1555.625;    0.000;    0.000
291.784; 1616.625;    0.000;    0.000
291.849; 1547.625;    0.000;    0.000
291.913; 1547.625;    0.000;    0.000
291.977; 1569.625;    0.000;    0.000
292.041; 1571.625;    0.000;    0.000
292.105; 1594.625;    0.000;    0.000
292.169; 1591.625;    0.000;    0.000
292.233; 1625.625;    0.000;    0.000
292.297; 1650.625;    0.000;    0.000
292.361; 1659.625;    0.000;    0.000
292.425; 1709.625;    0.000;    0.000
292.490; 1845.625;    0.000;    0.000
292.554; 1874.625;    0.000;    0.000
292.618; 1931.625;    0.000;    0.000
292.682; 2095.625;    0.000;    0.000
292.746; 2374.625;    0.000;    0.000
292.810; 3012.625;    0.000;    0.000
292.874; 3843.625;    0.000;    0.000
292.938; 4265.625;    0.000;    0.000
293.002; 3863.625;    0.000;    0.000
293.066; 3489.625;    0.000;    0.000
293.130; 3138.625;    0.000;    0.000
293.194; 3013.625;    0.000;    0.000
293.258; 2890.625;    0.000;    0.000
293.322; 2847.625;    0.000;    0.000
293.386; 2934.625;    0.000;    0.000
293.450; 3059.625;    0.000;    0.000
293.514; 3474.625;    0.000;    0.000
293.577; 4113.625;    0.000;    0.000
293.641; 5805.625;    0.000;    0.000
293.705; 6839.625;    0.000;    0.000
293.769; 6163.625;    0.000;    0.000
293.833; 5335.625;    0.000;    0.000
293.897; 4736.625;    0.000;    0.000
293.961; 4146.625;    0.000;    0.000
294.025; 3753.625;    0.000;    0.000
294.089; 3489.625;    0.000;    0.000
294.152; 3331.625;    0.000;    0.000
294.216; 2944.625;    0.000;    0.000
294.280; 2843.625;    0.000;    0.000
294.344; 2752.625;    0.000;    0.000
294.408; 2596.625;    0.000;    0.000
294.472; 2457.625;    0.000;    0.000
294.536; 2408.625;    0.000;    0.000
294.599; 2337.625;    0.000;    0.000
294.663; 2200.625;    0.000;    0.000
294.727; 2186.625;    0.000;    0.000
294.791; 2036.625;    0.000;    0.000
294.855; 2170.625;    0.000;    0.000
294.918; 2034.625;    0.000;    0.000
294.982; 1992.625;    0.000;    0.000
295.046; 1969.625;    0.000;    0.000
295.110; 1906.625;    0.000;    0.000
295.173; 1949.625;    0.000;    0.000
295.237; 1865.625;    0.000;    0.000
295.301; 1852.625;    0.000;    0.000
295.364; 1834.625;    0.000;    0.000
295.428; 1833.625;    0.000;    0.000
295.492; 1866.625;    0.000;    0.000
295.556; 1802.625;    0.000;    0.000
295.619; 1862.625;    0.000;    0.000
295.683; 1749.625;    0.000;    0.000
295.747; 1724.625;    0.000;    0.000
295.810; 1779.625;    0.000;    0.000
295.874; 1721.625;    0.000;    0.000
295.938; 1755.625;    0.000;    0.000
296.001; 1714.625;    0.000;    0.000
296.065; 1642.625;    0.000;    0.000
296.128; 1721.625;    0.000;    0.000
296.192; 1710.625;    0.000;    0.000
296.256; 1693.625;    0.000;    0.000
296.319; 1619.625;    0.000;    0.000
296.383; 1663.625;    0.000;    0.000
296.447; 1616.625;    0.000;    0.000
296.510; 1595.625;    0.000;    0.000
296.574; 1642.625;    0.000;    0.000
296.637; 1667.625;    0.000;    0.000
296.701; 1633.625;    0.000;    0.000
296.764; 1624.625;    0.000;    0.000
296.828; 1691.625;    0.000;    0.000
296.891; 1569.625;    0.000;    0.000
296.955; 1675.625;    0.000;    0.000
297.018; 1624.625;    0.000;    0.000
297.082; 1596.625;    0.000;    0.000
297.145; 1621.625;    0.000;    0.000
297.209; 1566.625;    0.000;    0.000
297.272; 1647.625;    0.000;    0.000
297.336; 1592.625;    0.000;    0.000
297.399; 1638.625;    0.000;    0.000
297.463; 1620.625;    0.000;    0.000
297.526; 1637.625;    0.000;    0.000
297.590; 1543.625;    0.000;    0.000
297.653; 1624.625;    0.000;    0.000
297.717; 1585.625;    0.000;    0.000
297.780; 1606.625;    0.000;    0.000
297.843; 1610.625;    0.000;    0.000
297.907; 1603.625;    0.000;    0.000
297.970; 1646.625;    0.000;    0.000
298.034; 1528.625;    0.000;    0.000
298.097; 1553.625;    0.000;    0.000
298.160; 1533.625;    0.000;    0.000
298.224; 1551.625;    0.000;    0.000
298.287; 1527.625;    0.000;    0.000
298.350; 1580.625;    0.000;    0.000
298.414; 1592.625;    0.000;    0.000
298.477; 1526.625;    0.000;    0.000
298.540; 1605.625;    0.000;    0.000
298.604; 1541.625;    0.000;    0.000
298.667; 1592.625;    0.000;    0.000
298.730; 1506.625;    0.000;    0.000
298.794; 1495.625;    0.000;    0.000
298.857; 1576.625;    0.000;    0.000
298.920; 1546.625;    0.000;    0.000
298.984; 1558.625;    0.000;    0.000
299.047; 1539.625;    0.000;    0.000
299.110; 1575.625;    0.000;    0.000
299.173; 1522.625;    0.000;    0.000
299.237; 1533.625;    0.000;    0.000
299.300; 1521.625;    0.000;    0.000
299.363; 1543.625;    0.000;    0.000
299.426; 1481.625;    0.000;    0.000
299.489; 1461.625;    0.000;    0.000
299.553; 1584.625;    0.000;    0.000
299.616; 1496.625;    0.000;    0.000
299.679; 1529.625;    0.000;    0.000
299.742; 1434.625;    0.000;    0.000
299.805; 1464.625;    0.000;    0.000
299.868; 1494.625;    0.000;    0.000
299.932; 1542.625;    0.000;    0.000
299.995; 1478.625;    0.000;    0.000
300.058; 1469.625;    0.000;    0.000
300.121; 1552.625;    0.000;    0.000
300.184; 1485.625;    0.000;    0.000
300.247; 1539.625;    0.000;    0.000
300.310; 1471.625;    0.000;    0.000
300.374; 1478.625;    0.000;    0.000
300.437; 1516.625;    0.000;    0.000
300.500; 1570.625;    0.000;    0.000
300.563; 1511.625;    0.000;    0.000
300.626; 1589.625;    0.000;    0.000
300.689; 1509.625;    0.000;    0.000
300.752; 1450.625;    0.000;    0.000
300.815; 1515.625;    0.000;    0.000
300.878; 1591.625;    0.000;    0.000
300.941; 1588.625;    0.000;    0.000
301.004; 1494.625;    0.000;    0.000
301.067; 1535.625;    0.000;    0.000
301.130; 1537.625;    0.000;    0.000
301.193; 1499.625;    0.000;    0.000
301.256; 1500.625;    0.000;    0.000
301.319; 1471.625;    0.000;    0.000
301.382; 1517.625;    0.000;    0.000
301.445; 1520.625;    0.000;    0.000
301.508; 1497.625;    0.000;    0.000
301.571; 1532.625;    0.000;    0.000
301.634; 1529.625;    0.000;    0.000
301.697; 1468.625;    0.000;    0.000
301.760; 1560.625;    0.000;    0.000
301.823; 1468.625;    0.000;    0.000
301.885; 1514.625;    0.000;    0.000
301.948; 1518.625;    0.000;    0.000
302.011; 1494.625;    0.000;    0.000
302.074; 1524.625;    0.000;    0.000
302.137; 1526.625;    0.000;    0.000
302.200; 1569.625;    0.000;    0.000
302.263; 1545.625;    0.000;    0.000
302.326; 1501.625;    0.000;    0.000
302.388; 1538.625;    0.000;    0.000
302.451; 1491.625;    0.000;    0.000
302.514; 1578.625;    0.000;    0.000
302.577; 1542.625;    0.000;    0.000
302.640; 1540.625;    0.000;    0.000
302.703; 1469.625;    0.000;    0.000
302.765; 1589.625;    0.000;    0.000
302.828; 1595.625;    0.000;    0.000
302.891; 1561.625;    0.000;    0.000
302.954; 1486.625;    0.000;    0.000
303.016; 1582.625;    0.000;    0.000
303.079; 1634.625;    0.000;    0.000
303.142; 1515.625;    0.000;    0.000
303.205; 1518.625;    0.000;    0.000
303.267; 1505.625;    0.000;    0.000
303.330; 1605.625;    0.000;    0.000
303.393; 1541.625;    0.000;    0.000
303.456; 1585.625;    0.000;    0.000
303.518; 1611.625;    0.000;    0.000
303.581; 1552.625;    0.000;    0.000
303.644; 1546.625;    0.000;    0.000
303.706; 1536.625;    0.000;    0.000
303.769; 1608.625;    0.000;    0.000
303.832; 1509.625;    0.000;    0.000
303.894; 1584.625;    0.000;    0.000
303.957; 1591.625;    0.000;    0.000
304.020; 1648.625;    0.000;    0.000
304.082; 1580.625;    0.000;    0.000
304.145; 1676.625;    0.000;    0.000
304.207; 1584.625;    0.000;    0.000
304.270; 1635.625;    0.000;    0.000
304.333; 1680.625;    0.000;    0.000
304.395; 1698.625;    0.000;    0.000
304.458; 1556.625;    0.000;    0.000
304.520; 1670.625;    0.000;    0.000
304.583; 1631.625;    0.000;    0.000
304.646; 1580.625;    0.000;    0.000
304.708; 1617.625;    0.000;    0.000
304.771; 1660.625;    0.000;    0.000
304.833; 1631.625;    0.000;    0.000
304.896; 1653.625;    0.000;    0.000
304.958; 1642.625;    0.000;    0.000
305.021; 1564.625;    0.000;    0.000
305.083; 1700.625;    0.000;    0.000
305.146; 1671.625;    0.000;    0.000
305.208; 1716.625;    0.000;    0.000
305.271; 1659.625;    0.000;    0.000
305.333; 1740.625;    0.000;    0.000
305.396; 1698.625;    0.000;    0.000
305.458; 1715.625;    0.000;    0.000
305.520; 1728.625;    0.000;    0.000
305.583; 1691.625;    0.000;    0.000
305.645; 1784.625;    0.000;    0.000
305.708; 1739.625;    0.000;    0.000
305.770; 1713.625;    0.000;    0.000
305.833; 1732.625;    0.000;    0.000
305.895; 1725.625;    0.000;    0.000
305.957; 1742.625;    0.000;    0.000
306.020; 1723.625;    0.000;    0.000
306.082; 1680.625;    0.000;    0.000
306.144; 1740.625;    0.000;    0.000
306.207; 1676.625;    0.000;    0.000
306.269; 1735.625;    0.000;    0.000
306.331; 1745.625;    0.000;    0.000
306.394; 1676.625;    0.000;    0.000
306.456; 1658.625;    0.000;    0.000
306.518; 1730.625;    0.000;    0.000
306.581; 1743.625;    0.000;    0.000
306.643; 1784.625;    0.000;    0.000
306.705; 1780.625;    0.000;    0.000
306.768; 1837.625;    0.000;    0.000
306.830; 1803.625;    0.000;    0.000
306.892; 1847.625;    0.000;    0.000
306.954; 1790.625;    0.000;    0.000
307.017; 1752.625;    0.000;    0.000
307.079; 1804.625;    0.000;    0.000
307.141; 1749.625;    0.000;    0.000
307.203; 1783.625;    0.000;    0.000
307.266; 1897.625;    0.000;    0.000
307.328; 1936.625;    0.000;    0.000
307.390; 1832.625;    0.000;    0.000
307.452; 1746.625;    0.000;    0.000
307.514; 1925.625;    0.000;    0.000
307.577; 1828.625;    0.000;    0.000
307.639; 1892.625;    0.000;    0.000
307.701; 1910.625;    0.000;    0.000
307.763; 1819.625;    0.000;    0.000
307.825; 1930.625;    0.000;    0.000
307.887; 1860.625;    0.000;    0.000
307.949; 1864.625;    0.000;    0.000
308.012; 1885.625;    0.000;    0.000
308.074; 1925.625;    0.000;    0.000
308.136; 1929.625;    0.000;    0.000
308.198; 1920.625;    0.000;    0.000
308.260; 1868.625;    0.000;    0.000
308.322; 1980.625;    0.000;    0.000
308.384; 1924.625;    0.000;    0.000
308.446; 1876.625;    0.000;    0.000
308.508; 1956.625;    0.000;    0.000
308.570; 1992.625;    0.000;    0.000
308.632; 1962.625;    0.000;    0.000
308.694; 1974.625;    0.000;    0.000
308.756; 1988.625;    0.000;    0.000
308.818; 2020.625;    0.000;    0.000
308.880; 2034.625;    0.000;    0.000
308.942; 2067.625;    0.000;    0.000
309.004; 2117.625;    0.000;    0.000
309.066; 2112.625;    0.000;    0.000
309.128; 2156.625;    0.000;    0.000
309.190; 2209.625;    0.000;    0.000
309.252; 2265.625;    0.000;    0.000
309.314; 2352.625;    0.000;    0.000
309.376; 2336.625;    0.000;    0.000
309.438; 2218.625;    0.000;    0.000
309.500; 2210.625;    0.000;    0.000
309.562; 2234.625;    0.000;    0.000
309.624; 2214.625;    0.000;    0.000
309.686; 2342.625;    0.000;    0.000
309.747; 2355.625;    0.000;    0.000
309.809; 2307.625;    0.000;    0.000
309.871; 2239.625;    0.000;    0.000
309.933; 2263.625;    0.000;    0.000
309.995; 2249.625;    0.000;    0.000
310.057; 2165.625;    0.000;    0.000
310.119; 2267.625;    0.000;    0.000
310.180; 2133.625;    0.000;    0.000
310.242; 2083.625;    0.000;    0.000
310.304; 2116.625;    0.000;    0.000
310.366; 2086.625;    0.000;    0.000
310.428; 2109.625;    0.000;    0.000
310.489; 2144.625;    0.000;    0.000
310.551; 2147.625;    0.000;    0.000
310.613; 2134.625;    0.000;    0.000
310.675; 2107.625;    0.000;    0.000
310.737; 2094.625;    0.000;    0.000
310.798; 2128.625;    0.000;    0.000
310.860; 2061.625;    0.000;    0.000
310.922; 2053.625;    0.000;    0.000
310.983; 2035.625;    0.000;    0.000
311.045; 2091.625;    0.000;    0.000
311.107; 2106.625;    0.000;    0.000
311.169; 2078.625;    0.000;    0.000
311.230; 1994.625;    0.000;    0.000
311.292; 2007.625;    0.000;    0.000
311.354; 2009.625;    0.000;    0.000
311.415; 2117.625;    0.000;    0.000
311.477; 2111.625;    0.000;    0.000
311.539; 2043.625;    0.000;    0.000
311.600; 2121.625;    0.000;    0.000
311.662; 2192.625;    0.000;    0.000
311.724; 2124.625;    0.000;    0.000
311.785; 2081.625;    0.000;    0.000
311.847; 2011.625;    0.000;    0.000
311.908; 2046.625;    0.000;    0.000
311.970; 2060.625;    0.000;    0.000
312.032; 2056.625;    0.000;    0.000
312.093; 2182.625;    0.000;    0.000
312.155; 2085.625;    0.000;    0.000
312.216; 2097.625;    0.000;    0.000
312.278; 2036.625;    0.000;    0.000
312.339; 2080.625;    0.000;    0.000
312.401; 2057.625;    0.000;    0.000
312.462; 2064.625;    0.000;    0.000
312.524; 2122.625;    0.000;    0.000
312.585; 2090.625;    0.000;    0.000
312.647; 2074.625;    0.000;    0.000
312.708; 2096.625;    0.000;    0.000
312.770; 2072.625;    0.000;    0.000
312.831; 2083.625;    0.000;    0.000
312.893; 2057.625;    0.000;    0.000
312.954; 2015.625;    0.000;    0.000
313.016; 2092.625;    0.000;    0.000
313.077; 2076.625;    0.000;    0.000
313.139; 2063.625;    0.000;    0.000
313.200; 2128.625;    0.000;    0.000
313.261; 2173.625;    0.000;    0.000
313.323; 2090.625;    0.000;    0.000
313.384; 2160.625;    0.000;    0.000
313.446; 2143.625;    0.000;    0.000
313.507; 2186.625;    0.000;    0.000
313.568; 2130.625;    0.000;    0.000
313.630; 2149.625;    0.000;    0.000
313.691; 2130.625;    0.000;    0.000
313.752; 2103.625;    0.000;    0.000
313.814; 2103.625;    0.000;    0.000
313.875; 2185.625;    0.000;    0.000
313.936; 2084.625;    0.000;    0.000
313.998; 2065.625;    0.000;    0.000
314.059; 2081.625;    0.000;    0.000
314.120; 2065.625;    0.000;    0.000
314.182; 2110.625;    0.000;    0.000
314.243; 2122.625;    0.000;    0.000
314.304; 2156.625;    0.000;    0.000
314.365; 2168.625;    0.000;    0.000
314.427; 2218.625;    0.000;    0.000
314.488; 2227.625;    0.000;    0.000
314.549; 2203.625;    0.000;    0.000
314.610; 2202.625;    0.000;    0.000
314.672; 2102.625;    0.000;    0.000
314.733; 2139.625;    0.000;    0.000
314.794; 2161.625;    0.000;    0.000
314.855; 2059.625;    0.000;    0.000
314.917; 2121.625;    0.000;    0.000
314.978; 2093.625;    0.000;    0.000
315.039; 2103.625;    0.000;    0.000
315.100; 2090.625;    0.000;    0.000
315.161; 2141.625;    0.000;    0.000
315.222; 2156.625;    0.000;    0.000
315.283; 2188.625;    0.000;    0.000
315.345; 2181.625;    0.000;    0.000
315.406; 2151.625;    0.000;    0.000
315.467; 2206.625;    0.000;    0.000
315.528; 2164.625;    0.000;    0.000
315.589; 2212.625;    0.000;    0.000
315.650; 2090.625;    0.000;    0.000
315.711; 2205.625;    0.000;    0.000
315.772; 2127.625;    0.000;    0.000
315.833; 2112.625;    0.000;    0.000
315.894; 2256.625;    0.000;    0.000
315.955; 2123.625;    0.000;    0.000
316.016; 2138.625;    0.000;    0.000
316.078; 2147.625;    0.000;    0.000
316.139; 2200.625;    0.000;    0.000
316.200; 2122.625;    0.000;    0.000
316.261; 2081.625;    0.000;    0.000
316.322; 2115.625;    0.000;    0.000
316.383; 2107.625;    0.000;    0.000
316.444; 2240.625;    0.000;    0.000
316.504; 2167.625;    0.000;    0.000
316.565; 2204.625;    0.000;    0.000
316.626; 2153.625;    0.000;    0.000
316.687; 2123.625;    0.000;    0.000
316.748; 2084.625;    0.000;    0.000
316.809; 2149.625;    0.000;    0.000
316.870; 2234.625;    0.000;    0.000
316.931; 2220.625;    0.000;    0.000
316.992; 2307.625;    0.000;    0.000
317.053; 2246.625;    0.000;    0.000
317.114; 2124.625;    0.000;    0.000
317.175; 2213.625;    0.000;    0.000
317.235; 2218.625;    0.000;    0.000
317.296; 2263.625;    0.000;    0.000
317.357; 2265.625;    0.000;    0.000
317.418; 2236.625;    0.000;    0.000
317.479; 2204.625;    0.000;    0.000
317.540; 2203.625;    0.000;    0.000
317.601; 2181.625;    0.000;    0.000
317.661; 2172.625;    0.000;    0.000
317.722; 2210.625;    0.000;    0.000
317.783; 2218.625;    0.000;    0.000
317.844; 2191.625;    0.000;    0.000
317.904; 2196.625;    0.000;    0.000
317.965; 2106.625;    0.000;    0.000
318.026; 2195.625;    0.000;    0.000
318.087; 2235.625;    0.000;    0.000
318.148; 2215.625;    0.000;    0.000
318.208; 2218.625;    0.000;    0.000
318.269; 2223.625;    0.000;    0.000
318.330; 2261.625;    0.000;    0.000
318.390; 2275.625;    0.000;    0.000
318.451; 2207.625;    0.000;    0.000
318.512; 2237.625;    0.000;    0.000
318.572; 2235.625;    0.000;    0.000
318.633; 2304.625;    0.000;    0.000
318.694; 2379.625;    0.000;    0.000
318.754; 2237.625;    0.000;    0.000
318.815; 2244.625;    0.000;    0.000
318.876; 2245.625;    0.000;    0.000
318.936; 2210.625;    0.000;    0.000
318.997; 2215.625;    0.000;    0.000
319.058; 2150.625;    0.000;    0.000
319.118; 2272.625;    0.000;    0.000
319.179; 2252.625;    0.000;    0.000
319.239; 2233.625;    0.000;    0.000
319.300; 2267.625;    0.000;    0.000
319.361; 2179.625;    0.000;    0.000
319.421; 2280.625;    0.000;    0.000
319.482; 2122.625;    0.000;    0.000
319.542; 2210.625;    0.000;    0.000
319.603; 2143.625;    0.000;    0.000
319.663; 2197.625;    0.000;    0.000
319.724; 2214.625;    0.000;    0.000
319.784; 2115.625;    0.000;    0.000
319.845; 2275.625;    0.000;    0.000
319.905; 2195.625;    0.000;    0.000
319.966; 2212.625;    0.000;    0.000
320.026; 2269.625;    0.000;    0.000
320.087; 2337.625;    0.000;    0.000
320.147; 2343.625;    0.000;    0.000
320.208; 2157.625;    0.000;    0.000
320.268; 2180.625;    0.000;    0.000
320.329; 2328.625;    0.000;    0.000
320.389; 2284.625;    0.000;    0.000
320.449; 2249.625;    0.000;    0.000
320.510; 2288.625;    0.000;    0.000
320.570; 2236.625;    0.000;    0.000
320.631; 2192.625;    0.000;    0.000
320.691; 2304.625;    0.000;    0.000
320.751; 2286.625;    0.000;    0.000
320.812; 2206.625;    0.000;    0.000
320.872; 2310.625;    0.000;    0.000
320.932; 2268.625;    0.000;    0.000
320.993; 2284.625;    0.000;    0.000
321.053; 2367.625;    0.000;    0.000
321.113; 2283.625;    0.000;    0.000
321.174; 2313.625;    0.000;    0.000
321.234; 2266.625;    0.000;    0.000
321.294; 2336.625;    0.000;    0.000
321.355; 2201.625;    0.000;    0.000
321.415; 2237.625;    0.000;    0.000
321.475; 2224.625;    0.000;    0.000
321.535; 2315.625;    0.000;    0.000
321.596; 2322.625;    0.000;    0.000
321.656; 2376.625;    0.000;    0.000
321.716; 2358.625;    0.000;    0.000
321.776; 2318.625;    0.000;    0.000
321.837; 2327.625;    0.000;    0.000
321.897; 2271.625;    0.000;    0.000
321.957; 2282.625;    0.000;    0.000
322.017; 2367.625;    0.000;    0.000
322.077; 2377.625;    0.000;    0.000
322.138; 2341.625;    0.000;    0.000
322.198; 2297.625;    0.000;    0.000
322.258; 2301.625;    0.000;    0.000
322.318; 2313.625;    0.000;    0.000
322.378; 2334.625;    0.000;    0.000
322.438; 2320.625;    0.000;    0.000
322.499; 2314.625;    0.000;    0.000
322.559; 2302.625;    0.000;    0.000
322.619; 2300.625;    0.000;    0.000
322.679; 2319.625;    0.000;    0.000
322.739; 2340.625;    0.000;    0.000
322.799; 2403.625;    0.000;    0.000
322.859; 2337.625;    0.000;    0.000
322.919; 2308.625;    0.000;    0.000
322.979; 2315.625;    0.000;    0.000
323.039; 2302.625;    0.000;    0.000
323.099; 2251.625;    0.000;    0.000
323.159; 2304.625;    0.000;    0.000
323.219; 2198.625;    0.000;    0.000
323.279; 2315.625;    0.000;    0.000
323.339; 2267.625;    0.000;    0.000
323.399; 2381.625;    0.000;    0.000
323.459; 2376.625;    0.000;    0.000
323.519; 2445.625;    0.000;    0.000
323.579; 2383.625;    0.000;    0.000
323.639; 2387.625;    0.000;    0.000
323.699; 2376.625;    0.000;    0.000
323.759; 2458.625;    0.000;    0.000
323.819; 2488.625;    0.000;    0.000
323.879; 2507.625;    0.000;    0.000
323.939; 2487.625;    0.000;    0.000
323.999; 2402.625;    0.000;    0.000
324.059; 2469.625;    0.000;    0.000
324.119; 2400.625;    0.000;    0.000
324.178; 2457.625;    0.000;    0.000
324.238; 2279.625;    0.000;    0.000
324.298; 2331.625;    0.000;    0.000
324.358; 2440.625;    0.000;    0.000
324.418; 2248.625;    0.000;    0.000
324.478; 2300.625;    0.000;    0.000
324.538; 2351.625;    0.000;    0.000
324.597; 2375.625;    0.000;    0.000
324.657; 2380.625;    0.000;    0.000
324.717; 2384.625;    0.000;    0.000
324.777; 2364.625;    0.000;    0.000
324.837; 2353.625;    0.000;    0.000
324.896; 2345.625;    0.000;    0.000
324.956; 2356.625;    0.000;    0.000
325.016; 2302.625;    0.000;    0.000
325.076; 2370.625;    0.000;    0.000
325.135; 2316.625;    0.000;    0.000
325.195; 2344.625;    0.000;    0.000
325.255; 2354.625;    0.000;    0.000
325.315; 2313.625;    0.000;    0.000
325.374; 2405.625;    0.000;    0.000
325.434; 2424.625;    0.000;    0.000
325.494; 2452.625;    0.000;    0.000
325.553; 2433.625;    0.000;    0.000
325.613; 2364.625;    0.000;    0.000
325.673; 2342.625;    0.000;    0.000
325.732; 2320.625;    0.000;    0.000
325.792; 2260.625;    0.000;    0.000
325.852; 2328.625;    0.000;    0.000
325.911; 2300.625;    0.000;    0.000
325.971; 2407.625;    0.000;    0.000
326.031; 2304.625;    0.000;    0.000
326.090; 2296.625;    0.000;    0.000
326.150; 2314.625;    0.000;    0.000
326.209; 2290.625;    0.000;    0.000
326.269; 2283.625;    0.000;    0.000
326.328; 2368.625;    0.000;    0.000
326.388; 2356.625;    0.000;    0.000
326.448; 2467.625;    0.000;    0.000
326.507; 2361.625;    0.000;    0.000
326.567; 2399.625;    0.000;    0.000
326.626; 2394.625;    0.000;    0.000
326.686; 2294.625;    0.000;    0.000
326.745; 2265.625;    0.000;    0.000
326.805; 2282.625;    0.000;    0.000
326.864; 2347.625;    0.000;    0.000
326.924; 2399.625;    0.000;    0.000
326.983; 2361.625;    0.000;    0.000
327.043; 2366.625;    0.000;    0.000
327.102; 2363.625;    0.000;    0.000
327.161; 2377.625;    0.000;    0.000
327.221; 2459.625;    0.000;    0.000
327.280; 2472.625;    0.000;    0.000
327.340; 2527.625;    0.000;    0.000
327.399; 2435.625;    0.000;    0.000
327.459; 2470.625;    0.000;    0.000
327.518; 2397.625;    0.000;    0.000
327.577; 2376.625;    0.000;    0.000
327.637; 2369.625;    0.000;    0.000
327.696; 2293.625;    0.000;    0.000
327.755; 2287.625;    0.000;    0.000
327.815; 2274.625;    0.000;    0.000
327.874; 2424.625;    0.000;    0.000
327.933; 2470.625;    0.000;    0.000
327.993; 2448.625;    0.000;    0.000
328.052; 2397.625;    0.000;    0.000
328.111; 2431.625;    0.000;    0.000
328.171; 2306.625;    0.000;    0.000
328.230; 2345.625;    0.000;    0.000
328.289; 2384.625;    0.000;    0.000
328.349; 2478.625;    0.000;    0.000
328.408; 2459.625;    0.000;    0.000
328.467; 2443.625;    0.000;    0.000
328.526; 2430.625;    0.000;    0.000
328.586; 2412.625;    0.000;    0.000
328.645; 2405.625;    0.000;    0.000
328.704; 2347.625;    0.000;    0.000
328.763; 2405.625;    0.000;    0.000
328.822; 2353.625;    0.000;    0.000
328.882; 2380.625;    0.000;    0.000
328.941; 2392.625;    0.000;    0.000
329.000; 2395.625;    0.000;    0.000
329.059; 2340.625;    0.000;    0.000
329.118; 2440.625;    0.000;    0.000
329.177; 2390.625;    0.000;    0.000
329.237; 2542.625;    0.000;    0.000
329.296; 2493.625;    0.000;    0.000
329.355; 2510.625;    0.000;    0.000
329.414; 2470.625;    0.000;    0.000
329.473; 2393.625;    0.000;    0.000
329.532; 2387.625;    0.000;    0.000
329.591; 2368.625;    0.000;    0.000
329.650; 2527.625;    0.000;    0.000
329.709; 2473.625;    0.000;    0.000
329.768; 2556.625;    0.000;    0.000
329.827; 2651.625;    0.000;    0.000
329.886; 2728.625;    0.000;    0.000
329.945; 2857.625;    0.000;    0.000
330.004; 2718.625;    0.000;    0.000
330.063; 2786.625;    0.000;    0.000
330.122; 2779.625;    0.000;    0.000
330.181; 3032.625;    0.000;    0.000
330.240; 2918.625;    0.000;    0.000
330.299; 2721.625;    0.000;    0.000
330.358; 2667.625;    0.000;    0.000
330.417; 2663.625;    0.000;    0.000
330.476; 2698.625;    0.000;    0.000
330.535; 2697.625;    0.000;    0.000
330.594; 2570.625;    0.000;    0.000
330.653; 2559.625;    0.000;    0.000
330.712; 2443.625;    0.000;    0.000
330.771; 2443.625;    0.000;    0.000
330.830; 2474.625;    0.000;    0.000
330.889; 2469.625;    0.000;    0.000
330.948; 2481.625;    0.000;    0.000
331.006; 2513.625;    0.000;    0.000
331.065; 2499.625;    0.000;    0.000
331.124; 2575.625;    0.000;    0.000
331.183; 2418.625;    0.000;    0.000
331.242; 2490.625;    0.000;    0.000
331.301; 2438.625;    0.000;    0.000
331.359; 2365.625;    0.000;    0.000
331.418; 2377.625;    0.000;    0.000
331.477; 2409.625;    0.000;    0.000
331.536; 2407.625;    0.000;    0.000
331.595; 2361.625;    0.000;    0.000
331.653; 2456.625;    0.000;    0.000
331.712; 2434.625;    0.000;    0.000
331.771; 2380.625;    0.000;    0.000
331.830; 2345.625;    0.000;    0.000
331.888; 2458.625;    0.000;    0.000
331.947; 2502.625;    0.000;    0.000
332.006; 2345.625;    0.000;    0.000
332.065; 2382.625;    0.000;    0.000
332.123; 2418.625;    0.000;    0.000
332.182; 2433.625;    0.000;    0.000
332.241; 2445.625;    0.000;    0.000
332.299; 2424.625;    0.000;    0.000
332.358; 2433.625;    0.000;    0.000
332.417; 2433.625;    0.000;    0.000
332.475; 2408.625;    0.000;    0.000
332.534; 2418.625;    0.000;    0.000
332.592; 2478.625;    0.000;    0.000
332.651; 2488.625;    0.000;    0.000
332.710; 2428.625;    0.000;    0.000
332.768; 2496.625;    0.000;    0.000
332.827; 2469.625;    0.000;    0.000
332.885; 2363.625;    0.000;    0.000
332.944; 2458.625;    0.000;    0.000
333.003; 2454.625;    0.000;    0.000
333.061; 2494.625;    0.000;    0.000
333.120; 2518.625;    0.000;    0.000
333.178; 2587.625;    0.000;    0.000
333.237; 2645.625;    0.000;    0.000
333.295; 2695.625;    0.000;    0.000
333.354; 2615.625;    0.000;    0.000
333.412; 2679.625;    0.000;    0.000
333.471; 2763.625;    0.000;    0.000
333.529; 2760.625;    0.000;    0.000
333.588; 2757.625;    0.000;    0.000
333.646; 2851.625;    0.000;    0.000
333.705; 2887.625;    0.000;    0.000
333.763; 2815.625;    0.000;    0.000
333.822; 2776.625;    0.000;    0.000
333.880; 2716.625;    0.000;    0.000
333.938; 2675.625;    0.000;    0.000
333.997; 2793.625;    0.000;    0.000
334.055; 2721.625;    0.000;    0.000
334.114; 2638.625;    0.000;    0.000
334.172; 2724.625;    0.000;    0.000
334.230; 2673.625;    0.000;    0.000
334.289; 2616.625;    0.000;    0.000
334.347; 2610.625;    0.000;    0.000
334.405; 2739.625;    0.000;    0.000
334.464; 2642.625;    0.000;    0.000
334.522; 2680.625;    0.000;    0.000
334.580; 2630.625;    0.000;    0.000
334.639; 2659.625;    0.000;    0.000
334.697; 2681.625;    0.000;    0.000
334.755; 2627.625;    0.000;    0.000
334.814; 2700.625;    0.000;    0.000
334.872; 2513.625;    0.000;    0.000
334.930; 2523.625;    0.000;    0.000
334.988; 2652.625;    0.000;    0.000
335.047; 2601.625;    0.000;    0.000
335.105; 2640.625;    0.000;    0.000
335.163; 2656.625;    0.000;    0.000
335.221; 2631.625;    0.000;    0.000
335.280; 2742.625;    0.000;    0.000
335.338; 2706.625;    0.000;    0.000
335.396; 2646.625;    0.000;    0.000
335.454; 2586.625;    0.000;    0.000
335.512; 2543.625;    0.000;    0.000
335.570; 2549.625;    0.000;    0.000
335.629; 2677.625;    0.000;    0.000
335.687; 2669.625;    0.000;    0.000
335.745; 2753.625;    0.000;    0.000
335.803; 2869.625;    0.000;    0.000
335.861; 2934.625;    0.000;    0.000
335.919; 2882.625;    0.000;    0.000
335.977; 2746.625;    0.000;    0.000
336.035; 2790.625;    0.000;    0.000
336.094; 2812.625;    0.000;    0.000
336.152; 2943.625;    0.000;    0.000
336.210; 2915.625;    0.000;    0.000
336.268; 2975.625;    0.000;    0.000
336.326; 2915.625;    0.000;    0.000
336.384; 2844.625;    0.000;    0.000
336.442; 2803.625;    0.000;    0.000
336.500; 2769.625;    0.000;    0.000
336.558; 2793.625;    0.000;    0.000
336.616; 2853.625;    0.000;    0.000
336.674; 2814.625;    0.000;    0.000
336.732; 2827.625;    0.000;    0.000
336.790; 2838.625;    0.000;    0.000
336.848; 2788.625;    0.000;    0.000
336.906; 2828.625;    0.000;    0.000
336.964; 2829.625;    0.000;    0.000
337.022; 2879.625;    0.000;    0.000
337.080; 2799.625;    0.000;    0.000
337.138; 2852.625;    0.000;    0.000
337.195; 2760.625;    0.000;    0.000
337.253; 2824.625;    0.000;    0.000
337.311; 2807.625;    0.000;    0.000
337.369; 2777.625;    0.000;    0.000
337.427; 2694.625;    0.000;    0.000
337.485; 2650.625;    0.000;    0.000
337.543; 2700.625;    0.000;    0.000
337.601; 2675.625;    0.000;    0.000
337.658; 2732.625;    0.000;    0.000
337.716; 2627.625;    0.000;    0.000
337.774; 2705.625;    0.000;    0.000
337.832; 2694.625;    0.000;    0.000
337.890; 2589.625;    0.000;    0.000
337.947; 2568.625;    0.000;    0.000
338.005; 2517.625;    0.000;    0.000
338.063; 2616.625;    0.000;    0.000
338.121; 2633.625;    0.000;    0.000
338.178; 2680.625;    0.000;    0.000
338.236; 2664.625;    0.000;    0.000
338.294; 2688.625;    0.000;    0.000
338.352; 2820.625;    0.000;    0.000
338.409; 2658.625;    0.000;    0.000
338.467; 2772.625;    0.000;    0.000
338.525; 2632.625;    0.000;    0.000
338.583; 2608.625;    0.000;    0.000
338.640; 2682.625;    0.000;    0.000
338.698; 2721.625;    0.000;    0.000
338.756; 2638.625;    0.000;    0.000
338.813; 2790.625;    0.000;    0.000
338.871; 2846.625;    0.000;    0.000
338.928; 2817.625;    0.000;    0.000
338.986; 2884.625;    0.000;    0.000
339.044; 2793.625;    0.000;    0.000
339.101; 2793.625;    0.000;    0.000
339.159; 2781.625;    0.000;    0.000
339.216; 2698.625;    0.000;    0.000
339.274; 2668.625;    0.000;    0.000
339.332; 2810.625;    0.000;    0.000
339.389; 2754.625;    0.000;    0.000
339.447; 2734.625;    0.000;    0.000
339.504; 2787.625;    0.000;    0.000
339.562; 2714.625;    0.000;    0.000
339.619; 2703.625;    0.000;    0.000
339.677; 2813.625;    0.000;    0.000
339.734; 2703.625;    0.000;    0.000
339.792; 2843.625;    0.000;    0.000
339.849; 2689.625;    0.000;    0.000
339.907; 2733.625;    0.000;    0.000
339.964; 2770.625;    0.000;    0.000
340.022; 2701.625;    0.000;    0.000
340.079; 2751.625;    0.000;    0.000
340.137; 2680.625;    0.000;    0.000
340.194; 2724.625;    0.000;    0.000
340.252; 2633.625;    0.000;    0.000
340.309; 2740.625;    0.000;    0.000
340.366; 2647.625;    0.000;    0.000
340.424; 2782.625;    0.000;    0.000
340.481; 2692.625;    0.000;    0.000
340.538; 2782.625;    0.000;    0.000
340.596; 2704.625;    0.000;    0.000
340.653; 2739.625;    0.000;    0.000
340.711; 2833.625;    0.000;    0.000
340.768; 2846.625;    0.000;    0.000
340.825; 2799.625;    0.000;    0.000
340.883; 2866.625;    0.000;    0.000
340.940; 2837.625;    0.000;    0.000
340.997; 2794.625;    0.000;    0.000
341.054; 2759.625;    0.000;    0.000
341.112; 2727.625;    0.000;    0.000
341.169; 2801.625;    0.000;    0.000
341.226; 2846.625;    0.000;    0.000
341.284; 2827.625;    0.000;    0.000
341.341; 2901.625;    0.000;    0.000
341.398; 2877.625;    0.000;    0.000
341.455; 2890.625;    0.000;    0.000
341.512; 2929.625;    0.000;    0.000
341.570; 2875.625;    0.000;    0.000
341.627; 2864.625;    0.000;    0.000
341.684; 2856.625;    0.000;    0.000
341.741; 2907.625;    0.000;    0.000
341.798; 2890.625;    0.000;    0.000
341.856; 2885.625;    0.000;    0.000
341.913; 2868.625;    0.000;    0.000
341.970; 2880.625;    0.000;    0.000
342.027; 2997.625;    0.000;    0.000
342.084; 2959.625;    0.000;    0.000
342.141; 3044.625;    0.000;    0.000
342.198; 2968.625;    0.000;    0.000
342.255; 2986.625;    0.000;    0.000
342.313; 3030.625;    0.000;    0.000
342.370; 2881.625;    0.000;    0.000
342.427; 2864.625;    0.000;    0.000
342.484; 2698.625;    0.000;    0.000
342.541; 2731.625;    0.000;    0.000
342.598; 2735.625;    0.000;    0.000
342.655; 2672.625;    0.000;    0.000
342.712; 2570.625;    0.000;    0.000
342.769; 2783.625;    0.000;    0.000
342.826; 2701.625;    0.000;    0.000
342.883; 2833.625;    0.000;    0.000
342.940; 2702.625;    0.000;    0.000
342.997; 2711.625;    0.000;    0.000
343.054; 2773.625;    0.000;    0.000
343.111; 2790.625;    0.000;    0.000
343.168; 2796.625;    0.000;    0.000
343.225; 2821.625;    0.000;    0.000
343.282; 2719.625;    0.000;    0.000
343.339; 2764.625;    0.000;    0.000
343.395; 2831.625;    0.000;    0.000
343.452; 2926.625;    0.000;    0.000
343.509; 2746.625;    0.000;    0.000
343.566; 2909.625;    0.000;    0.000
343.623; 2830.625;    0.000;    0.000
343.680; 2817.625;    0.000;    0.000
343.737; 2799.625;    0.000;    0.000
343.794; 2841.625;    0.000;    0.000
343.850; 2852.625;    0.000;    0.000
343.907; 2737.625;    0.000;    0.000
343.964; 2854.625;    0.000;    0.000
344.021; 2891.625;    0.000;    0.000
344.078; 2918.625;    0.000;    0.000
344.134; 2836.625;    0.000;    0.000
344.191; 2942.625;    0.000;    0.000
344.248; 2957.625;    0.000;    0.000
344.305; 2859.625;    0.000;    0.000
344.361; 2899.625;    0.000;    0.000
344.418; 2924.625;    0.000;    0.000
344.475; 2899.625;    0.000;    0.000
344.532; 2914.625;    0.000;    0.000
344.588; 2871.625;    0.000;    0.000
344.645; 2877.625;    0.000;    0.000
344.702; 2870.625;    0.000;    0.000
344.758; 2913.625;    0.000;    0.000
344.815; 2825.625;    0.000;    0.000
344.872; 2895.625;    0.000;    0.000
344.928; 2864.625;    0.000;    0.000
344.985; 2917.625;    0.000;    0.000
345.042; 2940.625;    0.000;    0.000
345.098; 2830.625;    0.000;    0.000
345.155; 2877.625;    0.000;    0.000
345.212; 2800.625;    0.000;    0.000
345.268; 2832.625;    0.000;    0.000
345.325; 2784.625;    0.000;    0.000
345.381; 2925.625;    0.000;    0.000
345.438; 2894.625;    0.000;    0.000
345.495; 2964.625;    0.000;    0.000
345.551; 3012.625;    0.000;    0.000
345.608; 2894.625;    0.000;    0.000
345.664; 3078.625;    0.000;    0.000
345.721; 2987.625;    0.000;    0.000
345.777; 2822.625;    0.000;    0.000
345.834; 2796.625;    0.000;    0.000
345.890; 2841.625;    0.000;    0.000
345.947; 2863.625;    0.000;    0.000
346.003; 2813.625;    0.000;    0.000
346.060; 2851.625;    0.000;    0.000
346.116; 2830.625;    0.000;    0.000
346.173; 2850.625;    0.000;    0.000
346.229; 2783.625;    0.000;    0.000
346.285; 2832.625;    0.000;    0.000
346.342; 2837.625;    0.000;    0.000
346.398; 2959.625;    0.000;    0.000
346.455; 2935.625;    0.000;    0.000
346.511; 2937.625;    0.000;    0.000
346.567; 3026.625;    0.000;    0.000
346.624; 2914.625;    0.000;    0.000
346.680; 2933.625;    0.000;    0.000
346.737; 3019.625;    0.000;    0.000
346.793; 3126.625;    0.000;    0.000
346.849; 3123.625;    0.000;    0.000
346.906; 3241.625;    0.000;    0.000
346.962; 3204.625;    0.000;    0.000
347.018; 3115.625;    0.000;    0.000
347.074; 3097.625;    0.000;    0.000
347.131; 3045.625;    0.000;    0.000
347.187; 2926.625;    0.000;    0.000
347.243; 2998.625;    0.000;    0.000
347.300; 2977.625;    0.000;    0.000
347.356; 3010.625;    0.000;    0.000
347.412; 2864.625;    0.000;    0.000
347.468; 2907.625;    0.000;    0.000
347.524; 2933.625;    0.000;    0.000
347.581; 2848.625;    0.000;    0.000
347.637; 2931.625;    0.000;    0.000
347.693; 2976.625;    0.000;    0.000
347.749; 2927.625;    0.000;    0.000
347.805; 2934.625;    0.000;    0.000
347.862; 2886.625;    0.000;    0.000
347.918; 2767.625;    0.000;    0.000
347.974; 2874.625;    0.000;    0.000
348.030; 2871.625;    0.000;    0.000
348.086; 2817.625;    0.000;    0.000
348.142; 2905.625;    0.000;    0.000
348.198; 2933.625;    0.000;    0.000
348.254; 2943.625;    0.000;    0.000
348.311; 3011.625;    0.000;    0.000
348.367; 2902.625;    0.000;    0.000
348.423; 2934.625;    0.000;    0.000
348.479; 2864.625;    0.000;    0.000
348.535; 2887.625;    0.000;    0.000
348.591; 2959.625;    0.000;    0.000
348.647; 2813.625;    0.000;    0.000
348.703; 2873.625;    0.000;    0.000
348.759; 2944.625;    0.000;    0.000
348.815; 2971.625;    0.000;    0.000
348.871; 2883.625;    0.000;    0.000
348.927; 2898.625;    0.000;    0.000
348.983; 2864.625;    0.000;    0.000
349.039; 2938.625;    0.000;    0.000
349.095; 3017.625;    0.000;    0.000
349.151; 2947.625;    0.000;    0.000
349.207; 2931.625;    0.000;    0.000
349.263; 2894.625;    0.000;    0.000
349.319; 2973.625;    0.000;    0.000
349.374; 2912.625;    0.000;    0.000
349.430; 2985.625;    0.000;    0.000
349.486; 2989.625;    0.000;    0.000
349.542; 3049.625;    0.000;    0.000
349.598; 3020.625;    0.000;    0.000
349.654; 2978.625;    0.000;    0.000
349.710; 3072.625;    0.000;    0.000
349.766; 2930.625;    0.000;    0.000
349.821; 2990.625;    0.000;    0.000
349.877; 3054.625;    0.000;    0.000
349.933; 2997.625;    0.000;    0.000
349.989; 3008.625;    0.000;    0.000
350.045; 3033.625;    0.000;    0.000
350.100; 2945.625;    0.000;    0.000
350.156; 2893.625;    0.000;    0.000
350.212; 2952.625;    0.000;    0.000
350.268; 2926.625;    0.000;    0.000
350.323; 2980.625;    0.000;    0.000
350.379; 2960.625;    0.000;    0.000
350.435; 2946.625;    0.000;    0.000
350.491; 2928.625;    0.000;    0.000
350.546; 2809.625;    0.000;    0.000
350.602; 2948.625;    0.000;    0.000
350.658; 2940.625;    0.000;    0.000
350.713; 3015.625;    0.000;    0.000
350.769; 3014.625;    0.000;    0.000
350.825; 2906.625;    0.000;    0.000
350.880; 2892.625;    0.000;    0.000
350.936; 2970.625;    0.000;    0.000
350.992; 2905.625;    0.000;    0.000
351.047; 2911.625;    0.000;    0.000
351.103; 2961.625;    0.000;    0.000
351.158; 2880.625;    0.000;    0.000
351.214; 2889.625;    0.000;    0.000
351.270; 2960.625;    0.000;    0.000
351.325; 2843.625;    0.000;    0.000
351.381; 2934.625;    0.000;    0.000
351.436; 2954.625;    0.000;    0.000
351.492; 2980.625;    0.000;    0.000
351.547; 3046.625;    0.000;    0.000
351.603; 3175.625;    0.000;    0.000
351.658; 3167.625;    0.000;    0.000
351.714; 3091.625;    0.000;    0.000
351.769; 3146.625;    0.000;    0.000
351.825; 3149.625;    0.000;    0.000
351.880; 3031.625;    0.000;    0.000
351.936; 3097.625;    0.000;    0.000
351.991; 3189.625;    0.000;    0.000
352.047; 3101.625;    0.000;    0.000
352.102; 3012.625;    0.000;    0.000
352.158; 2975.625;    0.000;    0.000
352.213; 2948.625;    0.000;    0.000
352.268; 2944.625;    0.000;    0.000
352.324; 2992.625;    0.000;    0.000
352.379; 2962.625;    0.000;    0.000
352.434; 3121.625;    0.000;    0.000
352.490; 3014.625;    0.000;    0.000
352.545; 3072.625;    0.000;    0.000
352.601; 3084.625;    0.000;    0.000
352.656; 3021.625;    0.000;    0.000
352.711; 2936.625;    0.000;    0.000
352.767; 2843.625;    0.000;    0.000
352.822; 2922.625;    0.000;    0.000
352.877; 2920.625;    0.000;    0.000
352.932; 2914.625;    0.000;    0.000
352.988; 2894.625;    0.000;    0.000
353.043; 3029.625;    0.000;    0.000
353.098; 3011.625;    0.000;    0.000
353.153; 3080.625;    0.000;    0.000
353.209; 2991.625;    0.000;    0.000
353.264; 2849.625;    0.000;    0.000
353.319; 2914.625;    0.000;    0.000
353.374; 2941.625;    0.000;    0.000
353.430; 2874.625;    0.000;    0.000
353.485; 2947.625;    0.000;    0.000
353.540; 2888.625;    0.000;    0.000
353.595; 2853.625;    0.000;    0.000
353.650; 2870.625;    0.000;    0.000
353.705; 2921.625;    0.000;    0.000
353.761; 2821.625;    0.000;    0.000
353.816; 2902.625;    0.000;    0.000
353.871; 2896.625;    0.000;    0.000
353.926; 2871.625;    0.000;    0.000
353.981; 2912.625;    0.000;    0.000
354.036; 2856.625;    0.000;    0.000
354.091; 2867.625;    0.000;    0.000
354.146; 2846.625;    0.000;    0.000
354.201; 2911.625;    0.000;    0.000
354.256; 2886.625;    0.000;    0.000
354.311; 2978.625;    0.000;    0.000
354.367; 2893.625;    0.000;    0.000
354.422; 2917.625;    0.000;    0.000
354.477; 2865.625;    0.000;    0.000
354.532; 2965.625;    0.000;    0.000
354.587; 3013.625;    0.000;    0.000
354.642; 2748.625;    0.000;    0.000
354.697; 2958.625;    0.000;    0.000
354.751; 2938.625;    0.000;    0.000
354.806; 2924.625;    0.000;    0.000
354.861; 2858.625;    0.000;    0.000
354.916; 2886.625;    0.000;    0.000
354.971; 2903.625;    0.000;    0.000
355.026; 2911.625;    0.000;    0.000
355.081; 2878.625;    0.000;    0.000
355.136; 2893.625;    0.000;    0.000
355.191; 2769.625;    0.000;    0.000
355.246; 2827.625;    0.000;    0.000
355.301; 2851.625;    0.000;    0.000
355.355; 2905.625;    0.000;    0.000
355.410; 2964.625;    0.000;    0.000
355.465; 3006.625;    0.000;    0.000
355.520; 2855.625;    0.000;    0.000
355.575; 2881.625;    0.000;    0.000
355.630; 2800.625;    0.000;    0.000
355.684; 2824.625;    0.000;    0.000
355.739; 2799.625;    0.000;    0.000
355.794; 2919.625;    0.000;    0.000
355.849; 2926.625;    0.000;    0.000
355.904; 2796.625;    0.000;    0.000
355.958; 2872.625;    0.000;    0.000
356.013; 2827.625;    0.000;    0.000
356.068; 2911.625;    0.000;    0.000
356.123; 2875.625;    0.000;    0.000
356.177; 3036.625;    0.000;    0.000
356.232; 2978.625;    0.000;    0.000
356.287; 2991.625;    0.000;    0.000
356.341; 2993.625;    0.000;    0.000
356.396; 2941.625;    0.000;    0.000
356.451; 2966.625;    0.000;    0.000
356.505; 2921.625;    0.000;    0.000
356.560; 2879.625;    0.000;    0.000
356.615; 2920.625;    0.000;    0.000
356.669; 2970.625;    0.000;    0.000
356.724; 2929.625;    0.000;    0.000
356.778; 2934.625;    0.000;    0.000
356.833; 2853.625;    0.000;    0.000
356.888; 2904.625;    0.000;    0.000
356.942; 2897.625;    0.000;    0.000
356.997; 2968.625;    0.000;    0.000
357.051; 2865.625;    0.000;    0.000
357.106; 2888.625;    0.000;    0.000
357.160; 2820.625;    0.000;    0.000
357.215; 2862.625;    0.000;    0.000
357.269; 2900.625;    0.000;    0.000
357.324; 2828.625;    0.000;    0.000
357.378; 2780.625;    0.000;    0.000
357.433; 2850.625;    0.000;    0.000
357.487; 2791.625;    0.000;    0.000
357.542; 2870.625;    0.000;    0.000
357.596; 2880.625;    0.000;    0.000
357.651; 2798.625;    0.000;    0.000
357.705; 2847.625;    0.000;    0.000
357.760; 2841.625;    0.000;    0.000
357.814; 2885.625;    0.000;    0.000
357.868; 2872.625;    0.000;    0.000
357.923; 2769.625;    0.000;    0.000
357.977; 2781.625;    0.000;    0.000
358.032; 2820.625;    0.000;    0.000
358.086; 2882.625;    0.000;    0.000
358.140; 2864.625;    0.000;    0.000
358.195; 2818.625;    0.000;    0.000
358.249; 2754.625;    0.000;    0.000
358.303; 2774.625;    0.000;    0.000
358.358; 2771.625;    0.000;    0.000
358.412; 2848.625;    0.000;    0.000
358.466; 2723.625;    0.000;    0.000
358.521; 2771.625;    0.000;    0.000
358.575; 2821.625;    0.000;    0.000
358.629; 2761.625;    0.000;    0.000
358.683; 2720.625;    0.000;    0.000
358.738; 2813.625;    0.000;    0.000
358.792; 2685.625;    0.000;    0.000
358.846; 2810.625;    0.000;    0.000
358.900; 2846.625;    0.000;    0.000
358.954; 2778.625;    0.000;    0.000
359.009; 2752.625;    0.000;    0.000
359.063; 2720.625;    0.000;    0.000
359.117; 2823.625;    0.000;    0.000
359.171; 2787.625;    0.000;    0.000
359.225; 2819.625;    0.000;    0.000
359.280; 2732.625;    0.000;    0.000
359.334; 2806.625;    0.000;    0.000
359.388; 2869.625;    0.000;    0.000
359.442; 2807.625;    0.000;    0.000
359.496; 2765.625;    0.000;    0.000
359.550; 2822.625;    0.000;    0.000
359.604; 2785.625;    0.000;    0.000
359.658; 2810.625;    0.000;    0.000
359.712; 2771.625;    0.000;    0.000
359.766; 2794.625;    0.000;    0.000
359.820; 2749.625;    0.000;    0.000
359.875; 2700.625;    0.000;    0.000
359.929; 2679.625;    0.000;    0.000
359.983; 2671.625;    0.000;    0.000
360.037; 2725.625;    0.000;    0.000
360.091; 2696.625;    0.000;    0.000
360.145; 2672.625;    0.000;    0.000
360.199; 2741.625;    0.000;    0.000
360.253; 2697.625;    0.000;    0.000
360.306; 2750.625;    0.000;    0.000
360.360; 2764.625;    0.000;    0.000
360.414; 2744.625;    0.000;    0.000
360.468; 2752.625;    0.000;    0.000
360.522; 2734.625;    0.000;    0.000
360.576; 2741.625;    0.000;    0.000
360.630; 2708.625;    0.000;    0.000
360.684; 2724.625;    0.000;    0.000
360.738; 2640.625;    0.000;    0.000
360.792; 2797.625;    0.000;    0.000
360.846; 2800.625;    0.000;    0.000
360.899; 2726.625;    0.000;    0.000
360.953; 2764.625;    0.000;    0.000
361.007; 2772.625;    0.000;    0.000
361.061; 2836.625;    0.000;    0.000
361.115; 2782.625;    0.000;    0.000
361.168; 2721.625;    0.000;    0.000
361.222; 2702.625;    0.000;    0.000
361.276; 2768.625;    0.000;    0.000
361.330; 2752.625;    0.000;    0.000
361.384; 2719.625;    0.000;    0.000
361.437; 2782.625;    0.000;    0.000
361.491; 2769.625;    0.000;    0.000
361.545; 2690.625;    0.000;    0.000
361.599; 2670.625;    0.000;    0.000
361.652; 2689.625;    0.000;    0.000
361.706; 2685.625;    0.000;    0.000
361.760; 2666.625;    0.000;    0.000
361.813; 2771.625;    0.000;    0.000
361.867; 2697.625;    0.000;    0.000
361.921; 2698.625;    0.000;    0.000
361.974; 2618.625;    0.000;    0.000
362.028; 2663.625;    0.000;    0.000
362.082; 2621.625;    0.000;    0.000
362.135; 2622.625;    0.000;    0.000
362.189; 2683.625;    0.000;    0.000
362.242; 2625.625;    0.000;    0.000
362.296; 2613.625;    0.000;    0.000
362.350; 2706.625;    0.000;    0.000
362.403; 2553.625;    0.000;    0.000
362.457; 2645.625;    0.000;    0.000
362.510; 2566.625;    0.000;    0.000
362.564; 2586.625;    0.000;    0.000
362.617; 2701.625;    0.000;    0.000
362.671; 2602.625;    0.000;    0.000
362.724; 2546.625;    0.000;    0.000
362.778; 2623.625;    0.000;    0.000
362.831; 2687.625;    0.000;    0.000
362.885; 2624.625;    0.000;    0.000
362.938; 2487.625;    0.000;    0.000
362.992;  445.625;    0.000;    0.000
363.045;  299.625;    0.000;    0.000
363.099;  303.625;    0.000;    0.000
363.152;  298.625;    0.000;    0.000
363.205;  309.625;    0.000;    0.000
363.259;  292.625;    0.000;    0.000
363.312;  355.625;    0.000;    0.000
363.366;  295.625;    0.000;    0.000
363.419;  295.625;    0.000;    0.000
363.472;  300.625;    0.000;    0.000
363.526;  338.625;    0.000;    0.000
363.579;  291.625;    0.000;    0.000
363.632;  327.625;    0.000;    0.000
363.686;  283.625;    0.000;    0.000
363.739;  292.625;    0.000;    0.000
363.792;  287.625;    0.000;    0.000

