
Integration time [ms]:   0.300
Averaging Nr. [scans]: 1
Smoothing Nr. [pixels]: 0
Data measured with spectrometer [name]: UV1
Wave   ;Sample   ;Dark     ;Reference
[nm]   ;[counts] ;[counts] ;[counts] 

236.381;  155.675;  149.925;    0.000
236.451;  180.675;  206.925;    0.000
236.520;  200.675;  212.925;    0.000
236.590;  165.675;  189.925;    0.000
236.660;  178.675;  184.925;    0.000
236.730;  163.675;  186.925;    0.000
236.799;  187.675;  191.925;    0.000
236.869;  191.675;  184.925;    0.000
236.939;  182.675;  176.925;    0.000
237.009;  216.675;  184.925;    0.000
237.078;  197.675;  189.925;    0.000
237.148;  161.675;  217.925;    0.000
237.218;  191.675;  192.925;    0.000
237.287;  196.675;  182.925;    0.000
237.357;  175.675;  196.925;    0.000
237.427;  172.675;  144.925;    0.000
237.496; 1100.675;  224.925;    0.000
237.566; 1129.675;  210.925;    0.000
237.636; 1059.675;  165.925;    0.000
237.705; 1087.675;  214.925;    0.000
237.775; 1045.675;  194.925;    0.000
237.845; 1065.675;  214.925;    0.000
237.914; 1088.675;  191.925;    0.000
237.984; 1121.675;  218.925;    0.000
238.054; 1111.675;  187.925;    0.000
238.123; 1132.675;  179.925;    0.000
238.193; 1180.675;  177.925;    0.000
238.263; 1125.675;  225.925;    0.000
238.332; 1148.675;  197.925;    0.000
238.402; 1067.675;  183.925;    0.000
238.471; 1127.675;  181.925;    0.000
238.541; 1065.675;  200.925;    0.000
238.611; 1040.675;  170.925;    0.000
238.680; 1053.675;  170.925;    0.000
238.750; 1145.675;  175.925;    0.000
238.819; 1071.675;  180.925;    0.000
238.889; 1064.675;  190.925;    0.000
238.958; 1093.675;  207.925;    0.000
239.028; 1114.675;  201.925;    0.000
239.097; 1048.675;  181.925;    0.000
239.167; 1101.675;  222.925;    0.000
239.237; 1117.675;  221.925;    0.000
239.306; 1070.675;  147.925;    0.000
239.376; 1100.675;  188.925;    0.000
239.445; 1141.675;  198.925;    0.000
239.515; 1226.675;  191.925;    0.000
239.584; 1100.675;  178.925;    0.000
239.654; 1026.675;  147.925;    0.000
239.723; 1003.675;  212.925;    0.000
239.793; 1104.675;  185.925;    0.000
239.862; 1026.675;  157.925;    0.000
239.932; 1133.675;  181.925;    0.000
240.001; 1064.675;  163.925;    0.000
240.070; 1047.675;  194.925;    0.000
240.140; 1057.675;  202.925;    0.000
240.209;  988.675;  180.925;    0.000
240.279; 1018.675;  188.925;    0.000
240.348; 1093.675;  189.925;    0.000
240.418; 1051.675;  143.925;    0.000
240.487; 1130.675;  195.925;    0.000
240.556; 1071.675;  170.925;    0.000
240.626; 1066.675;  172.925;    0.000
240.695; 1018.675;  202.925;    0.000
240.765; 1033.675;  191.925;    0.000
240.834; 1044.675;  177.925;    0.000
240.903; 1107.675;  189.925;    0.000
240.973; 1074.675;  196.925;    0.000
241.042; 1010.675;  183.925;    0.000
241.112; 1098.675;  189.925;    0.000
241.181; 1041.675;  186.925;    0.000
241.250; 1015.675;  168.925;    0.000
241.320; 1054.675;  200.925;    0.000
241.389; 1018.675;  185.925;    0.000
241.458; 1028.675;  194.925;    0.000
241.528; 1046.675;  165.925;    0.000
241.597; 1035.675;  200.925;    0.000
241.666; 1030.675;  184.925;    0.000
241.736; 1026.675;  176.925;    0.000
241.805; 1023.675;  165.925;    0.000
241.874; 1018.675;  200.925;    0.000
241.943; 1017.675;  184.925;    0.000
242.013; 1062.675;  212.925;    0.000
242.082; 1036.675;  200.925;    0.000
242.151; 1023.675;  196.925;    0.000
242.221; 1034.675;  182.925;    0.000
242.290; 1000.675;  222.925;    0.000
242.359; 1016.675;  142.925;    0.000
242.428; 1055.675;  180.925;    0.000
242.498;  973.675;  180.925;    0.000
242.567; 1044.675;  181.925;    0.000
242.636;  999.675;  203.925;    0.000
242.705;  985.675;  209.925;    0.000
242.774; 1039.675;  172.925;    0.000
242.844; 1014.675;  218.925;    0.000
242.913;  929.675;  188.925;    0.000
242.982; 1013.675;  193.925;    0.000
243.051; 1014.675;  202.925;    0.000
243.120; 1055.675;  174.925;    0.000
243.190;  948.675;  165.925;    0.000
243.259; 1014.675;  206.925;    0.000
243.328;  990.675;  166.925;    0.000
243.397; 1026.675;  167.925;    0.000
243.466;  989.675;  163.925;    0.000
243.535;  975.675;  162.925;    0.000
243.605;  956.675;  159.925;    0.000
243.674; 1004.675;  171.925;    0.000
243.743; 1010.675;  189.925;    0.000
243.812;  982.675;  169.925;    0.000
243.881;  985.675;  145.925;    0.000
243.950; 1011.675;  197.925;    0.000
244.019;  995.675;  189.925;    0.000
244.088;  942.675;  200.925;    0.000
244.158;  958.675;  208.925;    0.000
244.227;  986.675;  154.925;    0.000
244.296;  945.675;  142.925;    0.000
244.365;  983.675;  198.925;    0.000
244.434;  962.675;  162.925;    0.000
244.503;  976.675;  186.925;    0.000
244.572;  962.675;  143.925;    0.000
244.641; 1004.675;  145.925;    0.000
244.710;  967.675;  159.925;    0.000
244.779;  978.675;  175.925;    0.000
244.848;  923.675;  163.925;    0.000
244.917;  988.675;  157.925;    0.000
244.986;  973.675;  166.925;    0.000
245.055;  987.675;  211.925;    0.000
245.124;  948.675;  155.925;    0.000
245.193;  927.675;  187.925;    0.000
245.262;  879.675;  152.925;    0.000
245.331;  908.675;  177.925;    0.000
245.400;  879.675;  157.925;    0.000
245.469;  971.675;  195.925;    0.000
245.538;  903.675;  199.925;    0.000
245.607;  893.675;  194.925;    0.000
245.676;  931.675;  170.925;    0.000
245.745;  883.675;  208.925;    0.000
245.814;  917.675;  185.925;    0.000
245.883;  931.675;  165.925;    0.000
245.952;  950.675;  151.925;    0.000
246.021;  795.675;  171.925;    0.000
246.090;  935.675;  174.925;    0.000
246.159;  860.675;  192.925;    0.000
246.227;  857.675;  178.925;    0.000
246.296;  870.675;  159.925;    0.000
246.365;  893.675;  189.925;    0.000
246.434;  893.675;  205.925;    0.000
246.503;  833.675;  174.925;    0.000
246.572;  882.675;  203.925;    0.000
246.641;  830.675;  169.925;    0.000
246.710;  896.675;  186.925;    0.000
246.779;  870.675;  196.925;    0.000
246.847;  826.675;  209.925;    0.000
246.916;  846.675;  177.925;    0.000
246.985;  878.675;  188.925;    0.000
247.054;  837.675;  189.925;    0.000
247.123;  828.675;  196.925;    0.000
247.192;  834.675;  210.925;    0.000
247.260;  798.675;  164.925;    0.000
247.329;  846.675;  204.925;    0.000
247.398;  806.675;  204.925;    0.000
247.467;  863.675;  160.925;    0.000
247.536;  876.675;  193.925;    0.000
247.604;  878.675;  208.925;    0.000
247.673;  824.675;  168.925;    0.000
247.742;  784.675;  182.925;    0.000
247.811;  843.675;  186.925;    0.000
247.879;  831.675;  166.925;    0.000
247.948;  870.675;  192.925;    0.000
248.017;  837.675;  178.925;    0.000
248.086;  841.675;  193.925;    0.000
248.154;  829.675;  191.925;    0.000
248.223;  879.675;  207.925;    0.000
248.292;  770.675;  168.925;    0.000
248.361;  870.675;  211.925;    0.000
248.429;  852.675;  196.925;    0.000
248.498;  850.675;  163.925;    0.000
248.567;  841.675;  159.925;    0.000
248.635;  836.675;  194.925;    0.000
248.704;  870.675;  205.925;    0.000
248.773;  853.675;  190.925;    0.000
248.841;  844.675;  179.925;    0.000
248.910;  846.675;  193.925;    0.000
248.979;  863.675;  167.925;    0.000
249.047;  824.675;  166.925;    0.000
249.116;  842.675;  191.925;    0.000
249.185;  849.675;  203.925;    0.000
249.253;  774.675;  140.925;    0.000
249.322;  851.675;  173.925;    0.000
249.390;  821.675;  165.925;    0.000
249.459;  812.675;  173.925;    0.000
249.528;  804.675;  203.925;    0.000
249.596;  804.675;  204.925;    0.000
249.665;  785.675;  176.925;    0.000
249.733;  816.675;  178.925;    0.000
249.802;  881.675;  190.925;    0.000
249.871;  797.675;  171.925;    0.000
249.939;  817.675;  160.925;    0.000
250.008;  862.675;  220.925;    0.000
250.076;  773.675;  211.925;    0.000
250.145;  834.675;  145.925;    0.000
250.213;  802.675;  177.925;    0.000
250.282;  762.675;  186.925;    0.000
250.350;  778.675;  170.925;    0.000
250.419;  770.675;  195.925;    0.000
250.487;  816.675;  194.925;    0.000
250.556;  746.675;  178.925;    0.000
250.624;  798.675;  193.925;    0.000
250.693;  776.675;  167.925;    0.000
250.761;  788.675;  253.925;    0.000
250.830;  835.675;  241.925;    0.000
250.898;  834.675;  161.925;    0.000
250.967;  720.675;  178.925;    0.000
251.035;  773.675;  189.925;    0.000
251.104;  751.675;  166.925;    0.000
251.172;  779.675;  178.925;    0.000
251.241;  734.675;  174.925;    0.000
251.309;  775.675;  197.925;    0.000
251.378;  762.675;  172.925;    0.000
251.446;  799.675;  157.925;    0.000
251.514;  805.675;  197.925;    0.000
251.583;  850.675;  191.925;    0.000
251.651;  781.675;  154.925;    0.000
251.720;  746.675;  198.925;    0.000
251.788;  857.675;  226.925;    0.000
251.856;  722.675;  164.925;    0.000
251.925;  774.675;  181.925;    0.000
251.993;  788.675;  203.925;    0.000
252.062;  762.675;  211.925;    0.000
252.130;  782.675;  185.925;    0.000
252.198;  786.675;  190.925;    0.000
252.267;  764.675;  176.925;    0.000
252.335;  775.675;  179.925;    0.000
252.403;  724.675;  173.925;    0.000
252.472;  746.675;  172.925;    0.000
252.540;  784.675;  187.925;    0.000
252.608;  711.675;  204.925;    0.000
252.677;  737.675;  179.925;    0.000
252.745;  765.675;  192.925;    0.000
252.813;  774.675;  168.925;    0.000
252.881;  711.675;  157.925;    0.000
252.950;  743.675;  188.925;    0.000
253.018;  672.675;  191.925;    0.000
253.086;  682.675;  164.925;    0.000
253.155;  640.675;  172.925;    0.000
253.223;  657.675;  168.925;    0.000
253.291;  641.675;  190.925;    0.000
253.359;  649.675;  205.925;    0.000
253.428;  658.675;  228.925;    0.000
253.496;  651.675;  170.925;    0.000
253.564;  582.675;  164.925;    0.000
253.632;  598.675;  159.925;    0.000
253.700;  608.675;  166.925;    0.000
253.769;  592.675;  172.925;    0.000
253.837;  647.675;  157.925;    0.000
253.905;  600.675;  168.925;    0.000
253.973;  608.675;  179.925;    0.000
254.041;  589.675;  187.925;    0.000
254.110;  629.675;  186.925;    0.000
254.178;  613.675;  156.925;    0.000
254.246;  643.675;  132.925;    0.000
254.314;  615.675;  191.925;    0.000
254.382;  604.675;  189.925;    0.000
254.450;  604.675;  163.925;    0.000
254.518;  640.675;  172.925;    0.000
254.587;  583.675;  162.925;    0.000
254.655;  609.675;  191.925;    0.000
254.723;  567.675;  184.925;    0.000
254.791;  649.675;  169.925;    0.000
254.859;  635.675;  186.925;    0.000
254.927;  621.675;  207.925;    0.000
254.995;  612.675;  143.925;    0.000
255.063;  653.675;  198.925;    0.000
255.131;  622.675;  168.925;    0.000
255.199;  569.675;  183.925;    0.000
255.267;  564.675;  159.925;    0.000
255.336;  631.675;  197.925;    0.000
255.404;  586.675;  177.925;    0.000
255.472;  626.675;  204.925;    0.000
255.540;  608.675;  169.925;    0.000
255.608;  647.675;  141.925;    0.000
255.676;  595.675;  176.925;    0.000
255.744;  620.675;  184.925;    0.000
255.812;  708.675;  158.925;    0.000
255.880;  731.675;  202.925;    0.000
255.948;  697.675;  184.925;    0.000
256.016;  669.675;  192.925;    0.000
256.084;  721.675;  204.925;    0.000
256.152;  727.675;  191.925;    0.000
256.220;  721.675;  187.925;    0.000
256.288;  712.675;  176.925;    0.000
256.356;  724.675;  146.925;    0.000
256.424;  696.675;  164.925;    0.000
256.491;  655.675;  161.925;    0.000
256.559;  712.675;  167.925;    0.000
256.627;  701.675;  180.925;    0.000
256.695;  683.675;  159.925;    0.000
256.763;  751.675;  166.925;    0.000
256.831;  695.675;  166.925;    0.000
256.899;  749.675;  161.925;    0.000
256.967;  696.675;  116.925;    0.000
257.035;  773.675;  195.925;    0.000
257.103;  831.675;  227.925;    0.000
257.171;  747.675;  147.925;    0.000
257.238;  762.675;  158.925;    0.000
257.306;  805.675;  188.925;    0.000
257.374;  794.675;  153.925;    0.000
257.442;  779.675;  159.925;    0.000
257.510;  779.675;  201.925;    0.000
257.578;  864.675;  137.925;    0.000
257.646;  892.675;  172.925;    0.000
257.713;  810.675;  164.925;    0.000
257.781;  895.675;  163.925;    0.000
257.849;  869.675;  174.925;    0.000
257.917;  883.675;  164.925;    0.000
257.985;  849.675;  126.925;    0.000
258.052;  902.675;  158.925;    0.000
258.120;  903.675;  151.925;    0.000
258.188;  954.675;  169.925;    0.000
258.256;  925.675;  110.925;    0.000
258.324;  912.675;  193.925;    0.000
258.391;  944.675;  157.925;    0.000
258.459; 1069.675;  193.925;    0.000
258.527; 1120.675;  150.925;    0.000
258.595; 1092.675;  173.925;    0.000
258.662;  989.675;  168.925;    0.000
258.730; 1005.675;  190.925;    0.000
258.798; 1008.675;  164.925;    0.000
258.865; 1067.675;  165.925;    0.000
258.933; 1047.675;  162.925;    0.000
259.001; 1008.675;  174.925;    0.000
259.069; 1108.675;  139.925;    0.000
259.136; 1153.675;  160.925;    0.000
259.204; 1107.675;  174.925;    0.000
259.272; 1169.675;  161.925;    0.000
259.339; 1091.675;  157.925;    0.000
259.407; 1143.675;  159.925;    0.000
259.475; 1116.675;  134.925;    0.000
259.542; 1101.675;  179.925;    0.000
259.610; 1194.675;  172.925;    0.000
259.677; 1269.675;  152.925;    0.000
259.745; 1413.675;  131.925;    0.000
259.813; 1757.675;  185.925;    0.000
259.880; 2256.675;  183.925;    0.000
259.948; 1938.675;  168.925;    0.000
260.016; 1338.675;  160.925;    0.000
260.083; 1294.675;  163.925;    0.000
260.151; 1234.675;  162.925;    0.000
260.218; 1283.675;  171.925;    0.000
260.286; 1266.675;  154.925;    0.000
260.353; 1380.675;  182.925;    0.000
260.421; 1356.675;  187.925;    0.000
260.489; 1346.675;  185.925;    0.000
260.556; 1417.675;  165.925;    0.000
260.624; 1628.675;  185.925;    0.000
260.691; 1745.675;  175.925;    0.000
260.759; 1571.675;  201.925;    0.000
260.826; 1392.675;  150.925;    0.000
260.894; 1434.675;  142.925;    0.000
260.961; 1455.675;  156.925;    0.000
261.029; 1488.675;  161.925;    0.000
261.096; 1859.675;  172.925;    0.000
261.164; 1955.675;  149.925;    0.000
261.231; 1666.675;  191.925;    0.000
261.299; 1605.675;  182.925;    0.000
261.366; 1735.675;  156.925;    0.000
261.434; 1613.675;  188.925;    0.000
261.501; 1509.675;  170.925;    0.000
261.568; 1560.675;  167.925;    0.000
261.636; 1582.675;  169.925;    0.000
261.703; 1771.675;  200.925;    0.000
261.771; 1694.675;  170.925;    0.000
261.838; 1668.675;  175.925;    0.000
261.906; 1641.675;  135.925;    0.000
261.973; 1610.675;  184.925;    0.000
262.040; 1651.675;  176.925;    0.000
262.108; 1750.675;  201.925;    0.000
262.175; 1669.675;  141.925;    0.000
262.243; 1684.675;  175.925;    0.000
262.310; 1670.675;  112.925;    0.000
262.377; 1709.675;  158.925;    0.000
262.445; 1826.675;  162.925;    0.000
262.512; 2066.675;  184.925;    0.000
262.579; 1959.675;  185.925;    0.000
262.647; 1850.675;  158.925;    0.000
262.714; 1832.675;  197.925;    0.000
262.781; 1988.675;  133.925;    0.000
262.849; 2018.675;  146.925;    0.000
262.916; 1897.675;  204.925;    0.000
262.983; 2094.675;  191.925;    0.000
263.051; 2577.675;  140.925;    0.000
263.118; 2501.675;  154.925;    0.000
263.185; 2028.675;  169.925;    0.000
263.252; 1916.675;  150.925;    0.000
263.320; 1880.675;  145.925;    0.000
263.387; 1824.675;  144.925;    0.000
263.454; 1942.675;  193.925;    0.000
263.522; 1949.675;  160.925;    0.000
263.589; 1937.675;  153.925;    0.000
263.656; 1949.675;  178.925;    0.000
263.723; 1953.675;  136.925;    0.000
263.790; 1950.675;  162.925;    0.000
263.858; 2026.675;  164.925;    0.000
263.925; 2016.675;  146.925;    0.000
263.992; 1946.675;  191.925;    0.000
264.059; 1968.675;  180.925;    0.000
264.126; 2022.675;  183.925;    0.000
264.194; 2028.675;  174.925;    0.000
264.261; 2081.675;  187.925;    0.000
264.328; 2006.675;  179.925;    0.000
264.395; 2047.675;  166.925;    0.000
264.462; 2112.675;  197.925;    0.000
264.529; 2161.675;  209.925;    0.000
264.597; 2078.675;  173.925;    0.000
264.664; 2112.675;  193.925;    0.000
264.731; 2095.675;  165.925;    0.000
264.798; 2087.675;  148.925;    0.000
264.865; 2070.675;  186.925;    0.000
264.932; 2192.675;  152.925;    0.000
264.999; 2111.675;  166.925;    0.000
265.066; 2127.675;  186.925;    0.000
265.133; 2153.675;  172.925;    0.000
265.201; 2194.675;  159.925;    0.000
265.268; 2233.675;  164.925;    0.000
265.335; 2185.675;  161.925;    0.000
265.402; 2227.675;  157.925;    0.000
265.469; 2238.675;  134.925;    0.000
265.536; 2292.675;  191.925;    0.000
265.603; 2284.675;  170.925;    0.000
265.670; 2236.675;  162.925;    0.000
265.737; 2299.675;  172.925;    0.000
265.804; 2318.675;  151.925;    0.000
265.871; 2349.675;  191.925;    0.000
265.938; 2355.675;  173.925;    0.000
266.005; 2437.675;  201.925;    0.000
266.072; 2399.675;  156.925;    0.000
266.139; 2410.675;  191.925;    0.000
266.206; 2436.675;  151.925;    0.000
266.273; 2563.675;  194.925;    0.000
266.340; 2556.675;  120.925;    0.000
266.407; 2465.675;  130.925;    0.000
266.474; 2542.675;  137.925;    0.000
266.541; 2527.675;  139.925;    0.000
266.608; 2627.675;  139.925;    0.000
266.675; 2627.675;  198.925;    0.000
266.742; 2508.675;  165.925;    0.000
266.808; 2426.675;  174.925;    0.000
266.875; 2463.675;  169.925;    0.000
266.942; 2509.675;  137.925;    0.000
267.009; 2475.675;  181.925;    0.000
267.076; 2525.675;  204.925;    0.000
267.143; 2632.675;  179.925;    0.000
267.210; 2609.675;  160.925;    0.000
267.277; 2492.675;  154.925;    0.000
267.344; 2511.675;  178.925;    0.000
267.410; 2554.675;  190.925;    0.000
267.477; 2481.675;  193.925;    0.000
267.544; 2532.675;  168.925;    0.000
267.611; 2743.675;  177.925;    0.000
267.678; 3059.675;  205.925;    0.000
267.745; 2874.675;  205.925;    0.000
267.811; 2620.675;  164.925;    0.000
267.878; 2639.675;  166.925;    0.000
267.945; 2475.675;  160.925;    0.000
268.012; 2613.675;  172.925;    0.000
268.079; 2496.675;  186.925;    0.000
268.145; 2447.675;  188.925;    0.000
268.212; 2573.675;  181.925;    0.000
268.279; 2463.675;  158.925;    0.000
268.346; 2598.675;  192.925;    0.000
268.412; 2615.675;  159.925;    0.000
268.479; 2719.675;  176.925;    0.000
268.546; 2588.675;  170.925;    0.000
268.613; 2595.675;  133.925;    0.000
268.679; 2600.675;  170.925;    0.000
268.746; 2639.675;  185.925;    0.000
268.813; 2569.675;  170.925;    0.000
268.879; 2561.675;  149.925;    0.000
268.946; 2571.675;  176.925;    0.000
269.013; 2641.675;  153.925;    0.000
269.079; 2627.675;  156.925;    0.000
269.146; 2536.675;  143.925;    0.000
269.213; 2640.675;  170.925;    0.000
269.280; 2657.675;  202.925;    0.000
269.346; 2638.675;  180.925;    0.000
269.413; 2407.675;  162.925;    0.000
269.479; 2559.675;  175.925;    0.000
269.546; 2437.675;  151.925;    0.000
269.613; 2486.675;  159.925;    0.000
269.679; 2550.675;  190.925;    0.000
269.746; 2633.675;  159.925;    0.000
269.813; 2571.675;  151.925;    0.000
269.879; 2628.675;  169.925;    0.000
269.946; 2586.675;  169.925;    0.000
270.012; 2572.675;  185.925;    0.000
270.079; 2462.675;  133.925;    0.000
270.145; 2597.675;  161.925;    0.000
270.212; 2525.675;  156.925;    0.000
270.279; 2588.675;  176.925;    0.000
270.345; 2635.675;  140.925;    0.000
270.412; 2562.675;  162.925;    0.000
270.478; 2454.675;  148.925;    0.000
270.545; 2536.675;  146.925;    0.000
270.611; 2641.675;  168.925;    0.000
270.678; 2483.675;  164.925;    0.000
270.744; 2344.675;  117.925;    0.000
270.811; 2408.675;  196.925;    0.000
270.877; 2533.675;  151.925;    0.000
270.944; 2424.675;  174.925;    0.000
271.010; 2537.675;  180.925;    0.000
271.077; 2515.675;  162.925;    0.000
271.143; 2631.675;  178.925;    0.000
271.210; 2438.675;  159.925;    0.000
271.276; 2511.675;  143.925;    0.000
271.342; 2676.675;  196.925;    0.000
271.409; 2613.675;  161.925;    0.000
271.475; 2561.675;  153.925;    0.000
271.542; 2404.675;  147.925;    0.000
271.608; 2525.675;  175.925;    0.000
271.675; 2447.675;  134.925;    0.000
271.741; 2540.675;  182.925;    0.000
271.807; 2516.675;  174.925;    0.000
271.874; 2629.675;  169.925;    0.000
271.940; 2464.675;  179.925;    0.000
272.007; 2413.675;  173.925;    0.000
272.073; 2449.675;  133.925;    0.000
272.139; 2419.675;  191.925;    0.000
272.206; 2446.675;  168.925;    0.000
272.272; 2499.675;  179.925;    0.000
272.338; 2548.675;  224.925;    0.000
272.405; 2322.675;  156.925;    0.000
272.471; 2423.675;  175.925;    0.000
272.537; 2420.675;  190.925;    0.000
272.604; 2437.675;  199.925;    0.000
272.670; 2669.675;  156.925;    0.000
272.736; 2618.675;  198.925;    0.000
272.802; 2441.675;  169.925;    0.000
272.869; 2425.675;  141.925;    0.000
272.935; 2404.675;  145.925;    0.000
273.001; 2430.675;  156.925;    0.000
273.068; 2450.675;  157.925;    0.000
273.134; 2444.675;  184.925;    0.000
273.200; 2426.675;  158.925;    0.000
273.266; 2423.675;  150.925;    0.000
273.333; 2512.675;  176.925;    0.000
273.399; 2390.675;  118.925;    0.000
273.465; 2471.675;  184.925;    0.000
273.531; 2530.675;  179.925;    0.000
273.597; 2577.675;  167.925;    0.000
273.664; 2649.675;  186.925;    0.000
273.730; 2664.675;  137.925;    0.000
273.796; 2605.675;  148.925;    0.000
273.862; 3110.675;  183.925;    0.000
273.928; 3402.675;  179.925;    0.000
273.995; 3006.675;  189.925;    0.000
274.061; 2653.675;  188.925;    0.000
274.127; 2568.675;  132.925;    0.000
274.193; 2680.675;  135.925;    0.000
274.259; 2886.675;  177.925;    0.000
274.325; 2918.675;  178.925;    0.000
274.391; 2808.675;  140.925;    0.000
274.457; 2665.675;  158.925;    0.000
274.524; 2829.675;  175.925;    0.000
274.590; 3478.675;  182.925;    0.000
274.656; 3710.675;  165.925;    0.000
274.722; 3203.675;  152.925;    0.000
274.788; 3002.675;  159.925;    0.000
274.854; 3646.675;  143.925;    0.000
274.920; 3874.675;  117.925;    0.000
274.986; 3188.675;  140.925;    0.000
275.052; 2813.675;  174.925;    0.000
275.118; 2792.675;  129.925;    0.000
275.184; 2896.675;  173.925;    0.000
275.250; 2934.675;  196.925;    0.000
275.316; 2977.675;  142.925;    0.000
275.382; 3012.675;  149.925;    0.000
275.448; 3077.675;  178.925;    0.000
275.514; 3841.675;  136.925;    0.000
275.580; 3760.675;  140.925;    0.000
275.646; 3076.675;  133.925;    0.000
275.712; 2861.675;  162.925;    0.000
275.778; 2920.675;  129.925;    0.000
275.844; 2814.675;  156.925;    0.000
275.910; 2941.675;  172.925;    0.000
275.976; 2945.675;  158.925;    0.000
276.042; 2932.675;  141.925;    0.000
276.108; 2973.675;  212.925;    0.000
276.174; 3068.675;  148.925;    0.000
276.240; 3090.675;  134.925;    0.000
276.306; 3086.675;  149.925;    0.000
276.372; 2931.675;  126.925;    0.000
276.437; 3112.675;  168.925;    0.000
276.503; 3157.675;  158.925;    0.000
276.569; 3380.675;  191.925;    0.000
276.635; 3562.675;  130.925;    0.000
276.701; 3473.675;  161.925;    0.000
276.767; 3311.675;  148.925;    0.000
276.833; 3302.675;  147.925;    0.000
276.899; 3353.675;  149.925;    0.000
276.964; 3386.675;  181.925;    0.000
277.030; 3558.675;  186.925;    0.000
277.096; 3403.675;  132.925;    0.000
277.162; 3646.675;  181.925;    0.000
277.228; 3522.675;  166.925;    0.000
277.293; 3580.675;  154.925;    0.000
277.359; 3810.675;  181.925;    0.000
277.425; 3987.675;  184.925;    0.000
277.491; 4092.675;  150.925;    0.000
277.557; 4842.675;  159.925;    0.000
277.622; 6315.675;  129.925;    0.000
277.688; 6348.675;  184.925;    0.000
277.754; 6293.675;  182.925;    0.000
277.820; 6913.675;  149.925;    0.000
277.885; 8376.675;  185.925;    0.000
277.951;10509.675;  164.925;    0.000
278.017; 8853.675;  162.925;    0.000
278.083; 7488.675;  189.925;    0.000
278.148; 7086.675;  184.925;    0.000
278.214; 7349.675;  188.925;    0.000
278.280; 7782.675;  206.925;    0.000
278.345; 7106.675;  187.925;    0.000
278.411; 6507.675;  174.925;    0.000
278.477; 6522.675;  190.925;    0.000
278.542; 7076.675;  154.925;    0.000
278.608; 7406.675;  191.925;    0.000
278.674; 8134.675;  243.925;    0.000
278.739; 9177.675;  141.925;    0.000
278.805;10262.675;  171.925;    0.000
278.871;12255.675;  181.925;    0.000
278.936;15882.675;  191.925;    0.000
279.002;25894.676;  201.925;    0.000
279.067;34874.676;  174.925;    0.000
279.133;32986.676;  165.925;    0.000
279.199;28193.676;  122.925;    0.000
279.264;28696.676;  159.925;    0.000
279.330;34834.676;  170.925;    0.000
279.395;48938.676;  173.925;    0.000
279.461;65298.676;  200.925;    0.000
279.527;65298.676;  199.925;    0.000
279.592;65298.676;  203.925;    0.000
279.658;55766.676;  209.925;    0.000
279.723;54284.676;  188.925;    0.000
279.789;57598.676;  180.925;    0.000
279.854;49972.676;  137.925;    0.000
279.920;38318.676;  223.925;    0.000
279.985;33468.676;  186.925;    0.000
280.051;34175.676;  198.925;    0.000
280.116;42942.676;  178.925;    0.000
280.182;65139.676;  176.925;    0.000
280.247;65298.676;  195.925;    0.000
280.313;61367.676;  165.925;    0.000
280.378;37801.676;  153.925;    0.000
280.444;26010.676;  181.925;    0.000
280.509;20067.676;  188.925;    0.000
280.574;16522.676;  149.925;    0.000
280.640;14057.675;  164.925;    0.000
280.705;12596.675;  166.925;    0.000
280.771;11326.675;  188.925;    0.000
280.836;10441.675;  188.925;    0.000
280.902; 9824.675;  168.925;    0.000
280.967; 9150.675;  202.925;    0.000
281.032; 8737.675;  197.925;    0.000
281.098; 8226.675;  138.925;    0.000
281.163; 7820.675;  160.925;    0.000
281.229; 7533.675;  212.925;    0.000
281.294; 7068.675;  227.925;    0.000
281.359; 6764.675;  200.925;    0.000
281.425; 6708.675;  189.925;    0.000
281.490; 6433.675;  176.925;    0.000
281.555; 6254.675;  182.925;    0.000
281.621; 6053.675;  169.925;    0.000
281.686; 5803.675;  182.925;    0.000
281.751; 5707.675;  208.925;    0.000
281.816; 5608.675;  166.925;    0.000
281.882; 5442.675;  181.925;    0.000
281.947; 5238.675;  178.925;    0.000
282.012; 5249.675;  167.925;    0.000
282.078; 5113.675;  170.925;    0.000
282.143; 5069.675;  157.925;    0.000
282.208; 5266.675;  158.925;    0.000
282.273; 4990.675;  187.925;    0.000
282.339; 4806.675;  185.925;    0.000
282.404; 4702.675;  201.925;    0.000
282.469; 4654.675;  202.925;    0.000
282.534; 4652.675;  185.925;    0.000
282.600; 4648.675;  125.925;    0.000
282.665; 4554.675;  162.925;    0.000
282.730; 4604.675;  174.925;    0.000
282.795; 4514.675;  179.925;    0.000
282.860; 4427.675;  190.925;    0.000
282.926; 4503.675;  200.925;    0.000
282.991; 4472.675;  161.925;    0.000
283.056; 4531.675;  175.925;    0.000
283.121; 4472.675;  181.925;    0.000
283.186; 4331.675;  221.925;    0.000
283.251; 4171.675;  168.925;    0.000
283.316; 4295.675;  156.925;    0.000
283.382; 4323.675;  197.925;    0.000
283.447; 4635.675;  210.925;    0.000
283.512; 5009.675;  164.925;    0.000
283.577; 4961.675;  212.925;    0.000
283.642; 4361.675;  186.925;    0.000
283.707; 4265.675;  182.925;    0.000
283.772; 4205.675;  127.925;    0.000
283.837; 4254.675;  160.925;    0.000
283.902; 4318.675;  162.925;    0.000
283.967; 4328.675;  151.925;    0.000
284.032; 4280.675;  175.925;    0.000
284.097; 4290.675;  235.925;    0.000
284.163; 4150.675;  136.925;    0.000
284.228; 4548.675;  209.925;    0.000
284.293; 4875.675;  163.925;    0.000
284.358; 4645.675;  169.925;    0.000
284.423; 4228.675;  145.925;    0.000
284.488; 4446.675;  134.925;    0.000
284.553; 4449.675;  158.925;    0.000
284.618; 4549.675;  163.925;    0.000
284.683; 4614.675;  168.925;    0.000
284.748; 4769.675;  170.925;    0.000
284.812; 4922.675;  151.925;    0.000
284.877; 5662.675;  169.925;    0.000
284.942; 6316.675;  179.925;    0.000
285.007; 7236.675;  202.925;    0.000
285.072;10160.675;  171.925;    0.000
285.137;18678.676;  173.925;    0.000
285.202;24358.676;  196.925;    0.000
285.267;18613.676;  193.925;    0.000
285.332;11057.675;  151.925;    0.000
285.397; 8267.675;  183.925;    0.000
285.462; 7088.675;  168.925;    0.000
285.527; 6254.675;  166.925;    0.000
285.591; 5744.675;  124.925;    0.000
285.656; 5278.675;  145.925;    0.000
285.721; 5175.675;  155.925;    0.000
285.786; 4993.675;  170.925;    0.000
285.851; 4802.675;  175.925;    0.000
285.916; 4727.675;  186.925;    0.000
285.981; 4498.675;  204.925;    0.000
286.045; 4555.675;  237.925;    0.000
286.110; 4486.675;  197.925;    0.000
286.175; 4430.675;  143.925;    0.000
286.240; 4377.675;  167.925;    0.000
286.305; 4266.675;  202.925;    0.000
286.369; 4131.675;  214.925;    0.000
286.434; 4360.675;  206.925;    0.000
286.499; 4220.675;  177.925;    0.000
286.564; 4288.675;  201.925;    0.000
286.628; 4296.675;  153.925;    0.000
286.693; 4323.675;  161.925;    0.000
286.758; 4125.675;  181.925;    0.000
286.823; 3923.675;  176.925;    0.000
286.887; 3963.675;  158.925;    0.000
286.952; 4189.675;  198.925;    0.000
287.017; 4061.675;  196.925;    0.000
287.082; 4100.675;  154.925;    0.000
287.146; 4099.675;  178.925;    0.000
287.211; 4071.675;  165.925;    0.000
287.276; 4010.675;  165.925;    0.000
287.340; 4030.675;  178.925;    0.000
287.405; 4065.675;  177.925;    0.000
287.470; 3919.675;  141.925;    0.000
287.534; 4195.675;  224.925;    0.000
287.599; 4262.675;  184.925;    0.000
287.663; 4180.675;  177.925;    0.000
287.728; 3806.675;  144.925;    0.000
287.793; 3943.675;  210.925;    0.000
287.857; 3883.675;  198.925;    0.000
287.922; 3800.675;  168.925;    0.000
287.987; 3829.675;  168.925;    0.000
288.051; 4206.675;  200.925;    0.000
288.116; 4733.675;  199.925;    0.000
288.180; 4523.675;  211.925;    0.000
288.245; 4093.675;  182.925;    0.000
288.309; 3946.675;  180.925;    0.000
288.374; 4126.675;  196.925;    0.000
288.439; 3900.675;  187.925;    0.000
288.503; 3737.675;  159.925;    0.000
288.568; 3852.675;  207.925;    0.000
288.632; 3832.675;  210.925;    0.000
288.697; 3924.675;  196.925;    0.000
288.761; 3859.675;  175.925;    0.000
288.826; 3888.675;  159.925;    0.000
288.890; 3895.675;  183.925;    0.000
288.955; 3831.675;  149.925;    0.000
289.019; 3857.675;  194.925;    0.000
289.084; 3909.675;  171.925;    0.000
289.148; 3887.675;  191.925;    0.000
289.212; 3719.675;  217.925;    0.000
289.277; 3865.675;  196.925;    0.000
289.341; 3664.675;  211.925;    0.000
289.406; 3748.675;  165.925;    0.000
289.470; 3787.675;  197.925;    0.000
289.535; 3835.675;  208.925;    0.000
289.599; 3784.675;  192.925;    0.000
289.663; 3845.675;  169.925;    0.000
289.728; 3785.675;  168.925;    0.000
289.792; 3911.675;  192.925;    0.000
289.857; 3883.675;  202.925;    0.000
289.921; 3833.675;  176.925;    0.000
289.985; 3792.675;  164.925;    0.000
290.050; 3738.675;  166.925;    0.000
290.114; 3651.675;  192.925;    0.000
290.178; 3601.675;  155.925;    0.000
290.243; 3662.675;  158.925;    0.000
290.307; 3801.675;  192.925;    0.000
290.371; 3758.675;  161.925;    0.000
290.436; 3715.675;  182.925;    0.000
290.500; 3800.675;  147.925;    0.000
290.564; 3762.675;  209.925;    0.000
290.629; 3740.675;  172.925;    0.000
290.693; 3834.675;  192.925;    0.000
290.757; 3833.675;  147.925;    0.000
290.821; 3789.675;  139.925;    0.000
290.886; 3892.675;  186.925;    0.000
290.950; 3789.675;  196.925;    0.000
291.014; 3850.675;  166.925;    0.000
291.078; 3764.675;  143.925;    0.000
291.143; 3788.675;  171.925;    0.000
291.207; 3921.675;  187.925;    0.000
291.271; 3784.675;  208.925;    0.000
291.335; 4038.675;  195.925;    0.000
291.399; 3941.675;  139.925;    0.000
291.464; 4103.675;  139.925;    0.000
291.528; 4260.675;  183.925;    0.000
291.592; 4227.675;  152.925;    0.000
291.656; 4034.675;  155.925;    0.000
291.720; 4028.675;  191.925;    0.000
291.784; 3973.675;  185.925;    0.000
291.849; 3935.675;  175.925;    0.000
291.913; 3863.675;  152.925;    0.000
291.977; 3914.675;  203.925;    0.000
292.041; 4049.675;  181.925;    0.000
292.105; 3968.675;  168.925;    0.000
292.169; 4113.675;  133.925;    0.000
292.233; 4107.675;  156.925;    0.000
292.297; 4068.675;  173.925;    0.000
292.361; 4214.675;  124.925;    0.000
292.425; 4249.675;  138.925;    0.000
292.490; 4158.675;  110.925;    0.000
292.554; 4483.675;  180.925;    0.000
292.618; 4529.675;  178.925;    0.000
292.682; 4974.675;  156.925;    0.000
292.746; 5576.675;  151.925;    0.000
292.810; 7378.675;  183.925;    0.000
292.874; 8737.675;  156.925;    0.000
292.938; 8664.675;  195.925;    0.000
293.002; 7480.675;  200.925;    0.000
293.066; 6755.675;  171.925;    0.000
293.130; 6202.675;  163.925;    0.000
293.194; 6020.675;  174.925;    0.000
293.258; 5931.675;  167.925;    0.000
293.322; 5745.675;  212.925;    0.000
293.386; 5933.675;  189.925;    0.000
293.450; 6220.675;  169.925;    0.000
293.514; 7109.675;  175.925;    0.000
293.577; 9297.675;  169.925;    0.000
293.641;12968.675;  186.925;    0.000
293.705;13458.675;  222.925;    0.000
293.769;11537.675;  150.925;    0.000
293.833; 9712.675;  165.925;    0.000
293.897; 8500.675;  152.925;    0.000
293.961; 7451.675;  179.925;    0.000
294.025; 6734.675;  159.925;    0.000
294.089; 6274.675;  181.925;    0.000
294.152; 6041.675;  188.925;    0.000
294.216; 5549.675;  170.925;    0.000
294.280; 5389.675;  167.925;    0.000
294.344; 5174.675;  151.925;    0.000
294.408; 5052.675;  180.925;    0.000
294.472; 4868.675;  144.925;    0.000
294.536; 4744.675;  171.925;    0.000
294.599; 4658.675;  157.925;    0.000
294.663; 4594.675;  139.925;    0.000
294.727; 4597.675;  208.925;    0.000
294.791; 4487.675;  152.925;    0.000
294.855; 4525.675;  181.925;    0.000
294.918; 4342.675;  136.925;    0.000
294.982; 4262.675;  155.925;    0.000
295.046; 4226.675;  200.925;    0.000
295.110; 4093.675;  190.925;    0.000
295.173; 4146.675;  156.925;    0.000
295.237; 4114.675;  160.925;    0.000
295.301; 4028.675;  145.925;    0.000
295.364; 4108.675;  166.925;    0.000
295.428; 4012.675;  125.925;    0.000
295.492; 4016.675;  154.925;    0.000
295.556; 3996.675;  172.925;    0.000
295.619; 3925.675;  210.925;    0.000
295.683; 3961.675;  181.925;    0.000
295.747; 3949.675;  176.925;    0.000
295.810; 3875.675;  181.925;    0.000
295.874; 3943.675;  160.925;    0.000
295.938; 3804.675;  119.925;    0.000
296.001; 3768.675;  206.925;    0.000
296.065; 3724.675;  136.925;    0.000
296.128; 3751.675;  156.925;    0.000
296.192; 3771.675;  174.925;    0.000
296.256; 3725.675;  145.925;    0.000
296.319; 3769.675;  167.925;    0.000
296.383; 3707.675;  168.925;    0.000
296.447; 3677.675;  190.925;    0.000
296.510; 3725.675;  165.925;    0.000
296.574; 3614.675;  184.925;    0.000
296.637; 3698.675;  155.925;    0.000
296.701; 3667.675;  168.925;    0.000
296.764; 3564.675;  161.925;    0.000
296.828; 3696.675;  218.925;    0.000
296.891; 3578.675;  176.925;    0.000
296.955; 3646.675;  169.925;    0.000
297.018; 3639.675;  168.925;    0.000
297.082; 3603.675;  176.925;    0.000
297.145; 3655.675;  171.925;    0.000
297.209; 3700.675;  196.925;    0.000
297.272; 3620.675;  170.925;    0.000
297.336; 3595.675;  156.925;    0.000
297.399; 3485.675;  168.925;    0.000
297.463; 3541.675;  203.925;    0.000
297.526; 3545.675;  164.925;    0.000
297.590; 3521.675;  175.925;    0.000
297.653; 3595.675;  170.925;    0.000
297.717; 3440.675;  156.925;    0.000
297.780; 3482.675;  149.925;    0.000
297.843; 3514.675;  156.925;    0.000
297.907; 3542.675;  129.925;    0.000
297.970; 3543.675;  163.925;    0.000
298.034; 3553.675;  162.925;    0.000
298.097; 3600.675;  182.925;    0.000
298.160; 3448.675;  194.925;    0.000
298.224; 3480.675;  178.925;    0.000
298.287; 3363.675;  147.925;    0.000
298.350; 3444.675;  187.925;    0.000
298.414; 3549.675;  193.925;    0.000
298.477; 3607.675;  127.925;    0.000
298.540; 3607.675;  181.925;    0.000
298.604; 3521.675;  163.925;    0.000
298.667; 3557.675;  177.925;    0.000
298.730; 3402.675;  192.925;    0.000
298.794; 3319.675;  183.925;    0.000
298.857; 3479.675;  194.925;    0.000
298.920; 3412.675;  147.925;    0.000
298.984; 3318.675;  184.925;    0.000
299.047; 3288.675;  218.925;    0.000
299.110; 3311.675;  171.925;    0.000
299.173; 3277.675;  177.925;    0.000
299.237; 3327.675;  181.925;    0.000
299.300; 3228.675;  170.925;    0.000
299.363; 3267.675;  185.925;    0.000
299.426; 3297.675;  193.925;    0.000
299.489; 3096.675;  184.925;    0.000
299.553; 3301.675;  194.925;    0.000
299.616; 3239.675;  171.925;    0.000
299.679; 3129.675;  182.925;    0.000
299.742; 3202.675;  138.925;    0.000
299.805; 3203.675;  172.925;    0.000
299.868; 3262.675;  191.925;    0.000
299.932; 3225.675;  193.925;    0.000
299.995; 3282.675;  201.925;    0.000
300.058; 3188.675;  177.925;    0.000
300.121; 3171.675;  178.925;    0.000
300.184; 3068.675;  171.925;    0.000
300.247; 3208.675;  184.925;    0.000
300.310; 3168.675;  200.925;    0.000
300.374; 3127.675;  172.925;    0.000
300.437; 3129.675;  187.925;    0.000
300.500; 3121.675;  211.925;    0.000
300.563; 3057.675;  190.925;    0.000
300.626; 3121.675;  196.925;    0.000
300.689; 3145.675;  162.925;    0.000
300.752; 3144.675;  163.925;    0.000
300.815; 3112.675;  207.925;    0.000
300.878; 3146.675;  221.925;    0.000
300.941; 3092.675;  176.925;    0.000
301.004; 3108.675;  193.925;    0.000
301.067; 3035.675;  165.925;    0.000
301.130; 3021.675;  179.925;    0.000
301.193; 3114.675;  196.925;    0.000
301.256; 3017.675;  210.925;    0.000
301.319; 3173.675;  196.925;    0.000
301.382; 3027.675;  162.925;    0.000
301.445; 3188.675;  233.925;    0.000
301.508; 3120.675;  176.925;    0.000
301.571; 3116.675;  185.925;    0.000
301.634; 3022.675;  202.925;    0.000
301.697; 3065.675;  189.925;    0.000
301.760; 3033.675;  224.925;    0.000
301.823; 3015.675;  212.925;    0.000
301.885; 3075.675;  196.925;    0.000
301.948; 3088.675;  169.925;    0.000
302.011; 3254.675;  160.925;    0.000
302.074; 3430.675;  202.925;    0.000
302.137; 3191.675;  130.925;    0.000
302.200; 3151.675;  188.925;    0.000
302.263; 3057.675;  196.925;    0.000
302.326; 3022.675;  172.925;    0.000
302.388; 3038.675;  197.925;    0.000
302.451; 3015.675;  203.925;    0.000
302.514; 3019.675;  164.925;    0.000
302.577; 3052.675;  170.925;    0.000
302.640; 3020.675;  156.925;    0.000
302.703; 2966.675;  188.925;    0.000
302.765; 2911.675;  213.925;    0.000
302.828; 2955.675;  212.925;    0.000
302.891; 2919.675;  203.925;    0.000
302.954; 2913.675;  148.925;    0.000
303.016; 3048.675;  168.925;    0.000
303.079; 2995.675;  206.925;    0.000
303.142; 2975.675;  210.925;    0.000
303.205; 2943.675;  189.925;    0.000
303.267; 2916.675;  174.925;    0.000
303.330; 2943.675;  198.925;    0.000
303.393; 2911.675;  207.925;    0.000
303.456; 2991.675;  177.925;    0.000
303.518; 2965.675;  192.925;    0.000
303.581; 2955.675;  171.925;    0.000
303.644; 2977.675;  193.925;    0.000
303.706; 3035.675;  185.925;    0.000
303.769; 2999.675;  198.925;    0.000
303.832; 3012.675;  192.925;    0.000
303.894; 2959.675;  199.925;    0.000
303.957; 2964.675;  160.925;    0.000
304.020; 3173.675;  184.925;    0.000
304.082; 2995.675;  191.925;    0.000
304.145; 3041.675;  216.925;    0.000
304.207; 3001.675;  175.925;    0.000
304.270; 3059.675;  192.925;    0.000
304.333; 3016.675;  218.925;    0.000
304.395; 3005.675;  195.925;    0.000
304.458; 2914.675;  206.925;    0.000
304.520; 3060.675;  229.925;    0.000
304.583; 3033.675;  202.925;    0.000
304.646; 2969.675;  159.925;    0.000
304.708; 3086.675;  167.925;    0.000
304.771; 3070.675;  141.925;    0.000
304.833; 3017.675;  184.925;    0.000
304.896; 3048.675;  197.925;    0.000
304.958; 3030.675;  179.925;    0.000
305.021; 2984.675;  175.925;    0.000
305.083; 3032.675;  182.925;    0.000
305.146; 2902.675;  182.925;    0.000
305.208; 2983.675;  174.925;    0.000
305.271; 2978.675;  157.925;    0.000
305.333; 3013.675;  185.925;    0.000
305.396; 2955.675;  199.925;    0.000
305.458; 3066.675;  203.925;    0.000
305.520; 3015.675;  195.925;    0.000
305.583; 2938.675;  152.925;    0.000
305.645; 3110.675;  200.925;    0.000
305.708; 3059.675;  149.925;    0.000
305.770; 3126.675;  211.925;    0.000
305.833; 3019.675;  189.925;    0.000
305.895; 2998.675;  200.925;    0.000
305.957; 2986.675;  166.925;    0.000
306.020; 3013.675;  186.925;    0.000
306.082; 2960.675;  197.925;    0.000
306.144; 3041.675;  200.925;    0.000
306.207; 3058.675;  180.925;    0.000
306.269; 3036.675;  209.925;    0.000
306.331; 3026.675;  205.925;    0.000
306.394; 3003.675;  176.925;    0.000
306.456; 2934.675;  184.925;    0.000
306.518; 3014.675;  210.925;    0.000
306.581; 3053.675;  162.925;    0.000
306.643; 2964.675;  196.925;    0.000
306.705; 2969.675;  204.925;    0.000
306.768; 3034.675;  158.925;    0.000
306.830; 3054.675;  205.925;    0.000
306.892; 3024.675;  189.925;    0.000
306.954; 3035.675;  188.925;    0.000
307.017; 2934.675;  180.925;    0.000
307.079; 2942.675;  197.925;    0.000
307.141; 2998.675;  184.925;    0.000
307.203; 3027.675;  182.925;    0.000
307.266; 3119.675;  166.925;    0.000
307.328; 3194.675;  186.925;    0.000
307.390; 3064.675;  176.925;    0.000
307.452; 3036.675;  194.925;    0.000
307.514; 3161.675;  225.925;    0.000
307.577; 3113.675;  209.925;    0.000
307.639; 3178.675;  203.925;    0.000
307.701; 3209.675;  214.925;    0.000
307.763; 3103.675;  203.925;    0.000
307.825; 3156.675;  202.925;    0.000
307.887; 3094.675;  244.925;    0.000
307.949; 3232.675;  173.925;    0.000
308.012; 3220.675;  219.925;    0.000
308.074; 3213.675;  157.925;    0.000
308.136; 3257.675;  215.925;    0.000
308.198; 3256.675;  186.925;    0.000
308.260; 3175.675;  186.925;    0.000
308.322; 3171.675;  201.925;    0.000
308.384; 3254.675;  218.925;    0.000
308.446; 3300.675;  159.925;    0.000
308.508; 3163.675;  191.925;    0.000
308.570; 3275.675;  185.925;    0.000
308.632; 3195.675;  208.925;    0.000
308.694; 3242.675;  161.925;    0.000
308.756; 3445.675;  169.925;    0.000
308.818; 3293.675;  187.925;    0.000
308.880; 3313.675;  192.925;    0.000
308.942; 3267.675;  194.925;    0.000
309.004; 3312.675;  206.925;    0.000
309.066; 3458.675;  204.925;    0.000
309.128; 3344.675;  181.925;    0.000
309.190; 3548.675;  166.925;    0.000
309.252; 3949.675;  213.925;    0.000
309.314; 3885.675;  249.925;    0.000
309.376; 3662.675;  238.925;    0.000
309.438; 3553.675;  206.925;    0.000
309.500; 3595.675;  185.925;    0.000
309.562; 3594.675;  214.925;    0.000
309.624; 3644.675;  216.925;    0.000
309.686; 3752.675;  197.925;    0.000
309.747; 3628.675;  171.925;    0.000
309.809; 3557.675;  198.925;    0.000
309.871; 3498.675;  185.925;    0.000
309.933; 3551.675;  172.925;    0.000
309.995; 3461.675;  168.925;    0.000
310.057; 3471.675;  177.925;    0.000
310.119; 3356.675;  207.925;    0.000
310.180; 3296.675;  180.925;    0.000
310.242; 3237.675;  202.925;    0.000
310.304; 3368.675;  200.925;    0.000
310.366; 3259.675;  222.925;    0.000
310.428; 3293.675;  179.925;    0.000
310.489; 3329.675;  196.925;    0.000
310.551; 3286.675;  203.925;    0.000
310.613; 3397.675;  198.925;    0.000
310.675; 3371.675;  203.925;    0.000
310.737; 3320.675;  195.925;    0.000
310.798; 3374.675;  204.925;    0.000
310.860; 3280.675;  195.925;    0.000
310.922; 3302.675;  195.925;    0.000
310.983; 3299.675;  225.925;    0.000
311.045; 3305.675;  203.925;    0.000
311.107; 3288.675;  194.925;    0.000
311.169; 3171.675;  185.925;    0.000
311.230; 3248.675;  175.925;    0.000
311.292; 3357.675;  220.925;    0.000
311.354; 3310.675;  189.925;    0.000
311.415; 3219.675;  187.925;    0.000
311.477; 3149.675;  180.925;    0.000
311.539; 3319.675;  175.925;    0.000
311.600; 3248.675;  192.925;    0.000
311.662; 3322.675;  212.925;    0.000
311.724; 3277.675;  217.925;    0.000
311.785; 3290.675;  218.925;    0.000
311.847; 3439.675;  219.925;    0.000
311.908; 3259.675;  202.925;    0.000
311.970; 3426.675;  186.925;    0.000
312.032; 3476.675;  212.925;    0.000
312.093; 3296.675;  203.925;    0.000
312.155; 3253.675;  165.925;    0.000
312.216; 3313.675;  183.925;    0.000
312.278; 3336.675;  167.925;    0.000
312.339; 3399.675;  190.925;    0.000
312.401; 3427.675;  219.925;    0.000
312.462; 3508.675;  190.925;    0.000
312.524; 3414.675;  203.925;    0.000
312.585; 3367.675;  191.925;    0.000
312.647; 3295.675;  197.925;    0.000
312.708; 3331.675;  203.925;    0.000
312.770; 3373.675;  203.925;    0.000
312.831; 3382.675;  155.925;    0.000
312.893; 3371.675;  189.925;    0.000
312.954; 3373.675;  212.925;    0.000
313.016; 3377.675;  179.925;    0.000
313.077; 3352.675;  209.925;    0.000
313.139; 3644.675;  185.925;    0.000
313.200; 3775.675;  180.925;    0.000
313.261; 3640.675;  220.925;    0.000
313.323; 3358.675;  171.925;    0.000
313.384; 3493.675;  180.925;    0.000
313.446; 3433.675;  202.925;    0.000
313.507; 3381.675;  172.925;    0.000
313.568; 3435.675;  192.925;    0.000
313.630; 3406.675;  191.925;    0.000
313.691; 3352.675;  176.925;    0.000
313.752; 3440.675;  175.925;    0.000
313.814; 3314.675;  202.925;    0.000
313.875; 3319.675;  186.925;    0.000
313.936; 3330.675;  199.925;    0.000
313.998; 3365.675;  164.925;    0.000
314.059; 3371.675;  159.925;    0.000
314.120; 3288.675;  175.925;    0.000
314.182; 3319.675;  181.925;    0.000
314.243; 3286.675;  157.925;    0.000
314.304; 3450.675;  168.925;    0.000
314.365; 3405.675;  203.925;    0.000
314.427; 3457.675;  151.925;    0.000
314.488; 3343.675;  174.925;    0.000
314.549; 3384.675;  184.925;    0.000
314.610; 3422.675;  198.925;    0.000
314.672; 3400.675;  193.925;    0.000
314.733; 3396.675;  171.925;    0.000
314.794; 3279.675;  141.925;    0.000
314.855; 3265.675;  184.925;    0.000
314.917; 3300.675;  175.925;    0.000
314.978; 3441.675;  190.925;    0.000
315.039; 3355.675;  183.925;    0.000
315.100; 3425.675;  204.925;    0.000
315.161; 3366.675;  202.925;    0.000
315.222; 3409.675;  177.925;    0.000
315.283; 3348.675;  191.925;    0.000
315.345; 3381.675;  185.925;    0.000
315.406; 3318.675;  194.925;    0.000
315.467; 3236.675;  167.925;    0.000
315.528; 3320.675;  174.925;    0.000
315.589; 3255.675;  197.925;    0.000
315.650; 3300.675;  192.925;    0.000
315.711; 3344.675;  181.925;    0.000
315.772; 3369.675;  157.925;    0.000
315.833; 3427.675;  189.925;    0.000
315.894; 3415.675;  184.925;    0.000
315.955; 3449.675;  202.925;    0.000
316.016; 3433.675;  220.925;    0.000
316.078; 3350.675;  180.925;    0.000
316.139; 3411.675;  240.925;    0.000
316.200; 3211.675;  190.925;    0.000
316.261; 3426.675;  179.925;    0.000
316.322; 3260.675;  176.925;    0.000
316.383; 3216.675;  188.925;    0.000
316.444; 3395.675;  228.925;    0.000
316.504; 3265.675;  199.925;    0.000
316.565; 3364.675;  221.925;    0.000
316.626; 3335.675;  204.925;    0.000
316.687; 3233.675;  192.925;    0.000
316.748; 3225.675;  220.925;    0.000
316.809; 3334.675;  175.925;    0.000
316.870; 3199.675;  164.925;    0.000
316.931; 3379.675;  208.925;    0.000
316.992; 3318.675;  224.925;    0.000
317.053; 3246.675;  204.925;    0.000
317.114; 3288.675;  199.925;    0.000
317.175; 3353.675;  230.925;    0.000
317.235; 3217.675;  186.925;    0.000
317.296; 3234.675;  224.925;    0.000
317.357; 3256.675;  154.925;    0.000
317.418; 3239.675;  219.925;    0.000
317.479; 3288.675;  229.925;    0.000
317.540; 3144.675;  201.925;    0.000
317.601; 3214.675;  180.925;    0.000
317.661; 3293.675;  179.925;    0.000
317.722; 3253.675;  193.925;    0.000
317.783; 3311.675;  164.925;    0.000
317.844; 3563.675;  232.925;    0.000
317.904; 3542.675;  222.925;    0.000
317.965; 3598.675;  199.925;    0.000
318.026; 3574.675;  200.925;    0.000
318.087; 3499.675;  182.925;    0.000
318.148; 3479.675;  216.925;    0.000
318.208; 3424.675;  239.925;    0.000
318.269; 3500.675;  163.925;    0.000
318.330; 3334.675;  204.925;    0.000
318.390; 3331.675;  191.925;    0.000
318.451; 3309.675;  200.925;    0.000
318.512; 3289.675;  181.925;    0.000
318.572; 3233.675;  233.925;    0.000
318.633; 3328.675;  220.925;    0.000
318.694; 3291.675;  179.925;    0.000
318.754; 3268.675;  214.925;    0.000
318.815; 3136.675;  214.925;    0.000
318.876; 3294.675;  220.925;    0.000
318.936; 3283.675;  212.925;    0.000
318.997; 3179.675;  201.925;    0.000
319.058; 3315.675;  215.925;    0.000
319.118; 3339.675;  251.925;    0.000
319.179; 3344.675;  240.925;    0.000
319.239; 3245.675;  240.925;    0.000
319.300; 3291.675;  232.925;    0.000
319.361; 3251.675;  211.925;    0.000
319.421; 3219.675;  219.925;    0.000
319.482; 3227.675;  228.925;    0.000
319.542; 3180.675;  216.925;    0.000
319.603; 3221.675;  190.925;    0.000
319.663; 3335.675;  227.925;    0.000
319.724; 3221.675;  191.925;    0.000
319.784; 3211.675;  196.925;    0.000
319.845; 3149.675;  190.925;    0.000
319.905; 3132.675;  221.925;    0.000
319.966; 3155.675;  219.925;    0.000
320.026; 3236.675;  233.925;    0.000
320.087; 3159.675;  204.925;    0.000
320.147; 3190.675;  189.925;    0.000
320.208; 3219.675;  200.925;    0.000
320.268; 3145.675;  217.925;    0.000
320.329; 3149.675;  216.925;    0.000
320.389; 3083.675;  228.925;    0.000
320.449; 3218.675;  236.925;    0.000
320.510; 3221.675;  234.925;    0.000
320.570; 3140.675;  176.925;    0.000
320.631; 3166.675;  228.925;    0.000
320.691; 3193.675;  228.925;    0.000
320.751; 3168.675;  188.925;    0.000
320.812; 3126.675;  223.925;    0.000
320.872; 3245.675;  268.925;    0.000
320.932; 3272.675;  226.925;    0.000
320.993; 3170.675;  216.925;    0.000
321.053; 3287.675;  236.925;    0.000
321.113; 3260.675;  197.925;    0.000
321.174; 3088.675;  218.925;    0.000
321.234; 3263.675;  229.925;    0.000
321.294; 3134.675;  208.925;    0.000
321.355; 3123.675;  248.925;    0.000
321.415; 3157.675;  218.925;    0.000
321.475; 3119.675;  173.925;    0.000
321.535; 3189.675;  234.925;    0.000
321.596; 3184.675;  202.925;    0.000
321.656; 3141.675;  246.925;    0.000
321.716; 3202.675;  235.925;    0.000
321.776; 3233.675;  210.925;    0.000
321.837; 3166.675;  217.925;    0.000
321.897; 3197.675;  215.925;    0.000
321.957; 3162.675;  239.925;    0.000
322.017; 3158.675;  173.925;    0.000
322.077; 3194.675;  263.925;    0.000
322.138; 3154.675;  232.925;    0.000
322.198; 3102.675;  211.925;    0.000
322.258; 3146.675;  213.925;    0.000
322.318; 3098.675;  168.925;    0.000
322.378; 3128.675;  251.925;    0.000
322.438; 3102.675;  212.925;    0.000
322.499; 3200.675;  265.925;    0.000
322.559; 3170.675;  210.925;    0.000
322.619; 3080.675;  242.925;    0.000
322.679; 3049.675;  229.925;    0.000
322.739; 3160.675;  216.925;    0.000
322.799; 3199.675;  238.925;    0.000
322.859; 3128.675;  249.925;    0.000
322.919; 3167.675;  211.925;    0.000
322.979; 3196.675;  244.925;    0.000
323.039; 3045.675;  226.925;    0.000
323.099; 3143.675;  223.925;    0.000
323.159; 3077.675;  232.925;    0.000
323.219; 3061.675;  203.925;    0.000
323.279; 3265.675;  218.925;    0.000
323.339; 3234.675;  231.925;    0.000
323.399; 3277.675;  255.925;    0.000
323.459; 3122.675;  244.925;    0.000
323.519; 3274.675;  213.925;    0.000
323.579; 3230.675;  193.925;    0.000
323.639; 3186.675;  191.925;    0.000
323.699; 3068.675;  199.925;    0.000
323.759; 3146.675;  246.925;    0.000
323.819; 3128.675;  206.925;    0.000
323.879; 3176.675;  238.925;    0.000
323.939; 3180.675;  229.925;    0.000
323.999; 3075.675;  219.925;    0.000
324.059; 3152.675;  177.925;    0.000
324.119; 3109.675;  235.925;    0.000
324.178; 3067.675;  211.925;    0.000
324.238; 3057.675;  168.925;    0.000
324.298; 3021.675;  205.925;    0.000
324.358; 3087.675;  224.925;    0.000
324.418; 3038.675;  235.925;    0.000
324.478; 3027.675;  187.925;    0.000
324.538; 3150.675;  230.925;    0.000
324.597; 3000.675;  206.925;    0.000
324.657; 3049.675;  180.925;    0.000
324.717; 3250.675;  175.925;    0.000
324.777; 3133.675;  169.925;    0.000
324.837; 3042.675;  165.925;    0.000
324.896; 3085.675;  205.925;    0.000
324.956; 2994.675;  216.925;    0.000
325.016; 3004.675;  197.925;    0.000
325.076; 3134.675;  220.925;    0.000
325.135; 3132.675;  242.925;    0.000
325.195; 3102.675;  186.925;    0.000
325.255; 3036.675;  160.925;    0.000
325.315; 3101.675;  198.925;    0.000
325.374; 3162.675;  208.925;    0.000
325.434; 3159.675;  209.925;    0.000
325.494; 3062.675;  191.925;    0.000
325.553; 3155.675;  190.925;    0.000
325.613; 3090.675;  229.925;    0.000
325.673; 3078.675;  172.925;    0.000
325.732; 3053.675;  160.925;    0.000
325.792; 3024.675;  177.925;    0.000
325.852; 3127.675;  201.925;    0.000
325.911; 3112.675;  226.925;    0.000
325.971; 3140.675;  224.925;    0.000
326.031; 3086.675;  202.925;    0.000
326.090; 3051.675;  232.925;    0.000
326.150; 3089.675;  230.925;    0.000
326.209; 3161.675;  201.925;    0.000
326.269; 3017.675;  202.925;    0.000
326.328; 3008.675;  203.925;    0.000
326.388; 3117.675;  194.925;    0.000
326.448; 3180.675;  233.925;    0.000
326.507; 3020.675;  192.925;    0.000
326.567; 2960.675;  163.925;    0.000
326.626; 3007.675;  227.925;    0.000
326.686; 2970.675;  177.925;    0.000
326.745; 3029.675;  210.925;    0.000
326.805; 3077.675;  198.925;    0.000
326.864; 3011.675;  185.925;    0.000
326.924; 2983.675;  255.925;    0.000
326.983; 3022.675;  208.925;    0.000
327.043; 3004.675;  241.925;    0.000
327.102; 2976.675;  183.925;    0.000
327.161; 3027.675;  210.925;    0.000
327.221; 3043.675;  213.925;    0.000
327.280; 2970.675;  194.925;    0.000
327.340; 3035.675;  212.925;    0.000
327.399; 3101.675;  209.925;    0.000
327.459; 2991.675;  229.925;    0.000
327.518; 3005.675;  196.925;    0.000
327.577; 2924.675;  197.925;    0.000
327.637; 2891.675;  210.925;    0.000
327.696; 2970.675;  196.925;    0.000
327.755; 2915.675;  216.925;    0.000
327.815; 3006.675;  240.925;    0.000
327.874; 2975.675;  250.925;    0.000
327.933; 3001.675;  229.925;    0.000
327.993; 2996.675;  202.925;    0.000
328.052; 2983.675;  178.925;    0.000
328.111; 3032.675;  230.925;    0.000
328.171; 2991.675;  207.925;    0.000
328.230; 2972.675;  170.925;    0.000
328.289; 3025.675;  205.925;    0.000
328.349; 2973.675;  235.925;    0.000
328.408; 3005.675;  231.925;    0.000
328.467; 2959.675;  217.925;    0.000
328.526; 2993.675;  239.925;    0.000
328.586; 3048.675;  214.925;    0.000
328.645; 3002.675;  205.925;    0.000
328.704; 3000.675;  211.925;    0.000
328.763; 2927.675;  208.925;    0.000
328.822; 3040.675;  251.925;    0.000
328.882; 3027.675;  211.925;    0.000
328.941; 2990.675;  232.925;    0.000
329.000; 2973.675;  235.925;    0.000
329.059; 2889.675;  222.925;    0.000
329.118; 3043.675;  265.925;    0.000
329.177; 2947.675;  237.925;    0.000
329.237; 3020.675;  258.925;    0.000
329.296; 2964.675;  225.925;    0.000
329.355; 2966.675;  227.925;    0.000
329.414; 3003.675;  212.925;    0.000
329.473; 3001.675;  250.925;    0.000
329.532; 3093.675;  263.925;    0.000
329.591; 2919.675;  212.925;    0.000
329.650; 2908.675;  219.925;    0.000
329.709; 2991.675;  218.925;    0.000
329.768; 3056.675;  195.925;    0.000
329.827; 3074.675;  223.925;    0.000
329.886; 3067.675;  230.925;    0.000
329.945; 3123.675;  211.925;    0.000
330.004; 3203.675;  247.925;    0.000
330.063; 3201.675;  193.925;    0.000
330.122; 3556.675;  229.925;    0.000
330.181; 3961.675;  223.925;    0.000
330.240; 3971.675;  199.925;    0.000
330.299; 3675.675;  211.925;    0.000
330.358; 3200.675;  198.925;    0.000
330.417; 2915.675;  190.925;    0.000
330.476; 3004.675;  237.925;    0.000
330.535; 2943.675;  239.925;    0.000
330.594; 3001.675;  207.925;    0.000
330.653; 2975.675;  193.925;    0.000
330.712; 2921.675;  225.925;    0.000
330.771; 2915.675;  236.925;    0.000
330.830; 2929.675;  219.925;    0.000
330.889; 2946.675;  211.925;    0.000
330.948; 2835.675;  194.925;    0.000
331.006; 2868.675;  190.925;    0.000
331.065; 2877.675;  192.925;    0.000
331.124; 2984.675;  195.925;    0.000
331.183; 2862.675;  191.925;    0.000
331.242; 2961.675;  203.925;    0.000
331.301; 2811.675;  183.925;    0.000
331.359; 2816.675;  196.925;    0.000
331.418; 2877.675;  209.925;    0.000
331.477; 2868.675;  255.925;    0.000
331.536; 2852.675;  237.925;    0.000
331.595; 2869.675;  217.925;    0.000
331.653; 2795.675;  198.925;    0.000
331.712; 2846.675;  194.925;    0.000
331.771; 2781.675;  229.925;    0.000
331.830; 2801.675;  254.925;    0.000
331.888; 2860.675;  218.925;    0.000
331.947; 2873.675;  211.925;    0.000
332.006; 2852.675;  261.925;    0.000
332.065; 2792.675;  204.925;    0.000
332.123; 2856.675;  225.925;    0.000
332.182; 2825.675;  193.925;    0.000
332.241; 2878.675;  201.925;    0.000
332.299; 2819.675;  182.925;    0.000
332.358; 2969.675;  244.925;    0.000
332.417; 2845.675;  218.925;    0.000
332.475; 2860.675;  218.925;    0.000
332.534; 2854.675;  228.925;    0.000
332.592; 2901.675;  199.925;    0.000
332.651; 2952.675;  204.925;    0.000
332.710; 2918.675;  217.925;    0.000
332.768; 2921.675;  195.925;    0.000
332.827; 2914.675;  182.925;    0.000
332.885; 2974.675;  247.925;    0.000
332.944; 3009.675;  170.925;    0.000
333.003; 3008.675;  200.925;    0.000
333.061; 2954.675;  243.925;    0.000
333.120; 3040.675;  235.925;    0.000
333.178; 3112.675;  195.925;    0.000
333.237; 3122.675;  217.925;    0.000
333.295; 3131.675;  252.925;    0.000
333.354; 2978.675;  201.925;    0.000
333.412; 3007.675;  181.925;    0.000
333.471; 3059.675;  239.925;    0.000
333.529; 3116.675;  214.925;    0.000
333.588; 3185.675;  232.925;    0.000
333.646; 3150.675;  202.925;    0.000
333.705; 3177.675;  232.925;    0.000
333.763; 3253.675;  215.925;    0.000
333.822; 3161.675;  187.925;    0.000
333.880; 3074.675;  186.925;    0.000
333.938; 3134.675;  185.925;    0.000
333.997; 3078.675;  234.925;    0.000
334.055; 3098.675;  255.925;    0.000
334.114; 3076.675;  225.925;    0.000
334.172; 3094.675;  209.925;    0.000
334.230; 3042.675;  194.925;    0.000
334.289; 3108.675;  213.925;    0.000
334.347; 2998.675;  235.925;    0.000
334.405; 3167.675;  242.925;    0.000
334.464; 3038.675;  208.925;    0.000
334.522; 2994.675;  197.925;    0.000
334.580; 2937.675;  204.925;    0.000
334.639; 3000.675;  217.925;    0.000
334.697; 2915.675;  183.925;    0.000
334.755; 3014.675;  196.925;    0.000
334.814; 2968.675;  216.925;    0.000
334.872; 3124.675;  190.925;    0.000
334.930; 3103.675;  162.925;    0.000
334.988; 3039.675;  261.925;    0.000
335.047; 3002.675;  220.925;    0.000
335.105; 2997.675;  190.925;    0.000
335.163; 2973.675;  201.925;    0.000
335.221; 3021.675;  213.925;    0.000
335.280; 2985.675;  202.925;    0.000
335.338; 3018.675;  210.925;    0.000
335.396; 3108.675;  255.925;    0.000
335.454; 2950.675;  216.925;    0.000
335.512; 2982.675;  242.925;    0.000
335.570; 2894.675;  227.925;    0.000
335.629; 3010.675;  225.925;    0.000
335.687; 2943.675;  227.925;    0.000
335.745; 2964.675;  194.925;    0.000
335.803; 3070.675;  221.925;    0.000
335.861; 2948.675;  217.925;    0.000
335.919; 3088.675;  214.925;    0.000
335.977; 3027.675;  209.925;    0.000
336.035; 2965.675;  215.925;    0.000
336.094; 2914.675;  198.925;    0.000
336.152; 2997.675;  222.925;    0.000
336.210; 3003.675;  225.925;    0.000
336.268; 2897.675;  234.925;    0.000
336.326; 2940.675;  209.925;    0.000
336.384; 3028.675;  271.925;    0.000
336.442; 2972.675;  207.925;    0.000
336.500; 2957.675;  226.925;    0.000
336.558; 3006.675;  219.925;    0.000
336.616; 3101.675;  260.925;    0.000
336.674; 2995.675;  205.925;    0.000
336.732; 2981.675;  225.925;    0.000
336.790; 3098.675;  191.925;    0.000
336.848; 3036.675;  219.925;    0.000
336.906; 2974.675;  230.925;    0.000
336.964; 3039.675;  226.925;    0.000
337.022; 3004.675;  266.925;    0.000
337.080; 3042.675;  231.925;    0.000
337.138; 3033.675;  249.925;    0.000
337.195; 2902.675;  207.925;    0.000
337.253; 2899.675;  207.925;    0.000
337.311; 2907.675;  225.925;    0.000
337.369; 2848.675;  211.925;    0.000
337.427; 2808.675;  196.925;    0.000
337.485; 2836.675;  269.925;    0.000
337.543; 2865.675;  227.925;    0.000
337.601; 2911.675;  260.925;    0.000
337.658; 2861.675;  237.925;    0.000
337.716; 2871.675;  222.925;    0.000
337.774; 2791.675;  256.925;    0.000
337.832; 2872.675;  223.925;    0.000
337.890; 2859.675;  188.925;    0.000
337.947; 2880.675;  212.925;    0.000
338.005; 2793.675;  217.925;    0.000
338.063; 2833.675;  200.925;    0.000
338.121; 2789.675;  217.925;    0.000
338.178; 2797.675;  236.925;    0.000
338.236; 2935.675;  218.925;    0.000
338.294; 2870.675;  238.925;    0.000
338.352; 2926.675;  266.925;    0.000
338.409; 2924.675;  240.925;    0.000
338.467; 2844.675;  210.925;    0.000
338.525; 2883.675;  255.925;    0.000
338.583; 2792.675;  239.925;    0.000
338.640; 2716.675;  243.925;    0.000
338.698; 2793.675;  204.925;    0.000
338.756; 2833.675;  219.925;    0.000
338.813; 2887.675;  227.925;    0.000
338.871; 2877.675;  227.925;    0.000
338.928; 2923.675;  211.925;    0.000
338.986; 2832.675;  254.925;    0.000
339.044; 2830.675;  207.925;    0.000
339.101; 2887.675;  229.925;    0.000
339.159; 2782.675;  237.925;    0.000
339.216; 2717.675;  231.925;    0.000
339.274; 2803.675;  301.925;    0.000
339.332; 2792.675;  259.925;    0.000
339.389; 2799.675;  258.925;    0.000
339.447; 2806.675;  226.925;    0.000
339.504; 2788.675;  229.925;    0.000
339.562; 2837.675;  244.925;    0.000
339.619; 2793.675;  265.925;    0.000
339.677; 2765.675;  253.925;    0.000
339.734; 2720.675;  191.925;    0.000
339.792; 2775.675;  238.925;    0.000
339.849; 2782.675;  236.925;    0.000
339.907; 2782.675;  254.925;    0.000
339.964; 2708.675;  196.925;    0.000
340.022; 2751.675;  247.925;    0.000
340.079; 2809.675;  275.925;    0.000
340.137; 2766.675;  248.925;    0.000
340.194; 2828.675;  263.925;    0.000
340.252; 2829.675;  266.925;    0.000
340.309; 2745.675;  211.925;    0.000
340.366; 2782.675;  237.925;    0.000
340.424; 2724.675;  260.925;    0.000
340.481; 2741.675;  255.925;    0.000
340.538; 2750.675;  235.925;    0.000
340.596; 2724.675;  225.925;    0.000
340.653; 2748.675;  230.925;    0.000
340.711; 2803.675;  272.925;    0.000
340.768; 2806.675;  253.925;    0.000
340.825; 2900.675;  201.925;    0.000
340.883; 2893.675;  232.925;    0.000
340.940; 2763.675;  247.925;    0.000
340.997; 2715.675;  244.925;    0.000
341.054; 2764.675;  244.925;    0.000
341.112; 2697.675;  258.925;    0.000
341.169; 2784.675;  238.925;    0.000
341.226; 2765.675;  213.925;    0.000
341.284; 2803.675;  240.925;    0.000
341.341; 2693.675;  194.925;    0.000
341.398; 2804.675;  191.925;    0.000
341.455; 2813.675;  227.925;    0.000
341.512; 2802.675;  238.925;    0.000
341.570; 2849.675;  236.925;    0.000
341.627; 2772.675;  241.925;    0.000
341.684; 2767.675;  225.925;    0.000
341.741; 2834.675;  299.925;    0.000
341.798; 2710.675;  265.925;    0.000
341.856; 2666.675;  230.925;    0.000
341.913; 2751.675;  234.925;    0.000
341.970; 2827.675;  260.925;    0.000
342.027; 2732.675;  255.925;    0.000
342.084; 2778.675;  260.925;    0.000
342.141; 2832.675;  263.925;    0.000
342.198; 2819.675;  245.925;    0.000
342.255; 2845.675;  210.925;    0.000
342.313; 2787.675;  251.925;    0.000
342.370; 2872.675;  234.925;    0.000
342.427; 2777.675;  249.925;    0.000
342.484; 2739.675;  254.925;    0.000
342.541; 2832.675;  229.925;    0.000
342.598; 2767.675;  255.925;    0.000
342.655; 2907.675;  225.925;    0.000
342.712; 2864.675;  224.925;    0.000
342.769; 2721.675;  215.925;    0.000
342.826; 2823.675;  240.925;    0.000
342.883; 2767.675;  233.925;    0.000
342.940; 2707.675;  212.925;    0.000
342.997; 2865.675;  236.925;    0.000
343.054; 2820.675;  255.925;    0.000
343.111; 2795.675;  228.925;    0.000
343.168; 2835.675;  230.925;    0.000
343.225; 2879.675;  258.925;    0.000
343.282; 2908.675;  202.925;    0.000
343.339; 2883.675;  253.925;    0.000
343.395; 3013.675;  232.925;    0.000
343.452; 2893.675;  253.925;    0.000
343.509; 2893.675;  213.925;    0.000
343.566; 3045.675;  259.925;    0.000
343.623; 2993.675;  244.925;    0.000
343.680; 3014.675;  232.925;    0.000
343.737; 3074.675;  222.925;    0.000
343.794; 3114.675;  204.925;    0.000
343.850; 3080.675;  249.925;    0.000
343.907; 3050.675;  212.925;    0.000
343.964; 3206.675;  226.925;    0.000
344.021; 3224.675;  251.925;    0.000
344.078; 3278.675;  246.925;    0.000
344.134; 3141.675;  218.925;    0.000
344.191; 3092.675;  244.925;    0.000
344.248; 3088.675;  211.925;    0.000
344.305; 3049.675;  221.925;    0.000
344.361; 3158.675;  247.925;    0.000
344.418; 3036.675;  265.925;    0.000
344.475; 3133.675;  254.925;    0.000
344.532; 3017.675;  233.925;    0.000
344.588; 3042.675;  236.925;    0.000
344.645; 3092.675;  249.925;    0.000
344.702; 2915.675;  220.925;    0.000
344.758; 2972.675;  255.925;    0.000
344.815; 2994.675;  236.925;    0.000
344.872; 2954.675;  218.925;    0.000
344.928; 3001.675;  230.925;    0.000
344.985; 2941.675;  222.925;    0.000
345.042; 2973.675;  199.925;    0.000
345.098; 2952.675;  226.925;    0.000
345.155; 3022.675;  245.925;    0.000
345.212; 2974.675;  225.925;    0.000
345.268; 2954.675;  237.925;    0.000
345.325; 2954.675;  213.925;    0.000
345.381; 2929.675;  267.925;    0.000
345.438; 2970.675;  240.925;    0.000
345.495; 2956.675;  254.925;    0.000
345.551; 3074.675;  248.925;    0.000
345.608; 2920.675;  196.925;    0.000
345.664; 2970.675;  245.925;    0.000
345.721; 2966.675;  252.925;    0.000
345.777; 2893.675;  245.925;    0.000
345.834; 2872.675;  210.925;    0.000
345.890; 3007.675;  244.925;    0.000
345.947; 2896.675;  238.925;    0.000
346.003; 2960.675;  224.925;    0.000
346.060; 2840.675;  206.925;    0.000
346.116; 2931.675;  237.925;    0.000
346.173; 2923.675;  242.925;    0.000
346.229; 2961.675;  269.925;    0.000
346.285; 2913.675;  262.925;    0.000
346.342; 2919.675;  263.925;    0.000
346.398; 3009.675;  224.925;    0.000
346.455; 2885.675;  237.925;    0.000
346.511; 3088.675;  216.925;    0.000
346.567; 3030.675;  211.925;    0.000
346.624; 2993.675;  225.925;    0.000
346.680; 3086.675;  242.925;    0.000
346.737; 2992.675;  244.925;    0.000
346.793; 3049.675;  260.925;    0.000
346.849; 2996.675;  251.925;    0.000
346.906; 3044.675;  260.925;    0.000
346.962; 3122.675;  267.925;    0.000
347.018; 3019.675;  246.925;    0.000
347.074; 2964.675;  272.925;    0.000
347.131; 3027.675;  211.925;    0.000
347.187; 2927.675;  240.925;    0.000
347.243; 3018.675;  233.925;    0.000
347.300; 3041.675;  225.925;    0.000
347.356; 3041.675;  236.925;    0.000
347.412; 3033.675;  237.925;    0.000
347.468; 3019.675;  284.925;    0.000
347.524; 3156.675;  252.925;    0.000
347.581; 3022.675;  278.925;    0.000
347.637; 3098.675;  262.925;    0.000
347.693; 3062.675;  268.925;    0.000
347.749; 3069.675;  260.925;    0.000
347.805; 3081.675;  224.925;    0.000
347.862; 3002.675;  243.925;    0.000
347.918; 3076.675;  257.925;    0.000
347.974; 2980.675;  248.925;    0.000
348.030; 3098.675;  242.925;    0.000
348.086; 3060.675;  234.925;    0.000
348.142; 3022.675;  239.925;    0.000
348.198; 3093.675;  260.925;    0.000
348.254; 3105.675;  262.925;    0.000
348.311; 3034.675;  263.925;    0.000
348.367; 3127.675;  235.925;    0.000
348.423; 3050.675;  205.925;    0.000
348.479; 2956.675;  234.925;    0.000
348.535; 3116.675;  257.925;    0.000
348.591; 3012.675;  267.925;    0.000
348.647; 3137.675;  243.925;    0.000
348.703; 3052.675;  278.925;    0.000
348.759; 3183.675;  259.925;    0.000
348.815; 3137.675;  288.925;    0.000
348.871; 3043.675;  269.925;    0.000
348.927; 3096.675;  239.925;    0.000
348.983; 3129.675;  289.925;    0.000
349.039; 3201.675;  221.925;    0.000
349.095; 3110.675;  252.925;    0.000
349.151; 3131.675;  226.925;    0.000
349.207; 3071.675;  263.925;    0.000
349.263; 3114.675;  194.925;    0.000
349.319; 3194.675;  212.925;    0.000
349.374; 3140.675;  236.925;    0.000
349.430; 3041.675;  229.925;    0.000
349.486; 3175.675;  247.925;    0.000
349.542; 3122.675;  263.925;    0.000
349.598; 3160.675;  248.925;    0.000
349.654; 3225.675;  252.925;    0.000
349.710; 3200.675;  230.925;    0.000
349.766; 3169.675;  201.925;    0.000
349.821; 3168.675;  229.925;    0.000
349.877; 3203.675;  282.925;    0.000
349.933; 3166.675;  240.925;    0.000
349.989; 3153.675;  251.925;    0.000
350.045; 3150.675;  240.925;    0.000
350.100; 3129.675;  256.925;    0.000
350.156; 3165.675;  243.925;    0.000
350.212; 3134.675;  250.925;    0.000
350.268; 3056.675;  251.925;    0.000
350.323; 3136.675;  208.925;    0.000
350.379; 3084.675;  244.925;    0.000
350.435; 3108.675;  237.925;    0.000
350.491; 3090.675;  201.925;    0.000
350.546; 3115.675;  225.925;    0.000
350.602; 3093.675;  260.925;    0.000
350.658; 3161.675;  224.925;    0.000
350.713; 3047.675;  264.925;    0.000
350.769; 3100.675;  196.925;    0.000
350.825; 3003.675;  202.925;    0.000
350.880; 3128.675;  232.925;    0.000
350.936; 3156.675;  242.925;    0.000
350.992; 3119.675;  238.925;    0.000
351.047; 3179.675;  242.925;    0.000
351.103; 3189.675;  199.925;    0.000
351.158; 3109.675;  242.925;    0.000
351.214; 3095.675;  225.925;    0.000
351.270; 3083.675;  197.925;    0.000
351.325; 3117.675;  231.925;    0.000
351.381; 3102.675;  215.925;    0.000
351.436; 3138.675;  233.925;    0.000
351.492; 3215.675;  216.925;    0.000
351.547; 3175.675;  244.925;    0.000
351.603; 3160.675;  249.925;    0.000
351.658; 3178.675;  249.925;    0.000
351.714; 3120.675;  222.925;    0.000
351.769; 3241.675;  222.925;    0.000
351.825; 3295.675;  226.925;    0.000
351.880; 3169.675;  238.925;    0.000
351.936; 3182.675;  230.925;    0.000
351.991; 3163.675;  243.925;    0.000
352.047; 3168.675;  201.925;    0.000
352.102; 3121.675;  243.925;    0.000
352.158; 3034.675;  193.925;    0.000
352.213; 3154.675;  219.925;    0.000
352.268; 3057.675;  205.925;    0.000
352.324; 3107.675;  246.925;    0.000
352.379; 3176.675;  247.925;    0.000
352.434; 3198.675;  252.925;    0.000
352.490; 3212.675;  205.925;    0.000
352.545; 3262.675;  262.925;    0.000
352.601; 3171.675;  229.925;    0.000
352.656; 3163.675;  207.925;    0.000
352.711; 3144.675;  228.925;    0.000
352.767; 3139.675;  216.925;    0.000
352.822; 3240.675;  219.925;    0.000
352.877; 3179.675;  234.925;    0.000
352.932; 3233.675;  249.925;    0.000
352.988; 3247.675;  196.925;    0.000
353.043; 3263.675;  228.925;    0.000
353.098; 3207.675;  231.925;    0.000
353.153; 3273.675;  235.925;    0.000
353.209; 3222.675;  250.925;    0.000
353.264; 3175.675;  212.925;    0.000
353.319; 3277.675;  234.925;    0.000
353.374; 3087.675;  245.925;    0.000
353.430; 3064.675;  261.925;    0.000
353.485; 3294.675;  249.925;    0.000
353.540; 3219.675;  260.925;    0.000
353.595; 3172.675;  219.925;    0.000
353.650; 3265.675;  242.925;    0.000
353.705; 3177.675;  244.925;    0.000
353.761; 3280.675;  242.925;    0.000
353.816; 3139.675;  214.925;    0.000
353.871; 3177.675;  237.925;    0.000
353.926; 3180.675;  233.925;    0.000
353.981; 3178.675;  250.925;    0.000
354.036; 3133.675;  239.925;    0.000
354.091; 3289.675;  289.925;    0.000
354.146; 3204.675;  282.925;    0.000
354.201; 3225.675;  244.925;    0.000
354.256; 3150.675;  257.925;    0.000
354.311; 3256.675;  305.925;    0.000
354.367; 3256.675;  220.925;    0.000
354.422; 3247.675;  261.925;    0.000
354.477; 3250.675;  212.925;    0.000
354.532; 3342.675;  254.925;    0.000
354.587; 3187.675;  252.925;    0.000
354.642; 3249.675;  210.925;    0.000
354.697; 3209.675;  232.925;    0.000
354.751; 3294.675;  254.925;    0.000
354.806; 3234.675;  233.925;    0.000
354.861; 3217.675;  244.925;    0.000
354.916; 3244.675;  235.925;    0.000
354.971; 3322.675;  258.925;    0.000
355.026; 3248.675;  251.925;    0.000
355.081; 3294.675;  254.925;    0.000
355.136; 3182.675;  212.925;    0.000
355.191; 3291.675;  211.925;    0.000
355.246; 3202.675;  237.925;    0.000
355.301; 3259.675;  255.925;    0.000
355.355; 3224.675;  231.925;    0.000
355.410; 3278.675;  224.925;    0.000
355.465; 3293.675;  235.925;    0.000
355.520; 3246.675;  244.925;    0.000
355.575; 3279.675;  267.925;    0.000
355.630; 3307.675;  255.925;    0.000
355.684; 3232.675;  254.925;    0.000
355.739; 3268.675;  217.925;    0.000
355.794; 3262.675;  206.925;    0.000
355.849; 3281.675;  221.925;    0.000
355.904; 3245.675;  257.925;    0.000
355.958; 3311.675;  221.925;    0.000
356.013; 3277.675;  192.925;    0.000
356.068; 3242.675;  267.925;    0.000
356.123; 3320.675;  218.925;    0.000
356.177; 3346.675;  236.925;    0.000
356.232; 3267.675;  236.925;    0.000
356.287; 3268.675;  246.925;    0.000
356.341; 3278.675;  241.925;    0.000
356.396; 3245.675;  219.925;    0.000
356.451; 3338.675;  244.925;    0.000
356.505; 3427.675;  248.925;    0.000
356.560; 3345.675;  267.925;    0.000
356.615; 3382.675;  258.925;    0.000
356.669; 3296.675;  291.925;    0.000
356.724; 3304.675;  272.925;    0.000
356.778; 3347.675;  244.925;    0.000
356.833; 3256.675;  223.925;    0.000
356.888; 3328.675;  245.925;    0.000
356.942; 3585.675;  221.925;    0.000
356.997; 3643.675;  254.925;    0.000
357.051; 3491.675;  244.925;    0.000
357.106; 3315.675;  227.925;    0.000
357.160; 3287.675;  176.925;    0.000
357.215; 3342.675;  234.925;    0.000
357.269; 3201.675;  233.925;    0.000
357.324; 3329.675;  232.925;    0.000
357.378; 3221.675;  211.925;    0.000
357.433; 3267.675;  252.925;    0.000
357.487; 3206.675;  227.925;    0.000
357.542; 3262.675;  246.925;    0.000
357.596; 3300.675;  260.925;    0.000
357.651; 3384.675;  301.925;    0.000
357.705; 3387.675;  230.925;    0.000
357.760; 3474.675;  211.925;    0.000
357.814; 3846.675;  265.925;    0.000
357.868; 3873.675;  220.925;    0.000
357.923; 3447.675;  220.925;    0.000
357.977; 3247.675;  245.925;    0.000
358.032; 3582.675;  247.925;    0.000
358.086; 3786.675;  242.925;    0.000
358.140; 3720.675;  270.925;    0.000
358.195; 3409.675;  242.925;    0.000
358.249; 3313.675;  238.925;    0.000
358.303; 3364.675;  285.925;    0.000
358.358; 3374.675;  265.925;    0.000
358.412; 3335.675;  265.925;    0.000
358.466; 3356.675;  257.925;    0.000
358.521; 3376.675;  251.925;    0.000
358.575; 3317.675;  254.925;    0.000
358.629; 3312.675;  278.925;    0.000
358.683; 3353.675;  288.925;    0.000
358.738; 3265.675;  302.925;    0.000
358.792; 3289.675;  239.925;    0.000
358.846; 3264.675;  293.925;    0.000
358.900; 3267.675;  271.925;    0.000
358.954; 3264.675;  300.925;    0.000
359.009; 3292.675;  279.925;    0.000
359.063; 3248.675;  249.925;    0.000
359.117; 3255.675;  264.925;    0.000
359.171; 3411.675;  279.925;    0.000
359.225; 3357.675;  276.925;    0.000
359.280; 3595.675;  237.925;    0.000
359.334; 3629.675;  280.925;    0.000
359.388; 3589.675;  282.925;    0.000
359.442; 3329.675;  243.925;    0.000
359.496; 3222.675;  204.925;    0.000
359.550; 3369.675;  308.925;    0.000
359.604; 3372.675;  264.925;    0.000
359.658; 3278.675;  247.925;    0.000
359.712; 3320.675;  273.925;    0.000
359.766; 3228.675;  212.925;    0.000
359.820; 3270.675;  228.925;    0.000
359.875; 3307.675;  248.925;    0.000
359.929; 3382.675;  271.925;    0.000
359.983; 3307.675;  274.925;    0.000
360.037; 3359.675;  262.925;    0.000
360.091; 3256.675;  302.925;    0.000
360.145; 3251.675;  244.925;    0.000
360.199; 3298.675;  253.925;    0.000
360.253; 3273.675;  285.925;    0.000
360.306; 3389.675;  287.925;    0.000
360.360; 3381.675;  267.925;    0.000
360.414; 3307.675;  250.925;    0.000
360.468; 3742.675;  270.925;    0.000
360.522; 3696.675;  276.925;    0.000
360.576; 3638.675;  269.925;    0.000
360.630; 3340.675;  281.925;    0.000
360.684; 3381.675;  291.925;    0.000
360.738; 3274.675;  325.925;    0.000
360.792; 3451.675;  320.925;    0.000
360.846; 3478.675;  276.925;    0.000
360.899; 3347.675;  314.925;    0.000
360.953; 3330.675;  275.925;    0.000
361.007; 3310.675;  292.925;    0.000
361.061; 3257.675;  278.925;    0.000
361.115; 3188.675;  264.925;    0.000
361.168; 3303.675;  317.925;    0.000
361.222; 3294.675;  277.925;    0.000
361.276; 3184.675;  274.925;    0.000
361.330; 3262.675;  269.925;    0.000
361.384; 3303.675;  280.925;    0.000
361.437; 3243.675;  304.925;    0.000
361.491; 3232.675;  256.925;    0.000
361.545; 3317.675;  293.925;    0.000
361.599; 3264.675;  284.925;    0.000
361.652; 3281.675;  274.925;    0.000
361.706; 3351.675;  284.925;    0.000
361.760; 3355.675;  260.925;    0.000
361.813; 3468.675;  272.925;    0.000
361.867; 3499.675;  300.925;    0.000
361.921; 3294.675;  275.925;    0.000
361.974; 3301.675;  258.925;    0.000
362.028; 3325.675;  248.925;    0.000
362.082; 3363.675;  252.925;    0.000
362.135; 3211.675;  240.925;    0.000
362.189; 3210.675;  259.925;    0.000
362.242; 3348.675;  267.925;    0.000
362.296; 3276.675;  280.925;    0.000
362.350; 3299.675;  282.925;    0.000
362.403; 3309.675;  288.925;    0.000
362.457; 3174.675;  253.925;    0.000
362.510; 3351.675;  323.925;    0.000
362.564; 3259.675;  286.925;    0.000
362.617; 3293.675;  317.925;    0.000
362.671; 3380.675;  286.925;    0.000
362.724; 3216.675;  274.925;    0.000
362.778; 3197.675;  295.925;    0.000
362.831; 3231.675;  289.925;    0.000
362.885; 3240.675;  318.925;    0.000
362.938; 3117.675;  271.925;    0.000
362.992;  359.675;  285.925;    0.000
363.045;  270.675;  291.925;    0.000
363.099;  275.675;  276.925;    0.000
363.152;  327.675;  309.925;    0.000
363.205;  276.675;  263.925;    0.000
363.259;  239.675;  288.925;    0.000
363.312;  328.675;  333.925;    0.000
363.366;  297.675;  328.925;    0.000
363.419;  301.675;  328.925;    0.000
363.472;  281.675;  295.925;    0.000
363.526;  263.675;  334.925;    0.000
363.579;  279.675;  312.925;    0.000
363.632;  300.675;  274.925;    0.000
363.686;  294.675;  282.925;    0.000
363.739;  288.675;  289.925;    0.000
363.792;  265.675;  287.925;    0.000

